CH1,CH2,CH3,CH4
528.0,502.0,543.0,518.0
525.0,499.0,540.0,517.0
519.0,522.0,537.0,518.0
513.0,506.0,531.0,519.0
507.0,501.0,522.0,520.0
501.0,517.0,512.0,519.0
494.0,490.0,499.0,519.0
498.0,502.0,490.0,516.0
502.0,507.0,488.0,511.0
504.0,513.0,485.0,511.0
503.0,513.0,485.0,508.0
510.0,517.0,488.0,510.0
508.0,510.0,496.0,505.0
514.0,511.0,503.0,508.0
521.0,509.0,517.0,510.0
524.0,509.0,527.0,513.0
526.0,508.0,540.0,514.0
529.0,509.0,542.0,515.0
519.0,498.0,536.0,514.0
520.0,496.0,536.0,514.0
507.0,488.0,529.0,515.0
502.0,485.0,516.0,511.0
497.0,498.0,507.0,515.0
499.0,504.0,495.0,513.0
504.0,498.0,491.0,513.0
508.0,501.0,487.0,513.0
503.0,518.0,486.0,513.0
503.0,515.0,490.0,511.0
509.0,507.0,493.0,517.0
507.0,506.0,502.0,510.0
513.0,510.0,511.0,508.0
523.0,521.0,523.0,511.0
528.0,524.0,534.0,511.0
528.0,517.0,542.0,516.0
525.0,512.0,544.0,518.0
519.0,503.0,541.0,517.0
516.0,501.0,539.0,521.0
499.0,483.0,530.0,521.0
496.0,475.0,515.0,522.0
497.0,489.0,505.0,516.0
498.0,500.0,494.0,515.0
501.0,513.0,487.0,511.0
510.0,521.0,486.0,510.0
506.0,512.0,480.0,507.0
511.0,511.0,486.0,507.0
511.0,507.0,492.0,505.0
516.0,504.0,503.0,508.0
519.0,505.0,515.0,509.0
526.0,508.0,525.0,512.0
529.0,509.0,534.0,513.0
529.0,509.0,541.0,514.0
521.0,504.0,539.0,516.0
514.0,502.0,539.0,516.0
508.0,499.0,530.0,516.0
502.0,484.0,517.0,517.0
497.0,480.0,513.0,519.0
498.0,489.0,501.0,521.0
499.0,499.0,497.0,522.0
503.0,515.0,495.0,519.0
508.0,515.0,492.0,519.0
505.0,508.0,493.0,515.0
513.0,516.0,496.0,513.0
513.0,514.0,497.0,508.0
517.0,511.0,506.0,508.0
520.0,506.0,516.0,509.0
523.0,506.0,526.0,508.0
526.0,505.0,535.0,511.0
524.0,502.0,546.0,514.0
519.0,499.0,540.0,511.0
518.0,501.0,533.0,510.0
509.0,490.0,523.0,513.0
503.0,487.0,514.0,510.0
497.0,489.0,503.0,514.0
504.0,500.0,494.0,514.0
503.0,500.0,490.0,514.0
503.0,499.0,486.0,511.0
511.0,504.0,483.0,510.0
506.0,510.0,487.0,511.0
511.0,515.0,488.0,507.0
511.0,497.0,499.0,506.0
512.0,503.0,510.0,509.0
521.0,511.0,522.0,508.0
526.0,503.0,531.0,513.0
524.0,501.0,538.0,515.0
526.0,511.0,541.0,515.0
518.0,497.0,534.0,516.0
516.0,514.0,533.0,514.0
505.0,505.0,525.0,514.0
495.0,503.0,512.0,518.0
497.0,504.0,504.0,518.0
500.0,511.0,495.0,518.0
503.0,517.0,489.0,511.0
507.0,526.0,485.0,514.0
501.0,520.0,488.0,513.0
508.0,521.0,491.0,512.0
505.0,511.0,492.0,512.0
507.0,503.0,506.0,508.0
517.0,505.0,516.0,512.0
524.0,505.0,526.0,511.0
527.0,507.0,537.0,514.0
525.0,504.0,539.0,512.0
520.0,498.0,537.0,515.0
520.0,509.0,537.0,514.0
514.0,498.0,531.0,514.0
502.0,489.0,520.0,517.0
499.0,491.0,507.0,515.0
498.0,498.0,499.0,516.0
505.0,512.0,494.0,516.0
511.0,520.0,489.0,512.0
517.0,532.0,489.0,514.0
513.0,512.0,485.0,511.0
512.0,476.0,489.0,512.0
510.0,481.0,497.0,510.0
513.0,495.0,508.0,507.0
513.0,504.0,514.0,511.0
517.0,512.0,530.0,514.0
523.0,523.0,537.0,515.0
525.0,524.0,542.0,522.0
518.0,507.0,541.0,516.0
516.0,506.0,537.0,516.0
504.0,491.0,528.0,515.0
503.0,499.0,518.0,515.0
500.0,505.0,509.0,519.0
496.0,511.0,498.0,519.0
499.0,503.0,492.0,518.0
502.0,500.0,493.0,515.0
504.0,499.0,489.0,511.0
507.0,503.0,487.0,507.0
504.0,504.0,490.0,511.0
504.0,507.0,499.0,510.0
515.0,522.0,509.0,510.0
521.0,532.0,520.0,511.0
524.0,524.0,533.0,513.0
528.0,520.0,539.0,513.0
528.0,515.0,541.0,510.0
515.0,493.0,536.0,514.0
515.0,488.0,533.0,513.0
504.0,482.0,521.0,515.0
497.0,493.0,511.0,516.0
498.0,494.0,501.0,518.0
504.0,502.0,496.0,515.0
503.0,509.0,493.0,518.0
507.0,512.0,496.0,521.0
501.0,491.0,494.0,512.0
508.0,488.0,496.0,514.0
509.0,495.0,499.0,509.0
514.0,502.0,503.0,508.0
517.0,510.0,510.0,508.0
522.0,524.0,524.0,510.0
525.0,525.0,529.0,511.0
526.0,526.0,538.0,510.0
523.0,519.0,539.0,515.0
523.0,511.0,536.0,515.0
510.0,489.0,533.0,518.0
499.0,486.0,523.0,518.0
502.0,490.0,510.0,516.0
499.0,493.0,499.0,514.0
504.0,505.0,488.0,508.0
507.0,516.0,483.0,505.0
510.0,523.0,481.0,503.0
508.0,505.0,480.0,504.0
508.0,507.0,485.0,504.0
513.0,504.0,494.0,503.0
510.0,505.0,504.0,504.0
518.0,521.0,515.0,505.0
525.0,522.0,527.0,510.0
527.0,514.0,539.0,512.0
531.0,510.0,540.0,514.0
521.0,493.0,539.0,514.0
522.0,495.0,535.0,515.0
510.0,489.0,527.0,515.0
501.0,489.0,517.0,518.0
501.0,502.0,505.0,518.0
498.0,498.0,497.0,519.0
496.0,507.0,491.0,518.0
505.0,525.0,487.0,516.0
509.0,517.0,489.0,511.0
513.0,520.0,493.0,514.0
514.0,517.0,498.0,511.0
507.0,462.0,505.0,514.0
510.0,492.0,512.0,515.0
517.0,512.0,521.0,510.0
518.0,515.0,530.0,512.0
521.0,509.0,538.0,512.0
521.0,498.0,541.0,512.0
511.0,488.0,534.0,510.0
514.0,496.0,533.0,512.0
499.0,487.0,523.0,513.0
496.0,483.0,510.0,518.0
501.0,502.0,500.0,510.0
504.0,507.0,492.0,514.0
506.0,503.0,490.0,515.0
510.0,508.0,486.0,515.0
505.0,503.0,485.0,513.0
509.0,506.0,491.0,511.0
512.0,504.0,497.0,509.0
512.0,508.0,502.0,507.0
515.0,514.0,512.0,511.0
520.0,518.0,526.0,511.0
526.0,517.0,535.0,511.0
524.0,511.0,542.0,516.0
522.0,502.0,543.0,521.0
518.0,502.0,537.0,514.0
508.0,494.0,531.0,516.0
505.0,499.0,520.0,513.0
503.0,504.0,510.0,517.0
501.0,501.0,500.0,519.0
504.0,496.0,492.0,518.0
504.0,492.0,490.0,514.0
510.0,495.0,489.0,512.0
507.0,494.0,488.0,514.0
507.0,513.0,492.0,513.0
506.0,516.0,500.0,512.0
514.0,512.0,509.0,510.0
517.0,505.0,520.0,513.0
522.0,511.0,531.0,515.0
523.0,512.0,539.0,514.0
530.0,515.0,542.0,511.0
522.0,506.0,537.0,511.0
514.0,500.0,539.0,511.0
502.0,494.0,529.0,516.0
498.0,497.0,518.0,513.0
500.0,499.0,507.0,515.0
502.0,501.0,497.0,517.0
504.0,514.0,490.0,514.0
506.0,516.0,485.0,511.0
508.0,515.0,485.0,512.0
509.0,511.0,486.0,509.0
511.0,511.0,490.0,507.0
511.0,510.0,497.0,502.0
515.0,510.0,507.0,505.0
522.0,511.0,520.0,505.0
521.0,504.0,531.0,508.0
525.0,497.0,539.0,511.0
526.0,503.0,540.0,513.0
516.0,499.0,538.0,513.0
517.0,501.0,534.0,513.0
502.0,503.0,524.0,515.0
498.0,504.0,514.0,517.0
497.0,495.0,499.0,516.0
503.0,506.0,491.0,515.0
506.0,504.0,489.0,511.0
506.0,505.0,487.0,513.0
505.0,507.0,488.0,511.0
509.0,511.0,491.0,510.0
506.0,497.0,494.0,514.0
512.0,504.0,505.0,509.0
516.0,508.0,511.0,511.0
524.0,517.0,526.0,516.0
525.0,521.0,537.0,517.0
530.0,515.0,544.0,519.0
524.0,510.0,541.0,519.0
515.0,487.0,541.0,520.0
509.0,484.0,539.0,521.0
499.0,484.0,525.0,519.0
498.0,489.0,508.0,519.0
497.0,494.0,500.0,514.0
500.0,499.0,492.0,515.0
505.0,500.0,485.0,513.0
506.0,501.0,486.0,513.0
504.0,496.0,485.0,511.0
510.0,497.0,490.0,511.0
508.0,506.0,499.0,511.0
515.0,514.0,509.0,511.0
520.0,504.0,517.0,512.0
528.0,505.0,530.0,510.0
529.0,502.0,535.0,512.0
528.0,504.0,541.0,514.0
521.0,496.0,540.0,519.0
517.0,501.0,536.0,512.0
503.0,500.0,528.0,510.0
498.0,506.0,516.0,516.0
497.0,504.0,505.0,515.0
498.0,505.0,500.0,516.0
502.0,507.0,491.0,515.0
504.0,510.0,487.0,516.0
507.0,509.0,489.0,512.0
503.0,505.0,490.0,513.0
511.0,501.0,491.0,511.0
511.0,490.0,502.0,509.0
516.0,491.0,508.0,509.0
524.0,496.0,520.0,508.0
529.0,510.0,534.0,513.0
526.0,517.0,542.0,514.0
529.0,524.0,543.0,517.0
524.0,513.0,542.0,516.0
522.0,505.0,538.0,515.0
506.0,489.0,527.0,517.0
505.0,496.0,515.0,519.0
497.0,516.0,505.0,520.0
498.0,519.0,497.0,518.0
501.0,517.0,491.0,518.0
506.0,522.0,491.0,516.0
506.0,513.0,487.0,514.0
509.0,514.0,489.0,513.0
507.0,510.0,497.0,508.0
514.0,504.0,501.0,506.0
518.0,500.0,512.0,505.0
523.0,508.0,520.0,507.0
528.0,512.0,533.0,510.0
528.0,512.0,539.0,512.0
524.0,513.0,541.0,514.0
515.0,502.0,536.0,514.0
511.0,494.0,532.0,514.0
504.0,491.0,521.0,515.0
500.0,489.0,510.0,515.0
496.0,493.0,500.0,518.0
503.0,506.0,495.0,517.0
505.0,508.0,491.0,518.0
505.0,507.0,493.0,518.0
501.0,505.0,490.0,514.0
513.0,513.0,491.0,509.0
510.0,512.0,494.0,506.0
511.0,508.0,502.0,504.0
517.0,508.0,513.0,507.0
521.0,512.0,532.0,511.0
527.0,513.0,536.0,505.0
525.0,511.0,546.0,515.0
520.0,501.0,540.0,513.0
517.0,505.0,537.0,514.0
504.0,488.0,530.0,515.0
500.0,492.0,514.0,513.0
500.0,509.0,505.0,514.0
500.0,516.0,497.0,517.0
503.0,509.0,492.0,514.0
506.0,506.0,491.0,514.0
504.0,501.0,486.0,511.0
503.0,495.0,491.0,508.0
508.0,512.0,493.0,509.0
508.0,508.0,500.0,506.0
515.0,505.0,509.0,508.0
523.0,508.0,521.0,509.0
529.0,509.0,532.0,509.0
534.0,515.0,541.0,509.0
534.0,515.0,543.0,513.0
523.0,508.0,540.0,515.0
523.0,504.0,535.0,516.0
500.0,464.0,524.0,516.0
495.0,488.0,513.0,517.0
492.0,493.0,504.0,516.0
498.0,497.0,494.0,517.0
502.0,501.0,488.0,516.0
508.0,507.0,485.0,514.0
504.0,508.0,485.0,515.0
507.0,510.0,488.0,511.0
508.0,508.0,494.0,510.0
509.0,504.0,503.0,509.0
510.0,508.0,524.0,513.0
522.0,509.0,530.0,516.0
529.0,512.0,541.0,516.0
526.0,504.0,546.0,517.0
524.0,500.0,543.0,514.0
515.0,495.0,538.0,512.0
511.0,498.0,530.0,513.0
502.0,493.0,518.0,513.0
497.0,494.0,511.0,513.0
493.0,495.0,495.0,513.0
502.0,504.0,491.0,515.0
504.0,511.0,486.0,514.0
509.0,514.0,488.0,514.0
505.0,508.0,490.0,511.0
509.0,512.0,491.0,512.0
512.0,501.0,497.0,507.0
516.0,499.0,505.0,508.0
518.0,494.0,519.0,512.0
519.0,493.0,531.0,515.0
527.0,505.0,544.0,514.0
529.0,531.0,549.0,520.0
519.0,506.0,549.0,520.0
519.0,499.0,544.0,523.0
509.0,488.0,537.0,523.0
501.0,476.0,523.0,521.0
501.0,499.0,510.0,519.0
500.0,502.0,497.0,518.0
500.0,510.0,486.0,511.0
505.0,507.0,480.0,508.0
515.0,510.0,483.0,507.0
511.0,508.0,483.0,506.0
512.0,511.0,490.0,504.0
518.0,511.0,497.0,505.0
516.0,507.0,509.0,505.0
520.0,515.0,521.0,503.0
524.0,517.0,528.0,504.0
520.0,511.0,545.0,511.0
525.0,505.0,543.0,510.0
517.0,500.0,537.0,515.0
516.0,511.0,533.0,514.0
501.0,497.0,521.0,514.0
500.0,497.0,513.0,514.0
500.0,495.0,500.0,515.0
501.0,496.0,492.0,515.0
501.0,503.0,483.0,512.0
505.0,511.0,485.0,513.0
502.0,504.0,482.0,506.0
510.0,504.0,488.0,507.0
510.0,502.0,492.0,509.0
512.0,505.0,505.0,511.0
516.0,509.0,513.0,509.0
524.0,511.0,524.0,516.0
530.0,513.0,535.0,510.0
528.0,515.0,541.0,515.0
524.0,513.0,544.0,520.0
517.0,499.0,542.0,518.0
511.0,498.0,535.0,518.0
504.0,495.0,521.0,517.0
501.0,493.0,508.0,513.0
499.0,499.0,498.0,515.0
503.0,507.0,492.0,514.0
506.0,508.0,485.0,513.0
512.0,517.0,486.0,512.0
506.0,511.0,485.0,513.0
512.0,518.0,488.0,508.0
512.0,514.0,496.0,503.0
515.0,515.0,506.0,508.0
522.0,514.0,518.0,510.0
527.0,517.0,529.0,510.0
529.0,512.0,537.0,513.0
524.0,499.0,543.0,515.0
521.0,489.0,540.0,514.0
519.0,497.0,535.0,513.0
506.0,485.0,528.0,511.0
498.0,484.0,516.0,512.0
496.0,493.0,507.0,515.0
496.0,501.0,496.0,516.0
500.0,506.0,494.0,516.0
505.0,514.0,489.0,513.0
510.0,517.0,488.0,510.0
505.0,509.0,487.0,512.0
508.0,510.0,494.0,511.0
508.0,498.0,500.0,510.0
513.0,497.0,508.0,509.0
518.0,501.0,523.0,510.0
525.0,506.0,533.0,511.0
522.0,503.0,542.0,515.0
525.0,507.0,544.0,514.0
516.0,502.0,541.0,515.0
515.0,503.0,534.0,516.0
504.0,494.0,528.0,516.0
502.0,495.0,516.0,517.0
498.0,492.0,503.0,518.0
499.0,498.0,494.0,516.0
505.0,501.0,489.0,516.0
510.0,506.0,489.0,516.0
518.0,505.0,537.0,514.0
503.0,497.0,528.0,513.0
504.0,501.0,513.0,514.0
505.0,508.0,505.0,514.0
502.0,496.0,495.0,513.0
502.0,499.0,490.0,516.0
505.0,509.0,489.0,515.0
510.0,514.0,487.0,512.0
508.0,504.0,489.0,513.0
513.0,506.0,491.0,512.0
516.0,502.0,508.0,512.0
522.0,511.0,514.0,512.0
529.0,521.0,527.0,513.0
531.0,513.0,536.0,518.0
532.0,499.0,547.0,519.0
528.0,493.0,551.0,520.0
517.0,505.0,544.0,519.0
519.0,525.0,538.0,512.0
505.0,510.0,520.0,511.0
492.0,477.0,503.0,511.0
491.0,479.0,494.0,512.0
493.0,499.0,486.0,512.0
497.0,504.0,485.0,510.0
503.0,511.0,484.0,508.0
511.0,513.0,490.0,512.0
511.0,509.0,494.0,509.0
510.0,500.0,492.0,505.0
517.0,500.0,502.0,507.0
520.0,512.0,512.0,502.0
527.0,510.0,521.0,505.0
528.0,516.0,532.0,510.0
529.0,507.0,544.0,513.0
523.0,501.0,542.0,513.0
513.0,501.0,541.0,513.0
505.0,487.0,534.0,515.0
497.0,497.0,517.0,512.0
497.0,501.0,507.0,514.0
497.0,506.0,494.0,513.0
504.0,506.0,489.0,515.0
504.0,505.0,483.0,513.0
506.0,509.0,484.0,508.0
509.0,512.0,487.0,508.0
511.0,513.0,492.0,507.0
512.0,505.0,496.0,506.0
517.0,509.0,507.0,506.0
523.0,505.0,518.0,507.0
522.0,511.0,528.0,506.0
528.0,508.0,537.0,506.0
526.0,504.0,542.0,510.0
523.0,503.0,540.0,510.0
520.0,510.0,536.0,515.0
505.0,491.0,527.0,514.0
500.0,484.0,513.0,516.0
500.0,491.0,504.0,516.0
498.0,501.0,500.0,518.0
496.0,510.0,490.0,517.0
506.0,511.0,485.0,515.0
511.0,521.0,488.0,517.0
510.0,515.0,486.0,514.0
509.0,506.0,492.0,509.0
511.0,506.0,499.0,508.0
519.0,522.0,513.0,507.0
525.0,516.0,522.0,511.0
526.0,519.0,530.0,509.0
529.0,513.0,540.0,512.0
523.0,492.0,542.0,512.0
519.0,505.0,540.0,514.0
513.0,503.0,538.0,515.0
502.0,490.0,520.0,513.0
499.0,492.0,511.0,515.0
505.0,495.0,502.0,515.0
508.0,503.0,493.0,515.0
504.0,499.0,486.0,516.0
506.0,498.0,484.0,516.0
506.0,504.0,485.0,508.0
501.0,509.0,489.0,510.0
506.0,500.0,493.0,508.0
512.0,496.0,503.0,508.0
516.0,503.0,517.0,510.0
524.0,518.0,528.0,513.0
527.0,508.0,536.0,517.0
528.0,509.0,545.0,516.0
522.0,514.0,545.0,517.0
516.0,507.0,542.0,516.0
507.0,500.0,529.0,515.0
501.0,494.0,520.0,514.0
499.0,505.0,505.0,516.0
502.0,507.0,497.0,516.0
501.0,502.0,490.0,515.0
501.0,501.0,483.0,513.0
505.0,512.0,485.0,512.0
510.0,509.0,487.0,508.0
514.0,506.0,490.0,511.0
510.0,502.0,499.0,504.0
514.0,499.0,509.0,506.0
521.0,498.0,518.0,507.0
530.0,492.0,529.0,504.0
529.0,496.0,539.0,511.0
525.0,493.0,544.0,511.0
518.0,504.0,541.0,514.0
514.0,518.0,536.0,513.0
499.0,505.0,529.0,515.0
493.0,515.0,518.0,518.0
495.0,515.0,509.0,519.0
503.0,530.0,497.0,520.0
504.0,504.0,491.0,518.0
502.0,489.0,486.0,517.0
506.0,503.0,487.0,513.0
502.0,504.0,490.0,508.0
506.0,506.0,491.0,513.0
507.0,508.0,503.0,513.0
514.0,514.0,514.0,512.0
524.0,512.0,523.0,513.0
529.0,513.0,533.0,509.0
526.0,510.0,539.0,508.0
524.0,510.0,541.0,511.0
520.0,512.0,538.0,510.0
517.0,508.0,531.0,511.0
502.0,494.0,522.0,507.0
503.0,489.0,509.0,512.0
500.0,496.0,497.0,513.0
503.0,504.0,487.0,513.0
509.0,502.0,487.0,510.0
513.0,519.0,485.0,513.0
515.0,518.0,486.0,508.0
514.0,508.0,488.0,510.0
512.0,510.0,494.0,506.0
514.0,491.0,503.0,506.0
517.0,505.0,514.0,505.0
520.0,511.0,525.0,510.0
518.0,508.0,535.0,509.0
517.0,499.0,538.0,512.0
520.0,505.0,544.0,512.0
513.0,503.0,537.0,515.0
510.0,494.0,533.0,516.0
502.0,509.0,524.0,518.0
501.0,505.0,511.0,517.0
500.0,482.0,499.0,522.0
504.0,496.0,496.0,522.0
508.0,496.0,494.0,522.0
508.0,493.0,494.0,520.0
510.0,503.0,494.0,513.0
512.0,511.0,495.0,509.0
506.0,505.0,493.0,503.0
511.0,517.0,501.0,503.0
517.0,513.0,510.0,503.0
526.0,514.0,520.0,503.0
527.0,507.0,531.0,500.0
525.0,504.0,537.0,506.0
523.0,503.0,537.0,509.0
520.0,489.0,534.0,507.0
506.0,475.0,525.0,510.0
500.0,493.0,513.0,516.0
497.0,498.0,499.0,513.0
498.0,517.0,495.0,513.0
504.0,520.0,490.0,515.0
506.0,511.0,487.0,514.0
505.0,508.0,490.0,515.0
507.0,513.0,488.0,516.0
509.0,510.0,494.0,512.0
512.0,502.0,502.0,512.0
516.0,505.0,517.0,510.0
526.0,511.0,524.0,511.0
529.0,509.0,531.0,515.0
529.0,508.0,538.0,507.0
524.0,507.0,542.0,510.0
517.0,498.0,536.0,505.0
509.0,495.0,535.0,509.0
493.0,483.0,522.0,513.0
496.0,491.0,512.0,510.0
496.0,502.0,501.0,515.0
502.0,517.0,492.0,517.0
503.0,511.0,486.0,517.0
503.0,513.0,483.0,512.0
507.0,509.0,488.0,511.0
507.0,504.0,490.0,513.0
508.0,503.0,494.0,511.0
511.0,503.0,505.0,510.0
517.0,516.0,514.0,510.0
527.0,521.0,526.0,509.0
528.0,518.0,533.0,509.0
525.0,509.0,546.0,512.0
524.0,505.0,544.0,511.0
519.0,501.0,540.0,513.0
512.0,491.0,531.0,514.0
503.0,487.0,519.0,514.0
500.0,493.0,505.0,513.0
501.0,508.0,496.0,510.0
505.0,519.0,490.0,514.0
508.0,524.0,485.0,511.0
508.0,506.0,483.0,511.0
508.0,486.0,485.0,510.0
509.0,490.0,486.0,509.0
509.0,485.0,495.0,514.0
514.0,483.0,505.0,506.0
521.0,490.0,517.0,509.0
526.0,507.0,529.0,511.0
530.0,522.0,535.0,511.0
528.0,513.0,541.0,514.0
524.0,507.0,542.0,512.0
517.0,509.0,535.0,513.0
500.0,497.0,528.0,512.0
496.0,489.0,517.0,517.0
499.0,506.0,507.0,515.0
501.0,503.0,495.0,517.0
505.0,502.0,491.0,518.0
507.0,493.0,488.0,514.0
505.0,501.0,488.0,514.0
506.0,501.0,489.0,512.0
505.0,491.0,494.0,515.0
505.0,487.0,509.0,508.0
509.0,495.0,511.0,509.0
519.0,513.0,521.0,509.0
526.0,535.0,533.0,511.0
528.0,522.0,538.0,512.0
523.0,514.0,544.0,515.0
522.0,515.0,543.0,512.0
518.0,514.0,539.0,513.0
502.0,505.0,527.0,514.0
501.0,500.0,512.0,514.0
502.0,492.0,503.0,516.0
505.0,481.0,492.0,515.0
501.0,490.0,490.0,514.0
499.0,508.0,486.0,515.0
498.0,522.0,487.0,514.0
503.0,508.0,490.0,514.0
504.0,496.0,494.0,509.0
512.0,498.0,504.0,509.0
520.0,506.0,514.0,509.0
529.0,511.0,527.0,509.0
537.0,530.0,535.0,513.0
531.0,535.0,542.0,516.0
526.0,506.0,545.0,514.0
513.0,504.0,543.0,518.0
506.0,507.0,537.0,517.0
493.0,499.0,525.0,518.0
491.0,496.0,514.0,521.0
495.0,497.0,503.0,525.0
500.0,505.0,495.0,519.0
504.0,509.0,492.0,516.0
505.0,504.0,486.0,513.0
509.0,505.0,483.0,508.0
513.0,507.0,486.0,506.0
512.0,498.0,492.0,511.0
520.0,508.0,505.0,504.0
525.0,514.0,517.0,507.0
530.0,514.0,530.0,509.0
524.0,501.0,541.0,514.0
520.0,498.0,542.0,512.0
514.0,496.0,538.0,515.0
516.0,502.0,536.0,513.0
502.0,497.0,527.0,513.0
501.0,497.0,515.0,516.0
497.0,498.0,505.0,515.0
494.0,503.0,498.0,516.0
501.0,507.0,488.0,514.0
502.0,510.0,480.0,510.0
508.0,511.0,482.0,507.0
509.0,510.0,484.0,506.0
509.0,506.0,486.0,501.0
507.0,506.0,494.0,503.0
515.0,510.0,509.0,504.0
523.0,525.0,517.0,505.0
530.0,523.0,532.0,509.0
528.0,514.0,537.0,509.0
522.0,515.0,543.0,510.0
514.0,469.0,539.0,511.0
512.0,477.0,535.0,511.0
498.0,504.0,525.0,512.0
500.0,493.0,514.0,511.0
502.0,498.0,501.0,513.0
506.0,511.0,494.0,515.0
504.0,511.0,487.0,514.0
505.0,511.0,485.0,513.0
507.0,510.0,486.0,513.0
510.0,502.0,489.0,508.0
508.0,503.0,491.0,509.0
512.0,509.0,501.0,508.0
514.0,509.0,516.0,511.0
525.0,512.0,527.0,513.0
528.0,507.0,535.0,512.0
525.0,504.0,543.0,511.0
524.0,503.0,545.0,516.0
516.0,501.0,540.0,516.0
511.0,489.0,535.0,515.0
502.0,487.0,524.0,523.0
499.0,496.0,515.0,516.0
501.0,495.0,504.0,517.0
506.0,502.0,497.0,517.0
505.0,508.0,490.0,515.0
508.0,506.0,488.0,510.0
514.0,503.0,487.0,508.0
511.0,501.0,486.0,508.0
508.0,499.0,495.0,506.0
510.0,516.0,508.0,507.0
513.0,519.0,515.0,509.0
514.0,523.0,535.0,512.0
523.0,521.0,537.0,511.0
524.0,520.0,542.0,513.0
518.0,502.0,539.0,512.0
513.0,480.0,539.0,511.0
503.0,487.0,530.0,513.0
502.0,503.0,519.0,513.0
500.0,498.0,507.0,514.0
506.0,492.0,498.0,514.0
512.0,495.0,489.0,517.0
510.0,507.0,487.0,515.0
506.0,502.0,487.0,514.0
509.0,503.0,488.0,512.0
510.0,534.0,492.0,506.0
512.0,527.0,496.0,506.0
513.0,530.0,509.0,505.0
517.0,529.0,521.0,506.0
521.0,502.0,530.0,506.0
521.0,491.0,538.0,510.0
519.0,503.0,538.0,509.0
517.0,508.0,536.0,510.0
515.0,498.0,533.0,510.0
502.0,477.0,523.0,513.0
500.0,483.0,513.0,513.0
498.0,490.0,502.0,513.0
504.0,500.0,492.0,512.0
504.0,509.0,486.0,516.0
506.0,518.0,486.0,512.0
508.0,526.0,483.0,511.0
510.0,519.0,486.0,507.0
512.0,514.0,490.0,499.0
514.0,508.0,499.0,505.0
518.0,509.0,515.0,506.0
530.0,508.0,526.0,508.0
528.0,507.0,533.0,509.0
526.0,511.0,542.0,510.0
526.0,518.0,539.0,512.0
524.0,511.0,538.0,514.0
518.0,491.0,529.0,513.0
509.0,471.0,522.0,512.0
503.0,483.0,511.0,514.0
498.0,495.0,506.0,519.0
493.0,510.0,493.0,519.0
497.0,518.0,489.0,517.0
499.0,527.0,486.0,516.0
506.0,533.0,488.0,513.0
510.0,528.0,490.0,513.0
510.0,516.0,496.0,509.0
509.0,480.0,508.0,508.0
518.0,488.0,518.0,508.0
521.0,501.0,530.0,509.0
531.0,513.0,540.0,510.0
520.0,510.0,543.0,511.0
519.0,505.0,540.0,514.0
514.0,496.0,538.0,510.0
505.0,487.0,531.0,515.0
499.0,489.0,516.0,519.0
500.0,491.0,504.0,517.0
500.0,495.0,498.0,519.0
505.0,499.0,490.0,515.0
506.0,506.0,487.0,514.0
503.0,500.0,487.0,511.0
508.0,507.0,487.0,512.0
509.0,497.0,490.0,510.0
507.0,494.0,500.0,507.0
512.0,499.0,510.0,509.0
521.0,500.0,522.0,514.0
523.0,518.0,532.0,510.0
524.0,516.0,545.0,512.0
525.0,515.0,543.0,512.0
529.0,518.0,540.0,513.0
524.0,512.0,535.0,512.0
510.0,502.0,525.0,512.0
508.0,498.0,512.0,511.0
505.0,493.0,503.0,513.0
501.0,489.0,495.0,517.0
497.0,487.0,489.0,516.0
498.0,493.0,490.0,516.0
505.0,518.0,486.0,512.0
504.0,533.0,491.0,510.0
508.0,519.0,496.0,510.0
512.0,510.0,505.0,510.0
515.0,507.0,516.0,509.0
520.0,515.0,530.0,514.0
525.0,513.0,534.0,513.0
531.0,507.0,543.0,515.0
523.0,501.0,547.0,515.0
519.0,500.0,543.0,514.0
513.0,490.0,532.0,512.0
500.0,509.0,519.0,509.0
497.0,518.0,509.0,516.0
495.0,511.0,500.0,516.0
500.0,507.0,493.0,516.0
500.0,510.0,488.0,515.0
504.0,508.0,484.0,512.0
507.0,507.0,483.0,511.0
514.0,507.0,487.0,508.0
513.0,503.0,494.0,511.0
521.0,507.0,509.0,510.0
527.0,505.0,516.0,511.0
531.0,506.0,531.0,515.0
531.0,506.0,542.0,516.0
526.0,506.0,551.0,515.0
511.0,511.0,555.0,520.0
505.0,522.0,545.0,516.0
498.0,501.0,530.0,510.0
494.0,503.0,512.0,514.0
496.0,509.0,502.0,509.0
494.0,498.0,491.0,508.0
503.0,512.0,483.0,508.0
504.0,489.0,480.0,511.0
505.0,482.0,481.0,513.0
512.0,500.0,485.0,507.0
510.0,502.0,492.0,510.0
510.0,503.0,502.0,509.0
513.0,503.0,514.0,509.0
523.0,508.0,524.0,511.0
525.0,498.0,536.0,513.0
532.0,495.0,541.0,515.0
527.0,492.0,542.0,514.0
523.0,501.0,538.0,512.0
516.0,523.0,535.0,510.0
500.0,512.0,519.0,509.0
492.0,491.0,509.0,506.0
490.0,499.0,497.0,512.0
495.0,505.0,490.0,510.0
502.0,515.0,485.0,511.0
503.0,520.0,481.0,510.0
505.0,520.0,482.0,512.0
508.0,521.0,489.0,511.0
512.0,516.0,491.0,507.0
511.0,509.0,508.0,509.0
518.0,510.0,513.0,508.0
522.0,508.0,523.0,506.0
524.0,504.0,534.0,511.0
523.0,505.0,541.0,513.0
522.0,497.0,543.0,513.0
520.0,495.0,539.0,512.0
516.0,498.0,534.0,510.0
506.0,488.0,519.0,512.0
497.0,489.0,506.0,515.0
499.0,494.0,497.0,515.0
504.0,496.0,493.0,513.0
504.0,506.0,488.0,511.0
505.0,504.0,488.0,512.0
511.0,509.0,487.0,514.0
510.0,525.0,492.0,509.0
505.0,510.0,497.0,507.0
518.0,509.0,507.0,507.0
521.0,504.0,518.0,508.0
528.0,510.0,529.0,512.0
529.0,504.0,538.0,515.0
529.0,508.0,542.0,515.0
528.0,510.0,544.0,518.0
522.0,510.0,540.0,511.0
504.0,500.0,532.0,518.0
488.0,496.0,521.0,518.0
496.0,501.0,509.0,518.0
503.0,504.0,497.0,513.0
505.0,513.0,490.0,521.0
506.0,506.0,486.0,514.0
500.0,485.0,485.0,513.0
504.0,507.0,489.0,507.0
503.0,513.0,494.0,507.0
504.0,499.0,502.0,504.0
507.0,492.0,512.0,508.0
517.0,515.0,523.0,506.0
527.0,516.0,528.0,509.0
525.0,514.0,540.0,509.0
521.0,509.0,536.0,510.0
519.0,505.0,540.0,511.0
517.0,505.0,536.0,515.0
503.0,509.0,523.0,520.0
500.0,505.0,512.0,516.0
504.0,512.0,502.0,514.0
502.0,491.0,495.0,516.0
495.0,466.0,491.0,513.0
506.0,494.0,490.0,516.0
511.0,500.0,491.0,514.0
508.0,500.0,489.0,512.0
506.0,501.0,492.0,507.0
512.0,505.0,501.0,506.0
515.0,519.0,509.0,507.0
522.0,510.0,526.0,507.0
526.0,502.0,537.0,511.0
526.0,489.0,541.0,509.0
522.0,485.0,542.0,514.0
521.0,494.0,543.0,516.0
516.0,499.0,535.0,514.0
503.0,503.0,523.0,514.0
503.0,512.0,508.0,516.0
502.0,513.0,496.0,515.0
499.0,517.0,491.0,517.0
500.0,522.0,488.0,515.0
503.0,516.0,485.0,514.0
510.0,516.0,490.0,514.0
510.0,513.0,495.0,516.0
512.0,509.0,500.0,508.0
515.0,508.0,506.0,504.0
517.0,502.0,511.0,509.0
522.0,500.0,526.0,513.0
531.0,513.0,538.0,510.0
526.0,500.0,544.0,515.0
526.0,504.0,543.0,517.0
522.0,513.0,535.0,515.0
512.0,487.0,530.0,513.0
505.0,483.0,521.0,518.0
503.0,489.0,509.0,516.0
503.0,494.0,497.0,517.0
502.0,514.0,490.0,518.0
502.0,518.0,485.0,512.0
506.0,512.0,483.0,507.0
507.0,514.0,481.0,506.0
514.0,505.0,485.0,504.0
516.0,506.0,497.0,502.0
520.0,519.0,505.0,505.0
523.0,524.0,522.0,508.0
515.0,527.0,530.0,506.0
514.0,517.0,540.0,512.0
517.0,510.0,547.0,515.0
520.0,506.0,540.0,511.0
516.0,509.0,535.0,514.0
496.0,494.0,523.0,514.0
494.0,499.0,513.0,514.0
492.0,502.0,503.0,515.0
497.0,489.0,494.0,514.0
502.0,499.0,489.0,516.0
509.0,514.0,487.0,514.0
510.0,520.0,488.0,512.0
509.0,519.0,488.0,513.0
510.0,515.0,493.0,511.0
510.0,492.0,503.0,511.0
515.0,500.0,515.0,508.0
524.0,500.0,524.0,510.0
527.0,488.0,533.0,508.0
523.0,490.0,542.0,510.0
518.0,491.0,541.0,512.0
517.0,502.0,538.0,510.0
508.0,504.0,531.0,514.0
504.0,501.0,519.0,513.0
499.0,505.0,511.0,515.0
499.0,513.0,500.0,517.0
501.0,516.0,491.0,518.0
505.0,523.0,489.0,515.0
504.0,496.0,486.0,513.0
505.0,485.0,486.0,512.0
512.0,500.0,494.0,512.0
512.0,498.0,500.0,509.0
517.0,504.0,502.0,508.0
525.0,501.0,516.0,512.0
531.0,509.0,529.0,513.0
532.0,514.0,541.0,513.0
526.0,515.0,543.0,514.0
517.0,501.0,546.0,512.0
515.0,494.0,539.0,515.0
504.0,483.0,527.0,510.0
501.0,482.0,515.0,512.0
500.0,487.0,502.0,514.0
500.0,498.0,493.0,514.0
506.0,500.0,487.0,516.0
510.0,503.0,488.0,513.0
508.0,503.0,490.0,513.0
514.0,521.0,489.0,515.0
501.0,528.0,495.0,512.0
499.0,516.0,504.0,512.0
511.0,522.0,509.0,507.0
519.0,510.0,517.0,504.0
522.0,509.0,531.0,505.0
523.0,510.0,536.0,505.0
520.0,506.0,537.0,509.0
525.0,514.0,537.0,511.0
518.0,511.0,534.0,513.0
501.0,495.0,525.0,513.0
499.0,493.0,514.0,515.0
496.0,498.0,503.0,517.0
500.0,503.0,496.0,514.0
504.0,503.0,489.0,515.0
507.0,516.0,486.0,515.0
508.0,525.0,487.0,512.0
513.0,519.0,493.0,510.0
511.0,509.0,492.0,505.0
513.0,503.0,498.0,511.0
519.0,504.0,511.0,508.0
523.0,508.0,526.0,509.0
529.0,506.0,535.0,512.0
521.0,512.0,540.0,514.0
523.0,504.0,542.0,513.0
520.0,502.0,539.0,514.0
513.0,494.0,532.0,514.0
503.0,486.0,520.0,514.0
503.0,497.0,520.0,515.0
499.0,499.0,506.0,514.0
502.0,495.0,490.0,516.0
502.0,501.0,490.0,516.0
502.0,505.0,489.0,512.0
507.0,512.0,488.0,513.0
509.0,502.0,491.0,511.0
508.0,503.0,496.0,508.0
517.0,515.0,508.0,508.0
521.0,511.0,516.0,507.0
522.0,512.0,529.0,512.0
527.0,513.0,537.0,511.0
524.0,509.0,544.0,511.0
521.0,504.0,543.0,514.0
521.0,516.0,541.0,514.0
507.0,508.0,531.0,515.0
497.0,504.0,518.0,516.0
500.0,507.0,507.0,514.0
496.0,474.0,497.0,516.0
497.0,470.0,490.0,517.0
503.0,491.0,489.0,514.0
511.0,493.0,489.0,513.0
523.0,513.0,492.0,512.0
523.0,507.0,496.0,511.0
519.0,495.0,502.0,510.0
525.0,506.0,510.0,508.0
524.0,515.0,520.0,505.0
520.0,522.0,530.0,509.0
519.0,515.0,536.0,510.0
519.0,515.0,543.0,510.0
515.0,513.0,540.0,512.0
513.0,506.0,535.0,513.0
500.0,494.0,526.0,513.0
497.0,494.0,514.0,513.0
496.0,499.0,504.0,515.0
501.0,499.0,494.0,521.0
501.0,501.0,490.0,516.0
507.0,506.0,487.0,516.0
509.0,510.0,489.0,512.0
510.0,511.0,491.0,513.0
512.0,510.0,493.0,510.0
514.0,517.0,499.0,507.0
515.0,511.0,512.0,508.0
520.0,511.0,522.0,508.0
525.0,497.0,530.0,508.0
526.0,498.0,541.0,512.0
520.0,501.0,542.0,513.0
518.0,489.0,537.0,516.0
514.0,483.0,535.0,512.0
500.0,484.0,521.0,513.0
496.0,509.0,509.0,513.0
498.0,505.0,498.0,511.0
501.0,514.0,492.0,513.0
503.0,517.0,485.0,512.0
504.0,511.0,485.0,510.0
510.0,515.0,488.0,512.0
509.0,518.0,489.0,511.0
507.0,507.0,497.0,511.0
513.0,507.0,507.0,510.0
521.0,506.0,517.0,510.0
524.0,509.0,528.0,511.0
530.0,501.0,538.0,508.0
526.0,493.0,545.0,511.0
520.0,496.0,542.0,513.0
519.0,497.0,542.0,516.0
510.0,493.0,526.0,516.0
504.0,494.0,517.0,515.0
494.0,493.0,503.0,514.0
496.0,491.0,496.0,515.0
499.0,494.0,490.0,515.0
500.0,495.0,490.0,516.0
505.0,497.0,491.0,511.0
510.0,524.0,492.0,509.0
512.0,522.0,493.0,508.0
509.0,516.0,498.0,503.0
514.0,523.0,508.0,506.0
521.0,533.0,513.0,506.0
525.0,533.0,527.0,506.0
525.0,524.0,538.0,510.0
516.0,510.0,539.0,508.0
512.0,473.0,537.0,510.0
514.0,491.0,535.0,513.0
509.0,488.0,521.0,512.0
502.0,493.0,514.0,515.0
500.0,494.0,504.0,513.0
502.0,493.0,495.0,514.0
503.0,490.0,488.0,515.0
506.0,509.0,486.0,517.0
509.0,511.0,482.0,515.0
514.0,525.0,489.0,514.0
518.0,518.0,496.0,514.0
518.0,512.0,504.0,516.0
521.0,517.0,516.0,516.0
518.0,521.0,531.0,515.0
522.0,516.0,542.0,517.0
520.0,504.0,550.0,517.0
517.0,502.0,545.0,513.0
515.0,500.0,540.0,510.0
512.0,492.0,531.0,509.0
500.0,483.0,515.0,506.0
502.0,490.0,505.0,510.0
503.0,504.0,495.0,509.0
503.0,510.0,487.0,512.0
504.0,511.0,485.0,512.0
505.0,514.0,484.0,510.0
505.0,515.0,486.0,508.0
509.0,513.0,486.0,507.0
509.0,508.0,495.0,504.0
515.0,503.0,504.0,508.0
515.0,502.0,517.0,506.0
521.0,499.0,527.0,512.0
528.0,505.0,538.0,512.0
525.0,517.0,545.0,514.0
519.0,503.0,545.0,518.0
520.0,502.0,544.0,516.0
509.0,486.0,536.0,516.0
501.0,485.0,515.0,513.0
499.0,491.0,502.0,514.0
501.0,503.0,494.0,513.0
503.0,505.0,488.0,510.0
505.0,498.0,485.0,511.0
508.0,505.0,484.0,510.0
512.0,503.0,485.0,508.0
514.0,511.0,490.0,504.0
509.0,515.0,498.0,506.0
517.0,526.0,507.0,507.0
520.0,530.0,515.0,509.0
525.0,507.0,527.0,508.0
526.0,496.0,540.0,510.0
524.0,502.0,540.0,513.0
523.0,504.0,541.0,514.0
519.0,504.0,538.0,513.0
505.0,494.0,526.0,514.0
498.0,504.0,515.0,517.0
496.0,507.0,507.0,518.0
496.0,513.0,497.0,517.0
502.0,512.0,490.0,518.0
503.0,508.0,488.0,516.0
506.0,498.0,484.0,512.0
513.0,505.0,486.0,509.0
512.0,501.0,491.0,506.0
513.0,503.0,504.0,507.0
518.0,506.0,512.0,506.0
525.0,526.0,524.0,509.0
527.0,522.0,535.0,515.0
519.0,504.0,543.0,512.0
518.0,510.0,544.0,513.0
516.0,511.0,540.0,516.0
514.0,507.0,537.0,514.0
499.0,497.0,519.0,511.0
502.0,506.0,510.0,514.0
499.0,493.0,499.0,517.0
507.0,511.0,499.0,517.0
509.0,513.0,491.0,516.0
504.0,471.0,489.0,513.0
507.0,496.0,487.0,514.0
505.0,511.0,490.0,511.0
503.0,502.0,494.0,510.0
514.0,499.0,503.0,504.0
518.0,501.0,510.0,505.0
526.0,495.0,523.0,507.0
529.0,511.0,538.0,510.0
525.0,523.0,542.0,513.0
518.0,512.0,541.0,510.0
519.0,509.0,538.0,513.0
506.0,488.0,531.0,514.0
501.0,488.0,518.0,516.0
501.0,492.0,508.0,518.0
503.0,500.0,496.0,517.0
502.0,502.0,490.0,515.0
503.0,501.0,486.0,515.0
506.0,509.0,485.0,514.0
511.0,514.0,487.0,511.0
511.0,516.0,492.0,508.0
510.0,505.0,497.0,507.0
515.0,508.0,510.0,508.0
518.0,520.0,521.0,508.0
524.0,514.0,531.0,510.0
526.0,510.0,541.0,512.0
523.0,510.0,543.0,511.0
519.0,504.0,540.0,515.0
515.0,501.0,535.0,515.0
501.0,487.0,526.0,521.0
497.0,486.0,514.0,517.0
499.0,491.0,505.0,515.0
505.0,501.0,497.0,517.0
504.0,510.0,489.0,516.0
512.0,514.0,481.0,511.0
508.0,510.0,483.0,509.0
513.0,510.0,488.0,506.0
509.0,506.0,492.0,505.0
513.0,497.0,501.0,507.0
517.0,500.0,509.0,507.0
521.0,499.0,524.0,509.0
529.0,495.0,536.0,510.0
529.0,499.0,542.0,510.0
528.0,499.0,543.0,512.0
525.0,495.0,541.0,513.0
522.0,527.0,535.0,515.0
507.0,510.0,522.0,515.0
497.0,504.0,511.0,514.0
491.0,506.0,501.0,517.0
501.0,517.0,495.0,518.0
506.0,517.0,489.0,514.0
507.0,508.0,487.0,512.0
508.0,510.0,487.0,510.0
508.0,509.0,491.0,511.0
507.0,509.0,497.0,509.0
515.0,510.0,504.0,508.0
515.0,511.0,513.0,509.0
522.0,515.0,527.0,510.0
527.0,511.0,543.0,513.0
525.0,507.0,539.0,513.0
519.0,488.0,542.0,513.0
520.0,496.0,538.0,515.0
507.0,486.0,529.0,516.0
501.0,484.0,514.0,513.0
500.0,493.0,503.0,516.0
498.0,502.0,498.0,517.0
502.0,508.0,489.0,517.0
497.0,513.0,485.0,513.0
504.0,523.0,487.0,514.0
511.0,527.0,489.0,510.0
513.0,526.0,490.0,511.0
513.0,515.0,499.0,510.0
513.0,479.0,507.0,508.0
520.0,491.0,517.0,508.0
523.0,515.0,531.0,509.0
524.0,518.0,540.0,510.0
523.0,510.0,542.0,513.0
521.0,506.0,544.0,513.0
517.0,498.0,538.0,513.0
502.0,481.0,527.0,514.0
500.0,480.0,515.0,517.0
501.0,489.0,500.0,514.0
499.0,496.0,494.0,517.0
505.0,509.0,490.0,515.0
508.0,506.0,487.0,515.0
508.0,508.0,488.0,514.0
512.0,522.0,489.0,513.0
517.0,524.0,492.0,510.0
518.0,514.0,500.0,509.0
517.0,497.0,513.0,508.0
525.0,510.0,524.0,510.0
522.0,500.0,532.0,511.0
523.0,516.0,540.0,508.0
519.0,509.0,540.0,512.0
520.0,501.0,538.0,510.0
516.0,499.0,535.0,514.0
503.0,489.0,525.0,515.0
501.0,488.0,510.0,513.0
501.0,497.0,501.0,514.0
505.0,496.0,493.0,514.0
508.0,507.0,488.0,513.0
509.0,510.0,487.0,513.0
509.0,513.0,486.0,512.0
508.0,518.0,491.0,513.0
504.0,513.0,494.0,508.0
508.0,508.0,507.0,510.0
516.0,508.0,517.0,509.0
523.0,508.0,524.0,510.0
525.0,509.0,539.0,511.0
526.0,508.0,543.0,513.0
515.0,499.0,542.0,509.0
513.0,505.0,535.0,515.0
504.0,496.0,528.0,514.0
498.0,497.0,518.0,514.0
497.0,501.0,506.0,515.0
495.0,499.0,496.0,515.0
502.0,502.0,491.0,516.0
517.0,496.0,487.0,513.0
517.0,495.0,486.0,512.0
519.0,504.0,488.0,510.0
521.0,499.0,492.0,510.0
515.0,501.0,496.0,506.0
519.0,500.0,508.0,508.0
517.0,509.0,519.0,508.0
514.0,537.0,528.0,510.0
521.0,542.0,538.0,513.0
526.0,539.0,544.0,514.0
522.0,523.0,543.0,513.0
516.0,469.0,538.0,513.0
501.0,475.0,528.0,513.0
502.0,492.0,515.0,517.0
496.0,492.0,508.0,517.0
493.0,496.0,495.0,514.0
497.0,505.0,496.0,516.0
505.0,512.0,488.0,516.0
504.0,510.0,486.0,513.0
509.0,511.0,490.0,511.0
508.0,512.0,494.0,506.0
511.0,501.0,501.0,506.0
521.0,505.0,512.0,505.0
526.0,520.0,523.0,506.0
529.0,518.0,532.0,510.0
523.0,515.0,542.0,513.0
512.0,506.0,541.0,512.0
504.0,510.0,540.0,514.0
496.0,499.0,538.0,515.0
480.0,482.0,527.0,516.0
479.0,490.0,511.0,516.0
485.0,495.0,502.0,510.0
499.0,501.0,492.0,516.0
514.0,503.0,486.0,513.0
516.0,503.0,486.0,513.0
515.0,496.0,488.0,511.0
515.0,484.0,493.0,511.0
518.0,495.0,488.0,505.0
520.0,509.0,503.0,507.0
522.0,516.0,517.0,507.0
527.0,530.0,528.0,511.0
529.0,526.0,538.0,510.0
528.0,514.0,542.0,516.0
523.0,503.0,545.0,517.0
520.0,504.0,541.0,519.0
509.0,502.0,537.0,521.0
493.0,494.0,527.0,519.0
482.0,486.0,515.0,521.0
478.0,495.0,501.0,518.0
484.0,500.0,491.0,514.0
494.0,500.0,482.0,507.0
504.0,513.0,481.0,506.0
497.0,507.0,485.0,506.0
492.0,504.0,490.0,505.0
522.0,509.0,495.0,503.0
511.0,500.0,506.0,504.0
485.0,497.0,516.0,506.0
476.0,511.0,530.0,511.0
481.0,508.0,540.0,513.0
495.0,510.0,543.0,510.0
501.0,500.0,541.0,509.0
513.0,497.0,537.0,511.0
504.0,479.0,528.0,512.0
544.0,490.0,517.0,513.0
542.0,501.0,504.0,515.0
529.0,509.0,494.0,519.0
520.0,523.0,492.0,515.0
519.0,522.0,487.0,515.0
512.0,505.0,484.0,509.0
514.0,515.0,489.0,507.0
532.0,523.0,492.0,508.0
533.0,521.0,501.0,507.0
534.0,515.0,514.0,508.0
546.0,512.0,523.0,509.0
551.0,506.0,531.0,513.0
546.0,510.0,544.0,514.0
542.0,515.0,541.0,514.0
534.0,507.0,541.0,513.0
520.0,497.0,533.0,514.0
505.0,494.0,528.0,515.0
503.0,492.0,511.0,514.0
501.0,493.0,502.0,517.0
501.0,499.0,493.0,513.0
504.0,499.0,488.0,516.0
502.0,503.0,485.0,514.0
521.0,507.0,486.0,511.0
523.0,512.0,491.0,512.0
516.0,506.0,496.0,507.0
518.0,503.0,503.0,504.0
526.0,508.0,517.0,510.0
530.0,504.0,526.0,509.0
527.0,506.0,540.0,512.0
525.0,505.0,544.0,511.0
519.0,496.0,544.0,514.0
518.0,505.0,538.0,515.0
504.0,494.0,533.0,513.0
495.0,485.0,521.0,515.0
492.0,490.0,506.0,515.0
498.0,500.0,499.0,516.0
499.0,503.0,491.0,516.0
501.0,512.0,489.0,515.0
504.0,516.0,485.0,511.0
523.0,516.0,496.0,514.0
529.0,512.0,493.0,510.0
515.0,507.0,497.0,509.0
519.0,509.0,508.0,510.0
521.0,506.0,520.0,507.0
525.0,507.0,527.0,509.0
524.0,508.0,540.0,513.0
524.0,508.0,543.0,514.0
516.0,509.0,541.0,514.0
518.0,510.0,542.0,514.0
508.0,493.0,534.0,514.0
505.0,497.0,521.0,515.0
500.0,496.0,505.0,516.0
507.0,497.0,495.0,516.0
507.0,508.0,489.0,516.0
512.0,511.0,488.0,512.0
510.0,510.0,489.0,512.0
511.0,512.0,493.0,510.0
512.0,509.0,494.0,507.0
512.0,505.0,504.0,509.0
518.0,506.0,512.0,508.0
523.0,508.0,524.0,509.0
528.0,512.0,534.0,508.0
525.0,511.0,544.0,511.0
523.0,502.0,544.0,512.0
521.0,503.0,542.0,510.0
517.0,502.0,538.0,511.0
503.0,489.0,526.0,517.0
499.0,488.0,514.0,518.0
498.0,491.0,502.0,515.0
500.0,502.0,494.0,513.0
503.0,506.0,489.0,515.0
505.0,514.0,489.0,514.0
503.0,511.0,490.0,513.0
508.0,515.0,493.0,512.0
505.0,505.0,504.0,509.0
504.0,505.0,505.0,507.0
506.0,503.0,511.0,506.0
513.0,504.0,527.0,509.0
521.0,509.0,539.0,511.0
524.0,513.0,546.0,513.0
518.0,502.0,545.0,513.0
519.0,504.0,542.0,512.0
509.0,487.0,535.0,514.0
502.0,473.0,523.0,515.0
501.0,480.0,508.0,515.0
498.0,486.0,500.0,515.0
496.0,490.0,493.0,515.0
504.0,507.0,491.0,515.0
507.0,507.0,488.0,513.0
507.0,508.0,490.0,511.0
515.0,519.0,494.0,511.0
512.0,515.0,499.0,507.0
510.0,502.0,509.0,506.0
515.0,513.0,521.0,509.0
522.0,517.0,532.0,511.0
518.0,518.0,543.0,510.0
504.0,518.0,546.0,509.0
496.0,502.0,542.0,517.0
483.0,497.0,537.0,512.0
462.0,490.0,529.0,514.0
463.0,494.0,517.0,514.0
489.0,499.0,504.0,516.0
501.0,504.0,496.0,514.0
515.0,503.0,492.0,512.0
513.0,503.0,492.0,515.0
525.0,512.0,488.0,509.0
546.0,522.0,490.0,510.0
540.0,513.0,499.0,509.0
529.0,513.0,502.0,508.0
527.0,515.0,510.0,507.0
530.0,511.0,523.0,508.0
524.0,503.0,534.0,508.0
512.0,505.0,541.0,508.0
500.0,499.0,545.0,513.0
494.0,495.0,537.0,511.0
495.0,498.0,538.0,511.0
486.0,488.0,516.0,512.0
484.0,490.0,512.0,520.0
496.0,502.0,501.0,518.0
513.0,514.0,491.0,518.0
515.0,509.0,488.0,516.0
533.0,515.0,492.0,509.0
521.0,510.0,486.0,509.0
524.0,514.0,488.0,509.0
525.0,511.0,496.0,506.0
521.0,511.0,508.0,510.0
523.0,508.0,518.0,508.0
523.0,513.0,527.0,510.0
528.0,515.0,537.0,508.0
521.0,512.0,544.0,511.0
506.0,500.0,545.0,516.0
503.0,494.0,543.0,522.0
493.0,480.0,536.0,516.0
504.0,479.0,519.0,513.0
528.0,493.0,507.0,514.0
513.0,496.0,495.0,512.0
506.0,493.0,492.0,516.0
536.0,509.0,490.0,522.0
535.0,514.0,485.0,517.0
525.0,514.0,488.0,511.0
520.0,510.0,495.0,507.0
513.0,503.0,502.0,503.0
525.0,512.0,514.0,505.0
527.0,519.0,526.0,506.0
529.0,517.0,536.0,511.0
532.0,508.0,541.0,514.0
531.0,509.0,540.0,509.0
523.0,507.0,546.0,510.0
520.0,500.0,538.0,514.0
508.0,489.0,531.0,514.0
506.0,498.0,521.0,512.0
502.0,498.0,510.0,515.0
503.0,502.0,495.0,511.0
502.0,508.0,486.0,512.0
506.0,513.0,487.0,513.0
506.0,511.0,488.0,508.0
511.0,521.0,492.0,505.0
509.0,513.0,496.0,505.0
509.0,509.0,503.0,505.0
513.0,504.0,513.0,503.0
518.0,504.0,523.0,504.0
528.0,511.0,537.0,511.0
528.0,505.0,546.0,511.0
520.0,504.0,549.0,512.0
510.0,498.0,540.0,523.0
504.0,494.0,541.0,530.0
495.0,493.0,528.0,520.0
496.0,491.0,512.0,506.0
493.0,494.0,503.0,510.0
504.0,497.0,497.0,515.0
506.0,500.0,488.0,522.0
505.0,507.0,490.0,516.0
502.0,506.0,486.0,507.0
502.0,512.0,495.0,506.0
504.0,512.0,497.0,503.0
507.0,515.0,514.0,505.0
516.0,514.0,517.0,506.0
522.0,513.0,527.0,505.0
535.0,509.0,539.0,510.0
531.0,510.0,546.0,523.0
519.0,499.0,542.0,531.0
519.0,501.0,534.0,550.0
508.0,491.0,531.0,527.0
502.0,491.0,516.0,486.0
499.0,496.0,511.0,503.0
500.0,498.0,506.0,510.0
499.0,504.0,499.0,512.0
509.0,508.0,492.0,512.0
512.0,511.0,484.0,507.0
510.0,514.0,489.0,504.0
510.0,508.0,493.0,505.0
508.0,509.0,501.0,501.0
515.0,509.0,511.0,504.0
519.0,505.0,521.0,512.0
525.0,511.0,534.0,507.0
527.0,506.0,544.0,509.0
526.0,504.0,547.0,506.0
517.0,489.0,545.0,510.0
516.0,497.0,538.0,510.0
501.0,490.0,531.0,511.0
494.0,490.0,519.0,514.0
488.0,490.0,508.0,514.0
496.0,499.0,498.0,516.0
501.0,507.0,492.0,514.0
505.0,506.0,487.0,512.0
511.0,499.0,486.0,507.0
508.0,500.0,492.0,509.0
507.0,510.0,493.0,506.0
516.0,515.0,503.0,504.0
516.0,514.0,512.0,505.0
524.0,521.0,525.0,509.0
534.0,531.0,534.0,510.0
533.0,528.0,546.0,508.0
522.0,519.0,547.0,508.0
514.0,502.0,544.0,514.0
499.0,470.0,540.0,520.0
485.0,470.0,525.0,519.0
474.0,474.0,514.0,516.0
468.0,490.0,505.0,514.0
475.0,509.0,494.0,513.0
472.0,512.0,493.0,510.0
482.0,521.0,489.0,515.0
483.0,494.0,486.0,515.0
498.0,495.0,488.0,515.0
510.0,505.0,495.0,507.0
519.0,503.0,507.0,505.0
558.0,504.0,516.0,503.0
563.0,509.0,529.0,505.0
560.0,510.0,541.0,509.0
551.0,503.0,548.0,521.0
533.0,496.0,543.0,509.0
527.0,498.0,540.0,513.0
514.0,502.0,538.0,512.0
506.0,502.0,524.0,512.0
501.0,498.0,514.0,514.0
500.0,492.0,501.0,518.0
519.0,508.0,497.0,515.0
517.0,511.0,491.0,515.0
515.0,513.0,490.0,515.0
512.0,508.0,490.0,516.0
515.0,511.0,498.0,516.0
514.0,508.0,500.0,511.0
518.0,511.0,507.0,506.0
526.0,515.0,526.0,507.0
528.0,518.0,530.0,507.0
530.0,513.0,536.0,510.0
529.0,513.0,545.0,517.0
521.0,501.0,554.0,515.0
520.0,502.0,548.0,512.0
502.0,490.0,531.0,512.0
501.0,490.0,522.0,512.0
499.0,498.0,509.0,514.0
499.0,503.0,501.0,517.0
504.0,505.0,500.0,514.0
505.0,513.0,493.0,526.0
504.0,509.0,488.0,523.0
510.0,512.0,489.0,507.0
509.0,510.0,496.0,506.0
509.0,504.0,505.0,506.0
515.0,504.0,514.0,508.0
521.0,507.0,527.0,506.0
520.0,504.0,535.0,513.0
522.0,503.0,548.0,517.0
520.0,502.0,541.0,513.0
506.0,501.0,546.0,517.0
506.0,502.0,538.0,511.0
492.0,487.0,527.0,512.0
488.0,487.0,516.0,518.0
490.0,498.0,501.0,526.0
494.0,505.0,495.0,544.0
502.0,508.0,499.0,527.0
511.0,512.0,498.0,513.0
502.0,505.0,480.0,512.0
509.0,510.0,477.0,513.0
515.0,506.0,495.0,510.0
524.0,505.0,514.0,505.0
528.0,509.0,528.0,510.0
529.0,513.0,531.0,503.0
531.0,513.0,537.0,508.0
532.0,513.0,548.0,516.0
525.0,503.0,548.0,516.0
523.0,506.0,543.0,516.0
511.0,496.0,529.0,520.0
503.0,492.0,525.0,526.0
500.0,495.0,514.0,505.0
498.0,498.0,505.0,515.0
504.0,507.0,493.0,516.0
505.0,511.0,484.0,500.0
508.0,510.0,490.0,514.0
496.0,503.0,493.0,515.0
504.0,502.0,497.0,520.0
508.0,495.0,499.0,524.0
519.0,501.0,513.0,528.0
515.0,506.0,518.0,519.0
510.0,505.0,522.0,515.0
511.0,501.0,542.0,511.0
520.0,509.0,559.0,540.0
510.0,501.0,556.0,504.0
500.0,499.0,545.0,489.0
489.0,483.0,536.0,526.0
494.0,488.0,520.0,529.0
487.0,494.0,504.0,548.0
481.0,500.0,487.0,529.0
502.0,503.0,490.0,495.0
512.0,513.0,499.0,505.0
506.0,508.0,494.0,526.0
502.0,509.0,479.0,521.0
510.0,517.0,495.0,500.0
517.0,514.0,510.0,496.0
515.0,510.0,519.0,523.0
525.0,506.0,527.0,512.0
519.0,501.0,537.0,507.0
514.0,501.0,552.0,497.0
516.0,502.0,546.0,505.0
521.0,502.0,543.0,503.0
511.0,504.0,545.0,521.0
496.0,488.0,530.0,536.0
515.0,496.0,499.0,507.0
504.0,502.0,515.0,503.0
502.0,500.0,507.0,517.0
513.0,507.0,487.0,490.0
511.0,508.0,494.0,507.0
482.0,503.0,495.0,536.0
499.0,511.0,489.0,537.0
507.0,501.0,500.0,530.0
522.0,507.0,508.0,480.0
517.0,503.0,518.0,486.0
514.0,502.0,538.0,524.0
517.0,502.0,541.0,517.0
544.0,508.0,548.0,507.0
532.0,498.0,547.0,502.0
514.0,493.0,543.0,525.0
520.0,489.0,528.0,517.0
521.0,498.0,528.0,516.0
521.0,502.0,514.0,510.0
512.0,504.0,492.0,531.0
501.0,507.0,516.0,523.0
507.0,513.0,494.0,486.0
507.0,517.0,478.0,490.0
510.0,530.0,489.0,529.0
519.0,533.0,495.0,548.0
523.0,516.0,493.0,578.0
533.0,518.0,502.0,529.0
532.0,494.0,536.0,468.0
530.0,496.0,541.0,514.0
528.0,501.0,517.0,525.0
529.0,508.0,550.0,493.0
510.0,502.0,554.0,484.0
504.0,512.0,559.0,518.0
493.0,501.0,532.0,528.0
489.0,489.0,517.0,498.0
490.0,480.0,515.0,515.0
502.0,496.0,504.0,516.0
503.0,504.0,498.0,507.0
493.0,508.0,491.0,511.0
483.0,511.0,470.0,497.0
480.0,517.0,501.0,544.0
499.0,521.0,493.0,523.0
519.0,495.0,505.0,504.0
522.0,500.0,520.0,525.0
527.0,503.0,536.0,510.0
538.0,506.0,545.0,496.0
532.0,506.0,537.0,480.0
526.0,510.0,541.0,498.0
526.0,512.0,554.0,512.0
528.0,515.0,532.0,512.0
520.0,509.0,534.0,528.0
519.0,507.0,521.0,509.0
518.0,504.0,496.0,498.0
513.0,503.0,498.0,519.0
507.0,489.0,495.0,517.0
506.0,500.0,490.0,496.0
499.0,507.0,492.0,511.0
502.0,509.0,490.0,514.0
507.0,508.0,492.0,519.0
511.0,512.0,517.0,513.0
516.0,509.0,530.0,509.0
523.0,509.0,538.0,507.0
538.0,509.0,532.0,518.0
522.0,502.0,544.0,521.0
497.0,498.0,546.0,519.0
492.0,499.0,523.0,481.0
483.0,486.0,530.0,515.0
494.0,487.0,525.0,497.0
501.0,494.0,515.0,489.0
506.0,501.0,486.0,522.0
522.0,503.0,478.0,497.0
528.0,510.0,494.0,520.0
505.0,510.0,489.0,521.0
500.0,509.0,490.0,531.0
507.0,519.0,502.0,491.0
508.0,513.0,485.0,497.0
514.0,509.0,502.0,512.0
518.0,509.0,532.0,474.0
513.0,510.0,543.0,451.0
508.0,505.0,548.0,494.0
524.0,514.0,541.0,532.0
517.0,505.0,548.0,525.0
508.0,507.0,551.0,521.0
499.0,497.0,545.0,514.0
511.0,492.0,529.0,526.0
514.0,498.0,507.0,524.0
485.0,495.0,482.0,513.0
469.0,494.0,486.0,510.0
463.0,505.0,483.0,504.0
457.0,496.0,479.0,492.0
413.0,495.0,478.0,522.0
382.0,487.0,469.0,476.0
388.0,482.0,488.0,503.0
447.0,487.0,521.0,514.0
484.0,502.0,539.0,531.0
501.0,497.0,542.0,530.0
571.0,505.0,553.0,520.0
623.0,512.0,548.0,529.0
605.0,511.0,537.0,518.0
551.0,510.0,542.0,507.0
517.0,492.0,529.0,519.0
510.0,495.0,512.0,519.0
518.0,496.0,507.0,522.0
511.0,502.0,496.0,525.0
513.0,509.0,492.0,513.0
532.0,521.0,494.0,547.0
536.0,514.0,457.0,529.0
527.0,514.0,483.0,525.0
522.0,492.0,512.0,498.0
494.0,489.0,526.0,518.0
496.0,509.0,533.0,533.0
509.0,512.0,512.0,506.0
492.0,508.0,518.0,458.0
515.0,510.0,556.0,522.0
536.0,517.0,559.0,470.0
549.0,513.0,552.0,466.0
540.0,501.0,561.0,449.0
537.0,507.0,524.0,515.0
547.0,512.0,536.0,645.0
525.0,501.0,525.0,568.0
513.0,503.0,514.0,500.0
535.0,503.0,485.0,459.0
519.0,500.0,470.0,505.0
492.0,510.0,476.0,525.0
486.0,533.0,505.0,530.0
494.0,526.0,478.0,488.0
499.0,539.0,530.0,541.0
501.0,520.0,606.0,481.0
559.0,522.0,616.0,489.0
542.0,509.0,558.0,527.0
482.0,474.0,500.0,516.0
492.0,475.0,520.0,523.0
473.0,483.0,548.0,569.0
447.0,476.0,556.0,528.0
459.0,482.0,525.0,528.0
435.0,465.0,481.0,494.0
495.0,475.0,451.0,478.0
534.0,505.0,459.0,484.0
555.0,513.0,519.0,481.0
558.0,509.0,497.0,448.0
550.0,523.0,463.0,507.0
576.0,533.0,523.0,587.0
554.0,518.0,533.0,544.0
540.0,509.0,540.0,483.0
532.0,509.0,530.0,497.0
534.0,515.0,527.0,487.0
522.0,512.0,514.0,624.0
510.0,502.0,543.0,562.0
498.0,494.0,570.0,471.0
505.0,495.0,567.0,541.0
492.0,488.0,540.0,529.0
501.0,496.0,478.0,454.0
510.0,506.0,478.0,535.0
499.0,511.0,530.0,523.0
512.0,520.0,504.0,551.0
483.0,504.0,505.0,528.0
465.0,493.0,492.0,550.0
497.0,513.0,489.0,462.0
503.0,513.0,516.0,546.0
483.0,503.0,559.0,548.0
471.0,506.0,603.0,481.0
488.0,507.0,591.0,501.0
512.0,512.0,559.0,573.0
514.0,507.0,575.0,507.0
491.0,483.0,591.0,520.0
522.0,489.0,571.0,543.0
542.0,497.0,560.0,521.0
488.0,496.0,546.0,515.0
466.0,493.0,549.0,507.0
440.0,482.0,548.0,471.0
506.0,498.0,575.0,503.0
522.0,512.0,536.0,490.0
492.0,509.0,513.0,504.0
503.0,501.0,425.0,464.0
504.0,502.0,439.0,566.0
488.0,501.0,493.0,535.0
491.0,506.0,536.0,441.0
533.0,525.0,519.0,490.0
531.0,531.0,497.0,577.0
475.0,502.0,502.0,535.0
400.0,481.0,522.0,476.0
367.0,488.0,565.0,541.0
379.0,496.0,563.0,483.0
363.0,470.0,521.0,495.0
392.0,472.0,507.0,475.0
436.0,479.0,511.0,541.0
537.0,484.0,439.0,488.0
608.0,498.0,498.0,525.0
632.0,530.0,536.0,548.0
621.0,533.0,466.0,550.0
570.0,530.0,500.0,584.0
532.0,524.0,481.0,517.0
518.0,523.0,498.0,524.0
498.0,519.0,521.0,484.0
502.0,515.0,501.0,532.0
519.0,490.0,519.0,520.0
500.0,474.0,613.0,507.0
453.0,476.0,624.0,515.0
463.0,476.0,597.0,454.0
484.0,485.0,585.0,436.0
492.0,477.0,595.0,437.0
502.0,479.0,467.0,438.0
573.0,494.0,441.0,495.0
562.0,500.0,447.0,551.0
541.0,511.0,481.0,547.0
526.0,524.0,533.0,537.0
516.0,521.0,568.0,545.0
526.0,518.0,581.0,509.0
558.0,511.0,539.0,490.0
608.0,514.0,462.0,504.0
585.0,510.0,500.0,508.0
527.0,504.0,607.0,573.0
475.0,504.0,620.0,588.0
441.0,495.0,535.0,496.0
436.0,483.0,509.0,443.0
460.0,488.0,535.0,540.0
452.0,490.0,530.0,613.0
496.0,495.0,501.0,540.0
577.0,497.0,493.0,507.0
610.0,503.0,428.0,392.0
602.0,505.0,476.0,588.0
595.0,526.0,501.0,560.0
545.0,535.0,614.0,513.0
519.0,530.0,566.0,524.0
499.0,517.0,504.0,566.0
479.0,497.0,462.0,489.0
491.0,500.0,497.0,479.0
507.0,506.0,531.0,451.0
566.0,518.0,550.0,510.0
597.0,528.0,557.0,519.0
565.0,523.0,551.0,486.0
536.0,505.0,526.0,479.0
534.0,505.0,528.0,575.0
526.0,489.0,546.0,559.0
503.0,473.0,599.0,412.0
498.0,494.0,509.0,506.0
498.0,513.0,531.0,553.0
487.0,522.0,609.0,561.0
474.0,511.0,548.0,528.0
481.0,496.0,437.0,480.0
538.0,495.0,453.0,524.0
525.0,496.0,431.0,464.0
529.0,508.0,483.0,529.0
518.0,517.0,514.0,561.0
515.0,514.0,521.0,456.0
516.0,513.0,623.0,527.0
523.0,502.0,584.0,520.0
534.0,514.0,545.0,370.0
552.0,500.0,534.0,518.0
542.0,495.0,558.0,472.0
510.0,495.0,626.0,525.0
492.0,508.0,751.0,541.0
468.0,509.0,641.0,557.0
450.0,499.0,375.0,593.0
426.0,489.0,478.0,609.0
438.0,506.0,513.0,580.0
439.0,488.0,497.0,478.0
437.0,487.0,466.0,401.0
474.0,497.0,453.0,484.0
520.0,506.0,461.0,583.0
513.0,506.0,536.0,579.0
490.0,485.0,540.0,474.0
508.0,482.0,485.0,423.0
483.0,499.0,462.0,448.0
440.0,502.0,527.0,544.0
425.0,506.0,554.0,613.0
414.0,495.0,537.0,601.0
432.0,469.0,572.0,460.0
486.0,455.0,574.0,528.0
601.0,489.0,489.0,474.0
572.0,491.0,454.0,513.0
601.0,519.0,569.0,580.0
618.0,532.0,523.0,503.0
605.0,541.0,508.0,483.0
571.0,526.0,625.0,613.0
552.0,502.0,598.0,501.0
561.0,504.0,450.0,512.0
544.0,507.0,511.0,515.0
505.0,515.0,539.0,521.0
460.0,511.0,546.0,532.0
474.0,502.0,521.0,541.0
451.0,492.0,487.0,567.0
389.0,470.0,586.0,461.0
456.0,475.0,553.0,534.0
517.0,481.0,515.0,516.0
459.0,491.0,492.0,536.0
456.0,509.0,593.0,513.0
482.0,508.0,560.0,418.0
428.0,495.0,394.0,459.0
365.0,478.0,436.0,530.0
427.0,480.0,498.0,508.0
497.0,483.0,477.0,444.0
538.0,496.0,598.0,509.0
594.0,497.0,572.0,438.0
624.0,529.0,444.0,498.0
627.0,528.0,543.0,557.0
641.0,544.0,615.0,553.0
596.0,534.0,539.0,533.0
535.0,511.0,486.0,518.0
495.0,512.0,531.0,501.0
444.0,486.0,532.0,613.0
419.0,473.0,584.0,534.0
499.0,501.0,462.0,470.0
488.0,492.0,542.0,552.0
550.0,496.0,548.0,492.0
577.0,514.0,622.0,522.0
465.0,504.0,526.0,457.0
424.0,526.0,419.0,563.0
366.0,511.0,465.0,591.0
348.0,497.0,496.0,408.0
381.0,465.0,574.0,473.0
451.0,476.0,498.0,569.0
639.0,534.0,499.0,513.0
708.0,544.0,537.0,505.0
701.0,522.0,549.0,527.0
635.0,518.0,600.0,522.0
572.0,510.0,722.0,511.0
550.0,507.0,584.0,508.0
541.0,503.0,368.0,511.0
522.0,488.0,456.0,441.0
511.0,521.0,454.0,340.0
569.0,547.0,397.0,519.0
581.0,552.0,462.0,579.0
553.0,528.0,525.0,505.0
523.0,520.0,502.0,484.0
512.0,516.0,541.0,556.0
477.0,484.0,496.0,546.0
434.0,478.0,517.0,486.0
390.0,475.0,565.0,498.0
440.0,491.0,652.0,502.0
424.0,482.0,625.0,495.0
382.0,468.0,560.0,552.0
453.0,480.0,490.0,487.0
527.0,482.0,402.0,479.0
487.0,479.0,480.0,459.0
482.0,488.0,523.0,468.0
577.0,515.0,475.0,592.0
622.0,525.0,493.0,601.0
616.0,533.0,495.0,563.0
613.0,527.0,467.0,481.0
581.0,522.0,503.0,591.0
566.0,527.0,509.0,628.0
559.0,529.0,610.0,420.0
562.0,537.0,570.0,409.0
568.0,524.0,544.0,556.0
569.0,524.0,495.0,509.0
562.0,520.0,545.0,509.0
548.0,504.0,620.0,486.0
543.0,492.0,547.0,517.0
534.0,506.0,503.0,469.0
523.0,502.0,533.0,486.0
499.0,502.0,495.0,472.0
469.0,488.0,517.0,562.0
433.0,485.0,495.0,530.0
448.0,494.0,522.0,499.0
449.0,488.0,551.0,538.0
462.0,481.0,464.0,534.0
512.0,505.0,445.0,532.0
521.0,498.0,507.0,516.0
540.0,525.0,536.0,550.0
547.0,548.0,529.0,536.0
516.0,509.0,551.0,483.0
511.0,516.0,598.0,527.0
520.0,520.0,572.0,534.0
552.0,531.0,454.0,433.0
532.0,506.0,561.0,488.0
505.0,500.0,541.0,533.0
479.0,495.0,483.0,487.0
481.0,496.0,496.0,518.0
501.0,502.0,502.0,553.0
493.0,512.0,514.0,553.0
526.0,519.0,516.0,513.0
472.0,499.0,544.0,566.0
426.0,488.0,490.0,501.0
382.0,476.0,452.0,464.0
348.0,486.0,515.0,484.0
383.0,493.0,516.0,569.0
448.0,508.0,466.0,530.0
422.0,485.0,493.0,543.0
451.0,484.0,517.0,466.0
536.0,520.0,550.0,456.0
586.0,512.0,522.0,452.0
533.0,498.0,524.0,553.0
509.0,508.0,584.0,539.0
551.0,509.0,494.0,564.0
555.0,506.0,466.0,488.0
532.0,499.0,524.0,502.0
550.0,524.0,589.0,525.0
564.0,527.0,523.0,537.0
521.0,513.0,416.0,489.0
447.0,497.0,461.0,373.0
405.0,496.0,451.0,448.0
390.0,492.0,503.0,500.0
427.0,490.0,524.0,440.0
493.0,487.0,500.0,453.0
571.0,517.0,512.0,473.0
579.0,505.0,511.0,481.0
593.0,502.0,556.0,551.0
573.0,502.0,568.0,514.0
499.0,486.0,531.0,541.0
471.0,469.0,515.0,543.0
469.0,473.0,523.0,557.0
530.0,493.0,481.0,498.0
589.0,526.0,557.0,593.0
484.0,518.0,505.0,491.0
476.0,528.0,475.0,534.0
469.0,510.0,454.0,640.0
466.0,505.0,502.0,600.0
532.0,522.0,524.0,576.0
552.0,525.0,620.0,386.0
674.0,542.0,620.0,508.0
672.0,553.0,469.0,550.0
632.0,534.0,474.0,478.0
612.0,533.0,567.0,495.0
603.0,528.0,592.0,489.0
586.0,504.0,679.0,507.0
584.0,514.0,598.0,521.0
534.0,500.0,387.0,528.0
456.0,480.0,414.0,512.0
418.0,504.0,485.0,539.0
371.0,512.0,503.0,501.0
335.0,494.0,452.0,527.0
338.0,456.0,459.0,523.0
441.0,486.0,501.0,480.0
515.0,503.0,520.0,456.0
583.0,498.0,533.0,563.0
602.0,515.0,480.0,529.0
659.0,537.0,506.0,469.0
627.0,540.0,569.0,526.0
612.0,536.0,511.0,513.0
588.0,517.0,511.0,522.0
573.0,504.0,516.0,470.0
574.0,509.0,562.0,533.0
549.0,499.0,524.0,540.0
537.0,505.0,499.0,535.0
524.0,497.0,501.0,490.0
520.0,506.0,501.0,466.0
517.0,517.0,528.0,527.0
529.0,518.0,484.0,507.0
519.0,510.0,470.0,487.0
504.0,492.0,516.0,503.0
509.0,500.0,483.0,512.0
503.0,498.0,471.0,502.0
504.0,499.0,571.0,498.0
507.0,491.0,547.0,482.0
532.0,533.0,510.0,461.0
519.0,512.0,514.0,581.0
519.0,509.0,527.0,493.0
507.0,495.0,566.0,608.0
487.0,497.0,586.0,582.0
491.0,488.0,544.0,436.0
503.0,507.0,465.0,510.0
487.0,510.0,486.0,416.0
478.0,495.0,500.0,480.0
478.0,485.0,514.0,622.0
508.0,495.0,448.0,614.0
511.0,503.0,382.0,497.0
477.0,507.0,583.0,445.0
422.0,518.0,593.0,551.0
349.0,491.0,500.0,434.0
339.0,478.0,511.0,523.0
342.0,479.0,555.0,507.0
404.0,481.0,561.0,473.0
525.0,503.0,603.0,506.0
608.0,516.0,544.0,470.0
612.0,523.0,545.0,466.0
520.0,515.0,463.0,495.0
442.0,484.0,539.0,463.0
393.0,473.0,539.0,609.0
344.0,463.0,448.0,621.0
363.0,487.0,458.0,478.0
346.0,459.0,442.0,436.0
472.0,491.0,428.0,443.0
530.0,490.0,521.0,511.0
539.0,505.0,534.0,586.0
578.0,519.0,517.0,554.0
614.0,542.0,513.0,536.0
637.0,543.0,491.0,502.0
624.0,535.0,532.0,514.0
627.0,533.0,500.0,503.0
619.0,533.0,565.0,589.0
596.0,518.0,548.0,561.0
551.0,530.0,552.0,468.0
520.0,516.0,571.0,545.0
421.0,475.0,493.0,516.0
332.0,480.0,533.0,554.0
338.0,481.0,569.0,554.0
352.0,481.0,584.0,496.0
394.0,479.0,492.0,460.0
526.0,501.0,443.0,503.0
565.0,500.0,469.0,568.0
632.0,561.0,515.0,492.0
675.0,567.0,358.0,414.0
645.0,515.0,511.0,479.0
614.0,525.0,526.0,535.0
669.0,561.0,574.0,525.0
641.0,533.0,618.0,546.0
598.0,504.0,514.0,500.0
540.0,471.0,554.0,513.0
538.0,486.0,520.0,447.0
494.0,480.0,509.0,456.0
433.0,475.0,503.0,530.0
396.0,455.0,469.0,516.0
388.0,431.0,424.0,497.0
427.0,501.0,518.0,478.0
538.0,524.0,541.0,524.0
659.0,537.0,491.0,516.0
649.0,564.0,542.0,498.0
560.0,535.0,548.0,479.0
543.0,505.0,448.0,541.0
556.0,499.0,443.0,442.0
555.0,519.0,573.0,581.0
546.0,509.0,559.0,508.0
592.0,523.0,521.0,462.0
612.0,522.0,567.0,515.0
564.0,500.0,515.0,546.0
539.0,497.0,520.0,504.0
517.0,488.0,536.0,523.0
514.0,508.0,550.0,477.0
514.0,506.0,571.0,393.0
521.0,522.0,399.0,481.0
517.0,526.0,432.0,496.0
517.0,538.0,491.0,461.0
508.0,526.0,444.0,561.0
509.0,525.0,504.0,526.0
500.0,506.0,449.0,371.0
501.0,506.0,501.0,599.0
515.0,508.0,539.0,510.0
522.0,509.0,538.0,503.0
522.0,495.0,551.0,569.0
534.0,511.0,525.0,472.0
515.0,507.0,563.0,450.0
506.0,518.0,515.0,530.0
502.0,502.0,511.0,584.0
498.0,498.0,528.0,430.0
489.0,493.0,572.0,554.0
490.0,498.0,500.0,519.0
488.0,507.0,530.0,546.0
477.0,506.0,432.0,376.0
478.0,506.0,507.0,597.0
458.0,483.0,519.0,575.0
445.0,504.0,501.0,542.0
445.0,511.0,547.0,538.0
459.0,494.0,560.0,488.0
416.0,484.0,513.0,452.0
373.0,482.0,496.0,486.0
402.0,497.0,569.0,490.0
414.0,498.0,674.0,567.0
443.0,478.0,593.0,552.0
480.0,480.0,381.0,470.0
492.0,482.0,520.0,467.0
568.0,512.0,484.0,449.0
551.0,514.0,481.0,597.0
512.0,487.0,538.0,519.0
557.0,512.0,481.0,469.0
650.0,546.0,478.0,501.0
625.0,548.0,498.0,490.0
566.0,529.0,505.0,500.0
492.0,513.0,518.0,523.0
440.0,497.0,480.0,513.0
416.0,486.0,499.0,492.0
440.0,490.0,480.0,455.0
480.0,502.0,487.0,438.0
546.0,521.0,525.0,433.0
539.0,506.0,562.0,570.0
570.0,504.0,481.0,513.0
535.0,491.0,514.0,487.0
401.0,465.0,519.0,504.0
336.0,469.0,563.0,493.0
308.0,473.0,501.0,551.0
294.0,472.0,463.0,493.0
291.0,475.0,505.0,422.0
401.0,504.0,513.0,552.0
559.0,524.0,532.0,535.0
608.0,521.0,480.0,553.0
611.0,485.0,503.0,496.0
692.0,508.0,477.0,446.0
766.0,550.0,516.0,512.0
745.0,557.0,524.0,490.0
660.0,538.0,495.0,505.0
621.0,534.0,486.0,466.0
607.0,532.0,635.0,508.0
607.0,529.0,616.0,574.0
585.0,496.0,509.0,530.0
566.0,485.0,530.0,490.0
552.0,489.0,487.0,464.0
545.0,527.0,457.0,517.0
535.0,524.0,481.0,503.0
528.0,516.0,490.0,457.0
534.0,522.0,477.0,497.0
515.0,509.0,483.0,442.0
524.0,503.0,493.0,522.0
505.0,495.0,496.0,506.0
501.0,498.0,517.0,532.0
512.0,515.0,475.0,524.0
516.0,501.0,522.0,544.0
466.0,478.0,550.0,458.0
457.0,498.0,537.0,484.0
467.0,482.0,518.0,528.0
465.0,483.0,518.0,486.0
444.0,478.0,607.0,564.0
467.0,492.0,518.0,528.0
550.0,514.0,521.0,517.0
637.0,546.0,508.0,531.0
576.0,526.0,516.0,522.0
541.0,514.0,490.0,423.0
538.0,536.0,480.0,494.0
533.0,527.0,471.0,501.0
525.0,517.0,500.0,499.0
527.0,519.0,480.0,552.0
521.0,495.0,508.0,525.0
534.0,504.0,568.0,433.0
543.0,509.0,518.0,470.0
541.0,508.0,516.0,501.0
534.0,514.0,547.0,528.0
518.0,512.0,560.0,522.0
507.0,515.0,513.0,494.0
495.0,501.0,494.0,479.0
499.0,514.0,493.0,526.0
495.0,518.0,484.0,448.0
496.0,517.0,504.0,532.0
495.0,505.0,495.0,564.0
500.0,493.0,489.0,493.0
499.0,493.0,498.0,514.0
509.0,505.0,479.0,508.0
509.0,503.0,483.0,464.0
518.0,501.0,541.0,514.0
512.0,498.0,508.0,541.0
516.0,518.0,516.0,507.0
527.0,527.0,538.0,483.0
498.0,509.0,571.0,482.0
438.0,493.0,562.0,542.0
416.0,492.0,540.0,510.0
369.0,475.0,508.0,489.0
327.0,463.0,525.0,545.0
347.0,457.0,464.0,441.0
474.0,490.0,463.0,479.0
468.0,497.0,562.0,495.0
493.0,505.0,581.0,521.0
598.0,533.0,522.0,503.0
575.0,532.0,433.0,490.0
542.0,522.0,452.0,514.0
508.0,505.0,477.0,530.0
499.0,511.0,479.0,557.0
493.0,514.0,526.0,489.0
525.0,521.0,549.0,403.0
513.0,505.0,522.0,416.0
552.0,496.0,552.0,486.0
568.0,495.0,534.0,480.0
638.0,512.0,603.0,558.0
629.0,509.0,526.0,509.0
572.0,507.0,532.0,514.0
544.0,505.0,534.0,521.0
535.0,505.0,484.0,551.0
552.0,519.0,468.0,517.0
535.0,517.0,450.0,527.0
518.0,509.0,475.0,522.0
491.0,514.0,495.0,463.0
479.0,496.0,455.0,450.0
475.0,505.0,476.0,523.0
518.0,519.0,534.0,527.0
523.0,517.0,520.0,440.0
561.0,496.0,468.0,479.0
527.0,483.0,507.0,550.0
483.0,507.0,554.0,549.0
461.0,503.0,571.0,453.0
418.0,489.0,567.0,418.0
364.0,465.0,518.0,500.0
410.0,488.0,564.0,518.0
506.0,509.0,501.0,531.0
485.0,502.0,431.0,488.0
495.0,501.0,449.0,512.0
611.0,538.0,455.0,515.0
606.0,534.0,507.0,471.0
617.0,515.0,441.0,518.0
595.0,512.0,487.0,496.0
565.0,510.0,582.0,485.0
544.0,513.0,526.0,551.0
540.0,518.0,395.0,446.0
504.0,512.0,532.0,430.0
479.0,504.0,606.0,534.0
459.0,504.0,585.0,498.0
453.0,483.0,492.0,505.0
467.0,471.0,509.0,461.0
494.0,483.0,552.0,519.0
596.0,528.0,579.0,559.0
564.0,527.0,511.0,486.0
528.0,524.0,451.0,461.0
515.0,499.0,457.0,534.0
530.0,501.0,506.0,521.0
554.0,505.0,481.0,511.0
537.0,503.0,548.0,520.0
523.0,495.0,499.0,504.0
545.0,520.0,479.0,468.0
562.0,530.0,469.0,483.0
558.0,541.0,570.0,591.0
557.0,536.0,562.0,508.0
548.0,520.0,554.0,488.0
529.0,508.0,521.0,480.0
521.0,500.0,503.0,506.0
504.0,479.0,519.0,483.0
498.0,475.0,468.0,503.0
494.0,487.0,443.0,590.0
491.0,506.0,488.0,438.0
498.0,505.0,471.0,516.0
506.0,509.0,492.0,541.0
488.0,494.0,479.0,486.0
469.0,495.0,471.0,474.0
474.0,494.0,523.0,492.0
457.0,489.0,507.0,497.0
467.0,478.0,491.0,536.0
501.0,500.0,527.0,414.0
500.0,532.0,530.0,517.0
524.0,524.0,545.0,509.0
508.0,517.0,555.0,441.0
468.0,498.0,508.0,460.0
458.0,489.0,495.0,502.0
477.0,481.0,535.0,503.0
527.0,494.0,522.0,576.0
591.0,507.0,528.0,516.0
590.0,538.0,506.0,434.0
534.0,523.0,469.0,455.0
509.0,517.0,494.0,492.0
491.0,507.0,493.0,481.0
473.0,506.0,518.0,549.0
492.0,507.0,522.0,510.0
473.0,505.0,460.0,503.0
437.0,508.0,477.0,502.0
434.0,496.0,504.0,496.0
469.0,522.0,524.0,415.0
475.0,501.0,593.0,507.0
478.0,488.0,529.0,463.0
570.0,502.0,514.0,503.0
607.0,513.0,557.0,552.0
521.0,477.0,533.0,565.0
450.0,474.0,485.0,506.0
449.0,483.0,486.0,503.0
475.0,510.0,519.0,477.0
479.0,513.0,510.0,526.0
527.0,523.0,420.0,533.0
537.0,512.0,485.0,489.0
510.0,503.0,552.0,490.0
505.0,499.0,482.0,446.0
512.0,500.0,501.0,528.0
528.0,508.0,524.0,536.0
570.0,515.0,469.0,438.0
639.0,521.0,546.0,515.0
599.0,533.0,544.0,529.0
507.0,506.0,580.0,542.0
511.0,506.0,522.0,513.0
503.0,503.0,529.0,513.0
516.0,487.0,517.0,471.0
543.0,495.0,460.0,459.0
554.0,517.0,475.0,492.0
572.0,524.0,535.0,547.0
580.0,526.0,481.0,552.0
543.0,521.0,448.0,533.0
529.0,518.0,539.0,464.0
533.0,521.0,571.0,427.0
532.0,525.0,488.0,471.0
524.0,508.0,446.0,498.0
541.0,494.0,498.0,474.0
543.0,495.0,511.0,494.0
529.0,508.0,534.0,511.0
504.0,507.0,550.0,514.0
497.0,499.0,527.0,507.0
502.0,506.0,526.0,511.0
492.0,476.0,498.0,502.0
485.0,448.0,492.0,503.0
529.0,476.0,476.0,528.0
510.0,509.0,484.0,469.0
490.0,517.0,483.0,496.0
506.0,550.0,539.0,452.0
495.0,518.0,542.0,388.0
520.0,511.0,456.0,558.0
530.0,512.0,454.0,507.0
534.0,525.0,437.0,546.0
532.0,524.0,512.0,570.0
533.0,526.0,543.0,467.0
527.0,522.0,527.0,466.0
530.0,512.0,555.0,541.0
525.0,505.0,550.0,507.0
518.0,503.0,516.0,487.0
504.0,483.0,500.0,445.0
494.0,481.0,532.0,437.0
498.0,503.0,509.0,565.0
500.0,516.0,495.0,597.0
501.0,517.0,486.0,486.0
503.0,515.0,492.0,492.0
505.0,519.0,515.0,494.0
501.0,512.0,495.0,479.0
494.0,511.0,451.0,428.0
497.0,505.0,566.0,521.0
517.0,506.0,516.0,536.0
523.0,506.0,544.0,511.0
524.0,507.0,559.0,508.0
525.0,499.0,480.0,479.0
527.0,504.0,519.0,499.0
517.0,499.0,529.0,460.0
508.0,481.0,518.0,505.0
502.0,490.0,525.0,543.0
506.0,500.0,523.0,499.0
495.0,505.0,493.0,513.0
496.0,514.0,433.0,511.0
504.0,515.0,485.0,495.0
501.0,507.0,488.0,506.0
501.0,499.0,466.0,488.0
500.0,491.0,484.0,469.0
512.0,511.0,500.0,519.0
520.0,512.0,501.0,502.0
517.0,510.0,499.0,485.0
512.0,502.0,510.0,492.0
522.0,505.0,527.0,498.0
516.0,504.0,523.0,493.0
492.0,498.0,537.0,488.0
457.0,489.0,524.0,496.0
416.0,475.0,533.0,503.0
368.0,471.0,524.0,501.0
345.0,469.0,513.0,500.0
388.0,477.0,492.0,519.0
431.0,491.0,493.0,474.0
505.0,491.0,470.0,456.0
618.0,525.0,474.0,498.0
670.0,529.0,462.0,549.0
610.0,522.0,488.0,513.0
577.0,517.0,499.0,471.0
565.0,515.0,483.0,458.0
559.0,517.0,491.0,488.0
545.0,519.0,511.0,496.0
522.0,524.0,525.0,479.0
532.0,532.0,543.0,501.0
511.0,516.0,543.0,508.0
493.0,494.0,524.0,494.0
487.0,501.0,517.0,491.0
516.0,489.0,512.0,496.0
544.0,500.0,500.0,497.0
531.0,508.0,484.0,494.0
511.0,509.0,480.0,497.0
549.0,517.0,479.0,492.0
529.0,519.0,470.0,499.0
504.0,511.0,475.0,493.0
538.0,516.0,487.0,491.0
536.0,503.0,491.0,486.0
533.0,511.0,501.0,483.0
535.0,513.0,510.0,477.0
560.0,525.0,523.0,487.0
561.0,521.0,532.0,491.0
546.0,513.0,536.0,488.0
527.0,498.0,533.0,488.0
520.0,502.0,532.0,493.0
515.0,490.0,522.0,499.0
511.0,493.0,514.0,499.0
505.0,497.0,492.0,501.0
502.0,508.0,483.0,500.0
505.0,513.0,479.0,495.0
508.0,523.0,473.0,494.0
509.0,519.0,482.0,492.0
504.0,503.0,479.0,489.0
508.0,506.0,478.0,488.0
508.0,506.0,489.0,485.0
513.0,508.0,498.0,485.0
519.0,507.0,512.0,485.0
527.0,507.0,525.0,495.0
528.0,507.0,534.0,491.0
525.0,505.0,531.0,494.0
519.0,497.0,528.0,494.0
517.0,501.0,522.0,494.0
496.0,485.0,511.0,514.0
498.0,495.0,500.0,486.0
500.0,502.0,483.0,491.0
506.0,509.0,484.0,493.0
503.0,506.0,479.0,504.0
505.0,508.0,476.0,501.0
508.0,506.0,476.0,499.0
510.0,509.0,478.0,492.0
508.0,504.0,484.0,486.0
509.0,503.0,492.0,486.0
515.0,501.0,504.0,490.0
520.0,504.0,514.0,489.0
528.0,510.0,527.0,491.0
529.0,508.0,531.0,491.0
527.0,506.0,529.0,494.0
511.0,496.0,526.0,496.0
503.0,490.0,520.0,500.0
499.0,483.0,509.0,500.0
500.0,491.0,497.0,503.0
501.0,504.0,490.0,508.0
504.0,507.0,480.0,505.0
507.0,511.0,479.0,503.0
504.0,514.0,476.0,500.0
507.0,505.0,475.0,496.0
513.0,511.0,478.0,496.0
512.0,508.0,485.0,490.0
516.0,507.0,494.0,490.0
517.0,507.0,508.0,493.0
525.0,506.0,521.0,492.0
531.0,509.0,528.0,490.0
530.0,520.0,534.0,494.0
522.0,504.0,531.0,495.0
517.0,500.0,528.0,496.0
504.0,492.0,519.0,501.0
500.0,491.0,505.0,500.0
496.0,497.0,497.0,500.0
498.0,501.0,487.0,512.0
501.0,506.0,483.0,505.0
504.0,507.0,481.0,506.0
510.0,517.0,480.0,502.0
505.0,514.0,480.0,495.0
509.0,515.0,485.0,500.0
511.0,506.0,495.0,500.0
515.0,510.0,508.0,500.0
521.0,510.0,517.0,494.0
522.0,508.0,527.0,498.0
526.0,511.0,537.0,499.0
535.0,514.0,534.0,497.0
517.0,494.0,530.0,499.0
515.0,490.0,525.0,500.0
509.0,488.0,512.0,502.0
507.0,494.0,504.0,503.0
505.0,493.0,489.0,499.0
500.0,503.0,482.0,504.0
504.0,506.0,477.0,503.0
511.0,511.0,477.0,503.0
510.0,496.0,475.0,498.0
513.0,508.0,479.0,497.0
516.0,520.0,482.0,496.0
521.0,518.0,495.0,496.0
519.0,513.0,507.0,497.0
519.0,495.0,520.0,499.0
525.0,510.0,533.0,494.0
531.0,507.0,537.0,499.0
532.0,503.0,538.0,500.0
519.0,486.0,532.0,503.0
512.0,478.0,526.0,503.0
498.0,473.0,514.0,506.0
490.0,486.0,496.0,506.0
488.0,499.0,495.0,511.0
492.0,506.0,483.0,510.0
502.0,506.0,477.0,507.0
518.0,517.0,478.0,506.0
520.0,524.0,480.0,501.0
520.0,524.0,483.0,501.0
520.0,511.0,492.0,500.0
516.0,502.0,498.0,497.0
519.0,476.0,511.0,497.0
527.0,482.0,524.0,499.0
532.0,505.0,532.0,499.0
536.0,531.0,540.0,504.0
525.0,514.0,534.0,503.0
518.0,526.0,533.0,503.0
508.0,532.0,521.0,503.0
501.0,521.0,506.0,502.0
496.0,520.0,492.0,506.0
494.0,507.0,486.0,508.0
493.0,500.0,481.0,508.0
502.0,515.0,479.0,506.0
507.0,514.0,480.0,502.0
502.0,507.0,481.0,505.0
510.0,520.0,484.0,502.0
511.0,509.0,496.0,501.0
517.0,508.0,506.0,501.0
528.0,510.0,517.0,499.0
532.0,510.0,531.0,503.0
534.0,516.0,539.0,505.0
528.0,506.0,540.0,507.0
518.0,506.0,536.0,506.0
517.0,513.0,529.0,507.0
504.0,510.0,517.0,508.0
499.0,500.0,506.0,511.0
498.0,505.0,496.0,511.0
502.0,515.0,487.0,510.0
504.0,514.0,483.0,508.0
502.0,504.0,479.0,509.0
507.0,504.0,480.0,512.0
507.0,506.0,484.0,507.0
511.0,503.0,490.0,501.0
521.0,501.0,499.0,502.0
521.0,498.0,515.0,503.0
529.0,494.0,525.0,500.0
538.0,496.0,535.0,506.0
535.0,498.0,540.0,505.0
526.0,494.0,542.0,505.0
514.0,500.0,536.0,507.0
513.0,502.0,528.0,508.0
507.0,499.0,525.0,511.0
508.0,512.0,506.0,513.0
505.0,516.0,496.0,512.0
506.0,511.0,492.0,513.0
509.0,484.0,483.0,511.0
512.0,483.0,484.0,516.0
512.0,506.0,485.0,505.0
518.0,522.0,489.0,509.0
518.0,513.0,499.0,504.0
514.0,492.0,505.0,504.0
516.0,510.0,517.0,505.0
516.0,504.0,527.0,506.0
525.0,501.0,535.0,506.0
524.0,518.0,541.0,506.0
529.0,523.0,537.0,508.0
524.0,515.0,533.0,508.0
512.0,502.0,522.0,509.0
515.0,519.0,512.0,511.0
501.0,494.0,501.0,512.0
501.0,482.0,491.0,514.0
498.0,492.0,483.0,509.0
508.0,502.0,484.0,511.0
506.0,506.0,481.0,510.0
503.0,508.0,480.0,505.0
512.0,521.0,489.0,502.0
510.0,552.0,496.0,504.0
514.0,527.0,509.0,503.0
533.0,526.0,521.0,504.0
537.0,522.0,532.0,505.0
529.0,511.0,540.0,507.0
525.0,491.0,543.0,507.0
517.0,471.0,533.0,507.0
517.0,475.0,533.0,508.0
507.0,489.0,520.0,511.0
497.0,502.0,510.0,512.0
495.0,502.0,499.0,511.0
503.0,513.0,494.0,515.0
506.0,523.0,486.0,517.0
508.0,514.0,487.0,514.0
506.0,513.0,486.0,514.0
507.0,504.0,488.0,509.0
514.0,526.0,494.0,506.0
518.0,525.0,503.0,503.0
518.0,519.0,514.0,506.0
527.0,515.0,525.0,502.0
532.0,503.0,531.0,503.0
530.0,493.0,537.0,506.0
525.0,479.0,538.0,505.0
511.0,480.0,532.0,505.0
501.0,490.0,526.0,505.0
494.0,487.0,516.0,510.0
494.0,484.0,505.0,509.0
496.0,498.0,495.0,513.0
500.0,519.0,489.0,513.0
503.0,519.0,485.0,512.0
504.0,520.0,488.0,511.0
503.0,516.0,484.0,509.0
512.0,520.0,493.0,508.0
510.0,526.0,497.0,505.0
516.0,529.0,505.0,505.0
524.0,529.0,517.0,505.0
528.0,528.0,529.0,504.0
537.0,542.0,540.0,505.0
538.0,499.0,544.0,511.0
526.0,469.0,541.0,510.0
521.0,486.0,536.0,509.0
508.0,487.0,527.0,511.0
504.0,484.0,513.0,510.0
502.0,493.0,499.0,511.0
500.0,499.0,492.0,512.0
494.0,495.0,484.0,510.0
497.0,494.0,483.0,510.0
499.0,502.0,482.0,508.0
502.0,497.0,485.0,503.0
509.0,493.0,490.0,504.0
509.0,486.0,501.0,500.0
515.0,486.0,510.0,502.0
519.0,499.0,521.0,506.0
524.0,516.0,529.0,506.0
527.0,516.0,539.0,505.0
527.0,519.0,542.0,505.0
518.0,506.0,537.0,509.0
513.0,501.0,534.0,510.0
504.0,493.0,523.0,510.0
499.0,475.0,514.0,516.0
497.0,475.0,505.0,517.0
500.0,489.0,498.0,515.0
497.0,497.0,492.0,515.0
500.0,511.0,489.0,514.0
504.0,542.0,487.0,510.0
504.0,547.0,487.0,506.0
508.0,531.0,492.0,506.0
512.0,508.0,508.0,506.0
517.0,509.0,512.0,505.0
522.0,512.0,524.0,506.0
524.0,513.0,535.0,507.0
522.0,514.0,540.0,511.0
522.0,502.0,541.0,510.0
517.0,483.0,536.0,510.0
506.0,467.0,526.0,512.0
504.0,483.0,514.0,510.0
503.0,485.0,500.0,511.0
503.0,474.0,488.0,511.0
504.0,490.0,484.0,513.0
514.0,523.0,483.0,512.0
525.0,566.0,483.0,514.0
523.0,535.0,487.0,511.0
532.0,551.0,494.0,515.0
526.0,535.0,499.0,507.0
520.0,476.0,510.0,510.0
523.0,512.0,522.0,504.0
524.0,509.0,531.0,508.0
513.0,514.0,540.0,509.0
505.0,516.0,543.0,510.0
502.0,512.0,546.0,512.0
500.0,487.0,533.0,510.0
494.0,507.0,524.0,515.0
496.0,521.0,513.0,518.0
499.0,523.0,503.0,520.0
504.0,526.0,495.0,521.0
508.0,505.0,489.0,518.0
512.0,519.0,487.0,517.0
513.0,534.0,485.0,515.0
506.0,502.0,490.0,516.0
502.0,486.0,500.0,516.0
505.0,492.0,511.0,514.0
511.0,507.0,519.0,511.0
514.0,516.0,526.0,513.0
524.0,510.0,537.0,512.0
527.0,502.0,536.0,508.0
526.0,493.0,539.0,507.0
513.0,475.0,533.0,512.0
513.0,487.0,529.0,505.0
506.0,491.0,515.0,507.0
500.0,490.0,500.0,507.0
499.0,496.0,492.0,507.0
505.0,495.0,482.0,505.0
509.0,493.0,479.0,509.0
507.0,475.0,479.0,508.0
505.0,491.0,481.0,506.0
510.0,513.0,482.0,503.0
510.0,492.0,486.0,504.0
512.0,489.0,497.0,506.0
517.0,511.0,518.0,509.0
527.0,540.0,530.0,515.0
533.0,537.0,530.0,513.0
531.0,512.0,553.0,519.0
527.0,505.0,541.0,519.0
511.0,496.0,535.0,516.0
507.0,494.0,532.0,519.0
499.0,495.0,518.0,515.0
501.0,501.0,510.0,516.0
501.0,510.0,502.0,518.0
501.0,515.0,492.0,514.0
498.0,509.0,490.0,516.0
502.0,512.0,484.0,512.0
509.0,498.0,480.0,508.0
514.0,507.0,486.0,509.0
514.0,500.0,492.0,505.0
518.0,502.0,501.0,509.0
521.0,527.0,515.0,511.0
530.0,535.0,526.0,514.0
531.0,527.0,532.0,515.0
529.0,507.0,540.0,516.0
519.0,510.0,538.0,516.0
512.0,512.0,535.0,511.0
515.0,517.0,525.0,514.0
511.0,506.0,515.0,514.0
511.0,506.0,502.0,515.0
508.0,496.0,492.0,521.0
506.0,499.0,481.0,516.0
506.0,491.0,479.0,516.0
509.0,460.0,481.0,511.0
495.0,437.0,479.0,510.0
489.0,449.0,487.0,508.0
500.0,488.0,491.0,508.0
513.0,496.0,507.0,505.0
512.0,550.0,516.0,510.0
526.0,551.0,527.0,512.0
521.0,535.0,539.0,516.0
523.0,534.0,542.0,519.0
519.0,538.0,542.0,520.0
522.0,573.0,537.0,529.0
513.0,585.0,529.0,531.0
504.0,525.0,523.0,532.0
501.0,526.0,518.0,535.0
493.0,461.0,513.0,535.0
489.0,471.0,504.0,531.0
493.0,495.0,497.0,525.0
503.0,501.0,490.0,521.0
496.0,490.0,490.0,518.0
490.0,483.0,496.0,510.0
497.0,518.0,500.0,506.0
511.0,539.0,506.0,503.0
518.0,532.0,520.0,506.0
521.0,515.0,530.0,506.0
524.0,516.0,538.0,509.0
524.0,518.0,538.0,511.0
517.0,507.0,528.0,508.0
510.0,486.0,521.0,508.0
507.0,484.0,510.0,508.0
504.0,482.0,500.0,510.0
496.0,488.0,490.0,512.0
502.0,507.0,478.0,509.0
508.0,512.0,471.0,504.0
510.0,514.0,467.0,501.0
508.0,500.0,475.0,503.0
511.0,504.0,476.0,504.0
511.0,494.0,485.0,502.0
511.0,501.0,496.0,504.0
516.0,502.0,507.0,505.0
523.0,507.0,521.0,508.0
527.0,508.0,534.0,508.0
534.0,512.0,538.0,514.0
534.0,515.0,537.0,516.0
521.0,503.0,532.0,519.0
510.0,475.0,546.0,527.0
503.0,457.0,526.0,523.0
498.0,462.0,496.0,517.0
492.0,483.0,490.0,516.0
492.0,495.0,485.0,511.0
504.0,517.0,482.0,512.0
507.0,535.0,477.0,513.0
500.0,542.0,476.0,508.0
509.0,525.0,481.0,502.0
509.0,524.0,490.0,511.0
515.0,518.0,501.0,518.0
522.0,478.0,517.0,520.0
527.0,484.0,527.0,518.0
526.0,466.0,543.0,525.0
529.0,457.0,550.0,528.0
516.0,470.0,551.0,523.0
504.0,513.0,548.0,520.0
498.0,504.0,532.0,517.0
502.0,480.0,515.0,509.0
500.0,487.0,505.0,505.0
503.0,492.0,482.0,498.0
499.0,481.0,463.0,497.0
502.0,491.0,462.0,498.0
497.0,541.0,464.0,495.0
497.0,556.0,471.0,496.0
509.0,544.0,481.0,502.0
515.0,521.0,495.0,504.0
518.0,508.0,507.0,510.0
521.0,507.0,524.0,509.0
528.0,510.0,533.0,508.0
527.0,518.0,536.0,508.0
518.0,533.0,533.0,503.0
515.0,516.0,525.0,500.0
511.0,492.0,519.0,494.0
504.0,493.0,508.0,498.0
502.0,501.0,497.0,497.0
505.0,502.0,488.0,499.0
505.0,492.0,481.0,501.0
501.0,487.0,479.0,504.0
509.0,504.0,478.0,503.0
506.0,530.0,478.0,505.0
506.0,530.0,487.0,506.0
511.0,525.0,494.0,504.0
516.0,482.0,506.0,511.0
518.0,505.0,522.0,519.0
527.0,515.0,529.0,517.0
535.0,536.0,541.0,521.0
541.0,572.0,544.0,519.0
528.0,497.0,541.0,516.0
516.0,455.0,528.0,505.0
497.0,471.0,514.0,502.0
500.0,492.0,503.0,498.0
494.0,471.0,491.0,495.0
498.0,479.0,480.0,492.0
502.0,489.0,477.0,496.0
500.0,521.0,479.0,504.0
506.0,551.0,485.0,506.0
501.0,503.0,483.0,507.0
517.0,535.0,490.0,505.0
517.0,588.0,499.0,502.0
531.0,553.0,505.0,500.0
537.0,522.0,518.0,502.0
538.0,459.0,531.0,506.0
528.0,455.0,533.0,503.0
512.0,426.0,531.0,503.0
494.0,471.0,526.0,507.0
500.0,533.0,523.0,505.0
493.0,499.0,514.0,508.0
493.0,532.0,503.0,507.0
505.0,551.0,491.0,507.0
510.0,548.0,485.0,510.0
501.0,536.0,481.0,511.0
505.0,501.0,479.0,517.0
506.0,486.0,479.0,508.0
508.0,478.0,481.0,504.0
511.0,490.0,488.0,508.0
514.0,510.0,503.0,508.0
512.0,509.0,514.0,510.0
516.0,514.0,534.0,516.0
515.0,516.0,549.0,519.0
519.0,502.0,554.0,520.0
517.0,460.0,548.0,521.0
503.0,477.0,542.0,515.0
503.0,493.0,534.0,517.0
505.0,508.0,519.0,517.0
504.0,526.0,501.0,518.0
496.0,521.0,487.0,510.0
501.0,518.0,484.0,504.0
502.0,507.0,475.0,503.0
504.0,515.0,476.0,505.0
501.0,507.0,472.0,503.0
497.0,501.0,476.0,502.0
496.0,491.0,485.0,501.0
505.0,492.0,501.0,507.0
514.0,494.0,512.0,508.0
522.0,510.0,521.0,512.0
525.0,519.0,535.0,511.0
528.0,509.0,548.0,518.0
520.0,495.0,552.0,509.0
509.0,487.0,535.0,505.0
496.0,484.0,513.0,509.0
493.0,484.0,499.0,503.0
503.0,494.0,485.0,499.0
505.0,506.0,483.0,503.0
505.0,522.0,485.0,508.0
512.0,521.0,470.0,506.0
514.0,517.0,471.0,500.0
507.0,502.0,479.0,505.0
510.0,505.0,491.0,505.0
506.0,506.0,494.0,502.0
514.0,502.0,501.0,506.0
521.0,503.0,516.0,511.0
527.0,510.0,525.0,507.0
526.0,511.0,535.0,512.0
525.0,512.0,537.0,516.0
515.0,504.0,536.0,515.0
510.0,501.0,530.0,514.0
505.0,496.0,518.0,512.0
501.0,496.0,507.0,511.0
499.0,497.0,498.0,509.0
501.0,504.0,488.0,515.0
503.0,497.0,487.0,518.0
505.0,485.0,486.0,514.0
509.0,484.0,487.0,515.0
515.0,506.0,487.0,506.0
516.0,512.0,493.0,511.0
518.0,537.0,502.0,510.0
517.0,538.0,510.0,512.0
517.0,482.0,523.0,513.0
527.0,494.0,533.0,515.0
529.0,528.0,538.0,514.0
525.0,493.0,539.0,516.0
520.0,496.0,537.0,513.0
514.0,490.0,531.0,523.0
507.0,489.0,518.0,521.0
504.0,503.0,510.0,522.0
498.0,502.0,499.0,519.0
502.0,522.0,492.0,518.0
497.0,518.0,485.0,517.0
504.0,522.0,483.0,514.0
504.0,515.0,484.0,509.0
506.0,511.0,486.0,507.0
520.0,513.0,494.0,506.0
525.0,504.0,502.0,509.0
527.0,485.0,514.0,509.0
535.0,485.0,525.0,510.0
533.0,466.0,532.0,515.0
536.0,490.0,539.0,523.0
523.0,469.0,539.0,520.0
509.0,490.0,535.0,518.0
503.0,488.0,526.0,520.0
486.0,497.0,517.0,522.0
487.0,527.0,507.0,524.0
497.0,515.0,501.0,520.0
499.0,528.0,496.0,523.0
501.0,521.0,496.0,519.0
506.0,521.0,491.0,523.0
514.0,519.0,488.0,516.0
511.0,531.0,491.0,513.0
505.0,526.0,497.0,507.0
504.0,514.0,504.0,505.0
514.0,519.0,516.0,505.0
518.0,522.0,529.0,509.0
525.0,514.0,532.0,510.0
522.0,517.0,539.0,515.0
517.0,509.0,539.0,518.0
505.0,476.0,536.0,518.0
495.0,454.0,524.0,518.0
495.0,459.0,510.0,520.0
500.0,472.0,497.0,515.0
499.0,494.0,490.0,515.0
506.0,528.0,484.0,514.0
523.0,556.0,482.0,516.0
518.0,563.0,484.0,516.0
506.0,551.0,486.0,519.0
513.0,556.0,494.0,521.0
510.0,495.0,507.0,519.0
520.0,483.0,526.0,523.0
525.0,522.0,540.0,527.0
524.0,509.0,559.0,525.0
522.0,481.0,562.0,524.0
524.0,488.0,550.0,518.0
514.0,480.0,535.0,512.0
505.0,471.0,521.0,504.0
490.0,488.0,501.0,501.0
494.0,497.0,486.0,494.0
498.0,506.0,478.0,494.0
502.0,516.0,473.0,496.0
502.0,510.0,474.0,503.0
511.0,516.0,476.0,501.0
510.0,515.0,480.0,498.0
515.0,510.0,483.0,503.0
513.0,507.0,493.0,501.0
514.0,504.0,502.0,504.0
519.0,505.0,514.0,505.0
526.0,511.0,524.0,507.0
525.0,515.0,532.0,508.0
524.0,513.0,535.0,508.0
519.0,498.0,533.0,510.0
516.0,486.0,526.0,508.0
511.0,480.0,520.0,510.0
508.0,480.0,511.0,513.0
507.0,486.0,503.0,515.0
508.0,504.0,495.0,515.0
505.0,510.0,492.0,517.0
500.0,519.0,485.0,517.0
499.0,528.0,491.0,517.0
502.0,508.0,493.0,513.0
510.0,506.0,494.0,514.0
509.0,495.0,502.0,513.0
506.0,498.0,514.0,514.0
512.0,504.0,522.0,514.0
518.0,517.0,534.0,514.0
523.0,512.0,535.0,514.0
522.0,514.0,533.0,514.0
514.0,503.0,534.0,510.0
506.0,502.0,525.0,510.0
502.0,501.0,512.0,509.0
500.0,498.0,506.0,507.0
500.0,502.0,498.0,509.0
502.0,506.0,491.0,512.0
500.0,507.0,488.0,517.0
509.0,514.0,494.0,515.0
507.0,516.0,488.0,512.0
505.0,505.0,485.0,511.0
507.0,500.0,492.0,507.0
511.0,499.0,501.0,509.0
514.0,496.0,511.0,510.0
523.0,494.0,521.0,512.0
526.0,483.0,532.0,513.0
528.0,483.0,537.0,516.0
527.0,495.0,539.0,515.0
518.0,493.0,534.0,519.0
509.0,527.0,527.0,520.0
506.0,523.0,520.0,519.0
502.0,505.0,511.0,521.0
495.0,499.0,506.0,524.0
499.0,497.0,502.0,522.0
506.0,503.0,500.0,524.0
513.0,512.0,496.0,522.0
512.0,527.0,488.0,512.0
504.0,533.0,489.0,506.0
510.0,526.0,493.0,510.0
515.0,518.0,507.0,509.0
516.0,499.0,520.0,514.0
523.0,503.0,522.0,512.0
531.0,510.0,528.0,509.0
529.0,498.0,536.0,518.0
524.0,486.0,540.0,519.0
511.0,491.0,534.0,517.0
498.0,489.0,526.0,518.0
499.0,497.0,517.0,516.0
498.0,492.0,505.0,516.0
504.0,489.0,494.0,517.0
513.0,529.0,491.0,514.0
515.0,528.0,486.0,515.0
521.0,514.0,485.0,513.0
502.0,522.0,487.0,510.0
504.0,470.0,489.0,513.0
510.0,497.0,495.0,509.0
509.0,487.0,505.0,512.0
504.0,503.0,518.0,512.0
517.0,517.0,537.0,514.0
523.0,513.0,538.0,518.0
523.0,497.0,543.0,520.0
514.0,484.0,538.0,519.0
515.0,493.0,539.0,521.0
505.0,505.0,527.0,522.0
504.0,490.0,514.0,519.0
501.0,484.0,503.0,521.0
506.0,486.0,495.0,521.0
506.0,488.0,489.0,520.0
520.0,524.0,491.0,518.0
512.0,533.0,493.0,517.0
506.0,513.0,488.0,510.0
509.0,525.0,490.0,508.0
520.0,517.0,499.0,510.0
525.0,519.0,507.0,507.0
529.0,509.0,519.0,506.0
526.0,487.0,529.0,509.0
516.0,508.0,536.0,511.0
521.0,528.0,538.0,514.0
514.0,511.0,533.0,511.0
508.0,507.0,526.0,514.0
497.0,511.0,519.0,522.0
499.0,498.0,514.0,520.0
503.0,498.0,507.0,522.0
510.0,501.0,501.0,521.0
518.0,504.0,492.0,519.0
519.0,518.0,493.0,519.0
512.0,511.0,491.0,516.0
511.0,521.0,489.0,513.0
506.0,525.0,491.0,509.0
502.0,522.0,504.0,506.0
516.0,518.0,517.0,511.0
523.0,516.0,525.0,515.0
523.0,502.0,535.0,513.0
527.0,500.0,540.0,517.0
524.0,500.0,535.0,517.0
515.0,503.0,535.0,519.0
507.0,500.0,530.0,516.0
502.0,496.0,515.0,516.0
498.0,488.0,507.0,515.0
498.0,492.0,502.0,519.0
496.0,504.0,491.0,514.0
500.0,511.0,484.0,507.0
509.0,528.0,483.0,510.0
505.0,518.0,483.0,509.0
510.0,521.0,487.0,509.0
509.0,502.0,496.0,506.0
511.0,470.0,504.0,507.0
524.0,502.0,515.0,509.0
529.0,503.0,528.0,515.0
529.0,501.0,538.0,515.0
524.0,505.0,540.0,514.0
516.0,502.0,536.0,515.0
514.0,498.0,535.0,516.0
504.0,496.0,525.0,517.0
501.0,488.0,516.0,516.0
497.0,490.0,505.0,520.0
500.0,500.0,494.0,518.0
499.0,503.0,485.0,516.0
506.0,514.0,490.0,517.0
507.0,512.0,491.0,521.0
500.0,503.0,498.0,524.0
505.0,506.0,510.0,523.0
510.0,511.0,518.0,521.0
513.0,511.0,521.0,517.0
520.0,510.0,527.0,514.0
526.0,511.0,525.0,507.0
527.0,511.0,534.0,508.0
524.0,497.0,534.0,510.0
517.0,475.0,530.0,513.0
507.0,468.0,526.0,517.0
500.0,474.0,518.0,515.0
499.0,486.0,508.0,513.0
503.0,513.0,497.0,516.0
503.0,506.0,491.0,516.0
502.0,506.0,492.0,514.0
508.0,525.0,487.0,512.0
510.0,532.0,485.0,511.0
515.0,528.0,487.0,509.0
510.0,472.0,492.0,510.0
520.0,474.0,504.0,512.0
516.0,509.0,514.0,508.0
522.0,554.0,526.0,512.0
525.0,542.0,532.0,512.0
521.0,501.0,536.0,515.0
521.0,499.0,538.0,514.0
513.0,489.0,532.0,516.0
502.0,491.0,528.0,519.0
498.0,500.0,517.0,520.0
499.0,494.0,507.0,517.0
504.0,502.0,495.0,521.0
503.0,506.0,489.0,520.0
505.0,511.0,489.0,520.0
507.0,505.0,490.0,518.0
506.0,511.0,495.0,520.0
499.0,523.0,502.0,520.0
510.0,526.0,506.0,518.0
514.0,531.0,514.0,514.0
523.0,528.0,521.0,516.0
525.0,512.0,530.0,513.0
526.0,466.0,535.0,512.0
524.0,474.0,538.0,512.0
522.0,507.0,533.0,510.0
517.0,538.0,528.0,510.0
511.0,529.0,520.0,511.0
499.0,490.0,512.0,515.0
488.0,481.0,502.0,519.0
495.0,499.0,494.0,518.0
498.0,479.0,493.0,518.0
505.0,508.0,488.0,517.0
506.0,515.0,488.0,515.0
506.0,499.0,490.0,515.0
509.0,497.0,495.0,514.0
514.0,506.0,503.0,514.0
516.0,531.0,515.0,515.0
525.0,518.0,526.0,516.0
532.0,503.0,537.0,517.0
529.0,506.0,543.0,517.0
527.0,496.0,542.0,518.0
512.0,488.0,537.0,518.0
516.0,520.0,532.0,518.0
512.0,547.0,522.0,516.0
506.0,551.0,511.0,518.0
511.0,565.0,502.0,517.0
502.0,478.0,495.0,519.0
497.0,467.0,489.0,517.0
503.0,507.0,486.0,516.0
507.0,515.0,487.0,512.0
503.0,515.0,495.0,512.0
511.0,514.0,495.0,508.0
520.0,515.0,503.0,507.0
519.0,509.0,515.0,509.0
529.0,484.0,525.0,507.0
534.0,495.0,535.0,512.0
536.0,497.0,540.0,513.0
526.0,496.0,538.0,518.0
519.0,490.0,536.0,516.0
499.0,487.0,530.0,519.0
481.0,491.0,520.0,522.0
485.0,498.0,509.0,525.0
495.0,500.0,505.0,528.0
499.0,507.0,500.0,527.0
501.0,506.0,497.0,525.0
506.0,507.0,494.0,519.0
502.0,495.0,499.0,517.0
503.0,496.0,492.0,508.0
507.0,501.0,498.0,505.0
507.0,513.0,505.0,505.0
519.0,514.0,513.0,502.0
526.0,500.0,523.0,506.0
529.0,493.0,531.0,510.0
532.0,487.0,539.0,516.0
526.0,491.0,535.0,517.0
517.0,493.0,530.0,517.0
505.0,494.0,521.0,517.0
497.0,502.0,511.0,518.0
491.0,504.0,505.0,519.0
492.0,503.0,495.0,520.0
493.0,508.0,495.0,518.0
502.0,522.0,490.0,517.0
507.0,523.0,494.0,514.0
507.0,519.0,490.0,513.0
510.0,507.0,494.0,509.0
513.0,492.0,503.0,510.0
514.0,496.0,510.0,508.0
523.0,513.0,525.0,509.0
537.0,524.0,532.0,510.0
539.0,530.0,538.0,515.0
533.0,530.0,539.0,516.0
522.0,524.0,536.0,516.0
513.0,487.0,528.0,517.0
492.0,455.0,524.0,520.0
498.0,480.0,511.0,516.0
494.0,498.0,505.0,521.0
497.0,512.0,494.0,520.0
506.0,507.0,495.0,515.0
508.0,511.0,491.0,514.0
503.0,506.0,485.0,512.0
505.0,491.0,488.0,511.0
511.0,488.0,494.0,507.0
517.0,513.0,504.0,507.0
522.0,510.0,514.0,512.0
527.0,491.0,527.0,522.0
530.0,524.0,538.0,513.0
534.0,543.0,543.0,524.0
527.0,531.0,540.0,516.0
511.0,507.0,535.0,510.0
503.0,486.0,524.0,514.0
499.0,499.0,513.0,516.0
495.0,497.0,502.0,515.0
503.0,502.0,494.0,513.0
501.0,504.0,491.0,520.0
508.0,487.0,491.0,517.0
510.0,482.0,491.0,515.0
511.0,478.0,490.0,513.0
510.0,505.0,488.0,510.0
515.0,529.0,497.0,509.0
516.0,530.0,509.0,510.0
521.0,542.0,521.0,513.0
524.0,529.0,533.0,514.0
525.0,512.0,541.0,516.0
525.0,498.0,544.0,520.0
518.0,501.0,540.0,519.0
510.0,497.0,532.0,517.0
506.0,498.0,524.0,518.0
502.0,495.0,514.0,521.0
507.0,520.0,506.0,520.0
505.0,547.0,496.0,522.0
507.0,512.0,490.0,519.0
506.0,493.0,484.0,517.0
502.0,492.0,483.0,510.0
500.0,490.0,487.0,505.0
507.0,491.0,492.0,506.0
507.0,481.0,505.0,507.0
506.0,492.0,513.0,505.0
515.0,523.0,523.0,509.0
523.0,525.0,532.0,510.0
523.0,524.0,539.0,512.0
527.0,510.0,540.0,514.0
518.0,496.0,537.0,517.0
511.0,485.0,531.0,514.0
500.0,483.0,520.0,518.0
501.0,487.0,507.0,517.0
505.0,500.0,499.0,518.0
511.0,491.0,493.0,516.0
506.0,493.0,489.0,516.0
499.0,511.0,487.0,515.0
499.0,485.0,487.0,511.0
495.0,508.0,486.0,512.0
505.0,505.0,495.0,509.0
511.0,514.0,503.0,509.0
522.0,518.0,514.0,512.0
530.0,517.0,530.0,513.0
527.0,529.0,537.0,512.0
528.0,521.0,541.0,516.0
526.0,505.0,540.0,515.0
517.0,496.0,534.0,516.0
511.0,486.0,529.0,514.0
506.0,490.0,518.0,517.0
505.0,505.0,507.0,518.0
497.0,526.0,500.0,520.0
498.0,529.0,491.0,519.0
505.0,518.0,486.0,516.0
513.0,517.0,487.0,514.0
510.0,508.0,489.0,515.0
506.0,502.0,492.0,511.0
507.0,504.0,499.0,512.0
512.0,509.0,509.0,509.0
522.0,519.0,521.0,510.0
527.0,509.0,531.0,512.0
529.0,498.0,538.0,514.0
529.0,495.0,545.0,518.0
527.0,489.0,543.0,518.0
512.0,496.0,531.0,518.0
503.0,499.0,527.0,521.0
489.0,497.0,517.0,523.0
493.0,493.0,507.0,519.0
500.0,507.0,502.0,523.0
503.0,520.0,496.0,523.0
513.0,525.0,495.0,524.0
512.0,521.0,493.0,516.0
508.0,518.0,493.0,516.0
508.0,513.0,493.0,512.0
510.0,511.0,499.0,509.0
513.0,511.0,507.0,505.0
520.0,515.0,516.0,510.0
525.0,515.0,529.0,512.0
526.0,510.0,537.0,517.0
527.0,497.0,539.0,517.0
522.0,496.0,537.0,516.0
509.0,502.0,534.0,518.0
502.0,514.0,531.0,519.0
494.0,504.0,518.0,519.0
496.0,480.0,502.0,517.0
499.0,489.0,492.0,513.0
499.0,501.0,490.0,518.0
506.0,505.0,491.0,517.0
513.0,507.0,489.0,515.0
510.0,489.0,495.0,517.0
509.0,480.0,500.0,511.0
506.0,491.0,506.0,513.0
511.0,504.0,512.0,511.0
525.0,526.0,520.0,509.0
528.0,525.0,530.0,509.0
528.0,512.0,536.0,510.0
521.0,501.0,537.0,514.0
515.0,498.0,533.0,515.0
505.0,484.0,527.0,515.0
497.0,486.0,519.0,518.0
499.0,496.0,504.0,516.0
501.0,498.0,494.0,511.0
505.0,491.0,489.0,514.0
507.0,513.0,485.0,513.0
513.0,516.0,487.0,511.0
512.0,498.0,487.0,512.0
499.0,527.0,493.0,509.0
505.0,508.0,500.0,513.0
513.0,511.0,511.0,516.0
521.0,512.0,520.0,519.0
528.0,516.0,531.0,515.0
528.0,506.0,537.0,515.0
530.0,502.0,541.0,514.0
526.0,490.0,537.0,509.0
519.0,470.0,531.0,511.0
511.0,465.0,522.0,512.0
505.0,458.0,513.0,514.0
498.0,511.0,500.0,516.0
500.0,534.0,497.0,517.0
505.0,518.0,487.0,515.0
514.0,511.0,488.0,514.0
514.0,509.0,483.0,513.0
506.0,514.0,487.0,513.0
502.0,523.0,493.0,509.0
507.0,528.0,503.0,511.0
511.0,525.0,510.0,514.0
514.0,521.0,526.0,515.0
523.0,520.0,539.0,513.0
521.0,511.0,545.0,517.0
524.0,509.0,543.0,517.0
516.0,497.0,537.0,513.0
508.0,489.0,532.0,514.0
497.0,482.0,518.0,515.0
502.0,495.0,511.0,516.0
500.0,508.0,500.0,519.0
501.0,516.0,496.0,518.0
504.0,512.0,486.0,515.0
509.0,514.0,487.0,516.0
507.0,510.0,484.0,511.0
507.0,513.0,491.0,511.0
509.0,510.0,494.0,509.0
512.0,516.0,503.0,512.0
515.0,519.0,518.0,515.0
525.0,524.0,524.0,516.0
529.0,537.0,535.0,522.0
531.0,503.0,543.0,518.0
525.0,513.0,542.0,518.0
517.0,498.0,534.0,515.0
506.0,491.0,531.0,514.0
502.0,493.0,517.0,517.0
492.0,453.0,505.0,518.0
499.0,477.0,496.0,517.0
502.0,495.0,492.0,520.0
505.0,496.0,489.0,517.0
511.0,503.0,489.0,518.0
508.0,514.0,487.0,516.0
504.0,511.0,493.0,513.0
506.0,505.0,503.0,514.0
511.0,503.0,514.0,514.0
521.0,519.0,522.0,514.0
530.0,534.0,531.0,515.0
532.0,530.0,537.0,514.0
531.0,525.0,541.0,515.0
518.0,476.0,538.0,522.0
507.0,490.0,532.0,514.0
502.0,486.0,522.0,514.0
498.0,476.0,518.0,515.0
499.0,479.0,499.0,512.0
502.0,488.0,494.0,514.0
503.0,485.0,487.0,514.0
503.0,517.0,488.0,513.0
508.0,528.0,488.0,512.0
507.0,516.0,490.0,512.0
510.0,508.0,492.0,507.0
517.0,503.0,501.0,508.0
519.0,505.0,513.0,510.0
528.0,515.0,525.0,513.0
528.0,515.0,534.0,513.0
527.0,508.0,545.0,516.0
523.0,508.0,540.0,516.0
515.0,501.0,538.0,518.0
505.0,484.0,530.0,513.0
500.0,482.0,520.0,518.0
499.0,472.0,508.0,519.0
502.0,478.0,505.0,521.0
501.0,474.0,499.0,522.0
501.0,488.0,495.0,526.0
509.0,548.0,497.0,522.0
519.0,533.0,493.0,516.0
513.0,512.0,492.0,513.0
518.0,513.0,493.0,509.0
516.0,517.0,504.0,509.0
522.0,518.0,516.0,510.0
515.0,527.0,527.0,513.0
524.0,533.0,536.0,514.0
525.0,521.0,539.0,511.0
516.0,513.0,536.0,510.0
513.0,509.0,531.0,511.0
500.0,491.0,523.0,507.0
497.0,490.0,511.0,513.0
499.0,499.0,502.0,513.0
495.0,504.0,493.0,517.0
501.0,527.0,489.0,515.0
505.0,523.0,486.0,514.0
507.0,516.0,488.0,514.0
505.0,514.0,492.0,513.0
505.0,502.0,492.0,511.0
508.0,499.0,497.0,509.0
513.0,498.0,505.0,509.0
518.0,497.0,515.0,508.0
522.0,501.0,526.0,510.0
525.0,518.0,535.0,511.0
529.0,515.0,536.0,512.0
522.0,528.0,535.0,515.0
520.0,521.0,531.0,514.0
511.0,503.0,522.0,515.0
505.0,462.0,512.0,518.0
505.0,479.0,501.0,520.0
505.0,505.0,496.0,519.0
514.0,521.0,489.0,519.0
508.0,539.0,490.0,522.0
498.0,551.0,491.0,519.0
504.0,523.0,492.0,517.0
504.0,459.0,498.0,518.0
508.0,450.0,505.0,514.0
510.0,481.0,512.0,514.0
517.0,520.0,529.0,514.0
524.0,526.0,531.0,511.0
527.0,521.0,539.0,514.0
525.0,492.0,539.0,514.0
519.0,491.0,535.0,513.0
506.0,494.0,530.0,512.0
496.0,494.0,527.0,516.0
498.0,500.0,507.0,516.0
499.0,505.0,499.0,517.0
502.0,515.0,494.0,515.0
504.0,516.0,490.0,518.0
508.0,521.0,491.0,518.0
505.0,516.0,492.0,516.0
505.0,510.0,489.0,512.0
505.0,504.0,499.0,509.0
512.0,508.0,513.0,511.0
516.0,513.0,514.0,512.0
523.0,508.0,527.0,514.0
524.0,505.0,537.0,516.0
530.0,505.0,540.0,517.0
526.0,498.0,541.0,518.0
517.0,490.0,535.0,514.0
507.0,493.0,529.0,519.0
501.0,490.0,519.0,520.0
500.0,490.0,511.0,519.0
500.0,507.0,501.0,520.0
500.0,503.0,496.0,523.0
502.0,512.0,493.0,521.0
510.0,524.0,492.0,518.0
511.0,511.0,494.0,513.0
507.0,505.0,494.0,515.0
510.0,500.0,501.0,509.0
518.0,512.0,505.0,503.0
521.0,519.0,521.0,509.0
526.0,510.0,529.0,510.0
521.0,511.0,540.0,509.0
526.0,516.0,539.0,511.0
521.0,509.0,539.0,513.0
513.0,490.0,534.0,514.0
500.0,487.0,527.0,518.0
498.0,498.0,514.0,519.0
497.0,498.0,501.0,517.0
502.0,506.0,496.0,517.0
500.0,493.0,489.0,517.0
507.0,489.0,486.0,517.0
511.0,512.0,487.0,514.0
505.0,512.0,491.0,513.0
507.0,506.0,494.0,511.0
508.0,502.0,502.0,512.0
516.0,495.0,510.0,510.0
516.0,476.0,521.0,511.0
520.0,481.0,527.0,510.0
524.0,524.0,535.0,510.0
525.0,524.0,537.0,511.0
522.0,547.0,538.0,514.0
512.0,509.0,535.0,514.0
502.0,447.0,520.0,519.0
505.0,479.0,511.0,518.0
508.0,490.0,501.0,519.0
509.0,505.0,495.0,519.0
503.0,515.0,493.0,518.0
505.0,510.0,492.0,519.0
508.0,506.0,491.0,516.0
507.0,507.0,491.0,515.0
507.0,489.0,493.0,511.0
517.0,495.0,503.0,506.0
515.0,519.0,514.0,507.0
523.0,529.0,526.0,511.0
527.0,536.0,534.0,515.0
530.0,523.0,540.0,512.0
527.0,502.0,539.0,517.0
516.0,491.0,536.0,518.0
501.0,482.0,528.0,520.0
501.0,490.0,520.0,521.0
496.0,488.0,509.0,524.0
498.0,502.0,501.0,519.0
499.0,520.0,494.0,518.0
504.0,526.0,488.0,517.0
508.0,544.0,488.0,515.0
511.0,537.0,488.0,511.0
508.0,535.0,488.0,510.0
505.0,473.0,497.0,509.0
514.0,498.0,508.0,511.0
522.0,514.0,518.0,510.0
526.0,519.0,528.0,516.0
524.0,506.0,537.0,515.0
528.0,505.0,542.0,515.0
526.0,493.0,538.0,515.0
513.0,468.0,532.0,514.0
504.0,459.0,520.0,512.0
498.0,449.0,512.0,517.0
495.0,472.0,499.0,516.0
500.0,516.0,496.0,518.0
509.0,526.0,493.0,517.0
509.0,544.0,487.0,516.0
506.0,542.0,489.0,516.0
503.0,512.0,490.0,513.0
506.0,495.0,491.0,510.0
510.0,528.0,499.0,509.0
515.0,545.0,511.0,510.0
520.0,547.0,523.0,514.0
528.0,508.0,533.0,513.0
530.0,502.0,539.0,516.0
536.0,504.0,540.0,521.0
532.0,496.0,536.0,520.0
525.0,485.0,533.0,525.0
511.0,474.0,525.0,522.0
503.0,469.0,521.0,524.0
506.0,494.0,516.0,524.0
498.0,518.0,507.0,527.0
488.0,517.0,499.0,526.0
501.0,515.0,495.0,523.0
502.0,508.0,488.0,523.0
498.0,503.0,489.0,513.0
502.0,508.0,491.0,507.0
509.0,511.0,503.0,505.0
513.0,508.0,510.0,507.0
517.0,514.0,519.0,506.0
524.0,510.0,525.0,507.0
527.0,506.0,533.0,512.0
523.0,503.0,534.0,511.0
517.0,497.0,533.0,511.0
504.0,483.0,527.0,511.0
502.0,482.0,516.0,516.0
500.0,490.0,507.0,517.0
503.0,503.0,497.0,516.0
504.0,524.0,493.0,514.0
509.0,530.0,487.0,514.0
515.0,527.0,489.0,512.0
511.0,524.0,490.0,512.0
505.0,514.0,492.0,510.0
508.0,505.0,495.0,508.0
510.0,505.0,504.0,508.0
516.0,511.0,517.0,509.0
523.0,512.0,528.0,511.0
526.0,506.0,543.0,513.0
529.0,508.0,542.0,516.0
524.0,505.0,540.0,515.0
515.0,493.0,534.0,516.0
503.0,486.0,525.0,515.0
499.0,484.0,512.0,517.0
498.0,495.0,504.0,516.0
507.0,500.0,495.0,516.0
507.0,505.0,487.0,515.0
513.0,507.0,487.0,514.0
509.0,494.0,486.0,514.0
508.0,522.0,491.0,512.0
505.0,519.0,495.0,510.0
507.0,506.0,507.0,510.0
515.0,487.0,511.0,511.0
521.0,483.0,522.0,513.0
528.0,481.0,533.0,517.0
529.0,499.0,541.0,517.0
532.0,527.0,545.0,519.0
522.0,505.0,544.0,521.0
511.0,505.0,536.0,518.0
498.0,500.0,523.0,519.0
499.0,502.0,513.0,519.0
497.0,507.0,502.0,516.0
495.0,508.0,493.0,510.0
501.0,515.0,492.0,516.0
511.0,522.0,489.0,515.0
515.0,522.0,491.0,515.0
518.0,515.0,495.0,512.0
518.0,498.0,495.0,509.0
510.0,461.0,505.0,516.0
516.0,494.0,515.0,512.0
524.0,501.0,528.0,517.0
528.0,515.0,535.0,513.0
529.0,532.0,540.0,516.0
524.0,507.0,543.0,513.0
513.0,479.0,537.0,512.0
498.0,479.0,533.0,514.0
493.0,488.0,520.0,517.0
493.0,491.0,510.0,514.0
495.0,488.0,498.0,516.0
504.0,512.0,490.0,515.0
510.0,516.0,486.0,515.0
509.0,519.0,489.0,512.0
512.0,518.0,489.0,512.0
508.0,512.0,491.0,511.0
505.0,509.0,499.0,508.0
510.0,517.0,508.0,512.0
518.0,516.0,519.0,512.0
521.0,499.0,529.0,513.0
524.0,506.0,538.0,514.0
529.0,505.0,542.0,514.0
526.0,496.0,538.0,514.0
519.0,500.0,537.0,516.0
510.0,500.0,527.0,516.0
504.0,495.0,514.0,525.0
501.0,495.0,504.0,516.0
502.0,499.0,494.0,516.0
505.0,507.0,491.0,519.0
502.0,516.0,491.0,520.0
506.0,545.0,493.0,520.0
511.0,525.0,494.0,517.0
507.0,505.0,492.0,511.0
510.0,502.0,499.0,507.0
514.0,529.0,508.0,508.0
517.0,530.0,521.0,511.0
524.0,515.0,530.0,509.0
518.0,482.0,536.0,514.0
520.0,493.0,541.0,513.0
519.0,508.0,536.0,516.0
508.0,494.0,530.0,515.0
502.0,485.0,525.0,518.0
496.0,484.0,513.0,520.0
498.0,491.0,502.0,515.0
504.0,514.0,495.0,519.0
506.0,533.0,487.0,517.0
510.0,521.0,488.0,513.0
509.0,505.0,489.0,513.0
513.0,507.0,489.0,509.0
512.0,500.0,490.0,506.0
513.0,528.0,505.0,507.0
521.0,531.0,511.0,514.0
523.0,478.0,525.0,511.0
531.0,486.0,531.0,512.0
532.0,495.0,540.0,513.0
530.0,492.0,539.0,515.0
522.0,492.0,535.0,515.0
506.0,487.0,527.0,516.0
500.0,500.0,519.0,517.0
493.0,503.0,509.0,516.0
492.0,506.0,502.0,520.0
501.0,508.0,494.0,520.0
501.0,507.0,490.0,517.0
510.0,515.0,490.0,512.0
510.0,512.0,489.0,513.0
507.0,504.0,488.0,510.0
512.0,501.0,497.0,511.0
517.0,501.0,507.0,506.0
521.0,501.0,516.0,511.0
526.0,509.0,528.0,511.0
528.0,514.0,535.0,514.0
527.0,516.0,539.0,516.0
520.0,509.0,540.0,517.0
516.0,495.0,535.0,514.0
500.0,481.0,528.0,519.0
495.0,497.0,514.0,518.0
494.0,503.0,505.0,521.0
498.0,504.0,499.0,519.0
502.0,515.0,493.0,519.0
505.0,515.0,491.0,520.0
504.0,501.0,490.0,519.0
509.0,517.0,489.0,512.0
510.0,516.0,493.0,510.0
512.0,513.0,500.0,505.0
515.0,515.0,506.0,507.0
519.0,516.0,521.0,512.0
528.0,513.0,534.0,515.0
528.0,497.0,542.0,515.0
521.0,489.0,548.0,520.0
520.0,486.0,544.0,516.0
511.0,496.0,532.0,517.0
504.0,513.0,517.0,516.0
507.0,512.0,507.0,513.0
506.0,493.0,502.0,514.0
502.0,478.0,496.0,517.0
505.0,518.0,487.0,517.0
513.0,525.0,490.0,516.0
512.0,527.0,489.0,514.0
504.0,498.0,488.0,511.0
503.0,498.0,492.0,508.0
506.0,501.0,503.0,508.0
516.0,499.0,511.0,508.0
519.0,510.0,522.0,509.0
526.0,515.0,535.0,511.0
528.0,520.0,539.0,514.0
525.0,500.0,540.0,515.0
514.0,474.0,534.0,512.0
502.0,495.0,527.0,517.0
500.0,505.0,514.0,513.0
499.0,478.0,504.0,513.0
497.0,474.0,497.0,511.0
490.0,459.0,491.0,515.0
501.0,476.0,484.0,514.0
507.0,531.0,487.0,513.0
512.0,546.0,488.0,508.0
511.0,524.0,488.0,510.0
515.0,520.0,496.0,507.0
525.0,519.0,508.0,508.0
531.0,506.0,518.0,511.0
536.0,507.0,529.0,511.0
536.0,509.0,534.0,515.0
535.0,501.0,541.0,516.0
520.0,502.0,539.0,519.0
502.0,491.0,537.0,518.0
482.0,493.0,531.0,523.0
489.0,498.0,522.0,523.0
494.0,512.0,508.0,520.0
497.0,510.0,501.0,517.0
496.0,507.0,498.0,517.0
501.0,512.0,487.0,515.0
508.0,513.0,485.0,513.0
502.0,524.0,489.0,512.0
508.0,530.0,489.0,508.0
513.0,526.0,500.0,507.0
518.0,508.0,510.0,507.0
522.0,509.0,518.0,507.0
524.0,511.0,528.0,509.0
525.0,508.0,535.0,510.0
526.0,508.0,538.0,512.0
518.0,501.0,536.0,514.0
509.0,493.0,526.0,511.0
500.0,485.0,521.0,515.0
498.0,486.0,512.0,516.0
496.0,491.0,502.0,519.0
499.0,514.0,493.0,519.0
501.0,517.0,491.0,517.0
507.0,520.0,490.0,513.0
509.0,515.0,490.0,515.0
506.0,497.0,489.0,513.0
504.0,492.0,496.0,510.0
511.0,501.0,505.0,507.0
519.0,513.0,515.0,510.0
524.0,525.0,525.0,513.0
533.0,529.0,533.0,511.0
537.0,522.0,540.0,516.0
528.0,526.0,541.0,516.0
516.0,467.0,535.0,516.0
503.0,475.0,530.0,517.0
495.0,470.0,520.0,518.0
494.0,468.0,508.0,518.0
494.0,479.0,498.0,519.0
502.0,484.0,494.0,518.0
504.0,499.0,490.0,519.0
510.0,499.0,487.0,515.0
506.0,529.0,490.0,514.0
502.0,521.0,492.0,512.0
504.0,518.0,495.0,509.0
513.0,518.0,506.0,509.0
518.0,525.0,520.0,512.0
526.0,525.0,531.0,510.0
528.0,525.0,540.0,513.0
527.0,514.0,539.0,515.0
523.0,510.0,538.0,516.0
516.0,504.0,534.0,516.0
508.0,494.0,525.0,517.0
503.0,496.0,513.0,517.0
500.0,497.0,508.0,519.0
503.0,508.0,498.0,518.0
503.0,505.0,488.0,517.0
507.0,513.0,490.0,519.0
504.0,521.0,491.0,516.0
502.0,510.0,491.0,515.0
504.0,506.0,496.0,511.0
510.0,510.0,511.0,514.0
513.0,511.0,514.0,515.0
520.0,507.0,524.0,515.0
525.0,513.0,532.0,513.0
528.0,506.0,540.0,516.0
524.0,497.0,543.0,516.0
515.0,484.0,540.0,519.0
506.0,478.0,542.0,519.0
500.0,480.0,528.0,519.0
498.0,497.0,513.0,517.0
497.0,517.0,502.0,518.0
501.0,522.0,491.0,515.0
502.0,517.0,483.0,513.0
509.0,515.0,484.0,509.0
508.0,512.0,487.0,509.0
508.0,500.0,490.0,510.0
508.0,502.0,494.0,508.0
514.0,508.0,499.0,507.0
519.0,506.0,511.0,506.0
525.0,510.0,522.0,509.0
529.0,510.0,534.0,511.0
528.0,509.0,536.0,513.0
525.0,505.0,538.0,515.0
520.0,511.0,534.0,514.0
507.0,500.0,524.0,514.0
500.0,490.0,521.0,517.0
500.0,494.0,507.0,517.0
497.0,488.0,495.0,516.0
499.0,491.0,490.0,518.0
503.0,504.0,489.0,519.0
511.0,509.0,486.0,516.0
510.0,508.0,487.0,515.0
506.0,504.0,486.0,514.0
514.0,516.0,498.0,510.0
517.0,524.0,512.0,513.0
517.0,515.0,530.0,519.0
524.0,521.0,537.0,517.0
530.0,513.0,548.0,523.0
530.0,465.0,553.0,524.0
523.0,463.0,543.0,518.0
518.0,473.0,533.0,510.0
497.0,496.0,518.0,510.0
495.0,507.0,508.0,509.0
497.0,515.0,497.0,509.0
493.0,515.0,491.0,509.0
496.0,509.0,485.0,511.0
504.0,512.0,487.0,511.0
511.0,513.0,488.0,508.0
511.0,497.0,487.0,510.0
509.0,502.0,488.0,508.0
506.0,528.0,498.0,509.0
515.0,524.0,508.0,509.0
521.0,512.0,518.0,508.0
526.0,501.0,531.0,507.0
527.0,493.0,540.0,513.0
528.0,506.0,542.0,514.0
518.0,501.0,539.0,515.0
509.0,503.0,532.0,514.0
502.0,506.0,520.0,516.0
499.0,507.0,505.0,515.0
500.0,510.0,500.0,517.0
501.0,506.0,493.0,517.0
502.0,512.0,490.0,517.0
504.0,510.0,492.0,518.0
509.0,494.0,493.0,516.0
508.0,496.0,492.0,514.0
509.0,481.0,495.0,509.0
512.0,483.0,502.0,507.0
518.0,499.0,513.0,511.0
529.0,537.0,524.0,512.0
534.0,548.0,534.0,511.0
531.0,540.0,539.0,514.0
528.0,539.0,537.0,516.0
513.0,487.0,536.0,516.0
504.0,486.0,529.0,516.0
501.0,490.0,519.0,515.0
498.0,501.0,510.0,515.0
498.0,506.0,498.0,515.0
501.0,510.0,494.0,516.0
506.0,517.0,486.0,517.0
503.0,515.0,489.0,514.0
507.0,517.0,490.0,514.0
503.0,506.0,490.0,513.0
508.0,494.0,499.0,512.0
514.0,499.0,509.0,511.0
519.0,514.0,519.0,514.0
524.0,518.0,529.0,514.0
530.0,521.0,539.0,516.0
528.0,535.0,542.0,518.0
521.0,504.0,543.0,515.0
516.0,497.0,537.0,518.0
503.0,464.0,528.0,519.0
497.0,471.0,515.0,516.0
497.0,494.0,506.0,512.0
504.0,508.0,496.0,515.0
508.0,519.0,490.0,518.0
514.0,505.0,490.0,516.0
512.0,491.0,490.0,518.0
510.0,516.0,491.0,516.0
508.0,502.0,493.0,514.0
509.0,490.0,500.0,507.0
511.0,502.0,513.0,512.0
519.0,508.0,525.0,514.0
526.0,508.0,535.0,514.0
527.0,498.0,541.0,516.0
527.0,501.0,543.0,515.0
523.0,488.0,538.0,515.0
513.0,488.0,532.0,513.0
503.0,485.0,523.0,517.0
495.0,493.0,511.0,516.0
495.0,504.0,501.0,516.0
498.0,511.0,492.0,516.0
501.0,507.0,487.0,515.0
506.0,519.0,488.0,515.0
509.0,525.0,490.0,514.0
508.0,508.0,489.0,512.0
510.0,498.0,496.0,505.0
517.0,491.0,505.0,511.0
520.0,493.0,515.0,513.0
529.0,505.0,524.0,513.0
532.0,507.0,535.0,516.0
528.0,520.0,540.0,516.0
519.0,515.0,541.0,511.0
514.0,505.0,537.0,515.0
505.0,493.0,527.0,516.0
497.0,490.0,517.0,514.0
499.0,487.0,507.0,518.0
499.0,494.0,501.0,520.0
501.0,497.0,494.0,518.0
495.0,519.0,492.0,516.0
508.0,530.0,492.0,515.0
507.0,517.0,492.0,517.0
499.0,521.0,494.0,516.0
509.0,522.0,499.0,513.0
514.0,513.0,509.0,512.0
517.0,510.0,518.0,511.0
526.0,506.0,526.0,511.0
522.0,507.0,533.0,512.0
529.0,529.0,538.0,514.0
527.0,508.0,539.0,514.0
521.0,504.0,537.0,510.0
503.0,491.0,529.0,514.0
498.0,476.0,516.0,518.0
496.0,481.0,511.0,519.0
505.0,484.0,500.0,520.0
513.0,495.0,487.0,516.0
514.0,511.0,484.0,518.0
520.0,516.0,482.0,512.0
519.0,493.0,486.0,508.0
508.0,496.0,487.0,505.0
507.0,536.0,496.0,507.0
506.0,566.0,514.0,506.0
516.0,554.0,519.0,509.0
526.0,547.0,528.0,511.0
514.0,451.0,536.0,514.0
517.0,463.0,536.0,512.0
513.0,506.0,538.0,515.0
508.0,495.0,530.0,518.0
499.0,481.0,519.0,514.0
499.0,481.0,510.0,516.0
497.0,478.0,501.0,517.0
502.0,490.0,495.0,519.0
502.0,507.0,490.0,520.0
508.0,517.0,491.0,518.0
509.0,520.0,491.0,517.0
503.0,522.0,492.0,514.0
501.0,510.0,494.0,511.0
509.0,508.0,504.0,509.0
516.0,513.0,512.0,507.0
521.0,519.0,518.0,509.0
524.0,518.0,531.0,510.0
523.0,513.0,536.0,511.0
521.0,508.0,539.0,515.0
520.0,501.0,535.0,513.0
508.0,497.0,530.0,514.0
501.0,497.0,516.0,515.0
498.0,493.0,509.0,517.0
503.0,484.0,499.0,523.0
509.0,479.0,493.0,518.0
508.0,475.0,488.0,518.0
511.0,469.0,489.0,514.0
510.0,472.0,488.0,516.0
504.0,492.0,493.0,509.0
499.0,522.0,498.0,513.0
508.0,560.0,508.0,512.0
521.0,560.0,515.0,512.0
526.0,534.0,527.0,512.0
531.0,523.0,537.0,512.0
530.0,522.0,542.0,517.0
522.0,522.0,539.0,518.0
519.0,512.0,539.0,515.0
504.0,491.0,531.0,514.0
500.0,498.0,520.0,521.0
498.0,500.0,509.0,521.0
502.0,504.0,501.0,523.0
501.0,508.0,491.0,519.0
501.0,517.0,491.0,514.0
509.0,522.0,488.0,512.0
505.0,509.0,489.0,509.0
508.0,506.0,492.0,509.0
513.0,503.0,504.0,510.0
521.0,501.0,506.0,508.0
524.0,505.0,515.0,508.0
530.0,524.0,527.0,510.0
530.0,517.0,533.0,511.0
532.0,526.0,538.0,513.0
521.0,501.0,537.0,515.0
507.0,459.0,532.0,516.0
501.0,476.0,522.0,517.0
496.0,482.0,512.0,519.0
490.0,496.0,504.0,520.0
498.0,502.0,496.0,520.0
502.0,499.0,492.0,518.0
509.0,504.0,486.0,516.0
510.0,507.0,486.0,514.0
510.0,508.0,490.0,511.0
511.0,497.0,494.0,512.0
516.0,510.0,500.0,511.0
516.0,503.0,512.0,513.0
515.0,507.0,525.0,514.0
519.0,516.0,537.0,523.0
523.0,509.0,545.0,520.0
520.0,520.0,546.0,519.0
518.0,512.0,538.0,520.0
507.0,493.0,535.0,518.0
505.0,488.0,520.0,513.0
503.0,490.0,507.0,513.0
501.0,495.0,498.0,515.0
503.0,504.0,493.0,514.0
510.0,522.0,487.0,516.0
510.0,515.0,488.0,513.0
511.0,510.0,488.0,512.0
506.0,512.0,487.0,507.0
513.0,515.0,494.0,507.0
516.0,518.0,504.0,510.0
520.0,515.0,514.0,507.0
525.0,507.0,523.0,509.0
525.0,519.0,530.0,509.0
528.0,520.0,539.0,513.0
526.0,509.0,534.0,513.0
519.0,495.0,534.0,514.0
504.0,465.0,525.0,515.0
508.0,472.0,512.0,515.0
501.0,478.0,505.0,516.0
498.0,502.0,494.0,516.0
503.0,510.0,491.0,513.0
508.0,506.0,485.0,515.0
507.0,503.0,487.0,513.0
508.0,504.0,489.0,510.0
506.0,504.0,493.0,513.0
509.0,514.0,500.0,509.0
517.0,514.0,511.0,511.0
523.0,516.0,522.0,511.0
528.0,511.0,531.0,513.0
533.0,510.0,536.0,516.0
529.0,511.0,540.0,521.0
522.0,488.0,537.0,520.0
514.0,485.0,531.0,517.0
503.0,491.0,522.0,518.0
500.0,508.0,513.0,517.0
501.0,514.0,504.0,519.0
502.0,487.0,498.0,521.0
501.0,475.0,491.0,516.0
513.0,522.0,488.0,515.0
513.0,547.0,486.0,511.0
515.0,537.0,483.0,509.0
505.0,513.0,489.0,503.0
497.0,460.0,497.0,505.0
506.0,487.0,513.0,506.0
513.0,511.0,521.0,508.0
524.0,519.0,529.0,509.0
522.0,509.0,543.0,513.0
523.0,510.0,538.0,514.0
519.0,511.0,535.0,513.0
506.0,497.0,529.0,516.0
502.0,486.0,517.0,518.0
508.0,487.0,508.0,516.0
506.0,478.0,498.0,518.0
511.0,474.0,494.0,516.0
510.0,477.0,491.0,517.0
511.0,483.0,491.0,517.0
503.0,530.0,489.0,513.0
504.0,548.0,490.0,509.0
500.0,537.0,496.0,505.0
506.0,532.0,505.0,506.0
515.0,515.0,516.0,506.0
521.0,512.0,528.0,512.0
528.0,506.0,536.0,513.0
524.0,514.0,542.0,514.0
516.0,499.0,541.0,514.0
515.0,508.0,537.0,515.0
499.0,500.0,528.0,518.0
496.0,500.0,518.0,516.0
494.0,501.0,506.0,512.0
494.0,503.0,494.0,517.0
502.0,514.0,492.0,516.0
511.0,510.0,488.0,515.0
514.0,519.0,487.0,511.0
509.0,520.0,487.0,516.0
503.0,514.0,488.0,508.0
504.0,500.0,497.0,515.0
514.0,490.0,506.0,510.0
525.0,492.0,519.0,509.0
532.0,491.0,529.0,513.0
531.0,512.0,536.0,511.0
531.0,530.0,540.0,513.0
518.0,534.0,537.0,517.0
514.0,530.0,535.0,511.0
502.0,500.0,523.0,515.0
500.0,495.0,509.0,517.0
500.0,489.0,501.0,518.0
500.0,490.0,494.0,514.0
501.0,497.0,490.0,514.0
506.0,512.0,485.0,516.0
510.0,510.0,489.0,513.0
509.0,519.0,490.0,515.0
509.0,510.0,496.0,512.0
516.0,505.0,505.0,509.0
517.0,499.0,516.0,513.0
519.0,498.0,527.0,513.0
527.0,506.0,535.0,515.0
529.0,510.0,539.0,516.0
523.0,505.0,539.0,517.0
520.0,503.0,534.0,516.0
509.0,493.0,528.0,516.0
499.0,490.0,519.0,516.0
499.0,489.0,510.0,518.0
501.0,498.0,500.0,518.0
503.0,511.0,492.0,514.0
504.0,525.0,487.0,512.0
510.0,539.0,487.0,513.0
506.0,535.0,487.0,509.0
502.0,499.0,489.0,511.0
508.0,501.0,494.0,508.0
513.0,505.0,505.0,507.0
515.0,507.0,522.0,512.0
522.0,492.0,529.0,512.0
526.0,497.0,539.0,513.0
525.0,501.0,544.0,515.0
520.0,489.0,539.0,516.0
516.0,487.0,531.0,511.0
505.0,481.0,525.0,510.0
499.0,504.0,513.0,513.0
500.0,506.0,502.0,514.0
500.0,506.0,491.0,513.0
502.0,517.0,486.0,515.0
503.0,513.0,489.0,516.0
510.0,511.0,490.0,517.0
511.0,515.0,492.0,511.0
511.0,506.0,493.0,509.0
514.0,506.0,499.0,508.0
514.0,500.0,510.0,514.0
516.0,499.0,522.0,512.0
522.0,503.0,529.0,513.0
521.0,500.0,539.0,513.0
525.0,510.0,541.0,515.0
517.0,504.0,537.0,515.0
507.0,506.0,533.0,514.0
500.0,494.0,520.0,516.0
501.0,491.0,512.0,517.0
500.0,494.0,502.0,516.0
504.0,497.0,495.0,517.0
507.0,492.0,488.0,516.0
511.0,505.0,494.0,515.0
510.0,503.0,489.0,514.0
511.0,506.0,486.0,513.0
509.0,513.0,492.0,509.0
510.0,518.0,503.0,505.0
511.0,511.0,514.0,512.0
516.0,510.0,521.0,511.0
524.0,503.0,533.0,512.0
523.0,500.0,538.0,514.0
523.0,496.0,541.0,514.0
519.0,493.0,537.0,516.0
508.0,497.0,532.0,515.0
498.0,500.0,521.0,517.0
494.0,499.0,510.0,518.0
497.0,502.0,502.0,517.0
504.0,510.0,493.0,518.0
507.0,507.0,491.0,513.0
512.0,526.0,490.0,515.0
519.0,513.0,491.0,512.0
519.0,493.0,491.0,510.0
517.0,493.0,497.0,512.0
516.0,507.0,507.0,511.0
515.0,527.0,514.0,512.0
514.0,522.0,527.0,510.0
523.0,512.0,533.0,514.0
532.0,533.0,540.0,516.0
530.0,532.0,540.0,513.0
524.0,533.0,535.0,516.0
505.0,490.0,529.0,515.0
495.0,437.0,521.0,519.0
495.0,489.0,508.0,516.0
499.0,518.0,499.0,516.0
508.0,514.0,491.0,518.0
511.0,509.0,488.0,517.0
511.0,494.0,485.0,513.0
504.0,499.0,488.0,510.0
499.0,495.0,490.0,514.0
503.0,501.0,500.0,506.0
512.0,497.0,509.0,510.0
520.0,514.0,518.0,511.0
524.0,510.0,531.0,510.0
524.0,511.0,539.0,513.0
525.0,520.0,541.0,516.0
520.0,506.0,541.0,515.0
515.0,493.0,536.0,515.0
504.0,495.0,524.0,517.0
507.0,498.0,510.0,515.0
503.0,498.0,502.0,517.0
499.0,500.0,493.0,517.0
501.0,502.0,489.0,518.0
503.0,516.0,488.0,516.0
507.0,518.0,488.0,514.0
514.0,508.0,491.0,512.0
509.0,500.0,495.0,509.0
507.0,507.0,503.0,507.0
510.0,525.0,513.0,509.0
516.0,517.0,523.0,514.0
524.0,523.0,532.0,509.0
521.0,511.0,539.0,515.0
522.0,508.0,541.0,512.0
519.0,508.0,536.0,515.0
509.0,498.0,530.0,515.0
499.0,494.0,522.0,515.0
497.0,495.0,508.0,518.0
496.0,500.0,500.0,519.0
500.0,505.0,493.0,518.0
501.0,506.0,488.0,518.0
506.0,510.0,486.0,520.0
508.0,513.0,490.0,516.0
506.0,511.0,492.0,515.0
507.0,504.0,497.0,509.0
511.0,502.0,507.0,512.0
515.0,495.0,520.0,511.0
524.0,499.0,531.0,514.0
527.0,501.0,541.0,513.0
526.0,496.0,546.0,519.0
519.0,513.0,541.0,516.0
516.0,507.0,536.0,511.0
498.0,497.0,526.0,510.0
495.0,505.0,509.0,513.0
494.0,501.0,503.0,513.0
499.0,505.0,496.0,516.0
498.0,502.0,493.0,522.0
501.0,500.0,491.0,518.0
508.0,508.0,493.0,518.0
509.0,507.0,498.0,517.0
509.0,505.0,496.0,522.0
512.0,508.0,501.0,510.0
516.0,506.0,510.0,507.0
521.0,506.0,516.0,506.0
526.0,511.0,530.0,512.0
528.0,502.0,537.0,511.0
525.0,498.0,542.0,515.0
519.0,495.0,540.0,514.0
517.0,497.0,532.0,512.0
503.0,487.0,516.0,511.0
500.0,484.0,506.0,512.0
497.0,494.0,499.0,512.0
503.0,498.0,488.0,511.0
502.0,502.0,486.0,510.0
507.0,510.0,484.0,512.0
512.0,510.0,483.0,510.0
507.0,526.0,486.0,510.0
510.0,534.0,491.0,506.0
514.0,539.0,502.0,507.0
519.0,536.0,511.0,508.0
526.0,513.0,523.0,509.0
521.0,485.0,533.0,512.0
524.0,491.0,538.0,512.0
523.0,492.0,536.0,513.0
521.0,494.0,534.0,514.0
511.0,495.0,529.0,515.0
504.0,496.0,519.0,516.0
503.0,492.0,509.0,518.0
507.0,480.0,498.0,518.0
507.0,481.0,491.0,518.0
507.0,499.0,489.0,516.0
518.0,508.0,488.0,514.0
514.0,515.0,485.0,512.0
506.0,522.0,490.0,508.0
494.0,509.0,495.0,510.0
504.0,507.0,507.0,509.0
517.0,508.0,517.0,511.0
517.0,509.0,528.0,513.0
525.0,512.0,537.0,512.0
522.0,508.0,548.0,516.0
524.0,501.0,541.0,516.0
519.0,515.0,533.0,515.0
502.0,503.0,527.0,514.0
498.0,497.0,512.0,516.0
496.0,493.0,506.0,515.0
495.0,486.0,498.0,517.0
499.0,498.0,492.0,517.0
501.0,511.0,489.0,516.0
510.0,526.0,486.0,516.0
513.0,525.0,490.0,513.0
513.0,526.0,489.0,513.0
510.0,511.0,499.0,514.0
508.0,500.0,507.0,511.0
521.0,494.0,521.0,512.0
529.0,492.0,529.0,510.0
531.0,482.0,544.0,513.0
530.0,490.0,542.0,512.0
520.0,492.0,536.0,514.0
512.0,503.0,530.0,511.0
491.0,491.0,522.0,515.0
489.0,498.0,510.0,516.0
494.0,500.0,502.0,517.0
504.0,530.0,494.0,517.0
508.0,539.0,491.0,517.0
514.0,536.0,486.0,516.0
516.0,510.0,488.0,513.0
509.0,472.0,488.0,512.0
507.0,494.0,494.0,509.0
512.0,492.0,501.0,509.0
515.0,497.0,516.0,510.0
522.0,512.0,524.0,510.0
522.0,506.0,535.0,515.0
525.0,508.0,541.0,512.0
523.0,528.0,543.0,516.0
513.0,527.0,540.0,516.0
505.0,508.0,534.0,518.0
496.0,499.0,523.0,518.0
495.0,487.0,511.0,520.0
501.0,496.0,498.0,517.0
507.0,503.0,493.0,518.0
503.0,508.0,488.0,514.0
509.0,508.0,486.0,515.0
511.0,504.0,484.0,512.0
514.0,504.0,490.0,511.0
509.0,497.0,494.0,510.0
512.0,505.0,503.0,506.0
514.0,508.0,514.0,511.0
516.0,513.0,526.0,512.0
524.0,512.0,534.0,512.0
525.0,509.0,539.0,510.0
519.0,504.0,537.0,511.0
517.0,504.0,532.0,507.0
502.0,498.0,525.0,514.0
503.0,507.0,517.0,513.0
501.0,518.0,503.0,517.0
501.0,524.0,497.0,512.0
507.0,494.0,491.0,515.0
507.0,494.0,486.0,517.0
509.0,502.0,488.0,515.0
509.0,486.0,485.0,515.0
507.0,482.0,493.0,510.0
505.0,479.0,502.0,513.0
510.0,493.0,513.0,512.0
525.0,507.0,524.0,513.0
529.0,510.0,531.0,513.0
528.0,506.0,537.0,514.0
523.0,510.0,542.0,517.0
521.0,516.0,534.0,515.0
517.0,507.0,531.0,516.0
503.0,493.0,519.0,515.0
496.0,470.0,512.0,522.0
496.0,487.0,498.0,518.0
504.0,508.0,495.0,518.0
499.0,527.0,492.0,520.0
506.0,531.0,487.0,515.0
514.0,528.0,486.0,512.0
509.0,512.0,488.0,510.0
508.0,490.0,490.0,506.0
515.0,500.0,499.0,506.0
518.0,501.0,508.0,507.0
524.0,502.0,522.0,510.0
536.0,519.0,532.0,510.0
532.0,515.0,541.0,515.0
527.0,509.0,541.0,516.0
523.0,503.0,535.0,514.0
510.0,497.0,528.0,512.0
500.0,486.0,517.0,512.0
493.0,480.0,508.0,515.0
491.0,484.0,499.0,511.0
497.0,497.0,494.0,519.0
501.0,510.0,489.0,513.0
512.0,516.0,487.0,514.0
510.0,511.0,489.0,513.0
510.0,515.0,492.0,513.0
506.0,511.0,498.0,509.0
510.0,509.0,506.0,508.0
516.0,501.0,515.0,513.0
521.0,504.0,526.0,512.0
529.0,504.0,535.0,511.0
527.0,495.0,542.0,515.0
529.0,488.0,540.0,513.0
522.0,500.0,538.0,513.0
509.0,502.0,528.0,516.0
504.0,483.0,514.0,515.0
496.0,488.0,504.0,517.0
490.0,504.0,494.0,517.0
496.0,526.0,493.0,520.0
501.0,547.0,491.0,518.0
505.0,538.0,493.0,518.0
507.0,535.0,489.0,516.0
505.0,500.0,493.0,512.0
506.0,481.0,501.0,510.0
512.0,501.0,509.0,508.0
518.0,513.0,519.0,510.0
526.0,517.0,528.0,509.0
524.0,513.0,536.0,512.0
527.0,511.0,539.0,512.0
526.0,508.0,538.0,515.0
516.0,508.0,536.0,516.0
501.0,493.0,525.0,516.0
496.0,493.0,514.0,517.0
498.0,496.0,501.0,515.0
501.0,497.0,494.0,516.0
503.0,494.0,489.0,515.0
507.0,508.0,486.0,515.0
507.0,511.0,489.0,512.0
506.0,507.0,490.0,512.0
506.0,505.0,495.0,511.0
509.0,505.0,502.0,509.0
517.0,502.0,514.0,516.0
525.0,507.0,525.0,508.0
527.0,506.0,538.0,512.0
527.0,504.0,537.0,513.0
526.0,501.0,541.0,515.0
520.0,497.0,534.0,512.0
512.0,498.0,530.0,510.0
497.0,494.0,521.0,515.0
496.0,490.0,513.0,518.0
497.0,488.0,501.0,522.0
501.0,497.0,492.0,518.0
505.0,498.0,490.0,516.0
510.0,519.0,490.0,512.0
509.0,527.0,488.0,514.0
509.0,524.0,490.0,513.0
508.0,517.0,498.0,510.0
515.0,521.0,502.0,509.0
518.0,511.0,517.0,509.0
523.0,504.0,526.0,510.0
526.0,481.0,534.0,522.0
523.0,479.0,538.0,514.0
515.0,503.0,539.0,516.0
515.0,510.0,535.0,514.0
509.0,496.0,527.0,521.0
506.0,494.0,516.0,516.0
499.0,497.0,507.0,515.0
496.0,495.0,496.0,517.0
497.0,509.0,490.0,516.0
501.0,516.0,488.0,516.0
510.0,522.0,488.0,515.0
508.0,518.0,488.0,510.0
512.0,512.0,493.0,509.0
513.0,506.0,497.0,510.0
519.0,515.0,508.0,509.0
522.0,515.0,519.0,511.0
531.0,510.0,530.0,511.0
533.0,516.0,539.0,512.0
529.0,499.0,542.0,515.0
524.0,501.0,538.0,515.0
518.0,502.0,534.0,515.0
504.0,489.0,525.0,516.0
504.0,484.0,512.0,517.0
501.0,480.0,502.0,518.0
503.0,490.0,493.0,517.0
506.0,515.0,490.0,515.0
510.0,510.0,489.0,512.0
508.0,510.0,487.0,514.0
501.0,520.0,492.0,512.0
495.0,517.0,497.0,508.0
504.0,517.0,499.0,506.0
511.0,514.0,511.0,511.0
517.0,516.0,521.0,511.0
523.0,509.0,530.0,511.0
523.0,499.0,538.0,514.0
526.0,497.0,540.0,514.0
518.0,497.0,535.0,514.0
513.0,494.0,529.0,515.0
501.0,490.0,520.0,514.0
504.0,494.0,508.0,517.0
495.0,498.0,500.0,518.0
500.0,507.0,492.0,517.0
503.0,506.0,488.0,516.0
509.0,512.0,488.0,514.0
510.0,513.0,487.0,513.0
511.0,519.0,489.0,512.0
508.0,509.0,497.0,507.0
512.0,509.0,503.0,507.0
517.0,512.0,516.0,510.0
522.0,514.0,526.0,512.0
527.0,510.0,533.0,510.0
527.0,510.0,541.0,515.0
524.0,504.0,540.0,515.0
520.0,503.0,535.0,516.0
507.0,494.0,525.0,515.0
503.0,504.0,516.0,517.0
496.0,509.0,512.0,518.0
501.0,516.0,496.0,517.0
505.0,513.0,493.0,516.0
503.0,475.0,488.0,518.0
508.0,491.0,488.0,515.0
509.0,506.0,487.0,512.0
506.0,508.0,492.0,509.0
509.0,504.0,499.0,509.0
516.0,512.0,511.0,508.0
521.0,507.0,519.0,516.0
525.0,508.0,530.0,511.0
524.0,498.0,537.0,513.0
525.0,500.0,543.0,514.0
519.0,501.0,539.0,515.0
517.0,501.0,535.0,516.0
506.0,499.0,525.0,513.0
501.0,496.0,514.0,517.0
499.0,505.0,505.0,515.0
499.0,505.0,495.0,517.0
502.0,509.0,491.0,517.0
507.0,514.0,488.0,516.0
510.0,515.0,489.0,513.0
511.0,513.0,489.0,511.0
512.0,516.0,494.0,510.0
510.0,512.0,502.0,509.0
516.0,508.0,515.0,509.0
520.0,506.0,521.0,510.0
526.0,511.0,531.0,510.0
527.0,508.0,539.0,518.0
526.0,507.0,541.0,513.0
517.0,501.0,538.0,513.0
509.0,494.0,530.0,516.0
503.0,489.0,520.0,515.0
501.0,497.0,511.0,516.0
498.0,497.0,501.0,518.0
499.0,503.0,494.0,518.0
500.0,504.0,490.0,516.0
503.0,510.0,491.0,516.0
504.0,508.0,490.0,514.0
507.0,508.0,492.0,510.0
506.0,490.0,497.0,509.0
508.0,486.0,506.0,509.0
517.0,487.0,515.0,511.0
518.0,483.0,528.0,508.0
528.0,498.0,537.0,509.0
525.0,518.0,541.0,514.0
522.0,509.0,541.0,514.0
520.0,517.0,536.0,515.0
509.0,509.0,528.0,516.0
505.0,533.0,518.0,517.0
503.0,531.0,507.0,514.0
503.0,530.0,498.0,517.0
504.0,521.0,492.0,516.0
502.0,465.0,491.0,516.0
506.0,499.0,490.0,516.0
509.0,512.0,490.0,515.0
516.0,517.0,491.0,511.0
512.0,508.0,498.0,509.0
512.0,499.0,511.0,510.0
520.0,503.0,520.0,508.0
522.0,508.0,530.0,512.0
525.0,501.0,538.0,516.0
528.0,509.0,542.0,515.0
521.0,504.0,538.0,515.0
514.0,502.0,532.0,513.0
494.0,489.0,523.0,513.0
493.0,497.0,513.0,516.0
491.0,499.0,504.0,517.0
493.0,506.0,499.0,518.0
493.0,503.0,493.0,516.0
497.0,500.0,488.0,513.0
504.0,507.0,489.0,513.0
506.0,513.0,492.0,509.0
515.0,507.0,496.0,511.0
522.0,511.0,504.0,507.0
520.0,507.0,515.0,511.0
530.0,509.0,525.0,508.0
530.0,509.0,535.0,512.0
529.0,509.0,539.0,514.0
529.0,514.0,543.0,512.0
520.0,509.0,540.0,516.0
511.0,496.0,534.0,511.0
502.0,499.0,521.0,514.0
502.0,499.0,509.0,516.0
502.0,503.0,501.0,517.0
505.0,510.0,496.0,517.0
506.0,510.0,491.0,514.0
510.0,505.0,488.0,514.0
510.0,509.0,488.0,512.0
509.0,510.0,492.0,509.0
508.0,506.0,499.0,511.0
514.0,503.0,507.0,508.0
519.0,505.0,519.0,509.0
524.0,511.0,527.0,511.0
522.0,497.0,543.0,512.0
522.0,501.0,539.0,512.0
521.0,507.0,542.0,515.0
516.0,500.0,535.0,514.0
503.0,493.0,529.0,514.0
502.0,492.0,519.0,512.0
500.0,497.0,505.0,516.0
499.0,498.0,500.0,518.0
502.0,503.0,494.0,515.0
502.0,509.0,488.0,514.0
509.0,511.0,488.0,514.0
508.0,508.0,489.0,512.0
510.0,507.0,494.0,507.0
511.0,504.0,500.0,509.0
515.0,507.0,512.0,507.0
519.0,506.0,523.0,508.0
522.0,505.0,533.0,512.0
527.0,507.0,540.0,511.0
525.0,509.0,541.0,514.0
520.0,503.0,539.0,515.0
516.0,502.0,535.0,515.0
502.0,495.0,526.0,515.0
500.0,491.0,516.0,513.0
498.0,501.0,506.0,518.0
501.0,504.0,496.0,515.0
504.0,506.0,492.0,513.0
504.0,511.0,489.0,513.0
507.0,514.0,490.0,511.0
507.0,509.0,493.0,510.0
505.0,504.0,493.0,509.0
497.0,498.0,503.0,509.0
498.0,501.0,513.0,510.0
509.0,506.0,523.0,509.0
520.0,508.0,536.0,510.0
508.0,500.0,542.0,512.0
501.0,494.0,544.0,512.0
491.0,488.0,540.0,515.0
512.0,499.0,534.0,515.0
510.0,491.0,522.0,512.0
500.0,490.0,512.0,517.0
507.0,498.0,501.0,518.0
508.0,510.0,497.0,518.0
510.0,505.0,490.0,514.0
521.0,508.0,490.0,515.0
521.0,507.0,490.0,511.0
519.0,512.0,490.0,512.0
515.0,503.0,498.0,511.0
515.0,515.0,509.0,510.0
522.0,519.0,515.0,510.0
521.0,503.0,528.0,513.0
514.0,505.0,536.0,510.0
513.0,511.0,543.0,513.0
506.0,514.0,543.0,516.0
502.0,505.0,539.0,515.0
494.0,493.0,530.0,517.0
483.0,486.0,519.0,518.0
497.0,498.0,509.0,513.0
514.0,507.0,500.0,516.0
512.0,510.0,491.0,517.0
516.0,513.0,489.0,514.0
516.0,528.0,490.0,514.0
510.0,521.0,491.0,513.0
512.0,520.0,496.0,510.0
509.0,510.0,499.0,508.0
516.0,498.0,511.0,509.0
539.0,507.0,518.0,509.0
541.0,505.0,528.0,509.0
543.0,504.0,538.0,512.0
539.0,504.0,543.0,512.0
530.0,500.0,542.0,515.0
523.0,503.0,535.0,512.0
499.0,486.0,524.0,515.0
490.0,482.0,514.0,515.0
490.0,493.0,506.0,515.0
498.0,506.0,497.0,514.0
514.0,503.0,490.0,516.0
510.0,511.0,491.0,517.0
521.0,514.0,490.0,512.0
525.0,524.0,493.0,513.0
516.0,515.0,494.0,509.0
512.0,501.0,503.0,515.0
518.0,503.0,514.0,509.0
520.0,504.0,521.0,510.0
524.0,507.0,536.0,511.0
526.0,501.0,539.0,512.0
529.0,512.0,544.0,516.0
521.0,509.0,541.0,516.0
514.0,502.0,536.0,516.0
502.0,489.0,524.0,518.0
503.0,495.0,511.0,515.0
502.0,504.0,502.0,517.0
501.0,508.0,495.0,516.0
504.0,513.0,491.0,517.0
508.0,515.0,487.0,515.0
506.0,509.0,488.0,512.0
513.0,512.0,492.0,512.0
516.0,504.0,498.0,509.0
517.0,506.0,507.0,507.0
521.0,500.0,518.0,512.0
525.0,504.0,528.0,509.0
526.0,505.0,534.0,509.0
524.0,508.0,544.0,515.0
522.0,505.0,542.0,515.0
514.0,500.0,538.0,515.0
509.0,495.0,530.0,516.0
506.0,493.0,519.0,514.0
501.0,495.0,509.0,516.0
499.0,499.0,506.0,518.0
498.0,505.0,494.0,516.0
502.0,509.0,493.0,517.0
508.0,517.0,491.0,513.0
506.0,510.0,492.0,511.0
507.0,512.0,494.0,508.0
510.0,507.0,498.0,508.0
514.0,509.0,508.0,508.0
521.0,512.0,523.0,508.0
525.0,512.0,528.0,511.0
525.0,510.0,541.0,512.0
524.0,500.0,543.0,513.0
517.0,501.0,539.0,516.0
515.0,496.0,536.0,516.0
504.0,490.0,529.0,513.0
498.0,498.0,518.0,516.0
496.0,495.0,504.0,517.0
499.0,501.0,498.0,514.0
500.0,510.0,493.0,519.0
503.0,517.0,491.0,517.0
506.0,512.0,492.0,514.0
506.0,512.0,492.0,511.0
509.0,512.0,493.0,510.0
511.0,507.0,501.0,509.0
512.0,507.0,513.0,511.0
521.0,510.0,525.0,510.0
527.0,509.0,534.0,511.0
524.0,503.0,539.0,513.0
521.0,502.0,542.0,514.0
514.0,493.0,540.0,515.0
513.0,496.0,534.0,518.0
501.0,492.0,521.0,515.0
495.0,487.0,511.0,515.0
503.0,494.0,505.0,517.0
497.0,500.0,498.0,518.0
501.0,501.0,490.0,517.0
506.0,508.0,490.0,520.0
512.0,514.0,487.0,520.0
509.0,511.0,488.0,515.0
509.0,505.0,497.0,517.0
511.0,517.0,511.0,507.0
511.0,517.0,519.0,507.0
522.0,518.0,529.0,510.0
526.0,517.0,534.0,511.0
527.0,511.0,543.0,510.0
521.0,506.0,545.0,514.0
518.0,498.0,540.0,517.0
505.0,486.0,530.0,515.0
497.0,490.0,519.0,519.0
494.0,502.0,506.0,516.0
495.0,504.0,500.0,516.0
499.0,513.0,492.0,520.0
500.0,512.0,490.0,515.0
501.0,503.0,491.0,521.0
505.0,501.0,492.0,516.0
518.0,504.0,496.0,520.0
514.0,498.0,499.0,516.0
515.0,499.0,508.0,503.0
517.0,500.0,520.0,508.0
526.0,511.0,534.0,506.0
523.0,513.0,540.0,511.0
525.0,507.0,543.0,509.0
517.0,507.0,542.0,513.0
512.0,499.0,537.0,514.0
499.0,492.0,528.0,516.0
495.0,492.0,517.0,516.0
493.0,499.0,505.0,522.0
491.0,502.0,496.0,534.0
504.0,505.0,487.0,522.0
505.0,511.0,490.0,516.0
505.0,513.0,490.0,509.0
505.0,507.0,493.0,510.0
510.0,506.0,497.0,506.0
513.0,495.0,500.0,508.0
523.0,497.0,513.0,512.0
530.0,506.0,525.0,530.0
522.0,511.0,538.0,531.0
529.0,508.0,544.0,518.0
530.0,506.0,542.0,504.0
521.0,505.0,542.0,521.0
514.0,501.0,536.0,514.0
503.0,492.0,522.0,517.0
501.0,494.0,510.0,511.0
502.0,496.0,506.0,512.0
500.0,501.0,496.0,514.0
500.0,507.0,490.0,514.0
504.0,521.0,491.0,512.0
501.0,507.0,490.0,510.0
498.0,507.0,489.0,508.0
490.0,500.0,495.0,507.0
497.0,496.0,505.0,507.0
504.0,508.0,518.0,507.0
510.0,509.0,528.0,509.0
511.0,504.0,538.0,509.0
524.0,516.0,546.0,515.0
522.0,514.0,547.0,512.0
512.0,501.0,544.0,515.0
499.0,494.0,528.0,514.0
491.0,489.0,521.0,514.0
498.0,494.0,507.0,517.0
492.0,497.0,501.0,518.0
489.0,503.0,492.0,518.0
497.0,504.0,489.0,517.0
519.0,515.0,486.0,515.0
518.0,516.0,488.0,514.0
523.0,510.0,491.0,512.0
536.0,505.0,501.0,508.0
529.0,507.0,507.0,515.0
537.0,512.0,516.0,514.0
553.0,516.0,531.0,515.0
545.0,506.0,542.0,511.0
539.0,499.0,548.0,507.0
530.0,499.0,542.0,515.0
528.0,510.0,537.0,515.0
514.0,506.0,527.0,521.0
508.0,507.0,518.0,519.0
507.0,501.0,506.0,519.0
504.0,500.0,497.0,518.0
502.0,486.0,487.0,517.0
504.0,493.0,488.0,517.0
506.0,508.0,491.0,514.0
510.0,513.0,493.0,514.0
509.0,512.0,496.0,511.0
511.0,509.0,503.0,510.0
514.0,507.0,515.0,510.0
523.0,507.0,525.0,513.0
528.0,507.0,532.0,512.0
524.0,505.0,542.0,515.0
525.0,498.0,544.0,516.0
519.0,496.0,539.0,517.0
511.0,495.0,533.0,516.0
499.0,491.0,522.0,517.0
495.0,497.0,512.0,518.0
506.0,499.0,504.0,517.0
508.0,502.0,497.0,518.0
506.0,501.0,493.0,517.0
507.0,511.0,485.0,515.0
508.0,505.0,485.0,515.0
513.0,514.0,486.0,512.0
508.0,507.0,492.0,509.0
511.0,499.0,508.0,511.0
516.0,506.0,519.0,514.0
517.0,505.0,527.0,512.0
524.0,517.0,538.0,513.0
524.0,518.0,547.0,515.0
523.0,507.0,545.0,519.0
523.0,500.0,540.0,517.0
506.0,492.0,535.0,516.0
499.0,490.0,527.0,519.0
497.0,495.0,509.0,518.0
498.0,501.0,503.0,520.0
501.0,507.0,494.0,520.0
501.0,509.0,490.0,519.0
507.0,514.0,491.0,524.0
505.0,508.0,490.0,519.0
511.0,514.0,491.0,512.0
510.0,512.0,501.0,506.0
511.0,509.0,510.0,505.0
514.0,518.0,521.0,509.0
522.0,517.0,532.0,508.0
520.0,496.0,542.0,514.0
522.0,482.0,545.0,516.0
523.0,498.0,541.0,516.0
524.0,506.0,539.0,514.0
507.0,497.0,527.0,513.0
504.0,504.0,516.0,517.0
500.0,506.0,505.0,514.0
500.0,512.0,496.0,521.0
503.0,513.0,491.0,521.0
503.0,482.0,489.0,516.0
510.0,511.0,491.0,521.0
506.0,503.0,490.0,516.0
505.0,506.0,496.0,514.0
503.0,509.0,503.0,512.0
509.0,506.0,511.0,516.0
515.0,509.0,521.0,520.0
524.0,507.0,533.0,513.0
522.0,501.0,549.0,506.0
520.0,497.0,547.0,512.0
519.0,494.0,549.0,526.0
515.0,494.0,535.0,519.0
493.0,487.0,522.0,515.0
488.0,488.0,512.0,532.0
482.0,490.0,511.0,537.0
487.0,496.0,501.0,530.0
493.0,504.0,484.0,503.0
502.0,508.0,473.0,509.0
510.0,503.0,489.0,512.0
516.0,505.0,504.0,530.0
517.0,497.0,490.0,524.0
522.0,503.0,496.0,528.0
523.0,514.0,520.0,523.0
522.0,528.0,538.0,508.0
524.0,530.0,537.0,492.0
515.0,523.0,540.0,513.0
514.0,519.0,543.0,532.0
507.0,490.0,542.0,529.0
481.0,458.0,535.0,504.0
492.0,475.0,519.0,513.0
503.0,483.0,509.0,526.0
505.0,497.0,503.0,517.0
