CH1,CH2,CH3,CH4
500.0,502.0,521.0,510.0
494.0,496.0,510.0,509.0
495.0,504.0,500.0,515.0
496.0,512.0,499.0,515.0
498.0,514.0,494.0,514.0
505.0,515.0,493.0,511.0
509.0,509.0,493.0,512.0
507.0,507.0,493.0,509.0
508.0,506.0,497.0,506.0
511.0,508.0,502.0,506.0
517.0,508.0,511.0,506.0
523.0,519.0,521.0,507.0
525.0,517.0,525.0,507.0
526.0,506.0,530.0,508.0
519.0,500.0,532.0,510.0
516.0,501.0,532.0,512.0
504.0,488.0,523.0,512.0
500.0,487.0,520.0,516.0
499.0,488.0,509.0,518.0
499.0,491.0,502.0,520.0
501.0,500.0,499.0,518.0
502.0,511.0,495.0,519.0
504.0,516.0,496.0,517.0
504.0,509.0,496.0,510.0
504.0,511.0,492.0,509.0
506.0,506.0,496.0,512.0
511.0,503.0,506.0,509.0
519.0,508.0,513.0,507.0
521.0,503.0,526.0,510.0
529.0,503.0,531.0,509.0
531.0,510.0,542.0,513.0
527.0,504.0,534.0,513.0
520.0,496.0,526.0,513.0
501.0,496.0,523.0,512.0
498.0,491.0,513.0,517.0
504.0,499.0,507.0,515.0
498.0,501.0,500.0,518.0
505.0,500.0,496.0,518.0
507.0,501.0,493.0,517.0
512.0,508.0,492.0,515.0
507.0,528.0,490.0,510.0
508.0,519.0,495.0,507.0
508.0,514.0,502.0,504.0
516.0,512.0,508.0,506.0
521.0,506.0,516.0,509.0
526.0,510.0,526.0,507.0
529.0,511.0,530.0,507.0
526.0,510.0,536.0,509.0
520.0,505.0,530.0,512.0
514.0,499.0,526.0,513.0
504.0,490.0,520.0,516.0
500.0,489.0,511.0,518.0
497.0,493.0,505.0,519.0
498.0,501.0,500.0,520.0
501.0,502.0,497.0,519.0
507.0,509.0,497.0,519.0
506.0,508.0,494.0,515.0
505.0,498.0,493.0,513.0
507.0,509.0,494.0,508.0
510.0,515.0,502.0,512.0
515.0,517.0,514.0,510.0
525.0,509.0,522.0,511.0
531.0,507.0,536.0,512.0
528.0,511.0,541.0,516.0
525.0,510.0,543.0,517.0
518.0,502.0,540.0,519.0
506.0,490.0,536.0,519.0
499.0,486.0,520.0,519.0
496.0,499.0,509.0,519.0
502.0,505.0,498.0,517.0
509.0,507.0,492.0,514.0
509.0,519.0,490.0,511.0
510.0,503.0,489.0,506.0
506.0,492.0,491.0,506.0
507.0,510.0,492.0,503.0
510.0,508.0,496.0,504.0
513.0,522.0,504.0,501.0
517.0,513.0,512.0,502.0
519.0,502.0,517.0,504.0
525.0,503.0,523.0,503.0
531.0,502.0,530.0,504.0
519.0,495.0,532.0,508.0
517.0,489.0,528.0,509.0
503.0,485.0,522.0,513.0
501.0,490.0,516.0,515.0
501.0,493.0,508.0,517.0
501.0,499.0,503.0,521.0
500.0,505.0,496.0,518.0
504.0,512.0,494.0,514.0
511.0,511.0,493.0,513.0
503.0,501.0,494.0,512.0
498.0,495.0,496.0,507.0
503.0,503.0,501.0,505.0
511.0,515.0,508.0,506.0
518.0,524.0,522.0,506.0
528.0,537.0,527.0,506.0
530.0,528.0,531.0,504.0
526.0,513.0,536.0,510.0
518.0,488.0,530.0,513.0
510.0,482.0,530.0,512.0
499.0,489.0,524.0,514.0
499.0,487.0,515.0,519.0
501.0,503.0,507.0,519.0
505.0,508.0,501.0,517.0
505.0,507.0,498.0,519.0
508.0,522.0,495.0,511.0
508.0,510.0,495.0,514.0
505.0,501.0,493.0,512.0
506.0,505.0,500.0,510.0
511.0,513.0,507.0,512.0
515.0,511.0,517.0,510.0
521.0,513.0,522.0,511.0
527.0,512.0,530.0,508.0
527.0,510.0,536.0,509.0
524.0,503.0,534.0,510.0
517.0,496.0,533.0,510.0
506.0,488.0,528.0,512.0
506.0,493.0,516.0,515.0
499.0,496.0,511.0,517.0
499.0,504.0,502.0,519.0
503.0,503.0,499.0,520.0
505.0,511.0,495.0,520.0
513.0,514.0,495.0,515.0
509.0,516.0,496.0,510.0
510.0,511.0,493.0,512.0
509.0,504.0,501.0,508.0
513.0,500.0,509.0,508.0
517.0,502.0,516.0,509.0
522.0,508.0,523.0,507.0
526.0,505.0,528.0,506.0
528.0,506.0,534.0,508.0
523.0,498.0,530.0,512.0
513.0,496.0,531.0,511.0
502.0,485.0,522.0,514.0
499.0,480.0,515.0,514.0
493.0,495.0,511.0,520.0
503.0,508.0,499.0,519.0
504.0,512.0,499.0,521.0
506.0,520.0,494.0,521.0
509.0,523.0,497.0,516.0
512.0,521.0,493.0,516.0
513.0,504.0,498.0,512.0
513.0,491.0,503.0,511.0
516.0,497.0,514.0,507.0
523.0,512.0,521.0,512.0
526.0,517.0,531.0,513.0
527.0,517.0,535.0,518.0
525.0,519.0,538.0,515.0
516.0,505.0,532.0,516.0
507.0,488.0,528.0,508.0
502.0,480.0,515.0,511.0
496.0,479.0,510.0,512.0
497.0,480.0,501.0,513.0
500.0,496.0,496.0,514.0
505.0,510.0,493.0,515.0
511.0,532.0,494.0,513.0
507.0,537.0,494.0,514.0
506.0,532.0,494.0,509.0
509.0,504.0,496.0,505.0
511.0,506.0,501.0,508.0
519.0,509.0,511.0,506.0
524.0,516.0,523.0,507.0
527.0,515.0,531.0,511.0
529.0,512.0,535.0,511.0
525.0,503.0,536.0,512.0
521.0,496.0,529.0,511.0
506.0,478.0,526.0,515.0
499.0,482.0,515.0,516.0
498.0,485.0,509.0,518.0
494.0,492.0,503.0,517.0
501.0,502.0,493.0,518.0
506.0,504.0,492.0,513.0
507.0,512.0,493.0,513.0
508.0,509.0,496.0,511.0
504.0,505.0,493.0,509.0
512.0,496.0,502.0,509.0
514.0,495.0,510.0,507.0
524.0,501.0,513.0,507.0
532.0,510.0,527.0,509.0
530.0,503.0,532.0,507.0
528.0,506.0,540.0,512.0
523.0,504.0,539.0,515.0
514.0,499.0,530.0,513.0
503.0,485.0,522.0,516.0
500.0,500.0,513.0,511.0
498.0,510.0,505.0,517.0
497.0,514.0,496.0,516.0
500.0,516.0,493.0,518.0
506.0,515.0,491.0,514.0
508.0,520.0,491.0,512.0
508.0,523.0,491.0,509.0
510.0,512.0,492.0,506.0
512.0,507.0,495.0,505.0
515.0,509.0,506.0,502.0
520.0,516.0,516.0,503.0
525.0,515.0,525.0,510.0
530.0,513.0,531.0,509.0
525.0,515.0,535.0,511.0
519.0,503.0,532.0,509.0
511.0,499.0,525.0,510.0
499.0,495.0,520.0,512.0
502.0,495.0,512.0,516.0
500.0,493.0,500.0,517.0
502.0,497.0,499.0,521.0
506.0,497.0,491.0,517.0
510.0,504.0,494.0,518.0
508.0,508.0,493.0,516.0
509.0,511.0,494.0,510.0
505.0,504.0,495.0,511.0
511.0,518.0,506.0,510.0
516.0,519.0,512.0,512.0
523.0,529.0,529.0,513.0
526.0,531.0,532.0,514.0
526.0,526.0,536.0,516.0
526.0,524.0,537.0,513.0
515.0,491.0,533.0,514.0
500.0,458.0,526.0,511.0
498.0,481.0,513.0,510.0
497.0,490.0,505.0,512.0
499.0,489.0,501.0,513.0
501.0,494.0,491.0,516.0
508.0,500.0,491.0,512.0
507.0,505.0,492.0,512.0
510.0,502.0,490.0,512.0
506.0,498.0,494.0,510.0
508.0,491.0,501.0,507.0
511.0,496.0,506.0,506.0
515.0,504.0,516.0,507.0
526.0,505.0,524.0,508.0
526.0,503.0,533.0,509.0
530.0,500.0,538.0,511.0
523.0,507.0,534.0,511.0
515.0,506.0,527.0,512.0
498.0,500.0,523.0,511.0
497.0,504.0,515.0,515.0
496.0,513.0,506.0,517.0
499.0,504.0,499.0,519.0
500.0,512.0,494.0,520.0
506.0,514.0,492.0,520.0
509.0,517.0,492.0,518.0
508.0,504.0,497.0,513.0
504.0,496.0,495.0,510.0
509.0,505.0,503.0,510.0
513.0,510.0,514.0,511.0
517.0,508.0,526.0,509.0
524.0,508.0,527.0,509.0
524.0,510.0,532.0,506.0
525.0,512.0,531.0,505.0
517.0,507.0,528.0,508.0
510.0,492.0,529.0,511.0
503.0,487.0,519.0,512.0
499.0,486.0,511.0,517.0
500.0,493.0,504.0,512.0
499.0,501.0,500.0,515.0
502.0,501.0,493.0,515.0
507.0,511.0,494.0,513.0
511.0,515.0,493.0,514.0
506.0,505.0,495.0,515.0
508.0,506.0,499.0,508.0
511.0,506.0,504.0,508.0
517.0,506.0,509.0,507.0
524.0,508.0,516.0,506.0
528.0,510.0,529.0,504.0
528.0,505.0,532.0,508.0
522.0,501.0,533.0,506.0
520.0,496.0,528.0,505.0
501.0,487.0,524.0,513.0
500.0,489.0,518.0,515.0
500.0,494.0,509.0,515.0
500.0,496.0,508.0,519.0
504.0,506.0,497.0,516.0
504.0,513.0,494.0,516.0
510.0,515.0,494.0,514.0
508.0,510.0,493.0,511.0
509.0,506.0,495.0,508.0
507.0,507.0,500.0,505.0
513.0,506.0,508.0,506.0
519.0,508.0,516.0,504.0
526.0,508.0,525.0,508.0
525.0,509.0,530.0,509.0
526.0,507.0,536.0,512.0
522.0,506.0,532.0,513.0
515.0,511.0,534.0,513.0
504.0,498.0,521.0,515.0
499.0,495.0,515.0,517.0
498.0,499.0,506.0,517.0
501.0,503.0,502.0,521.0
503.0,509.0,502.0,521.0
506.0,508.0,500.0,520.0
509.0,510.0,496.0,519.0
511.0,513.0,496.0,516.0
509.0,511.0,497.0,510.0
509.0,516.0,501.0,506.0
516.0,517.0,510.0,508.0
523.0,518.0,519.0,505.0
526.0,515.0,524.0,505.0
525.0,504.0,529.0,506.0
522.0,506.0,528.0,507.0
515.0,502.0,529.0,512.0
508.0,494.0,528.0,511.0
500.0,481.0,520.0,515.0
498.0,488.0,513.0,516.0
496.0,491.0,505.0,518.0
500.0,499.0,497.0,519.0
503.0,505.0,493.0,518.0
506.0,515.0,491.0,516.0
507.0,514.0,487.0,512.0
506.0,506.0,495.0,510.0
506.0,503.0,495.0,506.0
511.0,504.0,506.0,507.0
512.0,503.0,512.0,507.0
527.0,513.0,521.0,508.0
534.0,511.0,529.0,509.0
528.0,508.0,534.0,509.0
528.0,500.0,533.0,512.0
520.0,498.0,531.0,513.0
509.0,486.0,524.0,513.0
500.0,486.0,518.0,516.0
498.0,488.0,507.0,522.0
503.0,506.0,503.0,521.0
500.0,511.0,498.0,518.0
502.0,506.0,496.0,517.0
509.0,515.0,495.0,515.0
509.0,513.0,494.0,515.0
506.0,512.0,495.0,511.0
509.0,513.0,502.0,508.0
515.0,510.0,507.0,503.0
519.0,506.0,516.0,506.0
524.0,510.0,523.0,508.0
527.0,509.0,528.0,507.0
528.0,509.0,533.0,511.0
523.0,510.0,531.0,514.0
514.0,506.0,529.0,509.0
509.0,493.0,520.0,513.0
500.0,492.0,512.0,518.0
499.0,498.0,502.0,517.0
500.0,503.0,499.0,519.0
504.0,503.0,495.0,517.0
505.0,510.0,495.0,517.0
508.0,510.0,489.0,515.0
506.0,507.0,495.0,509.0
508.0,500.0,496.0,509.0
509.0,506.0,502.0,507.0
513.0,504.0,511.0,507.0
521.0,507.0,520.0,504.0
526.0,516.0,527.0,508.0
523.0,520.0,531.0,508.0
526.0,502.0,534.0,512.0
518.0,479.0,533.0,511.0
510.0,476.0,524.0,512.0
501.0,481.0,520.0,515.0
495.0,485.0,508.0,517.0
495.0,508.0,505.0,518.0
500.0,515.0,501.0,519.0
501.0,515.0,496.0,517.0
504.0,516.0,496.0,515.0
508.0,515.0,494.0,514.0
507.0,517.0,496.0,510.0
509.0,513.0,497.0,505.0
513.0,509.0,505.0,504.0
516.0,509.0,511.0,505.0
521.0,512.0,521.0,507.0
527.0,511.0,527.0,508.0
526.0,514.0,533.0,510.0
526.0,514.0,533.0,511.0
516.0,504.0,533.0,513.0
508.0,490.0,526.0,511.0
498.0,491.0,518.0,513.0
496.0,493.0,504.0,517.0
498.0,496.0,501.0,519.0
499.0,501.0,499.0,518.0
504.0,505.0,493.0,517.0
509.0,511.0,494.0,516.0
510.0,513.0,490.0,512.0
506.0,513.0,495.0,511.0
505.0,506.0,499.0,508.0
512.0,508.0,508.0,510.0
516.0,501.0,516.0,507.0
522.0,504.0,522.0,508.0
525.0,508.0,529.0,508.0
528.0,511.0,536.0,512.0
520.0,514.0,533.0,513.0
515.0,504.0,532.0,509.0
502.0,488.0,522.0,511.0
499.0,486.0,515.0,516.0
498.0,492.0,508.0,515.0
499.0,504.0,502.0,519.0
497.0,503.0,497.0,517.0
504.0,512.0,494.0,517.0
508.0,515.0,490.0,514.0
508.0,514.0,493.0,508.0
506.0,507.0,496.0,509.0
511.0,506.0,504.0,507.0
513.0,507.0,509.0,507.0
522.0,511.0,519.0,509.0
526.0,511.0,527.0,507.0
525.0,505.0,533.0,507.0
524.0,505.0,535.0,514.0
518.0,503.0,534.0,511.0
515.0,497.0,527.0,507.0
501.0,493.0,519.0,514.0
497.0,493.0,512.0,517.0
500.0,501.0,505.0,517.0
502.0,510.0,499.0,519.0
504.0,514.0,496.0,515.0
508.0,520.0,497.0,515.0
505.0,511.0,494.0,513.0
510.0,505.0,495.0,508.0
507.0,504.0,497.0,508.0
515.0,497.0,503.0,504.0
513.0,499.0,514.0,504.0
524.0,508.0,522.0,508.0
529.0,507.0,530.0,509.0
526.0,506.0,537.0,511.0
524.0,507.0,536.0,511.0
519.0,505.0,528.0,513.0
504.0,492.0,530.0,512.0
500.0,488.0,518.0,512.0
497.0,490.0,509.0,519.0
500.0,496.0,502.0,519.0
503.0,499.0,501.0,519.0
505.0,506.0,493.0,518.0
509.0,508.0,495.0,514.0
507.0,507.0,497.0,512.0
507.0,504.0,496.0,509.0
507.0,508.0,497.0,506.0
511.0,509.0,508.0,504.0
517.0,508.0,517.0,505.0
523.0,508.0,525.0,507.0
522.0,503.0,533.0,507.0
526.0,500.0,534.0,513.0
521.0,494.0,533.0,512.0
516.0,498.0,531.0,513.0
503.0,490.0,522.0,515.0
499.0,492.0,515.0,518.0
503.0,494.0,509.0,519.0
505.0,498.0,502.0,519.0
501.0,500.0,498.0,520.0
505.0,511.0,493.0,516.0
505.0,516.0,494.0,513.0
499.0,520.0,496.0,513.0
503.0,520.0,494.0,511.0
507.0,515.0,506.0,509.0
492.0,481.0,522.0,519.0
485.0,484.0,510.0,521.0
475.0,487.0,502.0,522.0
479.0,490.0,495.0,518.0
513.0,493.0,496.0,518.0
524.0,499.0,492.0,513.0
521.0,506.0,491.0,510.0
529.0,527.0,493.0,510.0
529.0,526.0,498.0,508.0
525.0,520.0,506.0,506.0
525.0,520.0,515.0,507.0
525.0,521.0,523.0,504.0
530.0,514.0,534.0,500.0
526.0,512.0,538.0,506.0
525.0,508.0,536.0,509.0
517.0,504.0,533.0,511.0
509.0,499.0,526.0,515.0
504.0,495.0,518.0,515.0
503.0,490.0,509.0,517.0
505.0,488.0,498.0,518.0
505.0,494.0,493.0,520.0
506.0,498.0,490.0,520.0
506.0,506.0,492.0,515.0
510.0,516.0,492.0,510.0
507.0,520.0,492.0,510.0
507.0,518.0,503.0,506.0
513.0,517.0,510.0,508.0
518.0,515.0,517.0,511.0
523.0,517.0,529.0,508.0
526.0,506.0,535.0,515.0
522.0,504.0,540.0,507.0
518.0,500.0,539.0,510.0
517.0,501.0,534.0,514.0
507.0,489.0,527.0,516.0
501.0,491.0,521.0,518.0
500.0,499.0,507.0,520.0
501.0,504.0,496.0,520.0
497.0,504.0,493.0,519.0
500.0,501.0,492.0,518.0
508.0,503.0,490.0,516.0
509.0,504.0,492.0,513.0
512.0,503.0,494.0,509.0
516.0,502.0,504.0,508.0
519.0,508.0,513.0,504.0
521.0,511.0,523.0,508.0
524.0,513.0,531.0,506.0
524.0,510.0,538.0,507.0
522.0,509.0,538.0,505.0
519.0,511.0,535.0,508.0
514.0,499.0,531.0,511.0
505.0,493.0,519.0,513.0
499.0,501.0,510.0,513.0
495.0,505.0,504.0,518.0
499.0,522.0,495.0,521.0
502.0,509.0,493.0,517.0
503.0,483.0,490.0,515.0
508.0,509.0,489.0,515.0
504.0,500.0,494.0,514.0
513.0,504.0,499.0,510.0
514.0,512.0,505.0,508.0
516.0,506.0,516.0,506.0
523.0,511.0,520.0,506.0
529.0,512.0,533.0,501.0
525.0,505.0,534.0,510.0
524.0,505.0,536.0,507.0
521.0,508.0,533.0,508.0
509.0,489.0,527.0,511.0
501.0,487.0,519.0,516.0
499.0,491.0,512.0,519.0
499.0,493.0,499.0,520.0
500.0,493.0,494.0,517.0
504.0,493.0,491.0,517.0
507.0,492.0,489.0,515.0
511.0,501.0,490.0,511.0
510.0,518.0,493.0,512.0
514.0,524.0,500.0,507.0
518.0,514.0,511.0,508.0
517.0,508.0,521.0,506.0
517.0,508.0,528.0,509.0
529.0,508.0,537.0,506.0
528.0,506.0,542.0,510.0
527.0,517.0,533.0,510.0
518.0,515.0,536.0,512.0
505.0,498.0,523.0,514.0
496.0,504.0,512.0,517.0
492.0,497.0,502.0,517.0
492.0,488.0,498.0,520.0
495.0,502.0,494.0,518.0
500.0,501.0,492.0,516.0
504.0,498.0,491.0,517.0
508.0,510.0,493.0,514.0
511.0,513.0,496.0,511.0
513.0,510.0,503.0,508.0
512.0,509.0,509.0,506.0
510.0,517.0,521.0,506.0
514.0,515.0,530.0,503.0
515.0,510.0,535.0,506.0
517.0,507.0,537.0,507.0
518.0,503.0,534.0,511.0
515.0,504.0,529.0,515.0
505.0,493.0,519.0,522.0
503.0,491.0,512.0,517.0
499.0,493.0,501.0,519.0
497.0,503.0,498.0,519.0
500.0,516.0,491.0,518.0
505.0,511.0,490.0,517.0
512.0,514.0,492.0,515.0
524.0,516.0,494.0,514.0
525.0,512.0,500.0,511.0
522.0,503.0,504.0,507.0
521.0,499.0,517.0,509.0
524.0,503.0,521.0,508.0
530.0,503.0,530.0,509.0
528.0,499.0,539.0,511.0
525.0,506.0,540.0,510.0
521.0,514.0,533.0,513.0
511.0,501.0,528.0,514.0
503.0,494.0,515.0,516.0
503.0,492.0,509.0,519.0
503.0,504.0,500.0,526.0
502.0,510.0,496.0,518.0
504.0,506.0,489.0,517.0
504.0,501.0,491.0,512.0
504.0,504.0,491.0,511.0
508.0,506.0,497.0,510.0
512.0,505.0,503.0,509.0
520.0,500.0,510.0,509.0
525.0,503.0,517.0,507.0
531.0,508.0,529.0,509.0
527.0,507.0,538.0,510.0
521.0,504.0,542.0,512.0
516.0,516.0,542.0,514.0
512.0,504.0,533.0,512.0
501.0,489.0,527.0,515.0
500.0,485.0,512.0,516.0
503.0,488.0,503.0,516.0
505.0,495.0,496.0,516.0
502.0,502.0,487.0,515.0
501.0,508.0,489.0,514.0
501.0,516.0,488.0,512.0
502.0,514.0,490.0,509.0
503.0,517.0,497.0,507.0
509.0,515.0,503.0,503.0
516.0,513.0,515.0,506.0
522.0,514.0,522.0,505.0
524.0,494.0,527.0,506.0
526.0,499.0,534.0,506.0
525.0,517.0,536.0,505.0
516.0,520.0,534.0,508.0
513.0,497.0,526.0,511.0
504.0,489.0,521.0,512.0
499.0,493.0,509.0,517.0
499.0,499.0,501.0,518.0
501.0,502.0,496.0,517.0
500.0,504.0,488.0,517.0
505.0,507.0,492.0,516.0
507.0,511.0,489.0,515.0
512.0,511.0,494.0,511.0
514.0,506.0,501.0,506.0
514.0,508.0,508.0,508.0
519.0,507.0,515.0,504.0
522.0,511.0,526.0,506.0
522.0,510.0,530.0,503.0
517.0,507.0,538.0,505.0
522.0,507.0,535.0,507.0
517.0,501.0,533.0,509.0
507.0,492.0,526.0,510.0
502.0,492.0,515.0,513.0
500.0,495.0,507.0,513.0
499.0,495.0,500.0,515.0
499.0,498.0,494.0,516.0
502.0,504.0,490.0,519.0
501.0,508.0,492.0,516.0
503.0,508.0,491.0,514.0
507.0,514.0,493.0,511.0
507.0,503.0,499.0,515.0
515.0,495.0,509.0,508.0
522.0,500.0,516.0,508.0
531.0,500.0,526.0,511.0
534.0,503.0,534.0,509.0
524.0,508.0,538.0,511.0
523.0,535.0,537.0,512.0
510.0,516.0,534.0,509.0
498.0,494.0,525.0,513.0
492.0,490.0,514.0,516.0
495.0,496.0,512.0,519.0
496.0,504.0,502.0,520.0
503.0,514.0,498.0,520.0
501.0,513.0,490.0,517.0
509.0,513.0,490.0,515.0
514.0,514.0,490.0,507.0
510.0,521.0,493.0,513.0
510.0,508.0,502.0,505.0
513.0,509.0,515.0,508.0
524.0,519.0,522.0,506.0
529.0,514.0,531.0,505.0
525.0,506.0,541.0,509.0
528.0,498.0,540.0,505.0
540.0,497.0,537.0,509.0
527.0,498.0,527.0,509.0
509.0,494.0,519.0,511.0
502.0,505.0,508.0,517.0
497.0,500.0,501.0,518.0
503.0,498.0,497.0,519.0
503.0,506.0,493.0,518.0
506.0,505.0,491.0,513.0
508.0,511.0,487.0,513.0
510.0,505.0,493.0,512.0
511.0,506.0,498.0,505.0
516.0,520.0,506.0,504.0
525.0,531.0,514.0,509.0
527.0,532.0,524.0,509.0
528.0,525.0,534.0,504.0
523.0,482.0,537.0,506.0
517.0,486.0,536.0,508.0
515.0,499.0,531.0,510.0
510.0,500.0,528.0,512.0
501.0,505.0,519.0,516.0
499.0,499.0,508.0,519.0
505.0,498.0,500.0,521.0
503.0,487.0,494.0,520.0
503.0,504.0,490.0,518.0
502.0,505.0,488.0,515.0
505.0,506.0,494.0,512.0
509.0,502.0,494.0,509.0
510.0,501.0,498.0,506.0
515.0,500.0,510.0,506.0
520.0,506.0,519.0,505.0
529.0,515.0,528.0,508.0
530.0,520.0,535.0,501.0
528.0,513.0,537.0,509.0
524.0,504.0,537.0,512.0
518.0,505.0,531.0,513.0
507.0,496.0,527.0,518.0
494.0,493.0,519.0,520.0
499.0,495.0,511.0,522.0
496.0,500.0,503.0,523.0
500.0,503.0,499.0,522.0
502.0,505.0,492.0,515.0
504.0,510.0,488.0,517.0
506.0,506.0,490.0,510.0
509.0,510.0,488.0,508.0
516.0,505.0,500.0,505.0
521.0,504.0,511.0,505.0
527.0,511.0,519.0,506.0
533.0,513.0,534.0,507.0
531.0,507.0,538.0,507.0
519.0,500.0,536.0,510.0
514.0,498.0,538.0,509.0
512.0,493.0,532.0,511.0
499.0,491.0,521.0,515.0
496.0,500.0,509.0,519.0
497.0,494.0,502.0,520.0
497.0,502.0,496.0,521.0
497.0,501.0,487.0,519.0
500.0,502.0,490.0,516.0
506.0,509.0,489.0,513.0
508.0,519.0,492.0,511.0
510.0,514.0,495.0,508.0
512.0,511.0,503.0,507.0
514.0,511.0,514.0,507.0
520.0,514.0,523.0,506.0
528.0,517.0,532.0,508.0
526.0,516.0,538.0,510.0
522.0,509.0,537.0,513.0
512.0,521.0,537.0,516.0
506.0,502.0,530.0,516.0
491.0,472.0,520.0,517.0
480.0,491.0,510.0,519.0
482.0,502.0,503.0,519.0
494.0,512.0,497.0,516.0
501.0,524.0,493.0,515.0
504.0,523.0,487.0,514.0
511.0,509.0,490.0,507.0
530.0,504.0,492.0,505.0
522.0,503.0,496.0,504.0
523.0,505.0,508.0,505.0
526.0,502.0,517.0,506.0
532.0,505.0,527.0,505.0
533.0,503.0,532.0,506.0
537.0,510.0,533.0,507.0
534.0,513.0,536.0,508.0
528.0,516.0,530.0,506.0
511.0,508.0,523.0,510.0
503.0,495.0,515.0,516.0
495.0,495.0,504.0,518.0
490.0,490.0,499.0,517.0
491.0,487.0,498.0,520.0
495.0,502.0,493.0,518.0
503.0,510.0,493.0,516.0
505.0,508.0,493.0,511.0
511.0,502.0,495.0,507.0
512.0,494.0,501.0,508.0
517.0,487.0,511.0,506.0
522.0,495.0,521.0,505.0
529.0,504.0,529.0,507.0
529.0,523.0,536.0,505.0
525.0,520.0,539.0,507.0
523.0,518.0,536.0,511.0
516.0,512.0,533.0,509.0
499.0,498.0,526.0,516.0
499.0,496.0,517.0,517.0
497.0,498.0,503.0,518.0
500.0,501.0,496.0,517.0
500.0,495.0,489.0,520.0
502.0,495.0,490.0,517.0
509.0,504.0,492.0,514.0
512.0,513.0,493.0,513.0
509.0,509.0,499.0,510.0
513.0,508.0,505.0,512.0
522.0,520.0,515.0,506.0
523.0,523.0,525.0,504.0
527.0,524.0,529.0,507.0
525.0,513.0,536.0,508.0
518.0,516.0,536.0,508.0
518.0,511.0,532.0,509.0
501.0,496.0,526.0,512.0
498.0,497.0,518.0,515.0
491.0,482.0,508.0,518.0
499.0,487.0,498.0,519.0
506.0,502.0,495.0,520.0
502.0,504.0,492.0,516.0
504.0,505.0,492.0,516.0
507.0,509.0,489.0,514.0
509.0,510.0,491.0,513.0
510.0,505.0,501.0,512.0
516.0,515.0,512.0,512.0
521.0,518.0,521.0,512.0
525.0,520.0,530.0,509.0
525.0,513.0,535.0,508.0
526.0,504.0,537.0,507.0
521.0,495.0,533.0,505.0
512.0,489.0,526.0,509.0
501.0,477.0,520.0,512.0
496.0,473.0,513.0,521.0
496.0,499.0,502.0,519.0
499.0,511.0,503.0,522.0
506.0,516.0,495.0,521.0
506.0,511.0,491.0,520.0
505.0,516.0,489.0,518.0
499.0,515.0,488.0,512.0
505.0,509.0,497.0,507.0
504.0,507.0,505.0,508.0
516.0,506.0,512.0,504.0
518.0,501.0,520.0,503.0
532.0,503.0,526.0,506.0
541.0,504.0,537.0,505.0
526.0,503.0,537.0,510.0
527.0,496.0,534.0,509.0
514.0,506.0,528.0,511.0
497.0,500.0,520.0,515.0
489.0,502.0,511.0,519.0
492.0,500.0,503.0,521.0
497.0,505.0,499.0,521.0
503.0,507.0,493.0,521.0
510.0,502.0,495.0,516.0
517.0,508.0,494.0,515.0
518.0,514.0,490.0,511.0
508.0,503.0,496.0,508.0
516.0,504.0,502.0,505.0
522.0,514.0,510.0,506.0
531.0,524.0,523.0,504.0
533.0,531.0,533.0,504.0
533.0,526.0,534.0,506.0
532.0,521.0,535.0,505.0
528.0,509.0,532.0,509.0
514.0,468.0,528.0,513.0
502.0,483.0,519.0,517.0
499.0,491.0,508.0,519.0
500.0,491.0,500.0,522.0
501.0,492.0,498.0,521.0
497.0,500.0,491.0,520.0
500.0,509.0,490.0,515.0
501.0,504.0,490.0,514.0
506.0,499.0,492.0,510.0
512.0,494.0,499.0,504.0
515.0,491.0,509.0,505.0
523.0,487.0,516.0,506.0
523.0,489.0,528.0,509.0
528.0,525.0,537.0,510.0
523.0,542.0,540.0,510.0
514.0,534.0,537.0,516.0
513.0,525.0,533.0,515.0
504.0,511.0,527.0,514.0
497.0,489.0,517.0,516.0
498.0,485.0,508.0,521.0
502.0,492.0,497.0,519.0
499.0,509.0,492.0,514.0
499.0,515.0,491.0,516.0
501.0,520.0,490.0,516.0
505.0,498.0,491.0,512.0
507.0,499.0,495.0,510.0
512.0,503.0,497.0,506.0
515.0,506.0,507.0,504.0
521.0,509.0,515.0,504.0
529.0,514.0,527.0,507.0
526.0,513.0,531.0,505.0
523.0,518.0,536.0,512.0
519.0,506.0,534.0,512.0
520.0,500.0,537.0,515.0
505.0,492.0,526.0,517.0
497.0,493.0,518.0,520.0
494.0,497.0,509.0,522.0
498.0,490.0,498.0,519.0
501.0,492.0,493.0,517.0
502.0,492.0,489.0,515.0
504.0,491.0,487.0,518.0
510.0,496.0,490.0,506.0
514.0,507.0,494.0,505.0
518.0,504.0,502.0,511.0
520.0,510.0,513.0,506.0
522.0,522.0,525.0,508.0
527.0,524.0,533.0,505.0
531.0,515.0,533.0,508.0
523.0,509.0,537.0,510.0
518.0,510.0,531.0,512.0
514.0,505.0,527.0,512.0
499.0,499.0,518.0,512.0
495.0,495.0,508.0,517.0
496.0,508.0,501.0,519.0
501.0,511.0,495.0,518.0
496.0,498.0,492.0,518.0
498.0,500.0,492.0,515.0
502.0,503.0,496.0,513.0
500.0,504.0,492.0,506.0
507.0,508.0,497.0,506.0
510.0,515.0,507.0,506.0
516.0,518.0,517.0,506.0
518.0,519.0,526.0,506.0
517.0,517.0,535.0,509.0
529.0,511.0,538.0,508.0
528.0,503.0,537.0,511.0
521.0,503.0,533.0,512.0
507.0,494.0,526.0,514.0
501.0,495.0,517.0,516.0
507.0,499.0,512.0,520.0
507.0,509.0,501.0,517.0
511.0,510.0,494.0,519.0
507.0,507.0,493.0,519.0
505.0,505.0,491.0,513.0
506.0,504.0,493.0,512.0
512.0,505.0,499.0,511.0
512.0,503.0,504.0,506.0
516.0,504.0,514.0,508.0
523.0,506.0,520.0,507.0
527.0,514.0,526.0,506.0
530.0,508.0,537.0,505.0
526.0,500.0,538.0,509.0
522.0,502.0,533.0,508.0
518.0,499.0,532.0,507.0
507.0,490.0,525.0,516.0
499.0,482.0,513.0,519.0
493.0,491.0,505.0,519.0
497.0,499.0,497.0,518.0
503.0,503.0,492.0,516.0
503.0,514.0,490.0,517.0
505.0,508.0,491.0,514.0
502.0,507.0,496.0,510.0
505.0,509.0,495.0,505.0
519.0,512.0,504.0,504.0
519.0,509.0,511.0,505.0
528.0,505.0,521.0,505.0
530.0,506.0,530.0,507.0
523.0,510.0,538.0,508.0
523.0,510.0,538.0,507.0
516.0,513.0,535.0,510.0
505.0,504.0,531.0,513.0
498.0,491.0,520.0,520.0
492.0,497.0,507.0,518.0
494.0,497.0,499.0,519.0
500.0,497.0,497.0,518.0
499.0,501.0,488.0,517.0
504.0,506.0,488.0,513.0
509.0,528.0,488.0,513.0
508.0,541.0,491.0,511.0
513.0,530.0,496.0,508.0
519.0,520.0,507.0,507.0
517.0,482.0,514.0,506.0
520.0,475.0,525.0,504.0
523.0,482.0,535.0,506.0
526.0,505.0,537.0,508.0
523.0,507.0,536.0,508.0
521.0,503.0,535.0,513.0
512.0,492.0,530.0,514.0
508.0,483.0,517.0,517.0
502.0,497.0,505.0,517.0
500.0,506.0,500.0,519.0
497.0,499.0,493.0,518.0
503.0,507.0,486.0,516.0
499.0,505.0,489.0,514.0
502.0,504.0,492.0,511.0
504.0,512.0,497.0,508.0
511.0,520.0,501.0,507.0
517.0,528.0,508.0,505.0
522.0,526.0,516.0,504.0
525.0,513.0,526.0,506.0
527.0,513.0,538.0,506.0
522.0,506.0,539.0,508.0
512.0,504.0,536.0,507.0
512.0,497.0,529.0,511.0
504.0,490.0,520.0,516.0
497.0,492.0,511.0,518.0
492.0,494.0,501.0,519.0
494.0,499.0,495.0,519.0
495.0,501.0,494.0,515.0
496.0,510.0,489.0,517.0
497.0,514.0,489.0,515.0
501.0,512.0,492.0,510.0
516.0,503.0,494.0,510.0
517.0,490.0,502.0,508.0
515.0,492.0,513.0,509.0
524.0,499.0,524.0,508.0
535.0,522.0,531.0,510.0
535.0,525.0,536.0,511.0
527.0,508.0,537.0,508.0
523.0,513.0,536.0,510.0
515.0,506.0,530.0,511.0
509.0,495.0,521.0,517.0
507.0,496.0,511.0,518.0
500.0,498.0,500.0,518.0
499.0,500.0,494.0,520.0
505.0,504.0,490.0,518.0
507.0,507.0,489.0,516.0
505.0,512.0,492.0,511.0
507.0,514.0,495.0,513.0
506.0,505.0,499.0,511.0
517.0,507.0,506.0,508.0
522.0,498.0,515.0,509.0
528.0,503.0,526.0,507.0
533.0,508.0,534.0,508.0
533.0,508.0,537.0,509.0
531.0,504.0,537.0,512.0
524.0,506.0,533.0,509.0
503.0,504.0,526.0,513.0
492.0,498.0,517.0,518.0
493.0,499.0,509.0,520.0
496.0,503.0,500.0,523.0
502.0,506.0,494.0,518.0
502.0,502.0,489.0,518.0
501.0,500.0,489.0,517.0
503.0,503.0,491.0,517.0
505.0,507.0,491.0,509.0
507.0,507.0,502.0,509.0
514.0,512.0,510.0,504.0
519.0,519.0,521.0,509.0
529.0,518.0,528.0,507.0
528.0,514.0,536.0,505.0
522.0,500.0,536.0,506.0
518.0,502.0,535.0,509.0
514.0,507.0,534.0,509.0
508.0,493.0,524.0,515.0
506.0,494.0,514.0,518.0
503.0,495.0,506.0,518.0
505.0,496.0,499.0,521.0
504.0,502.0,491.0,520.0
505.0,504.0,492.0,520.0
501.0,505.0,494.0,511.0
502.0,520.0,496.0,513.0
500.0,514.0,497.0,507.0
502.0,513.0,505.0,506.0
510.0,502.0,515.0,506.0
516.0,491.0,524.0,504.0
531.0,500.0,527.0,504.0
537.0,500.0,536.0,506.0
531.0,497.0,537.0,508.0
524.0,511.0,533.0,511.0
522.0,512.0,529.0,512.0
512.0,502.0,523.0,516.0
501.0,488.0,510.0,517.0
494.0,504.0,502.0,518.0
498.0,523.0,496.0,518.0
497.0,520.0,493.0,518.0
500.0,524.0,491.0,515.0
505.0,501.0,491.0,515.0
504.0,486.0,494.0,512.0
512.0,495.0,501.0,509.0
526.0,501.0,506.0,507.0
529.0,502.0,518.0,506.0
530.0,501.0,529.0,507.0
532.0,501.0,534.0,509.0
529.0,514.0,539.0,505.0
521.0,504.0,537.0,513.0
522.0,520.0,536.0,514.0
507.0,498.0,527.0,513.0
496.0,494.0,517.0,519.0
494.0,495.0,507.0,519.0
500.0,496.0,498.0,521.0
499.0,500.0,494.0,518.0
496.0,506.0,489.0,518.0
501.0,514.0,491.0,513.0
508.0,520.0,490.0,514.0
516.0,517.0,496.0,513.0
516.0,514.0,507.0,510.0
519.0,512.0,508.0,512.0
524.0,507.0,520.0,506.0
526.0,505.0,527.0,510.0
528.0,504.0,537.0,505.0
527.0,503.0,536.0,508.0
520.0,498.0,536.0,509.0
516.0,509.0,530.0,512.0
502.0,500.0,522.0,515.0
497.0,496.0,512.0,518.0
499.0,492.0,502.0,522.0
502.0,506.0,497.0,521.0
506.0,511.0,496.0,520.0
508.0,505.0,491.0,516.0
505.0,495.0,491.0,516.0
506.0,500.0,491.0,514.0
511.0,497.0,497.0,511.0
508.0,508.0,508.0,509.0
516.0,514.0,511.0,507.0
524.0,516.0,524.0,506.0
530.0,519.0,531.0,506.0
529.0,515.0,536.0,508.0
522.0,508.0,536.0,509.0
518.0,503.0,536.0,509.0
516.0,501.0,531.0,510.0
506.0,496.0,522.0,515.0
499.0,495.0,508.0,519.0
497.0,493.0,503.0,520.0
504.0,498.0,495.0,521.0
500.0,489.0,493.0,519.0
500.0,501.0,493.0,517.0
503.0,502.0,491.0,516.0
505.0,499.0,492.0,512.0
503.0,505.0,500.0,508.0
511.0,505.0,506.0,506.0
518.0,514.0,514.0,508.0
526.0,521.0,521.0,505.0
529.0,522.0,532.0,506.0
533.0,512.0,539.0,507.0
525.0,509.0,537.0,511.0
520.0,506.0,535.0,513.0
501.0,495.0,525.0,515.0
495.0,487.0,516.0,516.0
491.0,491.0,506.0,521.0
488.0,497.0,501.0,520.0
500.0,507.0,497.0,520.0
509.0,518.0,495.0,519.0
515.0,510.0,492.0,521.0
507.0,508.0,494.0,514.0
499.0,509.0,496.0,511.0
501.0,504.0,499.0,511.0
509.0,508.0,508.0,502.0
514.0,510.0,516.0,506.0
521.0,511.0,525.0,505.0
518.0,510.0,534.0,507.0
525.0,504.0,538.0,507.0
535.0,504.0,536.0,509.0
525.0,505.0,531.0,507.0
506.0,493.0,522.0,512.0
501.0,489.0,512.0,518.0
503.0,494.0,502.0,519.0
503.0,500.0,496.0,518.0
503.0,503.0,488.0,518.0
509.0,501.0,490.0,517.0
505.0,500.0,492.0,516.0
514.0,508.0,492.0,513.0
516.0,509.0,496.0,507.0
525.0,512.0,503.0,507.0
523.0,515.0,514.0,505.0
528.0,511.0,522.0,507.0
531.0,509.0,530.0,504.0
532.0,505.0,537.0,508.0
524.0,500.0,538.0,508.0
523.0,517.0,534.0,511.0
517.0,502.0,529.0,516.0
505.0,503.0,519.0,516.0
499.0,504.0,508.0,518.0
496.0,497.0,501.0,520.0
499.0,486.0,495.0,520.0
501.0,490.0,489.0,519.0
506.0,497.0,490.0,511.0
508.0,497.0,485.0,515.0
512.0,494.0,492.0,512.0
513.0,495.0,498.0,509.0
520.0,508.0,503.0,507.0
520.0,522.0,513.0,505.0
520.0,515.0,524.0,506.0
525.0,525.0,534.0,506.0
525.0,515.0,537.0,509.0
520.0,505.0,536.0,507.0
517.0,509.0,532.0,512.0
511.0,499.0,527.0,515.0
497.0,496.0,515.0,517.0
486.0,494.0,506.0,519.0
462.0,488.0,499.0,520.0
460.0,491.0,496.0,519.0
466.0,493.0,491.0,522.0
476.0,498.0,492.0,516.0
499.0,508.0,489.0,511.0
506.0,509.0,491.0,509.0
519.0,502.0,498.0,507.0
548.0,511.0,510.0,507.0
542.0,516.0,517.0,507.0
539.0,523.0,526.0,507.0
533.0,529.0,536.0,505.0
535.0,516.0,539.0,509.0
537.0,510.0,537.0,511.0
528.0,505.0,533.0,510.0
504.0,492.0,524.0,514.0
494.0,491.0,513.0,516.0
491.0,486.0,499.0,520.0
498.0,490.0,497.0,518.0
497.0,498.0,496.0,520.0
501.0,505.0,490.0,515.0
501.0,503.0,488.0,517.0
521.0,513.0,494.0,512.0
523.0,513.0,497.0,511.0
516.0,517.0,506.0,508.0
515.0,511.0,512.0,508.0
528.0,507.0,524.0,508.0
537.0,511.0,533.0,508.0
532.0,506.0,538.0,514.0
524.0,497.0,538.0,508.0
517.0,501.0,536.0,510.0
513.0,503.0,530.0,510.0
498.0,496.0,520.0,516.0
494.0,494.0,510.0,517.0
498.0,493.0,502.0,518.0
499.0,491.0,494.0,519.0
500.0,499.0,492.0,520.0
507.0,507.0,490.0,517.0
508.0,518.0,492.0,513.0
512.0,514.0,493.0,513.0
511.0,512.0,499.0,510.0
512.0,516.0,506.0,507.0
523.0,515.0,515.0,507.0
538.0,516.0,523.0,507.0
533.0,515.0,533.0,505.0
535.0,510.0,538.0,510.0
534.0,506.0,534.0,509.0
527.0,506.0,532.0,511.0
515.0,494.0,527.0,513.0
507.0,492.0,513.0,515.0
503.0,495.0,508.0,517.0
502.0,500.0,498.0,520.0
504.0,503.0,495.0,518.0
505.0,508.0,489.0,519.0
505.0,509.0,488.0,515.0
507.0,511.0,492.0,512.0
512.0,513.0,494.0,512.0
509.0,511.0,502.0,507.0
516.0,511.0,509.0,508.0
521.0,513.0,519.0,507.0
524.0,514.0,527.0,509.0
528.0,511.0,535.0,505.0
521.0,502.0,538.0,507.0
514.0,501.0,537.0,507.0
509.0,504.0,534.0,507.0
497.0,493.0,524.0,514.0
496.0,491.0,510.0,515.0
498.0,495.0,502.0,520.0
500.0,498.0,498.0,518.0
519.0,505.0,493.0,516.0
514.0,519.0,492.0,516.0
507.0,510.0,489.0,514.0
508.0,507.0,492.0,512.0
505.0,508.0,497.0,509.0
510.0,507.0,505.0,507.0
516.0,505.0,512.0,510.0
529.0,514.0,519.0,507.0
532.0,510.0,532.0,507.0
527.0,507.0,536.0,508.0
523.0,502.0,539.0,508.0
525.0,504.0,533.0,510.0
519.0,500.0,529.0,512.0
502.0,487.0,520.0,517.0
491.0,485.0,512.0,515.0
494.0,493.0,504.0,518.0
495.0,495.0,495.0,517.0
493.0,499.0,493.0,520.0
496.0,506.0,491.0,515.0
489.0,510.0,492.0,514.0
492.0,507.0,493.0,508.0
501.0,506.0,499.0,505.0
503.0,506.0,507.0,507.0
517.0,506.0,516.0,504.0
529.0,510.0,521.0,506.0
521.0,505.0,532.0,507.0
534.0,504.0,539.0,506.0
535.0,498.0,539.0,509.0
528.0,500.0,534.0,511.0
516.0,493.0,528.0,511.0
509.0,497.0,521.0,519.0
507.0,504.0,509.0,516.0
506.0,505.0,496.0,518.0
509.0,507.0,490.0,518.0
508.0,507.0,493.0,520.0
507.0,502.0,494.0,515.0
510.0,503.0,496.0,513.0
508.0,501.0,499.0,514.0
511.0,502.0,503.0,505.0
520.0,519.0,512.0,506.0
521.0,525.0,516.0,505.0
525.0,521.0,529.0,506.0
523.0,513.0,536.0,507.0
521.0,512.0,536.0,508.0
511.0,505.0,537.0,507.0
504.0,499.0,530.0,512.0
494.0,495.0,524.0,511.0
487.0,492.0,513.0,513.0
482.0,499.0,506.0,516.0
491.0,502.0,498.0,521.0
485.0,502.0,495.0,519.0
493.0,505.0,489.0,517.0
505.0,505.0,489.0,514.0
514.0,502.0,493.0,514.0
518.0,504.0,496.0,510.0
527.0,511.0,500.0,508.0
525.0,519.0,514.0,505.0
534.0,516.0,525.0,505.0
538.0,510.0,534.0,505.0
531.0,488.0,536.0,507.0
530.0,489.0,536.0,506.0
524.0,501.0,534.0,510.0
519.0,498.0,530.0,511.0
503.0,500.0,523.0,515.0
493.0,511.0,512.0,516.0
492.0,506.0,502.0,518.0
495.0,507.0,495.0,516.0
498.0,512.0,490.0,519.0
504.0,514.0,490.0,517.0
498.0,515.0,489.0,513.0
502.0,512.0,492.0,512.0
495.0,508.0,497.0,506.0
498.0,506.0,506.0,504.0
501.0,507.0,514.0,507.0
505.0,500.0,525.0,506.0
528.0,501.0,533.0,505.0
528.0,495.0,536.0,503.0
553.0,503.0,533.0,509.0
541.0,507.0,533.0,511.0
517.0,499.0,528.0,512.0
507.0,503.0,519.0,514.0
501.0,505.0,509.0,518.0
498.0,503.0,501.0,519.0
508.0,507.0,497.0,517.0
506.0,518.0,492.0,516.0
508.0,510.0,486.0,515.0
516.0,514.0,488.0,512.0
514.0,509.0,491.0,508.0
515.0,497.0,498.0,512.0
521.0,500.0,508.0,506.0
524.0,504.0,517.0,509.0
527.0,510.0,528.0,501.0
529.0,511.0,540.0,502.0
534.0,515.0,543.0,507.0
524.0,513.0,534.0,509.0
519.0,503.0,532.0,509.0
506.0,485.0,524.0,518.0
500.0,484.0,516.0,517.0
499.0,498.0,511.0,518.0
495.0,504.0,502.0,520.0
498.0,511.0,494.0,519.0
501.0,514.0,493.0,514.0
497.0,514.0,492.0,515.0
503.0,511.0,494.0,510.0
506.0,507.0,498.0,507.0
506.0,509.0,504.0,507.0
513.0,510.0,516.0,505.0
528.0,513.0,525.0,506.0
529.0,512.0,532.0,504.0
526.0,509.0,534.0,507.0
527.0,505.0,537.0,508.0
524.0,499.0,539.0,510.0
514.0,500.0,532.0,512.0
509.0,495.0,523.0,515.0
501.0,495.0,514.0,518.0
500.0,501.0,505.0,519.0
504.0,499.0,496.0,518.0
502.0,503.0,488.0,518.0
501.0,502.0,490.0,518.0
507.0,510.0,493.0,515.0
506.0,511.0,493.0,511.0
510.0,511.0,498.0,511.0
515.0,507.0,505.0,512.0
519.0,506.0,515.0,505.0
520.0,505.0,525.0,506.0
528.0,508.0,534.0,502.0
526.0,506.0,541.0,508.0
524.0,503.0,537.0,508.0
518.0,513.0,534.0,510.0
508.0,507.0,529.0,515.0
499.0,498.0,520.0,515.0
495.0,496.0,510.0,520.0
498.0,496.0,503.0,526.0
495.0,499.0,490.0,523.0
499.0,504.0,489.0,519.0
503.0,507.0,489.0,515.0
501.0,509.0,490.0,510.0
505.0,513.0,497.0,509.0
508.0,505.0,503.0,509.0
511.0,501.0,514.0,506.0
521.0,507.0,520.0,505.0
523.0,516.0,530.0,510.0
521.0,514.0,536.0,512.0
513.0,507.0,539.0,509.0
507.0,503.0,537.0,509.0
499.0,491.0,535.0,510.0
486.0,481.0,528.0,513.0
479.0,480.0,516.0,520.0
483.0,483.0,508.0,534.0
511.0,496.0,496.0,523.0
504.0,499.0,491.0,522.0
497.0,510.0,494.0,515.0
516.0,515.0,494.0,509.0
528.0,516.0,503.0,512.0
528.0,516.0,497.0,507.0
519.0,513.0,503.0,506.0
516.0,506.0,514.0,507.0
524.0,512.0,523.0,505.0
523.0,517.0,532.0,504.0
521.0,513.0,537.0,507.0
516.0,498.0,537.0,516.0
512.0,495.0,534.0,516.0
506.0,498.0,534.0,508.0
503.0,489.0,523.0,513.0
498.0,495.0,513.0,515.0
506.0,500.0,502.0,519.0
503.0,502.0,500.0,517.0
496.0,505.0,491.0,517.0
506.0,501.0,489.0,517.0
515.0,507.0,490.0,514.0
510.0,508.0,494.0,510.0
503.0,505.0,499.0,508.0
501.0,497.0,504.0,504.0
529.0,502.0,516.0,505.0
558.0,510.0,525.0,508.0
554.0,518.0,533.0,499.0
541.0,511.0,538.0,499.0
524.0,507.0,542.0,509.0
513.0,503.0,539.0,513.0
506.0,496.0,533.0,511.0
500.0,491.0,521.0,512.0
488.0,496.0,508.0,518.0
487.0,491.0,497.0,519.0
503.0,510.0,493.0,517.0
510.0,514.0,491.0,519.0
495.0,511.0,489.0,515.0
493.0,505.0,494.0,513.0
506.0,515.0,494.0,512.0
505.0,513.0,502.0,507.0
512.0,510.0,510.0,508.0
531.0,509.0,519.0,507.0
539.0,515.0,528.0,507.0
520.0,513.0,535.0,505.0
500.0,509.0,537.0,507.0
492.0,497.0,536.0,509.0
487.0,499.0,534.0,511.0
479.0,493.0,524.0,514.0
464.0,490.0,514.0,517.0
465.0,484.0,507.0,519.0
496.0,494.0,498.0,522.0
465.0,496.0,493.0,517.0
446.0,495.0,492.0,518.0
446.0,490.0,491.0,519.0
463.0,493.0,491.0,514.0
513.0,519.0,494.0,509.0
521.0,519.0,504.0,508.0
548.0,522.0,515.0,504.0
594.0,532.0,528.0,515.0
596.0,523.0,534.0,507.0
561.0,513.0,536.0,509.0
546.0,505.0,542.0,508.0
553.0,512.0,536.0,509.0
539.0,509.0,536.0,510.0
529.0,499.0,527.0,518.0
521.0,498.0,517.0,522.0
520.0,503.0,516.0,538.0
523.0,506.0,494.0,529.0
521.0,509.0,482.0,523.0
519.0,511.0,496.0,529.0
517.0,509.0,502.0,526.0
520.0,508.0,499.0,499.0
520.0,515.0,500.0,493.0
524.0,517.0,508.0,498.0
523.0,515.0,518.0,509.0
531.0,518.0,525.0,512.0
534.0,516.0,537.0,520.0
530.0,514.0,550.0,524.0
526.0,505.0,531.0,536.0
521.0,502.0,524.0,522.0
513.0,491.0,525.0,510.0
504.0,489.0,530.0,508.0
502.0,491.0,521.0,510.0
499.0,496.0,510.0,517.0
502.0,500.0,504.0,518.0
500.0,504.0,497.0,516.0
502.0,510.0,497.0,513.0
506.0,507.0,500.0,518.0
509.0,510.0,502.0,552.0
510.0,507.0,507.0,523.0
516.0,509.0,494.0,524.0
520.0,510.0,513.0,505.0
527.0,515.0,534.0,506.0
528.0,513.0,553.0,517.0
525.0,506.0,558.0,526.0
518.0,507.0,525.0,464.0
518.0,502.0,528.0,461.0
498.0,488.0,541.0,512.0
496.0,490.0,528.0,534.0
495.0,494.0,514.0,535.0
494.0,497.0,513.0,538.0
499.0,501.0,500.0,521.0
497.0,506.0,487.0,489.0
497.0,502.0,482.0,510.0
503.0,506.0,491.0,539.0
506.0,511.0,505.0,508.0
508.0,506.0,513.0,513.0
513.0,502.0,520.0,526.0
522.0,502.0,519.0,493.0
523.0,510.0,535.0,500.0
530.0,510.0,550.0,542.0
525.0,506.0,549.0,555.0
517.0,506.0,520.0,548.0
510.0,504.0,514.0,547.0
497.0,489.0,542.0,522.0
493.0,493.0,512.0,531.0
493.0,494.0,500.0,519.0
491.0,495.0,516.0,514.0
499.0,509.0,513.0,493.0
511.0,515.0,498.0,485.0
504.0,512.0,507.0,512.0
504.0,505.0,501.0,508.0
501.0,499.0,500.0,512.0
506.0,498.0,509.0,524.0
501.0,506.0,518.0,501.0
492.0,510.0,533.0,499.0
487.0,507.0,527.0,487.0
486.0,508.0,541.0,506.0
480.0,502.0,544.0,513.0
486.0,503.0,535.0,501.0
507.0,496.0,522.0,505.0
509.0,485.0,518.0,569.0
534.0,488.0,511.0,519.0
527.0,492.0,520.0,497.0
511.0,494.0,499.0,500.0
525.0,512.0,487.0,493.0
537.0,513.0,493.0,510.0
527.0,512.0,497.0,513.0
520.0,525.0,500.0,510.0
500.0,517.0,504.0,505.0
496.0,511.0,502.0,520.0
503.0,512.0,520.0,518.0
510.0,513.0,542.0,496.0
512.0,516.0,549.0,492.0
518.0,510.0,553.0,511.0
550.0,505.0,540.0,503.0
533.0,506.0,521.0,520.0
507.0,495.0,513.0,503.0
497.0,483.0,529.0,512.0
490.0,491.0,505.0,518.0
484.0,495.0,483.0,524.0
484.0,492.0,496.0,527.0
494.0,501.0,486.0,490.0
525.0,514.0,477.0,510.0
520.0,519.0,496.0,517.0
537.0,516.0,508.0,500.0
533.0,514.0,506.0,519.0
517.0,511.0,515.0,496.0
515.0,512.0,517.0,477.0
509.0,509.0,542.0,520.0
499.0,509.0,554.0,505.0
493.0,505.0,535.0,471.0
482.0,497.0,540.0,513.0
486.0,499.0,532.0,517.0
479.0,490.0,523.0,516.0
469.0,489.0,508.0,528.0
483.0,495.0,502.0,551.0
477.0,502.0,487.0,532.0
487.0,512.0,492.0,505.0
516.0,510.0,491.0,505.0
507.0,499.0,503.0,515.0
541.0,509.0,503.0,518.0
562.0,515.0,486.0,496.0
556.0,514.0,527.0,550.0
552.0,511.0,509.0,500.0
534.0,509.0,519.0,509.0
527.0,512.0,544.0,500.0
529.0,505.0,546.0,565.0
519.0,507.0,536.0,533.0
520.0,504.0,537.0,458.0
535.0,501.0,543.0,458.0
531.0,496.0,533.0,495.0
530.0,496.0,505.0,544.0
508.0,503.0,507.0,499.0
505.0,501.0,492.0,468.0
508.0,503.0,494.0,503.0
513.0,508.0,486.0,525.0
513.0,512.0,486.0,500.0
518.0,508.0,495.0,519.0
518.0,513.0,482.0,489.0
507.0,517.0,489.0,527.0
505.0,515.0,506.0,515.0
495.0,509.0,530.0,483.0
483.0,505.0,551.0,506.0
487.0,496.0,550.0,502.0
475.0,494.0,536.0,481.0
491.0,491.0,525.0,540.0
480.0,487.0,521.0,539.0
494.0,486.0,531.0,511.0
527.0,502.0,518.0,507.0
544.0,510.0,484.0,550.0
497.0,503.0,476.0,542.0
451.0,499.0,508.0,496.0
433.0,498.0,499.0,483.0
429.0,501.0,479.0,479.0
446.0,503.0,496.0,523.0
476.0,497.0,497.0,518.0
524.0,498.0,519.0,500.0
599.0,520.0,537.0,515.0
603.0,523.0,531.0,537.0
557.0,518.0,523.0,513.0
544.0,523.0,542.0,471.0
523.0,508.0,536.0,497.0
497.0,508.0,537.0,498.0
487.0,502.0,545.0,504.0
489.0,504.0,528.0,515.0
483.0,514.0,542.0,515.0
487.0,516.0,515.0,522.0
501.0,513.0,492.0,513.0
515.0,505.0,481.0,520.0
520.0,486.0,483.0,488.0
505.0,494.0,483.0,530.0
512.0,492.0,496.0,544.0
528.0,497.0,536.0,488.0
540.0,502.0,565.0,500.0
531.0,501.0,525.0,512.0
530.0,502.0,513.0,460.0
518.0,499.0,536.0,506.0
506.0,502.0,542.0,508.0
495.0,500.0,507.0,571.0
480.0,491.0,527.0,528.0
472.0,489.0,530.0,481.0
454.0,491.0,508.0,492.0
455.0,497.0,477.0,477.0
486.0,505.0,489.0,544.0
510.0,519.0,499.0,544.0
489.0,511.0,493.0,539.0
501.0,511.0,498.0,535.0
519.0,510.0,498.0,493.0
540.0,506.0,516.0,474.0
599.0,514.0,530.0,494.0
573.0,513.0,548.0,527.0
556.0,522.0,502.0,491.0
540.0,516.0,532.0,532.0
533.0,510.0,538.0,528.0
522.0,499.0,549.0,488.0
525.0,496.0,544.0,507.0
542.0,492.0,500.0,482.0
556.0,508.0,483.0,486.0
516.0,499.0,482.0,510.0
495.0,504.0,521.0,544.0
482.0,505.0,506.0,540.0
480.0,517.0,495.0,549.0
496.0,524.0,490.0,558.0
489.0,507.0,507.0,514.0
490.0,507.0,520.0,505.0
498.0,497.0,529.0,483.0
499.0,497.0,588.0,492.0
520.0,513.0,571.0,481.0
517.0,518.0,505.0,501.0
534.0,508.0,489.0,492.0
528.0,500.0,522.0,488.0
505.0,497.0,533.0,507.0
499.0,491.0,520.0,570.0
497.0,482.0,541.0,551.0
512.0,495.0,627.0,523.0
541.0,511.0,610.0,513.0
527.0,511.0,497.0,526.0
495.0,509.0,422.0,477.0
490.0,512.0,470.0,475.0
494.0,509.0,504.0,481.0
514.0,508.0,487.0,488.0
501.0,504.0,545.0,667.0
501.0,509.0,475.0,470.0
521.0,513.0,505.0,479.0
513.0,512.0,550.0,540.0
496.0,513.0,529.0,509.0
474.0,511.0,515.0,551.0
483.0,501.0,553.0,489.0
486.0,499.0,579.0,503.0
482.0,494.0,552.0,497.0
466.0,479.0,474.0,462.0
462.0,487.0,521.0,533.0
471.0,494.0,499.0,568.0
465.0,498.0,475.0,538.0
459.0,505.0,513.0,523.0
428.0,490.0,498.0,565.0
448.0,493.0,506.0,501.0
504.0,492.0,483.0,464.0
521.0,491.0,474.0,518.0
592.0,502.0,483.0,494.0
645.0,520.0,540.0,521.0
613.0,515.0,565.0,507.0
563.0,512.0,558.0,498.0
544.0,511.0,592.0,500.0
519.0,514.0,530.0,564.0
508.0,522.0,530.0,521.0
485.0,504.0,549.0,466.0
516.0,504.0,577.0,520.0
498.0,490.0,641.0,623.0
470.0,480.0,629.0,533.0
466.0,489.0,501.0,442.0
454.0,506.0,445.0,521.0
418.0,511.0,492.0,557.0
389.0,502.0,499.0,533.0
368.0,495.0,516.0,512.0
390.0,502.0,543.0,514.0
425.0,498.0,523.0,529.0
507.0,496.0,449.0,506.0
531.0,489.0,508.0,510.0
601.0,503.0,531.0,555.0
562.0,508.0,517.0,517.0
439.0,481.0,547.0,527.0
460.0,487.0,513.0,484.0
502.0,498.0,517.0,531.0
468.0,490.0,498.0,498.0
496.0,504.0,497.0,523.0
495.0,511.0,502.0,496.0
476.0,507.0,544.0,544.0
570.0,518.0,472.0,543.0
566.0,515.0,495.0,516.0
540.0,502.0,502.0,453.0
570.0,505.0,569.0,510.0
631.0,525.0,541.0,496.0
634.0,533.0,484.0,485.0
600.0,524.0,523.0,521.0
587.0,510.0,536.0,504.0
566.0,500.0,488.0,442.0
561.0,499.0,536.0,523.0
553.0,503.0,577.0,464.0
558.0,509.0,596.0,523.0
540.0,505.0,505.0,547.0
521.0,506.0,555.0,532.0
521.0,505.0,551.0,538.0
501.0,508.0,452.0,557.0
495.0,504.0,462.0,532.0
505.0,504.0,462.0,478.0
521.0,503.0,512.0,602.0
511.0,507.0,441.0,537.0
537.0,519.0,481.0,478.0
558.0,518.0,656.0,463.0
533.0,507.0,628.0,534.0
523.0,496.0,468.0,503.0
518.0,503.0,515.0,526.0
497.0,517.0,617.0,518.0
464.0,499.0,585.0,544.0
440.0,484.0,542.0,510.0
431.0,468.0,479.0,480.0
477.0,480.0,484.0,551.0
505.0,496.0,618.0,509.0
536.0,497.0,649.0,486.0
566.0,516.0,493.0,497.0
553.0,526.0,438.0,551.0
519.0,510.0,462.0,500.0
499.0,502.0,502.0,455.0
496.0,504.0,550.0,576.0
494.0,503.0,493.0,558.0
508.0,499.0,533.0,546.0
516.0,508.0,497.0,578.0
526.0,523.0,500.0,529.0
505.0,516.0,532.0,512.0
460.0,502.0,678.0,485.0
444.0,495.0,528.0,462.0
423.0,484.0,609.0,503.0
410.0,477.0,589.0,583.0
448.0,476.0,442.0,466.0
510.0,465.0,470.0,521.0
522.0,481.0,498.0,541.0
534.0,518.0,521.0,525.0
468.0,507.0,412.0,507.0
428.0,491.0,418.0,419.0
425.0,478.0,502.0,470.0
483.0,513.0,529.0,584.0
521.0,515.0,557.0,534.0
534.0,492.0,521.0,552.0
606.0,512.0,562.0,547.0
602.0,525.0,555.0,538.0
562.0,518.0,564.0,511.0
543.0,517.0,504.0,487.0
507.0,503.0,530.0,549.0
482.0,497.0,599.0,568.0
447.0,482.0,682.0,539.0
442.0,492.0,748.0,523.0
470.0,496.0,515.0,497.0
472.0,493.0,397.0,499.0
493.0,492.0,546.0,479.0
516.0,504.0,516.0,436.0
545.0,505.0,412.0,458.0
557.0,513.0,440.0,515.0
546.0,496.0,492.0,608.0
538.0,502.0,537.0,556.0
525.0,502.0,474.0,451.0
505.0,520.0,480.0,483.0
504.0,523.0,516.0,543.0
473.0,501.0,553.0,490.0
463.0,502.0,537.0,499.0
440.0,498.0,550.0,426.0
412.0,478.0,529.0,474.0
455.0,484.0,520.0,605.0
377.0,491.0,601.0,597.0
397.0,496.0,445.0,542.0
438.0,493.0,498.0,523.0
532.0,530.0,497.0,528.0
564.0,530.0,482.0,419.0
596.0,527.0,499.0,519.0
609.0,510.0,518.0,574.0
666.0,523.0,541.0,602.0
642.0,520.0,559.0,516.0
616.0,515.0,543.0,552.0
587.0,505.0,638.0,458.0
536.0,485.0,593.0,499.0
505.0,507.0,476.0,512.0
494.0,517.0,566.0,499.0
477.0,512.0,499.0,566.0
456.0,495.0,561.0,498.0
490.0,522.0,644.0,551.0
529.0,529.0,501.0,509.0
497.0,479.0,419.0,539.0
509.0,479.0,491.0,482.0
507.0,489.0,458.0,524.0
524.0,503.0,446.0,522.0
497.0,502.0,506.0,516.0
493.0,482.0,562.0,483.0
480.0,497.0,583.0,563.0
514.0,498.0,571.0,497.0
514.0,499.0,589.0,492.0
519.0,498.0,472.0,513.0
535.0,508.0,506.0,486.0
539.0,519.0,644.0,521.0
547.0,525.0,465.0,505.0
529.0,508.0,472.0,501.0
527.0,505.0,439.0,440.0
508.0,505.0,519.0,519.0
487.0,496.0,504.0,534.0
537.0,501.0,490.0,487.0
526.0,506.0,477.0,485.0
512.0,517.0,508.0,471.0
536.0,523.0,589.0,502.0
567.0,519.0,619.0,558.0
556.0,527.0,493.0,484.0
542.0,529.0,416.0,582.0
523.0,512.0,490.0,521.0
516.0,504.0,538.0,482.0
509.0,512.0,579.0,472.0
485.0,503.0,526.0,507.0
443.0,491.0,503.0,629.0
455.0,493.0,661.0,601.0
441.0,482.0,675.0,488.0
491.0,486.0,493.0,482.0
540.0,495.0,403.0,483.0
542.0,500.0,508.0,567.0
483.0,486.0,484.0,497.0
537.0,510.0,488.0,429.0
514.0,515.0,536.0,511.0
486.0,505.0,497.0,545.0
486.0,516.0,463.0,457.0
495.0,504.0,603.0,589.0
541.0,524.0,456.0,567.0
591.0,523.0,586.0,513.0
558.0,508.0,693.0,509.0
545.0,521.0,472.0,520.0
533.0,517.0,483.0,585.0
485.0,517.0,582.0,525.0
482.0,497.0,582.0,466.0
408.0,475.0,476.0,511.0
427.0,479.0,465.0,487.0
409.0,472.0,538.0,533.0
443.0,472.0,524.0,486.0
398.0,468.0,504.0,427.0
385.0,476.0,443.0,581.0
370.0,484.0,515.0,537.0
305.0,466.0,537.0,571.0
363.0,505.0,486.0,507.0
416.0,515.0,486.0,519.0
540.0,520.0,534.0,541.0
605.0,528.0,492.0,518.0
669.0,534.0,516.0,433.0
683.0,537.0,521.0,415.0
618.0,526.0,522.0,575.0
489.0,480.0,547.0,536.0
474.0,450.0,520.0,501.0
456.0,448.0,544.0,538.0
440.0,482.0,523.0,523.0
535.0,495.0,524.0,490.0
640.0,532.0,573.0,523.0
613.0,545.0,556.0,607.0
641.0,540.0,451.0,503.0
585.0,523.0,538.0,547.0
550.0,538.0,629.0,552.0
548.0,526.0,494.0,483.0
552.0,522.0,386.0,472.0
520.0,503.0,503.0,506.0
482.0,497.0,573.0,593.0
546.0,535.0,525.0,517.0
553.0,527.0,660.0,467.0
520.0,498.0,530.0,550.0
542.0,502.0,506.0,516.0
527.0,487.0,469.0,400.0
544.0,510.0,542.0,493.0
559.0,500.0,564.0,508.0
550.0,511.0,520.0,569.0
533.0,519.0,422.0,515.0
517.0,514.0,457.0,496.0
515.0,500.0,564.0,525.0
519.0,492.0,564.0,573.0
546.0,507.0,486.0,455.0
557.0,513.0,435.0,523.0
543.0,511.0,506.0,470.0
543.0,517.0,516.0,407.0
553.0,532.0,540.0,580.0
549.0,531.0,553.0,514.0
527.0,529.0,574.0,512.0
512.0,524.0,526.0,506.0
514.0,520.0,511.0,515.0
502.0,493.0,524.0,509.0
492.0,471.0,566.0,490.0
520.0,503.0,525.0,502.0
517.0,499.0,532.0,527.0
499.0,491.0,452.0,468.0
501.0,499.0,467.0,527.0
497.0,505.0,551.0,581.0
505.0,514.0,500.0,567.0
502.0,507.0,531.0,546.0
504.0,506.0,554.0,503.0
505.0,512.0,481.0,479.0
506.0,526.0,489.0,504.0
519.0,537.0,497.0,551.0
514.0,527.0,484.0,499.0
514.0,514.0,586.0,454.0
518.0,514.0,597.0,518.0
529.0,500.0,520.0,517.0
506.0,454.0,482.0,510.0
485.0,459.0,550.0,511.0
480.0,482.0,494.0,497.0
484.0,498.0,428.0,515.0
473.0,502.0,466.0,538.0
465.0,508.0,516.0,523.0
456.0,506.0,570.0,485.0
461.0,502.0,476.0,532.0
445.0,491.0,438.0,500.0
521.0,514.0,560.0,467.0
531.0,522.0,509.0,505.0
513.0,520.0,538.0,453.0
470.0,501.0,547.0,477.0
411.0,479.0,509.0,529.0
340.0,469.0,509.0,573.0
364.0,490.0,546.0,514.0
360.0,453.0,606.0,424.0
479.0,467.0,590.0,534.0
636.0,524.0,482.0,604.0
637.0,549.0,489.0,560.0
551.0,523.0,524.0,506.0
509.0,520.0,503.0,519.0
451.0,509.0,462.0,579.0
453.0,501.0,456.0,471.0
472.0,494.0,506.0,446.0
535.0,496.0,569.0,502.0
580.0,515.0,551.0,579.0
563.0,499.0,461.0,503.0
569.0,518.0,510.0,509.0
569.0,515.0,498.0,460.0
522.0,530.0,545.0,559.0
416.0,495.0,505.0,488.0
356.0,466.0,535.0,532.0
344.0,452.0,511.0,530.0
382.0,453.0,521.0,481.0
390.0,451.0,541.0,509.0
546.0,505.0,526.0,527.0
553.0,524.0,523.0,544.0
579.0,534.0,459.0,439.0
563.0,526.0,457.0,500.0
551.0,519.0,486.0,534.0
527.0,519.0,499.0,539.0
525.0,493.0,521.0,468.0
571.0,509.0,564.0,516.0
643.0,539.0,533.0,487.0
602.0,533.0,528.0,584.0
549.0,510.0,468.0,481.0
552.0,508.0,513.0,459.0
529.0,509.0,562.0,505.0
562.0,518.0,592.0,499.0
576.0,508.0,553.0,489.0
655.0,530.0,625.0,428.0
635.0,535.0,562.0,554.0
581.0,530.0,364.0,496.0
570.0,524.0,467.0,497.0
563.0,513.0,581.0,630.0
552.0,507.0,600.0,513.0
544.0,511.0,414.0,481.0
541.0,515.0,443.0,502.0
545.0,521.0,495.0,503.0
543.0,520.0,540.0,541.0
550.0,520.0,558.0,524.0
548.0,515.0,491.0,450.0
539.0,512.0,482.0,435.0
527.0,504.0,506.0,481.0
524.0,503.0,543.0,559.0
512.0,503.0,497.0,538.0
506.0,500.0,485.0,489.0
498.0,507.0,479.0,471.0
490.0,508.0,500.0,537.0
480.0,507.0,511.0,540.0
475.0,506.0,535.0,552.0
489.0,505.0,524.0,497.0
502.0,504.0,450.0,502.0
512.0,500.0,487.0,495.0
513.0,496.0,454.0,500.0
514.0,489.0,536.0,556.0
519.0,517.0,512.0,483.0
528.0,514.0,497.0,473.0
531.0,511.0,526.0,498.0
520.0,503.0,532.0,511.0
517.0,515.0,554.0,572.0
517.0,512.0,590.0,486.0
504.0,507.0,533.0,488.0
499.0,502.0,516.0,476.0
488.0,506.0,510.0,538.0
470.0,502.0,555.0,586.0
470.0,486.0,488.0,540.0
462.0,479.0,494.0,511.0
461.0,482.0,532.0,509.0
480.0,492.0,467.0,520.0
513.0,508.0,499.0,560.0
534.0,535.0,582.0,498.0
527.0,526.0,503.0,465.0
507.0,515.0,452.0,469.0
506.0,506.0,551.0,484.0
521.0,498.0,474.0,475.0
499.0,506.0,495.0,458.0
448.0,487.0,534.0,533.0
460.0,490.0,559.0,552.0
442.0,479.0,537.0,565.0
391.0,476.0,499.0,476.0
330.0,466.0,463.0,410.0
415.0,504.0,494.0,431.0
401.0,517.0,490.0,593.0
349.0,489.0,496.0,577.0
376.0,472.0,522.0,608.0
507.0,481.0,529.0,442.0
615.0,504.0,519.0,483.0
635.0,534.0,514.0,532.0
682.0,555.0,476.0,488.0
653.0,537.0,529.0,503.0
590.0,535.0,553.0,530.0
592.0,528.0,532.0,510.0
559.0,521.0,541.0,576.0
552.0,511.0,473.0,461.0
521.0,498.0,567.0,468.0
553.0,504.0,622.0,568.0
544.0,508.0,528.0,481.0
530.0,498.0,437.0,501.0
528.0,510.0,527.0,563.0
511.0,503.0,394.0,535.0
484.0,513.0,623.0,519.0
446.0,501.0,574.0,509.0
428.0,505.0,424.0,501.0
424.0,497.0,470.0,482.0
452.0,494.0,484.0,470.0
448.0,496.0,521.0,542.0
490.0,490.0,553.0,481.0
520.0,487.0,507.0,490.0
509.0,495.0,508.0,531.0
529.0,493.0,507.0,482.0
592.0,500.0,519.0,421.0
675.0,518.0,493.0,569.0
595.0,505.0,518.0,568.0
516.0,493.0,557.0,506.0
474.0,493.0,502.0,506.0
487.0,503.0,505.0,539.0
508.0,514.0,589.0,546.0
552.0,519.0,478.0,501.0
567.0,531.0,443.0,484.0
597.0,543.0,465.0,482.0
586.0,537.0,498.0,554.0
597.0,516.0,495.0,466.0
570.0,517.0,529.0,493.0
560.0,511.0,507.0,484.0
546.0,501.0,546.0,479.0
527.0,501.0,521.0,492.0
505.0,503.0,583.0,585.0
497.0,501.0,586.0,459.0
501.0,497.0,527.0,486.0
493.0,497.0,473.0,550.0
510.0,505.0,560.0,517.0
493.0,508.0,465.0,519.0
469.0,498.0,460.0,536.0
474.0,508.0,475.0,546.0
481.0,521.0,500.0,480.0
526.0,509.0,481.0,516.0
536.0,503.0,481.0,483.0
529.0,507.0,498.0,521.0
540.0,502.0,514.0,519.0
529.0,513.0,558.0,476.0
524.0,502.0,554.0,505.0
518.0,504.0,524.0,465.0
518.0,505.0,581.0,495.0
560.0,520.0,540.0,510.0
513.0,509.0,497.0,537.0
492.0,513.0,502.0,443.0
489.0,509.0,522.0,528.0
488.0,511.0,453.0,636.0
466.0,497.0,435.0,559.0
499.0,500.0,537.0,472.0
535.0,514.0,549.0,469.0
500.0,509.0,556.0,525.0
492.0,512.0,452.0,521.0
482.0,508.0,447.0,497.0
492.0,515.0,612.0,494.0
490.0,507.0,544.0,473.0
555.0,521.0,462.0,511.0
530.0,518.0,516.0,496.0
535.0,524.0,542.0,512.0
529.0,501.0,525.0,500.0
481.0,484.0,511.0,508.0
433.0,457.0,574.0,622.0
442.0,480.0,653.0,519.0
385.0,478.0,473.0,453.0
258.0,459.0,459.0,523.0
246.0,459.0,459.0,527.0
332.0,492.0,470.0,453.0
337.0,484.0,519.0,509.0
376.0,455.0,399.0,411.0
653.0,516.0,545.0,483.0
879.0,581.0,694.0,577.0
748.0,555.0,651.0,617.0
648.0,553.0,463.0,441.0
617.0,545.0,418.0,496.0
600.0,528.0,477.0,539.0
574.0,514.0,529.0,591.0
550.0,506.0,571.0,596.0
530.0,502.0,483.0,527.0
502.0,482.0,531.0,488.0
510.0,483.0,481.0,525.0
549.0,496.0,519.0,502.0
542.0,516.0,498.0,503.0
565.0,534.0,553.0,522.0
546.0,526.0,499.0,531.0
527.0,514.0,414.0,460.0
524.0,502.0,478.0,464.0
538.0,498.0,595.0,478.0
519.0,503.0,621.0,536.0
503.0,507.0,400.0,504.0
479.0,513.0,509.0,532.0
480.0,523.0,540.0,519.0
483.0,509.0,531.0,480.0
473.0,500.0,523.0,486.0
448.0,482.0,495.0,525.0
448.0,475.0,514.0,495.0
449.0,478.0,517.0,499.0
457.0,476.0,485.0,483.0
537.0,483.0,486.0,506.0
655.0,511.0,525.0,491.0
629.0,529.0,480.0,513.0
577.0,528.0,453.0,519.0
554.0,538.0,468.0,537.0
538.0,537.0,468.0,469.0
536.0,522.0,545.0,531.0
531.0,511.0,524.0,496.0
523.0,503.0,484.0,531.0
541.0,525.0,522.0,540.0
543.0,520.0,524.0,493.0
530.0,517.0,561.0,508.0
508.0,504.0,633.0,492.0
492.0,501.0,555.0,488.0
465.0,481.0,470.0,530.0
482.0,490.0,534.0,522.0
476.0,500.0,527.0,519.0
477.0,491.0,414.0,530.0
511.0,506.0,466.0,545.0
531.0,519.0,534.0,461.0
534.0,517.0,537.0,453.0
504.0,507.0,490.0,574.0
514.0,504.0,449.0,478.0
528.0,510.0,612.0,485.0
535.0,510.0,537.0,503.0
534.0,519.0,478.0,532.0
527.0,522.0,505.0,530.0
534.0,520.0,553.0,521.0
529.0,516.0,533.0,470.0
519.0,503.0,499.0,463.0
519.0,500.0,537.0,520.0
504.0,496.0,503.0,539.0
498.0,496.0,513.0,511.0
496.0,501.0,455.0,463.0
494.0,505.0,484.0,510.0
496.0,499.0,501.0,549.0
492.0,493.0,537.0,537.0
476.0,481.0,450.0,510.0
495.0,499.0,533.0,511.0
480.0,504.0,515.0,469.0
451.0,509.0,482.0,471.0
433.0,510.0,509.0,498.0
424.0,501.0,517.0,489.0
403.0,489.0,518.0,502.0
388.0,474.0,522.0,549.0
455.0,485.0,542.0,488.0
555.0,506.0,518.0,520.0
557.0,496.0,525.0,489.0
522.0,490.0,562.0,537.0
549.0,500.0,502.0,513.0
565.0,517.0,471.0,512.0
550.0,522.0,486.0,515.0
508.0,510.0,494.0,491.0
479.0,504.0,501.0,521.0
529.0,507.0,517.0,541.0
554.0,511.0,516.0,496.0
540.0,519.0,505.0,535.0
530.0,512.0,529.0,535.0
565.0,525.0,535.0,408.0
579.0,530.0,525.0,537.0
574.0,528.0,521.0,469.0
563.0,517.0,549.0,510.0
536.0,503.0,547.0,520.0
515.0,498.0,508.0,523.0
505.0,498.0,534.0,494.0
504.0,497.0,479.0,542.0
521.0,494.0,492.0,456.0
506.0,498.0,489.0,446.0
523.0,512.0,473.0,541.0
557.0,520.0,507.0,646.0
532.0,514.0,511.0,502.0
524.0,521.0,470.0,464.0
518.0,526.0,483.0,515.0
490.0,493.0,522.0,523.0
463.0,485.0,553.0,519.0
456.0,489.0,524.0,506.0
467.0,492.0,538.0,509.0
489.0,498.0,503.0,484.0
535.0,511.0,530.0,500.0
552.0,507.0,528.0,509.0
561.0,518.0,526.0,513.0
551.0,513.0,516.0,510.0
523.0,506.0,533.0,506.0
531.0,517.0,596.0,518.0
521.0,514.0,509.0,518.0
519.0,515.0,462.0,535.0
516.0,516.0,440.0,494.0
513.0,508.0,433.0,480.0
514.0,502.0,475.0,494.0
521.0,501.0,499.0,495.0
522.0,502.0,492.0,485.0
526.0,505.0,500.0,500.0
529.0,506.0,521.0,520.0
532.0,505.0,509.0,488.0
525.0,518.0,528.0,496.0
517.0,514.0,528.0,499.0
522.0,519.0,521.0,498.0
518.0,495.0,520.0,500.0
504.0,493.0,509.0,507.0
499.0,504.0,503.0,507.0
489.0,499.0,489.0,507.0
498.0,509.0,488.0,504.0
495.0,514.0,487.0,507.0
503.0,516.0,487.0,504.0
505.0,507.0,486.0,502.0
505.0,501.0,492.0,502.0
503.0,495.0,497.0,497.0
513.0,513.0,501.0,494.0
523.0,522.0,511.0,494.0
527.0,524.0,520.0,498.0
533.0,522.0,528.0,498.0
531.0,522.0,529.0,505.0
521.0,513.0,527.0,496.0
516.0,497.0,525.0,497.0
507.0,479.0,520.0,508.0
504.0,486.0,512.0,514.0
501.0,498.0,503.0,517.0
503.0,501.0,493.0,505.0
502.0,500.0,485.0,509.0
501.0,502.0,486.0,507.0
504.0,507.0,480.0,503.0
507.0,503.0,479.0,500.0
508.0,504.0,485.0,496.0
513.0,506.0,495.0,493.0
515.0,512.0,504.0,493.0
527.0,523.0,514.0,496.0
529.0,523.0,522.0,494.0
530.0,511.0,523.0,495.0
534.0,509.0,526.0,494.0
524.0,503.0,524.0,500.0
526.0,502.0,521.0,506.0
510.0,494.0,510.0,504.0
497.0,490.0,500.0,506.0
500.0,496.0,499.0,508.0
502.0,504.0,482.0,504.0
506.0,509.0,484.0,520.0
510.0,508.0,483.0,512.0
511.0,504.0,483.0,492.0
513.0,504.0,482.0,502.0
516.0,496.0,488.0,495.0
517.0,495.0,494.0,493.0
522.0,494.0,506.0,494.0
527.0,503.0,515.0,494.0
527.0,526.0,520.0,491.0
527.0,522.0,525.0,497.0
524.0,510.0,524.0,498.0
519.0,506.0,520.0,500.0
508.0,497.0,513.0,505.0
501.0,492.0,502.0,527.0
499.0,499.0,502.0,497.0
502.0,498.0,497.0,504.0
498.0,508.0,487.0,512.0
490.0,512.0,487.0,512.0
501.0,510.0,483.0,508.0
497.0,502.0,481.0,507.0
501.0,503.0,480.0,503.0
505.0,492.0,485.0,501.0
532.0,503.0,496.0,496.0
538.0,505.0,503.0,492.0
534.0,512.0,512.0,493.0
543.0,530.0,518.0,491.0
551.0,535.0,516.0,493.0
538.0,521.0,522.0,506.0
523.0,509.0,514.0,492.0
509.0,500.0,504.0,496.0
498.0,488.0,498.0,504.0
495.0,481.0,484.0,501.0
498.0,490.0,479.0,502.0
497.0,501.0,477.0,505.0
504.0,518.0,474.0,499.0
523.0,533.0,474.0,497.0
523.0,535.0,476.0,498.0
516.0,527.0,479.0,495.0
513.0,494.0,486.0,495.0
519.0,485.0,499.0,496.0
519.0,495.0,508.0,493.0
529.0,509.0,517.0,496.0
536.0,513.0,524.0,495.0
538.0,507.0,526.0,499.0
528.0,495.0,523.0,501.0
526.0,505.0,518.0,502.0
514.0,508.0,510.0,505.0
505.0,507.0,498.0,509.0
500.0,497.0,488.0,509.0
500.0,506.0,484.0,511.0
499.0,509.0,478.0,508.0
510.0,512.0,478.0,505.0
501.0,502.0,476.0,505.0
497.0,497.0,482.0,504.0
496.0,497.0,482.0,500.0
516.0,506.0,492.0,499.0
511.0,506.0,504.0,498.0
515.0,521.0,510.0,497.0
535.0,531.0,521.0,499.0
544.0,512.0,526.0,500.0
530.0,497.0,528.0,501.0
515.0,505.0,524.0,502.0
521.0,520.0,519.0,505.0
528.0,512.0,507.0,510.0
519.0,515.0,500.0,512.0
513.0,509.0,488.0,513.0
508.0,508.0,484.0,513.0
502.0,505.0,480.0,508.0
503.0,511.0,483.0,510.0
507.0,507.0,483.0,506.0
528.0,503.0,486.0,503.0
523.0,495.0,492.0,504.0
520.0,501.0,502.0,503.0
530.0,515.0,507.0,501.0
536.0,520.0,522.0,499.0
537.0,522.0,529.0,499.0
534.0,510.0,534.0,504.0
521.0,497.0,530.0,503.0
521.0,505.0,526.0,502.0
504.0,509.0,520.0,508.0
505.0,504.0,507.0,513.0
504.0,517.0,499.0,516.0
505.0,528.0,489.0,517.0
503.0,513.0,487.0,516.0
502.0,500.0,482.0,514.0
509.0,509.0,484.0,509.0
506.0,504.0,485.0,508.0
509.0,503.0,490.0,507.0
513.0,496.0,499.0,506.0
516.0,486.0,505.0,503.0
523.0,504.0,517.0,501.0
530.0,507.0,523.0,500.0
529.0,518.0,531.0,503.0
524.0,526.0,532.0,507.0
525.0,549.0,532.0,507.0
521.0,547.0,527.0,508.0
509.0,530.0,516.0,514.0
504.0,526.0,511.0,517.0
498.0,512.0,501.0,521.0
490.0,469.0,491.0,520.0
503.0,471.0,486.0,517.0
506.0,504.0,486.0,517.0
502.0,488.0,487.0,513.0
512.0,498.0,489.0,507.0
511.0,498.0,494.0,507.0
510.0,518.0,500.0,504.0
518.0,531.0,511.0,502.0
527.0,541.0,518.0,506.0
525.0,524.0,531.0,501.0
526.0,491.0,534.0,505.0
523.0,498.0,536.0,507.0
516.0,498.0,531.0,510.0
512.0,491.0,527.0,515.0
502.0,486.0,517.0,513.0
499.0,488.0,507.0,518.0
492.0,491.0,499.0,519.0
493.0,490.0,492.0,516.0
497.0,502.0,490.0,518.0
501.0,507.0,488.0,514.0
499.0,505.0,488.0,512.0
507.0,515.0,488.0,512.0
512.0,507.0,497.0,505.0
518.0,503.0,505.0,506.0
522.0,502.0,517.0,502.0
527.0,496.0,527.0,503.0
531.0,504.0,533.0,505.0
532.0,504.0,539.0,508.0
521.0,493.0,534.0,508.0
519.0,499.0,534.0,510.0
507.0,491.0,524.0,514.0
503.0,492.0,514.0,516.0
497.0,506.0,504.0,519.0
491.0,505.0,495.0,518.0
500.0,489.0,492.0,521.0
499.0,502.0,493.0,517.0
506.0,523.0,489.0,513.0
507.0,519.0,487.0,513.0
512.0,511.0,493.0,512.0
513.0,509.0,501.0,508.0
518.0,509.0,511.0,506.0
526.0,513.0,519.0,507.0
529.0,514.0,531.0,509.0
527.0,509.0,534.0,508.0
525.0,507.0,539.0,509.0
522.0,503.0,536.0,511.0
513.0,495.0,531.0,511.0
497.0,477.0,522.0,514.0
490.0,495.0,511.0,521.0
490.0,494.0,503.0,520.0
490.0,482.0,491.0,521.0
499.0,497.0,495.0,520.0
505.0,512.0,484.0,518.0
500.0,510.0,487.0,513.0
502.0,511.0,488.0,513.0
504.0,510.0,494.0,508.0
514.0,525.0,506.0,505.0
528.0,527.0,515.0,506.0
529.0,526.0,527.0,506.0
527.0,518.0,533.0,509.0
523.0,516.0,539.0,509.0
525.0,510.0,540.0,512.0
522.0,515.0,536.0,513.0
520.0,511.0,528.0,512.0
510.0,499.0,517.0,518.0
503.0,494.0,509.0,519.0
504.0,501.0,499.0,520.0
509.0,479.0,491.0,520.0
501.0,464.0,493.0,519.0
508.0,515.0,489.0,514.0
513.0,521.0,488.0,514.0
514.0,510.0,491.0,511.0
517.0,507.0,496.0,509.0
522.0,495.0,504.0,507.0
515.0,503.0,522.0,507.0
522.0,533.0,527.0,508.0
523.0,553.0,535.0,507.0
526.0,553.0,541.0,515.0
527.0,539.0,539.0,510.0
527.0,512.0,535.0,515.0
508.0,503.0,527.0,518.0
507.0,514.0,518.0,519.0
500.0,495.0,507.0,523.0
495.0,482.0,496.0,523.0
494.0,500.0,492.0,521.0
501.0,500.0,490.0,518.0
503.0,477.0,489.0,516.0
503.0,498.0,489.0,513.0
517.0,552.0,494.0,510.0
524.0,552.0,500.0,507.0
526.0,542.0,508.0,504.0
529.0,532.0,519.0,505.0
530.0,522.0,527.0,507.0
531.0,521.0,532.0,507.0
528.0,493.0,537.0,509.0
514.0,481.0,531.0,511.0
508.0,497.0,528.0,512.0
493.0,490.0,518.0,516.0
493.0,488.0,510.0,518.0
494.0,485.0,501.0,518.0
495.0,503.0,494.0,519.0
496.0,487.0,489.0,518.0
500.0,500.0,485.0,520.0
506.0,526.0,487.0,517.0
508.0,520.0,490.0,518.0
520.0,516.0,493.0,510.0
517.0,496.0,504.0,510.0
517.0,492.0,512.0,509.0
519.0,476.0,523.0,511.0
531.0,505.0,531.0,507.0
535.0,525.0,534.0,512.0
527.0,508.0,537.0,515.0
519.0,507.0,534.0,513.0
513.0,505.0,531.0,515.0
497.0,523.0,519.0,517.0
501.0,530.0,511.0,523.0
501.0,504.0,505.0,525.0
501.0,490.0,496.0,523.0
500.0,487.0,495.0,524.0
512.0,523.0,490.0,520.0
507.0,502.0,490.0,517.0
510.0,529.0,490.0,513.0
517.0,539.0,498.0,510.0
515.0,532.0,507.0,506.0
512.0,525.0,511.0,505.0
519.0,513.0,525.0,507.0
521.0,492.0,531.0,507.0
521.0,482.0,534.0,505.0
515.0,480.0,533.0,512.0
521.0,476.0,533.0,514.0
522.0,471.0,527.0,516.0
517.0,479.0,510.0,514.0
514.0,490.0,503.0,524.0
508.0,505.0,519.0,528.0
511.0,510.0,487.0,520.0
510.0,537.0,494.0,524.0
501.0,533.0,498.0,529.0
480.0,472.0,500.0,527.0
491.0,484.0,489.0,518.0
508.0,516.0,497.0,512.0
514.0,489.0,510.0,512.0
515.0,488.0,533.0,517.0
519.0,502.0,534.0,511.0
527.0,548.0,527.0,505.0
537.0,563.0,534.0,513.0
540.0,540.0,529.0,511.0
535.0,507.0,526.0,514.0
526.0,482.0,512.0,516.0
522.0,475.0,504.0,514.0
513.0,486.0,491.0,515.0
499.0,516.0,486.0,517.0
485.0,551.0,483.0,515.0
490.0,534.0,479.0,519.0
495.0,537.0,481.0,516.0
494.0,535.0,484.0,513.0
502.0,550.0,490.0,509.0
513.0,514.0,503.0,509.0
520.0,509.0,516.0,510.0
530.0,513.0,529.0,513.0
532.0,505.0,537.0,517.0
527.0,505.0,542.0,521.0
513.0,496.0,544.0,520.0
507.0,494.0,539.0,523.0
503.0,485.0,531.0,525.0
492.0,477.0,519.0,522.0
496.0,486.0,503.0,518.0
503.0,506.0,493.0,518.0
506.0,498.0,488.0,517.0
509.0,497.0,487.0,514.0
505.0,495.0,484.0,513.0
502.0,493.0,482.0,512.0
506.0,503.0,486.0,509.0
506.0,500.0,490.0,507.0
506.0,510.0,501.0,504.0
511.0,513.0,503.0,498.0
521.0,523.0,520.0,505.0
527.0,515.0,529.0,505.0
523.0,519.0,533.0,507.0
521.0,526.0,535.0,510.0
518.0,522.0,531.0,508.0
508.0,512.0,518.0,510.0
504.0,499.0,509.0,514.0
495.0,438.0,499.0,516.0
496.0,421.0,491.0,516.0
503.0,438.0,492.0,516.0
507.0,461.0,482.0,515.0
506.0,493.0,482.0,514.0
504.0,491.0,494.0,511.0
514.0,558.0,493.0,510.0
517.0,579.0,502.0,511.0
530.0,578.0,500.0,499.0
531.0,538.0,519.0,504.0
534.0,504.0,526.0,504.0
534.0,517.0,532.0,501.0
526.0,529.0,534.0,505.0
503.0,511.0,529.0,508.0
504.0,504.0,526.0,507.0
498.0,483.0,514.0,510.0
495.0,479.0,500.0,506.0
500.0,484.0,489.0,513.0
496.0,485.0,487.0,516.0
501.0,495.0,482.0,519.0
500.0,515.0,483.0,520.0
505.0,547.0,483.0,519.0
499.0,511.0,491.0,518.0
507.0,500.0,501.0,519.0
516.0,511.0,513.0,515.0
525.0,521.0,525.0,513.0
527.0,505.0,535.0,509.0
528.0,524.0,541.0,508.0
524.0,523.0,544.0,506.0
523.0,518.0,534.0,503.0
521.0,509.0,525.0,500.0
515.0,502.0,519.0,498.0
504.0,495.0,510.0,506.0
503.0,498.0,498.0,521.0
498.0,498.0,490.0,524.0
493.0,460.0,483.0,520.0
499.0,499.0,481.0,516.0
511.0,507.0,486.0,517.0
508.0,485.0,492.0,520.0
511.0,489.0,502.0,520.0
517.0,503.0,508.0,514.0
518.0,480.0,510.0,507.0
518.0,493.0,513.0,498.0
517.0,510.0,516.0,489.0
524.0,509.0,521.0,486.0
522.0,509.0,521.0,491.0
518.0,506.0,518.0,494.0
517.0,499.0,512.0,496.0
510.0,484.0,512.0,500.0
500.0,454.0,503.0,504.0
500.0,459.0,492.0,503.0
498.0,468.0,489.0,507.0
504.0,497.0,484.0,507.0
507.0,518.0,481.0,505.0
509.0,547.0,482.0,505.0
502.0,528.0,481.0,497.0
515.0,538.0,487.0,502.0
509.0,506.0,494.0,502.0
516.0,512.0,498.0,498.0
522.0,509.0,509.0,500.0
528.0,522.0,522.0,500.0
530.0,527.0,530.0,505.0
528.0,522.0,533.0,507.0
514.0,525.0,530.0,515.0
507.0,533.0,527.0,522.0
500.0,518.0,519.0,529.0
498.0,499.0,505.0,533.0
495.0,518.0,503.0,533.0
494.0,530.0,497.0,530.0
500.0,532.0,507.0,528.0
505.0,527.0,511.0,528.0
509.0,518.0,515.0,518.0
508.0,507.0,506.0,509.0
511.0,484.0,493.0,495.0
507.0,472.0,485.0,488.0
516.0,488.0,490.0,483.0
526.0,508.0,502.0,487.0
538.0,513.0,512.0,486.0
539.0,504.0,521.0,490.0
526.0,477.0,526.0,492.0
514.0,484.0,520.0,497.0
509.0,511.0,518.0,503.0
490.0,510.0,512.0,504.0
492.0,509.0,502.0,505.0
496.0,510.0,493.0,509.0
501.0,508.0,488.0,505.0
500.0,497.0,489.0,508.0
497.0,505.0,485.0,506.0
498.0,508.0,484.0,500.0
509.0,509.0,480.0,501.0
513.0,512.0,489.0,499.0
522.0,517.0,500.0,500.0
526.0,514.0,508.0,504.0
532.0,509.0,517.0,507.0
535.0,504.0,527.0,505.0
529.0,517.0,526.0,505.0
520.0,516.0,526.0,505.0
518.0,522.0,526.0,509.0
493.0,479.0,522.0,510.0
485.0,443.0,511.0,514.0
492.0,460.0,501.0,515.0
496.0,464.0,497.0,518.0
498.0,488.0,498.0,521.0
504.0,486.0,495.0,519.0
504.0,484.0,498.0,524.0
508.0,520.0,495.0,517.0
515.0,507.0,497.0,520.0
510.0,498.0,505.0,519.0
520.0,531.0,512.0,517.0
523.0,540.0,523.0,514.0
527.0,556.0,531.0,508.0
525.0,520.0,529.0,510.0
521.0,504.0,528.0,509.0
510.0,488.0,529.0,510.0
509.0,495.0,527.0,512.0
496.0,487.0,510.0,509.0
495.0,486.0,508.0,515.0
496.0,503.0,502.0,516.0
499.0,516.0,493.0,513.0
507.0,522.0,489.0,512.0
510.0,516.0,483.0,514.0
510.0,508.0,486.0,513.0
508.0,483.0,499.0,515.0
505.0,451.0,499.0,510.0
505.0,494.0,496.0,496.0
513.0,521.0,526.0,508.0
522.0,527.0,518.0,512.0
522.0,525.0,521.0,510.0
523.0,510.0,532.0,516.0
521.0,510.0,536.0,517.0
515.0,497.0,531.0,520.0
509.0,480.0,528.0,521.0
509.0,500.0,516.0,522.0
504.0,520.0,504.0,524.0
502.0,517.0,499.0,527.0
500.0,504.0,497.0,525.0
504.0,511.0,490.0,520.0
507.0,502.0,484.0,513.0
504.0,532.0,497.0,517.0
508.0,522.0,503.0,519.0
506.0,474.0,513.0,519.0
514.0,507.0,519.0,523.0
519.0,499.0,521.0,518.0
512.0,472.0,524.0,521.0
521.0,503.0,529.0,510.0
533.0,495.0,530.0,509.0
524.0,477.0,531.0,508.0
511.0,495.0,518.0,505.0
505.0,512.0,512.0,503.0
497.0,508.0,504.0,505.0
496.0,503.0,493.0,508.0
498.0,490.0,488.0,512.0
496.0,482.0,487.0,511.0
498.0,479.0,483.0,508.0
506.0,496.0,482.0,507.0
503.0,526.0,491.0,509.0
515.0,531.0,492.0,508.0
515.0,524.0,499.0,510.0
520.0,525.0,507.0,510.0
523.0,517.0,520.0,511.0
528.0,521.0,530.0,516.0
532.0,526.0,537.0,518.0
529.0,520.0,537.0,517.0
519.0,513.0,530.0,519.0
513.0,509.0,529.0,520.0
503.0,479.0,523.0,519.0
497.0,474.0,514.0,524.0
498.0,494.0,504.0,522.0
505.0,509.0,494.0,520.0
500.0,520.0,488.0,518.0
506.0,534.0,486.0,515.0
505.0,525.0,490.0,509.0
506.0,506.0,489.0,507.0
510.0,512.0,495.0,507.0
509.0,505.0,505.0,509.0
519.0,499.0,510.0,509.0
522.0,500.0,515.0,508.0
525.0,498.0,523.0,511.0
523.0,493.0,532.0,510.0
526.0,498.0,533.0,512.0
518.0,505.0,530.0,516.0
518.0,525.0,527.0,514.0
508.0,514.0,518.0,519.0
512.0,500.0,505.0,519.0
506.0,493.0,500.0,522.0
501.0,451.0,492.0,521.0
503.0,499.0,488.0,519.0
505.0,552.0,491.0,518.0
493.0,552.0,489.0,516.0
498.0,517.0,495.0,509.0
502.0,431.0,500.0,510.0
507.0,463.0,512.0,508.0
513.0,482.0,520.0,508.0
518.0,501.0,526.0,510.0
524.0,522.0,526.0,507.0
528.0,517.0,525.0,506.0
526.0,512.0,524.0,511.0
523.0,491.0,524.0,510.0
513.0,463.0,518.0,509.0
500.0,489.0,510.0,512.0
499.0,494.0,501.0,514.0
494.0,494.0,494.0,517.0
495.0,523.0,490.0,516.0
494.0,535.0,492.0,517.0
497.0,529.0,488.0,516.0
504.0,505.0,489.0,514.0
506.0,507.0,492.0,515.0
510.0,510.0,499.0,516.0
516.0,509.0,509.0,510.0
521.0,516.0,520.0,511.0
529.0,522.0,527.0,510.0
533.0,506.0,532.0,510.0
533.0,508.0,529.0,510.0
522.0,500.0,531.0,512.0
513.0,506.0,526.0,512.0
500.0,516.0,518.0,517.0
498.0,514.0,507.0,516.0
500.0,500.0,505.0,514.0
499.0,499.0,501.0,517.0
501.0,496.0,501.0,518.0
505.0,507.0,495.0,516.0
503.0,507.0,494.0,515.0
503.0,498.0,488.0,510.0
508.0,518.0,493.0,510.0
512.0,511.0,501.0,511.0
517.0,514.0,504.0,507.0
524.0,516.0,518.0,507.0
527.0,514.0,527.0,510.0
526.0,512.0,534.0,511.0
523.0,511.0,537.0,514.0
517.0,509.0,533.0,514.0
518.0,505.0,535.0,517.0
507.0,497.0,526.0,532.0
497.0,480.0,513.0,532.0
490.0,473.0,502.0,528.0
494.0,492.0,495.0,523.0
492.0,510.0,494.0,524.0
504.0,529.0,490.0,519.0
509.0,528.0,491.0,510.0
510.0,494.0,498.0,507.0
518.0,499.0,496.0,498.0
520.0,481.0,514.0,500.0
518.0,496.0,510.0,505.0
525.0,506.0,508.0,507.0
526.0,490.0,521.0,505.0
525.0,485.0,528.0,512.0
520.0,475.0,532.0,512.0
514.0,493.0,530.0,516.0
509.0,522.0,525.0,514.0
504.0,527.0,517.0,520.0
496.0,551.0,511.0,520.0
493.0,485.0,502.0,516.0
498.0,471.0,495.0,518.0
500.0,497.0,487.0,516.0
507.0,523.0,482.0,511.0
507.0,518.0,481.0,507.0
509.0,510.0,488.0,513.0
510.0,512.0,496.0,510.0
514.0,513.0,510.0,509.0
521.0,525.0,516.0,512.0
524.0,514.0,527.0,512.0
533.0,503.0,541.0,520.0
531.0,487.0,542.0,519.0
529.0,479.0,532.0,520.0
526.0,472.0,531.0,524.0
512.0,472.0,521.0,521.0
512.0,503.0,510.0,520.0
512.0,512.0,498.0,515.0
508.0,502.0,495.0,510.0
500.0,506.0,492.0,507.0
486.0,559.0,490.0,508.0
483.0,551.0,490.0,508.0
496.0,534.0,488.0,503.0
504.0,537.0,487.0,500.0
510.0,500.0,492.0,498.0
517.0,496.0,502.0,504.0
520.0,521.0,520.0,509.0
528.0,514.0,529.0,507.0
526.0,499.0,535.0,512.0
526.0,502.0,536.0,513.0
517.0,492.0,534.0,514.0
513.0,492.0,525.0,520.0
500.0,480.0,514.0,515.0
502.0,500.0,507.0,517.0
503.0,509.0,498.0,519.0
508.0,508.0,494.0,516.0
504.0,522.0,490.0,517.0
508.0,537.0,490.0,518.0
508.0,502.0,490.0,514.0
501.0,485.0,493.0,515.0
506.0,501.0,500.0,515.0
514.0,490.0,509.0,514.0
514.0,458.0,520.0,515.0
518.0,472.0,529.0,519.0
524.0,511.0,539.0,520.0
528.0,546.0,542.0,520.0
526.0,520.0,543.0,521.0
519.0,496.0,540.0,519.0
508.0,495.0,531.0,521.0
504.0,495.0,522.0,518.0
496.0,494.0,506.0,514.0
498.0,493.0,493.0,516.0
498.0,498.0,486.0,511.0
501.0,500.0,485.0,512.0
502.0,514.0,485.0,510.0
501.0,528.0,487.0,508.0
508.0,526.0,491.0,509.0
513.0,523.0,501.0,507.0
516.0,516.0,507.0,507.0
523.0,512.0,519.0,508.0
526.0,507.0,524.0,508.0
526.0,507.0,532.0,510.0
526.0,510.0,533.0,511.0
518.0,505.0,531.0,510.0
514.0,510.0,528.0,513.0
503.0,494.0,521.0,516.0
499.0,487.0,511.0,518.0
500.0,494.0,503.0,515.0
502.0,502.0,494.0,514.0
500.0,504.0,493.0,516.0
505.0,509.0,490.0,517.0
504.0,508.0,488.0,514.0
506.0,508.0,491.0,510.0
512.0,509.0,494.0,511.0
510.0,500.0,502.0,510.0
515.0,510.0,510.0,510.0
521.0,519.0,522.0,510.0
530.0,517.0,532.0,510.0
530.0,514.0,537.0,512.0
530.0,506.0,539.0,517.0
521.0,503.0,533.0,516.0
518.0,513.0,530.0,517.0
502.0,494.0,520.0,515.0
496.0,495.0,511.0,519.0
491.0,485.0,501.0,517.0
488.0,465.0,496.0,518.0
503.0,510.0,492.0,516.0
505.0,497.0,489.0,519.0
509.0,491.0,492.0,513.0
514.0,497.0,496.0,516.0
518.0,496.0,500.0,514.0
522.0,498.0,509.0,512.0
525.0,517.0,522.0,515.0
523.0,558.0,530.0,517.0
524.0,543.0,539.0,518.0
530.0,534.0,544.0,520.0
528.0,551.0,540.0,521.0
513.0,467.0,533.0,521.0
505.0,460.0,525.0,520.0
509.0,504.0,516.0,523.0
507.0,508.0,513.0,527.0
502.0,473.0,507.0,528.0
503.0,467.0,502.0,523.0
493.0,497.0,498.0,518.0
492.0,529.0,490.0,515.0
499.0,508.0,486.0,502.0
507.0,492.0,483.0,498.0
505.0,496.0,492.0,498.0
516.0,502.0,502.0,497.0
516.0,500.0,509.0,503.0
520.0,489.0,521.0,504.0
519.0,489.0,528.0,506.0
522.0,519.0,531.0,513.0
521.0,513.0,531.0,512.0
513.0,517.0,528.0,513.0
502.0,499.0,522.0,514.0
501.0,500.0,511.0,518.0
503.0,499.0,500.0,519.0
503.0,492.0,498.0,520.0
505.0,496.0,492.0,516.0
503.0,517.0,488.0,516.0
503.0,521.0,492.0,514.0
500.0,517.0,493.0,512.0
508.0,523.0,496.0,513.0
512.0,516.0,502.0,509.0
518.0,504.0,515.0,510.0
523.0,506.0,521.0,512.0
532.0,507.0,530.0,512.0
531.0,507.0,534.0,512.0
527.0,506.0,533.0,511.0
518.0,504.0,531.0,513.0
515.0,494.0,531.0,515.0
502.0,491.0,524.0,521.0
500.0,501.0,510.0,519.0
501.0,502.0,499.0,521.0
499.0,504.0,496.0,518.0
505.0,502.0,493.0,519.0
513.0,499.0,490.0,513.0
513.0,498.0,493.0,510.0
509.0,519.0,492.0,510.0
514.0,526.0,490.0,502.0
514.0,521.0,504.0,505.0
516.0,520.0,516.0,513.0
522.0,519.0,522.0,513.0
526.0,515.0,529.0,511.0
529.0,508.0,536.0,517.0
525.0,496.0,537.0,514.0
519.0,499.0,533.0,514.0
514.0,493.0,529.0,517.0
509.0,485.0,522.0,516.0
503.0,484.0,512.0,515.0
499.0,487.0,494.0,516.0
494.0,492.0,492.0,519.0
491.0,502.0,492.0,520.0
495.0,507.0,492.0,519.0
505.0,519.0,488.0,514.0
506.0,527.0,494.0,516.0
517.0,528.0,506.0,513.0
524.0,503.0,515.0,519.0
523.0,475.0,527.0,517.0
528.0,510.0,538.0,521.0
530.0,511.0,543.0,515.0
516.0,503.0,542.0,516.0
515.0,511.0,530.0,512.0
517.0,517.0,524.0,514.0
508.0,481.0,517.0,509.0
501.0,491.0,506.0,511.0
500.0,497.0,497.0,512.0
499.0,503.0,491.0,513.0
503.0,505.0,489.0,512.0
506.0,510.0,487.0,516.0
505.0,507.0,490.0,512.0
503.0,506.0,491.0,512.0
510.0,515.0,496.0,507.0
514.0,504.0,502.0,509.0
518.0,496.0,512.0,509.0
523.0,494.0,523.0,507.0
528.0,473.0,531.0,514.0
524.0,487.0,536.0,512.0
527.0,517.0,539.0,515.0
512.0,536.0,535.0,514.0
517.0,528.0,534.0,518.0
503.0,504.0,521.0,518.0
495.0,486.0,512.0,521.0
494.0,497.0,504.0,521.0
503.0,501.0,496.0,520.0
501.0,494.0,490.0,520.0
508.0,515.0,496.0,522.0
502.0,518.0,495.0,523.0
503.0,508.0,496.0,520.0
508.0,507.0,502.0,519.0
512.0,497.0,509.0,517.0
513.0,505.0,522.0,514.0
520.0,494.0,529.0,512.0
524.0,489.0,536.0,509.0
531.0,513.0,538.0,506.0
527.0,493.0,536.0,507.0
514.0,493.0,530.0,507.0
513.0,508.0,524.0,513.0
506.0,492.0,517.0,516.0
501.0,484.0,515.0,519.0
497.0,499.0,504.0,521.0
496.0,517.0,494.0,514.0
499.0,517.0,491.0,514.0
508.0,507.0,489.0,508.0
509.0,512.0,488.0,506.0
512.0,516.0,487.0,506.0
514.0,513.0,496.0,503.0
517.0,531.0,505.0,501.0
520.0,543.0,512.0,506.0
524.0,540.0,524.0,515.0
530.0,510.0,532.0,509.0
524.0,500.0,538.0,511.0
521.0,501.0,531.0,512.0
516.0,491.0,527.0,513.0
505.0,481.0,519.0,513.0
503.0,477.0,511.0,517.0
497.0,498.0,505.0,520.0
501.0,506.0,497.0,521.0
497.0,495.0,491.0,518.0
506.0,509.0,492.0,518.0
508.0,517.0,492.0,516.0
505.0,520.0,501.0,516.0
510.0,528.0,504.0,515.0
510.0,521.0,509.0,515.0
513.0,522.0,516.0,513.0
523.0,518.0,525.0,511.0
530.0,528.0,526.0,509.0
526.0,496.0,530.0,510.0
524.0,482.0,533.0,512.0
519.0,490.0,530.0,515.0
513.0,486.0,529.0,515.0
512.0,481.0,518.0,518.0
505.0,476.0,509.0,518.0
501.0,471.0,506.0,521.0
488.0,511.0,501.0,523.0
496.0,544.0,497.0,522.0
506.0,532.0,494.0,524.0
508.0,518.0,489.0,512.0
505.0,498.0,489.0,508.0
510.0,495.0,493.0,499.0
514.0,505.0,501.0,504.0
517.0,516.0,509.0,503.0
520.0,504.0,519.0,506.0
528.0,507.0,530.0,507.0
528.0,505.0,536.0,512.0
522.0,503.0,532.0,513.0
513.0,499.0,531.0,512.0
509.0,497.0,524.0,515.0
503.0,500.0,514.0,514.0
498.0,499.0,504.0,519.0
498.0,491.0,498.0,521.0
500.0,491.0,495.0,519.0
504.0,497.0,492.0,519.0
510.0,511.0,488.0,516.0
506.0,509.0,489.0,509.0
509.0,513.0,492.0,513.0
514.0,507.0,500.0,513.0
517.0,504.0,517.0,512.0
525.0,499.0,520.0,510.0
528.0,499.0,529.0,510.0
531.0,499.0,537.0,514.0
531.0,499.0,539.0,515.0
523.0,495.0,538.0,518.0
516.0,501.0,531.0,516.0
504.0,493.0,523.0,522.0
496.0,487.0,518.0,523.0
492.0,485.0,508.0,521.0
497.0,483.0,501.0,520.0
501.0,497.0,498.0,520.0
501.0,507.0,495.0,517.0
506.0,525.0,491.0,512.0
509.0,511.0,489.0,510.0
515.0,514.0,494.0,508.0
516.0,516.0,503.0,508.0
519.0,508.0,508.0,508.0
524.0,516.0,522.0,508.0
532.0,517.0,533.0,510.0
528.0,512.0,538.0,513.0
524.0,516.0,537.0,513.0
519.0,504.0,540.0,519.0
515.0,505.0,535.0,521.0
501.0,504.0,524.0,519.0
492.0,479.0,511.0,522.0
491.0,488.0,502.0,521.0
497.0,509.0,496.0,517.0
502.0,523.0,489.0,513.0
508.0,512.0,486.0,509.0
506.0,501.0,492.0,514.0
505.0,497.0,496.0,514.0
512.0,505.0,499.0,511.0
514.0,511.0,508.0,508.0
519.0,528.0,513.0,509.0
524.0,520.0,518.0,506.0
529.0,510.0,530.0,506.0
530.0,486.0,531.0,505.0
528.0,479.0,536.0,509.0
520.0,471.0,531.0,514.0
505.0,470.0,526.0,512.0
500.0,513.0,515.0,518.0
508.0,550.0,507.0,519.0
502.0,522.0,497.0,519.0
504.0,516.0,493.0,518.0
495.0,468.0,493.0,518.0
503.0,506.0,491.0,511.0
502.0,511.0,492.0,513.0
508.0,520.0,496.0,511.0
511.0,517.0,499.0,514.0
516.0,513.0,508.0,508.0
525.0,520.0,519.0,510.0
526.0,522.0,527.0,509.0
526.0,498.0,529.0,514.0
532.0,506.0,535.0,512.0
528.0,507.0,534.0,512.0
522.0,501.0,531.0,513.0
510.0,495.0,521.0,519.0
504.0,488.0,514.0,521.0
499.0,494.0,503.0,518.0
498.0,498.0,498.0,520.0
492.0,498.0,495.0,521.0
500.0,505.0,495.0,519.0
506.0,505.0,495.0,518.0
505.0,493.0,497.0,516.0
510.0,487.0,504.0,514.0
511.0,490.0,506.0,509.0
515.0,523.0,512.0,507.0
528.0,529.0,520.0,508.0
534.0,526.0,526.0,506.0
530.0,541.0,535.0,514.0
530.0,518.0,536.0,513.0
520.0,482.0,533.0,511.0
512.0,497.0,527.0,513.0
500.0,488.0,523.0,519.0
489.0,492.0,513.0,518.0
489.0,490.0,506.0,523.0
499.0,490.0,506.0,524.0
496.0,491.0,500.0,522.0
502.0,525.0,495.0,520.0
510.0,527.0,494.0,517.0
510.0,514.0,491.0,509.0
513.0,514.0,495.0,502.0
511.0,515.0,499.0,506.0
516.0,512.0,510.0,505.0
523.0,513.0,522.0,503.0
528.0,515.0,531.0,508.0
530.0,522.0,537.0,509.0
521.0,520.0,532.0,510.0
517.0,504.0,530.0,511.0
503.0,495.0,524.0,513.0
501.0,490.0,518.0,516.0
498.0,484.0,509.0,515.0
497.0,487.0,500.0,518.0
501.0,494.0,494.0,517.0
502.0,511.0,493.0,514.0
509.0,510.0,489.0,514.0
503.0,500.0,492.0,513.0
509.0,505.0,494.0,510.0
514.0,506.0,503.0,510.0
519.0,511.0,512.0,509.0
521.0,505.0,520.0,508.0
524.0,501.0,527.0,509.0
528.0,520.0,534.0,511.0
530.0,530.0,537.0,506.0
520.0,520.0,537.0,510.0
515.0,515.0,534.0,515.0
504.0,488.0,522.0,509.0
497.0,474.0,514.0,515.0
498.0,479.0,506.0,515.0
493.0,481.0,497.0,515.0
498.0,486.0,495.0,515.0
500.0,501.0,488.0,515.0
503.0,529.0,491.0,513.0
508.0,521.0,491.0,513.0
513.0,508.0,497.0,511.0
512.0,512.0,502.0,510.0
517.0,505.0,515.0,508.0
523.0,511.0,525.0,509.0
533.0,524.0,534.0,510.0
530.0,519.0,537.0,512.0
536.0,501.0,540.0,512.0
529.0,506.0,531.0,515.0
519.0,464.0,532.0,516.0
495.0,449.0,523.0,517.0
493.0,521.0,515.0,521.0
494.0,485.0,507.0,520.0
498.0,505.0,496.0,519.0
501.0,511.0,496.0,516.0
504.0,523.0,496.0,515.0
504.0,520.0,492.0,513.0
501.0,501.0,493.0,513.0
510.0,500.0,501.0,512.0
512.0,492.0,508.0,513.0
519.0,501.0,517.0,512.0
523.0,499.0,523.0,513.0
530.0,502.0,533.0,509.0
525.0,511.0,534.0,512.0
524.0,532.0,539.0,513.0
514.0,515.0,533.0,511.0
508.0,505.0,524.0,511.0
501.0,514.0,511.0,512.0
498.0,514.0,501.0,515.0
497.0,508.0,499.0,518.0
502.0,503.0,493.0,515.0
503.0,494.0,488.0,517.0
507.0,502.0,493.0,519.0
506.0,501.0,493.0,519.0
506.0,511.0,497.0,512.0
510.0,515.0,502.0,507.0
514.0,519.0,505.0,509.0
519.0,514.0,516.0,510.0
526.0,517.0,528.0,512.0
530.0,515.0,534.0,516.0
530.0,507.0,540.0,514.0
521.0,499.0,541.0,514.0
516.0,493.0,534.0,515.0
508.0,491.0,521.0,512.0
499.0,492.0,513.0,514.0
504.0,502.0,502.0,511.0
507.0,506.0,492.0,516.0
508.0,497.0,491.0,517.0
509.0,499.0,489.0,512.0
508.0,498.0,488.0,513.0
507.0,499.0,490.0,512.0
511.0,519.0,496.0,510.0
521.0,522.0,504.0,508.0
521.0,527.0,515.0,509.0
529.0,520.0,523.0,510.0
529.0,499.0,531.0,511.0
520.0,508.0,532.0,511.0
514.0,512.0,534.0,510.0
512.0,505.0,528.0,509.0
505.0,495.0,526.0,510.0
499.0,487.0,516.0,511.0
500.0,487.0,508.0,508.0
499.0,494.0,497.0,509.0
500.0,494.0,493.0,513.0
498.0,511.0,489.0,513.0
503.0,515.0,491.0,514.0
504.0,505.0,490.0,510.0
503.0,494.0,492.0,506.0
508.0,504.0,497.0,505.0
514.0,517.0,503.0,505.0
520.0,536.0,511.0,510.0
524.0,563.0,524.0,509.0
528.0,541.0,533.0,512.0
525.0,466.0,539.0,513.0
522.0,468.0,537.0,515.0
513.0,476.0,535.0,514.0
508.0,497.0,531.0,517.0
504.0,482.0,521.0,520.0
495.0,482.0,509.0,519.0
498.0,498.0,500.0,519.0
503.0,497.0,495.0,517.0
502.0,509.0,491.0,516.0
505.0,508.0,489.0,513.0
509.0,519.0,491.0,514.0
509.0,518.0,497.0,512.0
513.0,512.0,503.0,515.0
517.0,505.0,513.0,514.0
520.0,509.0,521.0,510.0
526.0,517.0,529.0,512.0
529.0,521.0,538.0,512.0
526.0,530.0,539.0,508.0
514.0,514.0,538.0,515.0
510.0,503.0,524.0,513.0
505.0,495.0,524.0,514.0
499.0,492.0,515.0,518.0
499.0,493.0,502.0,514.0
500.0,507.0,495.0,513.0
500.0,525.0,491.0,515.0
506.0,528.0,487.0,514.0
510.0,529.0,489.0,510.0
500.0,483.0,490.0,514.0
509.0,499.0,494.0,512.0
512.0,500.0,503.0,510.0
516.0,493.0,513.0,512.0
523.0,504.0,521.0,510.0
528.0,518.0,530.0,510.0
530.0,527.0,535.0,506.0
530.0,520.0,537.0,513.0
519.0,508.0,532.0,518.0
507.0,470.0,530.0,515.0
497.0,466.0,523.0,517.0
496.0,467.0,513.0,516.0
499.0,473.0,502.0,519.0
499.0,526.0,497.0,520.0
502.0,530.0,494.0,519.0
507.0,509.0,489.0,517.0
505.0,496.0,492.0,514.0
506.0,504.0,493.0,514.0
514.0,510.0,500.0,509.0
517.0,517.0,512.0,512.0
520.0,508.0,517.0,511.0
521.0,498.0,525.0,510.0
530.0,515.0,534.0,511.0
531.0,522.0,539.0,515.0
520.0,521.0,539.0,517.0
516.0,515.0,535.0,518.0
513.0,504.0,531.0,517.0
505.0,508.0,518.0,520.0
503.0,479.0,510.0,518.0
501.0,481.0,499.0,518.0
507.0,499.0,494.0,519.0
495.0,489.0,493.0,517.0
497.0,516.0,490.0,512.0
499.0,513.0,488.0,512.0
502.0,507.0,494.0,510.0
508.0,514.0,502.0,505.0
514.0,514.0,505.0,505.0
520.0,515.0,513.0,505.0
526.0,509.0,524.0,507.0
530.0,501.0,530.0,507.0
524.0,505.0,536.0,508.0
518.0,509.0,541.0,513.0
519.0,505.0,529.0,516.0
508.0,490.0,517.0,511.0
505.0,484.0,511.0,514.0
499.0,486.0,504.0,516.0
498.0,505.0,497.0,520.0
501.0,512.0,492.0,518.0
506.0,519.0,490.0,516.0
504.0,518.0,491.0,516.0
506.0,509.0,493.0,511.0
510.0,511.0,497.0,511.0
514.0,508.0,505.0,512.0
519.0,509.0,513.0,510.0
524.0,512.0,518.0,516.0
529.0,508.0,527.0,510.0
530.0,502.0,536.0,513.0
529.0,504.0,542.0,515.0
518.0,497.0,536.0,514.0
511.0,498.0,535.0,512.0
505.0,492.0,526.0,522.0
501.0,490.0,518.0,523.0
495.0,489.0,504.0,521.0
499.0,501.0,497.0,519.0
500.0,495.0,488.0,517.0
505.0,503.0,486.0,512.0
504.0,518.0,487.0,507.0
508.0,515.0,487.0,506.0
511.0,517.0,490.0,502.0
514.0,517.0,501.0,502.0
517.0,504.0,511.0,505.0
526.0,503.0,520.0,504.0
529.0,506.0,531.0,507.0
528.0,503.0,535.0,511.0
530.0,507.0,537.0,512.0
522.0,507.0,531.0,514.0
518.0,510.0,528.0,516.0
507.0,502.0,519.0,516.0
504.0,496.0,509.0,519.0
501.0,506.0,501.0,520.0
501.0,508.0,499.0,517.0
501.0,505.0,496.0,519.0
502.0,508.0,485.0,519.0
505.0,495.0,493.0,515.0
504.0,495.0,493.0,510.0
511.0,510.0,501.0,507.0
512.0,511.0,509.0,510.0
520.0,516.0,521.0,511.0
523.0,519.0,533.0,514.0
527.0,524.0,537.0,510.0
529.0,526.0,539.0,516.0
521.0,511.0,538.0,516.0
513.0,491.0,535.0,519.0
502.0,480.0,527.0,518.0
497.0,501.0,519.0,521.0
498.0,525.0,508.0,517.0
496.0,532.0,500.0,517.0
500.0,552.0,495.0,518.0
501.0,491.0,493.0,519.0
499.0,463.0,492.0,514.0
500.0,468.0,493.0,512.0
502.0,473.0,494.0,507.0
511.0,482.0,499.0,507.0
516.0,488.0,511.0,510.0
519.0,490.0,521.0,509.0
527.0,493.0,528.0,511.0
528.0,500.0,531.0,509.0
524.0,514.0,533.0,508.0
520.0,524.0,533.0,511.0
518.0,524.0,528.0,511.0
504.0,505.0,521.0,512.0
500.0,500.0,507.0,510.0
501.0,508.0,498.0,512.0
503.0,508.0,493.0,516.0
500.0,502.0,486.0,514.0
506.0,511.0,491.0,515.0
506.0,518.0,491.0,513.0
508.0,516.0,493.0,510.0
512.0,516.0,500.0,508.0
511.0,508.0,508.0,509.0
518.0,509.0,514.0,506.0
521.0,511.0,523.0,509.0
528.0,505.0,536.0,512.0
528.0,497.0,537.0,510.0
526.0,505.0,537.0,515.0
521.0,493.0,533.0,512.0
511.0,477.0,524.0,512.0
502.0,485.0,510.0,512.0
497.0,504.0,500.0,512.0
501.0,512.0,496.0,512.0
497.0,515.0,493.0,516.0
506.0,525.0,490.0,512.0
512.0,524.0,491.0,513.0
508.0,512.0,493.0,516.0
510.0,504.0,501.0,514.0
516.0,504.0,501.0,513.0
520.0,505.0,506.0,509.0
521.0,506.0,514.0,505.0
525.0,515.0,520.0,506.0
528.0,531.0,532.0,507.0
523.0,523.0,536.0,506.0
518.0,502.0,533.0,509.0
511.0,498.0,528.0,513.0
506.0,491.0,524.0,515.0
503.0,486.0,514.0,518.0
496.0,491.0,505.0,520.0
498.0,489.0,498.0,520.0
497.0,496.0,492.0,517.0
499.0,520.0,491.0,516.0
502.0,511.0,490.0,520.0
504.0,506.0,489.0,515.0
508.0,517.0,498.0,512.0
513.0,511.0,506.0,513.0
510.0,502.0,515.0,515.0
514.0,498.0,524.0,517.0
528.0,507.0,533.0,517.0
529.0,513.0,543.0,515.0
529.0,507.0,542.0,517.0
526.0,516.0,535.0,517.0
517.0,513.0,530.0,516.0
502.0,510.0,522.0,511.0
502.0,504.0,511.0,513.0
497.0,474.0,501.0,508.0
501.0,474.0,489.0,506.0
504.0,493.0,482.0,506.0
506.0,499.0,482.0,505.0
505.0,517.0,486.0,507.0
505.0,515.0,486.0,506.0
511.0,508.0,494.0,506.0
516.0,509.0,509.0,506.0
517.0,510.0,509.0,506.0
526.0,513.0,520.0,506.0
523.0,511.0,530.0,509.0
528.0,512.0,536.0,517.0
521.0,505.0,537.0,507.0
518.0,503.0,527.0,511.0
513.0,494.0,528.0,512.0
501.0,487.0,515.0,515.0
499.0,487.0,507.0,520.0
496.0,491.0,501.0,520.0
498.0,498.0,494.0,517.0
502.0,499.0,491.0,519.0
506.0,509.0,492.0,516.0
507.0,522.0,489.0,514.0
505.0,515.0,496.0,513.0
510.0,515.0,502.0,513.0
519.0,520.0,510.0,510.0
522.0,498.0,518.0,512.0
527.0,507.0,525.0,510.0
533.0,504.0,537.0,512.0
535.0,511.0,540.0,512.0
528.0,504.0,539.0,515.0
520.0,490.0,534.0,518.0
508.0,487.0,527.0,520.0
500.0,502.0,518.0,518.0
488.0,490.0,503.0,517.0
490.0,508.0,501.0,519.0
496.0,511.0,494.0,517.0
501.0,508.0,494.0,514.0
507.0,513.0,492.0,513.0
506.0,508.0,492.0,509.0
514.0,510.0,494.0,507.0
512.0,503.0,500.0,508.0
517.0,514.0,507.0,505.0
522.0,517.0,518.0,510.0
525.0,507.0,527.0,513.0
529.0,499.0,532.0,509.0
528.0,508.0,536.0,511.0
524.0,500.0,536.0,508.0
516.0,505.0,530.0,512.0
503.0,503.0,521.0,513.0
493.0,473.0,512.0,517.0
497.0,481.0,503.0,516.0
497.0,509.0,495.0,518.0
500.0,517.0,493.0,520.0
501.0,522.0,494.0,518.0
506.0,516.0,494.0,516.0
506.0,502.0,492.0,514.0
511.0,513.0,496.0,515.0
518.0,513.0,505.0,509.0
525.0,515.0,517.0,508.0
530.0,517.0,526.0,510.0
528.0,484.0,533.0,507.0
529.0,500.0,535.0,510.0
534.0,513.0,537.0,506.0
525.0,503.0,530.0,508.0
509.0,487.0,526.0,508.0
490.0,502.0,514.0,512.0
491.0,502.0,508.0,516.0
491.0,496.0,498.0,513.0
497.0,493.0,493.0,518.0
502.0,509.0,491.0,514.0
508.0,519.0,486.0,513.0
505.0,518.0,491.0,511.0
504.0,521.0,491.0,510.0
509.0,510.0,500.0,508.0
515.0,511.0,507.0,507.0
517.0,506.0,518.0,506.0
526.0,506.0,523.0,508.0
532.0,513.0,537.0,509.0
531.0,518.0,540.0,508.0
523.0,516.0,535.0,513.0
523.0,502.0,530.0,513.0
508.0,505.0,523.0,515.0
503.0,505.0,514.0,517.0
499.0,489.0,505.0,517.0
495.0,492.0,496.0,515.0
499.0,508.0,493.0,516.0
505.0,503.0,489.0,514.0
508.0,507.0,489.0,512.0
507.0,498.0,490.0,511.0
503.0,497.0,494.0,511.0
510.0,500.0,501.0,509.0
514.0,493.0,512.0,508.0
519.0,500.0,522.0,510.0
521.0,507.0,530.0,514.0
527.0,506.0,536.0,513.0
528.0,504.0,537.0,514.0
521.0,495.0,533.0,512.0
513.0,489.0,527.0,512.0
504.0,495.0,519.0,516.0
501.0,496.0,510.0,517.0
500.0,494.0,505.0,519.0
502.0,500.0,506.0,516.0
502.0,505.0,497.0,520.0
505.0,507.0,496.0,518.0
509.0,516.0,492.0,512.0
504.0,501.0,489.0,511.0
508.0,501.0,493.0,505.0
513.0,505.0,501.0,504.0
518.0,504.0,508.0,502.0
524.0,504.0,520.0,505.0
523.0,509.0,527.0,511.0
525.0,506.0,533.0,510.0
524.0,499.0,534.0,509.0
518.0,500.0,530.0,514.0
511.0,501.0,523.0,512.0
503.0,493.0,514.0,512.0
501.0,500.0,506.0,514.0
498.0,498.0,499.0,519.0
503.0,504.0,496.0,519.0
502.0,506.0,493.0,518.0
501.0,508.0,485.0,513.0
498.0,507.0,490.0,514.0
503.0,511.0,495.0,510.0
507.0,508.0,502.0,506.0
515.0,508.0,506.0,508.0
519.0,514.0,515.0,508.0
527.0,512.0,524.0,509.0
532.0,511.0,534.0,509.0
526.0,504.0,535.0,513.0
527.0,503.0,533.0,511.0
522.0,492.0,529.0,508.0
510.0,477.0,521.0,515.0
507.0,468.0,516.0,519.0
504.0,473.0,510.0,517.0
503.0,480.0,508.0,525.0
503.0,499.0,500.0,522.0
499.0,518.0,497.0,520.0
500.0,522.0,490.0,515.0
501.0,535.0,491.0,509.0
504.0,535.0,491.0,506.0
516.0,528.0,496.0,506.0
523.0,537.0,504.0,504.0
526.0,550.0,516.0,504.0
533.0,537.0,523.0,501.0
529.0,480.0,530.0,507.0
525.0,470.0,534.0,515.0
523.0,482.0,531.0,512.0
514.0,494.0,526.0,517.0
506.0,495.0,520.0,514.0
502.0,513.0,510.0,517.0
500.0,507.0,500.0,518.0
500.0,511.0,497.0,516.0
503.0,516.0,494.0,518.0
505.0,521.0,493.0,513.0
502.0,527.0,494.0,513.0
500.0,518.0,489.0,516.0
505.0,480.0,493.0,509.0
509.0,471.0,503.0,507.0
514.0,474.0,514.0,507.0
523.0,477.0,526.0,511.0
527.0,513.0,528.0,511.0
529.0,529.0,539.0,514.0
525.0,533.0,539.0,516.0
519.0,520.0,536.0,516.0
510.0,495.0,531.0,517.0
501.0,499.0,521.0,516.0
500.0,509.0,507.0,515.0
495.0,506.0,504.0,515.0
499.0,508.0,500.0,515.0
502.0,495.0,494.0,517.0
509.0,509.0,495.0,516.0
513.0,505.0,496.0,512.0
511.0,505.0,497.0,512.0
513.0,514.0,500.0,510.0
517.0,510.0,506.0,507.0
517.0,520.0,515.0,505.0
526.0,521.0,528.0,510.0
533.0,517.0,531.0,511.0
527.0,474.0,535.0,512.0
521.0,505.0,539.0,511.0
519.0,502.0,531.0,511.0
504.0,489.0,523.0,510.0
495.0,500.0,515.0,515.0
491.0,500.0,502.0,514.0
496.0,515.0,496.0,514.0
502.0,516.0,493.0,515.0
507.0,507.0,486.0,516.0
507.0,510.0,492.0,516.0
507.0,509.0,496.0,514.0
509.0,508.0,499.0,515.0
513.0,509.0,511.0,512.0
517.0,508.0,515.0,511.0
523.0,509.0,524.0,510.0
524.0,515.0,530.0,510.0
525.0,512.0,530.0,509.0
525.0,510.0,534.0,508.0
520.0,501.0,527.0,510.0
516.0,499.0,529.0,508.0
507.0,499.0,519.0,515.0
500.0,502.0,511.0,516.0
502.0,497.0,503.0,517.0
499.0,470.0,494.0,511.0
500.0,499.0,487.0,512.0
505.0,511.0,488.0,513.0
507.0,506.0,489.0,512.0
503.0,508.0,492.0,512.0
506.0,508.0,496.0,510.0
515.0,502.0,504.0,506.0
519.0,507.0,514.0,508.0
523.0,509.0,521.0,509.0
532.0,510.0,531.0,508.0
531.0,507.0,536.0,512.0
529.0,502.0,539.0,515.0
521.0,496.0,534.0,516.0
510.0,475.0,531.0,521.0
505.0,481.0,523.0,518.0
501.0,497.0,510.0,521.0
494.0,508.0,505.0,523.0
495.0,519.0,498.0,522.0
501.0,506.0,495.0,519.0
507.0,504.0,494.0,516.0
509.0,509.0,490.0,512.0
508.0,513.0,493.0,508.0
512.0,517.0,496.0,505.0
517.0,513.0,504.0,505.0
522.0,506.0,511.0,503.0
519.0,496.0,522.0,503.0
522.0,508.0,531.0,505.0
523.0,507.0,537.0,509.0
522.0,499.0,533.0,512.0
514.0,491.0,528.0,513.0
502.0,477.0,522.0,514.0
497.0,472.0,514.0,516.0
493.0,495.0,505.0,519.0
501.0,494.0,501.0,515.0
503.0,507.0,495.0,518.0
505.0,535.0,495.0,517.0
508.0,536.0,494.0,513.0
505.0,526.0,491.0,511.0
505.0,502.0,494.0,510.0
506.0,508.0,500.0,508.0
516.0,509.0,509.0,507.0
521.0,510.0,517.0,507.0
529.0,511.0,522.0,506.0
530.0,512.0,530.0,508.0
527.0,510.0,535.0,510.0
524.0,503.0,533.0,510.0
516.0,485.0,528.0,513.0
510.0,477.0,524.0,514.0
499.0,475.0,512.0,516.0
493.0,504.0,504.0,517.0
499.0,510.0,498.0,518.0
504.0,496.0,493.0,517.0
508.0,516.0,490.0,521.0
508.0,518.0,493.0,515.0
505.0,500.0,495.0,517.0
509.0,502.0,500.0,514.0
512.0,513.0,508.0,510.0
521.0,526.0,517.0,512.0
527.0,530.0,522.0,511.0
531.0,521.0,535.0,511.0
530.0,515.0,533.0,508.0
527.0,512.0,532.0,503.0
519.0,503.0,530.0,507.0
514.0,499.0,525.0,512.0
504.0,496.0,517.0,511.0
503.0,495.0,507.0,517.0
499.0,493.0,501.0,517.0
501.0,500.0,495.0,517.0
501.0,506.0,490.0,517.0
504.0,515.0,491.0,516.0
506.0,514.0,490.0,511.0
505.0,512.0,489.0,512.0
510.0,499.0,495.0,509.0
517.0,485.0,506.0,509.0
522.0,526.0,517.0,511.0
528.0,523.0,527.0,512.0
531.0,501.0,535.0,510.0
528.0,503.0,538.0,511.0
518.0,503.0,537.0,513.0
510.0,489.0,529.0,513.0
502.0,493.0,524.0,513.0
501.0,476.0,519.0,519.0
498.0,475.0,507.0,520.0
499.0,473.0,498.0,524.0
502.0,484.0,493.0,519.0
505.0,496.0,491.0,513.0
504.0,498.0,488.0,512.0
502.0,511.0,489.0,510.0
503.0,525.0,493.0,509.0
508.0,521.0,500.0,507.0
516.0,518.0,510.0,509.0
524.0,512.0,519.0,505.0
527.0,513.0,527.0,505.0
527.0,518.0,531.0,508.0
527.0,517.0,540.0,512.0
522.0,517.0,536.0,513.0
513.0,501.0,537.0,516.0
503.0,496.0,522.0,518.0
498.0,498.0,518.0,520.0
499.0,490.0,508.0,517.0
502.0,493.0,500.0,516.0
504.0,506.0,491.0,514.0
502.0,523.0,486.0,515.0
507.0,512.0,484.0,510.0
506.0,495.0,490.0,508.0
513.0,496.0,493.0,507.0
516.0,496.0,502.0,506.0
520.0,498.0,511.0,508.0
525.0,512.0,523.0,509.0
530.0,520.0,533.0,510.0
527.0,509.0,536.0,512.0
529.0,511.0,534.0,511.0
517.0,520.0,532.0,514.0
510.0,502.0,528.0,514.0
503.0,494.0,522.0,520.0
500.0,508.0,516.0,524.0
498.0,503.0,510.0,523.0
498.0,512.0,503.0,525.0
501.0,525.0,496.0,520.0
505.0,509.0,492.0,515.0
510.0,512.0,489.0,512.0
507.0,510.0,487.0,507.0
512.0,514.0,494.0,506.0
514.0,511.0,504.0,502.0
517.0,496.0,512.0,501.0
523.0,507.0,524.0,504.0
529.0,504.0,532.0,508.0
528.0,506.0,532.0,508.0
525.0,507.0,534.0,510.0
513.0,508.0,536.0,514.0
505.0,496.0,528.0,517.0
503.0,488.0,518.0,513.0
498.0,493.0,505.0,518.0
492.0,498.0,499.0,519.0
497.0,496.0,492.0,518.0
502.0,495.0,491.0,519.0
508.0,526.0,495.0,518.0
509.0,517.0,497.0,516.0
511.0,516.0,491.0,509.0
511.0,494.0,501.0,505.0
507.0,463.0,508.0,510.0
527.0,522.0,518.0,506.0
534.0,527.0,525.0,507.0
530.0,513.0,533.0,508.0
530.0,493.0,536.0,510.0
520.0,491.0,536.0,510.0
515.0,485.0,530.0,512.0
505.0,478.0,519.0,513.0
500.0,494.0,508.0,514.0
495.0,510.0,501.0,517.0
497.0,501.0,498.0,521.0
497.0,506.0,494.0,521.0
507.0,505.0,494.0,516.0
506.0,512.0,491.0,515.0
507.0,517.0,496.0,513.0
505.0,512.0,495.0,510.0
508.0,507.0,503.0,506.0
516.0,505.0,510.0,507.0
527.0,515.0,519.0,505.0
533.0,520.0,528.0,506.0
533.0,511.0,532.0,507.0
530.0,515.0,532.0,509.0
523.0,507.0,532.0,513.0
510.0,498.0,526.0,511.0
500.0,494.0,519.0,511.0
494.0,492.0,509.0,516.0
497.0,496.0,502.0,516.0
506.0,504.0,497.0,517.0
502.0,503.0,491.0,517.0
508.0,501.0,492.0,516.0
509.0,504.0,492.0,510.0
509.0,502.0,495.0,513.0
514.0,500.0,499.0,513.0
522.0,511.0,508.0,510.0
524.0,510.0,520.0,510.0
529.0,515.0,527.0,511.0
528.0,515.0,533.0,512.0
521.0,509.0,537.0,512.0
518.0,500.0,534.0,510.0
519.0,499.0,532.0,511.0
503.0,488.0,526.0,514.0
497.0,492.0,515.0,515.0
496.0,501.0,508.0,517.0
499.0,504.0,502.0,518.0
498.0,516.0,495.0,519.0
507.0,519.0,493.0,520.0
505.0,513.0,490.0,520.0
508.0,510.0,492.0,516.0
506.0,511.0,494.0,512.0
511.0,510.0,505.0,510.0
516.0,505.0,514.0,512.0
520.0,514.0,523.0,511.0
527.0,509.0,530.0,511.0
530.0,511.0,532.0,509.0
529.0,513.0,536.0,511.0
524.0,510.0,533.0,510.0
516.0,505.0,532.0,510.0
503.0,491.0,524.0,512.0
497.0,484.0,515.0,513.0
492.0,473.0,507.0,517.0
495.0,485.0,501.0,520.0
495.0,499.0,499.0,519.0
497.0,513.0,493.0,520.0
509.0,516.0,494.0,518.0
508.0,520.0,492.0,514.0
511.0,510.0,494.0,508.0
516.0,497.0,502.0,508.0
521.0,518.0,511.0,505.0
524.0,511.0,519.0,504.0
533.0,534.0,528.0,505.0
529.0,496.0,533.0,506.0
526.0,492.0,530.0,506.0
520.0,504.0,532.0,509.0
513.0,502.0,529.0,511.0
505.0,490.0,517.0,514.0
500.0,488.0,510.0,512.0
498.0,491.0,502.0,516.0
497.0,499.0,494.0,516.0
497.0,500.0,491.0,517.0
504.0,505.0,490.0,513.0
507.0,505.0,489.0,514.0
506.0,501.0,491.0,505.0
507.0,502.0,497.0,508.0
514.0,508.0,506.0,507.0
522.0,512.0,516.0,507.0
525.0,519.0,523.0,508.0
529.0,522.0,533.0,506.0
528.0,505.0,538.0,515.0
524.0,490.0,534.0,512.0
521.0,481.0,532.0,517.0
511.0,491.0,529.0,518.0
509.0,488.0,516.0,521.0
508.0,486.0,507.0,521.0
502.0,497.0,500.0,516.0
503.0,497.0,493.0,524.0
502.0,508.0,492.0,516.0
506.0,508.0,491.0,513.0
504.0,511.0,491.0,514.0
503.0,528.0,495.0,508.0
509.0,521.0,500.0,503.0
514.0,514.0,508.0,505.0
520.0,512.0,513.0,505.0
528.0,527.0,526.0,508.0
528.0,526.0,536.0,508.0
521.0,520.0,539.0,512.0
520.0,505.0,536.0,515.0
512.0,496.0,531.0,517.0
502.0,481.0,525.0,519.0
498.0,493.0,515.0,519.0
501.0,499.0,504.0,519.0
503.0,519.0,496.0,520.0
503.0,520.0,494.0,519.0
505.0,503.0,492.0,520.0
512.0,513.0,498.0,518.0
504.0,519.0,496.0,514.0
505.0,511.0,497.0,511.0
510.0,507.0,504.0,506.0
517.0,513.0,514.0,508.0
526.0,516.0,522.0,512.0
530.0,517.0,532.0,511.0
524.0,517.0,534.0,511.0
525.0,519.0,534.0,511.0
522.0,520.0,534.0,511.0
519.0,498.0,526.0,509.0
504.0,470.0,514.0,512.0
500.0,482.0,504.0,510.0
497.0,488.0,497.0,513.0
499.0,494.0,494.0,512.0
502.0,494.0,490.0,509.0
506.0,505.0,491.0,510.0
503.0,511.0,492.0,509.0
510.0,524.0,495.0,511.0
513.0,530.0,499.0,509.0
517.0,523.0,507.0,508.0
520.0,524.0,516.0,509.0
522.0,500.0,524.0,511.0
524.0,485.0,537.0,512.0
528.0,501.0,537.0,508.0
522.0,517.0,536.0,513.0
518.0,505.0,531.0,512.0
505.0,491.0,526.0,515.0
504.0,478.0,515.0,516.0
496.0,474.0,506.0,518.0
497.0,489.0,500.0,523.0
497.0,493.0,496.0,521.0
500.0,486.0,492.0,521.0
505.0,493.0,491.0,515.0
506.0,509.0,489.0,510.0
507.0,507.0,490.0,505.0
512.0,524.0,497.0,503.0
517.0,537.0,508.0,503.0
523.0,528.0,518.0,507.0
529.0,516.0,529.0,508.0
531.0,502.0,536.0,509.0
531.0,485.0,537.0,512.0
527.0,491.0,535.0,508.0
521.0,496.0,530.0,508.0
508.0,497.0,520.0,512.0
499.0,499.0,512.0,510.0
491.0,505.0,501.0,515.0
493.0,524.0,493.0,518.0
499.0,514.0,493.0,516.0
505.0,517.0,489.0,513.0
506.0,505.0,490.0,515.0
510.0,507.0,492.0,512.0
510.0,510.0,496.0,510.0
512.0,506.0,501.0,508.0
513.0,511.0,511.0,508.0
517.0,524.0,526.0,508.0
525.0,517.0,530.0,510.0
528.0,512.0,532.0,512.0
527.0,514.0,538.0,512.0
522.0,509.0,535.0,511.0
515.0,502.0,531.0,511.0
507.0,489.0,523.0,517.0
500.0,469.0,510.0,516.0
498.0,478.0,506.0,522.0
502.0,487.0,499.0,521.0
505.0,505.0,500.0,520.0
509.0,511.0,492.0,511.0
506.0,506.0,485.0,507.0
503.0,514.0,485.0,507.0
499.0,521.0,494.0,506.0
510.0,506.0,504.0,505.0
514.0,507.0,514.0,509.0
519.0,520.0,525.0,508.0
528.0,520.0,535.0,510.0
530.0,519.0,543.0,514.0
523.0,513.0,540.0,511.0
520.0,508.0,533.0,512.0
507.0,502.0,526.0,511.0
502.0,495.0,514.0,516.0
496.0,494.0,506.0,518.0
498.0,503.0,500.0,518.0
505.0,503.0,494.0,519.0
508.0,502.0,492.0,518.0
516.0,515.0,492.0,518.0
513.0,511.0,496.0,517.0
518.0,511.0,497.0,515.0
515.0,509.0,505.0,514.0
512.0,488.0,511.0,511.0
517.0,508.0,517.0,504.0
522.0,533.0,525.0,507.0
525.0,532.0,530.0,507.0
527.0,529.0,533.0,506.0
520.0,507.0,533.0,509.0
510.0,471.0,529.0,510.0
501.0,480.0,523.0,514.0
497.0,483.0,512.0,516.0
498.0,492.0,504.0,514.0
500.0,500.0,495.0,517.0
499.0,502.0,490.0,511.0
504.0,498.0,488.0,513.0
507.0,493.0,489.0,512.0
507.0,487.0,492.0,512.0
511.0,489.0,491.0,509.0
511.0,502.0,501.0,508.0
514.0,522.0,513.0,507.0
526.0,518.0,517.0,508.0
534.0,528.0,527.0,510.0
530.0,520.0,534.0,510.0
525.0,511.0,540.0,514.0
519.0,503.0,534.0,513.0
511.0,491.0,528.0,515.0
501.0,484.0,521.0,517.0
495.0,482.0,510.0,518.0
498.0,492.0,503.0,519.0
498.0,496.0,495.0,520.0
507.0,501.0,492.0,517.0
511.0,518.0,491.0,516.0
513.0,525.0,490.0,513.0
509.0,519.0,494.0,515.0
517.0,517.0,499.0,512.0
517.0,508.0,505.0,512.0
513.0,497.0,521.0,513.0
519.0,507.0,527.0,512.0
527.0,515.0,535.0,509.0
526.0,522.0,540.0,515.0
524.0,514.0,541.0,515.0
516.0,504.0,534.0,516.0
505.0,501.0,527.0,518.0
502.0,502.0,513.0,520.0
501.0,502.0,505.0,520.0
501.0,501.0,498.0,519.0
502.0,501.0,492.0,517.0
509.0,497.0,491.0,516.0
510.0,487.0,489.0,514.0
505.0,507.0,491.0,513.0
508.0,524.0,494.0,508.0
510.0,521.0,500.0,506.0
510.0,520.0,506.0,505.0
520.0,520.0,516.0,505.0
529.0,529.0,524.0,507.0
534.0,550.0,530.0,507.0
530.0,562.0,534.0,512.0
522.0,533.0,530.0,512.0
513.0,487.0,526.0,510.0
499.0,452.0,524.0,512.0
492.0,456.0,518.0,515.0
495.0,467.0,510.0,519.0
501.0,482.0,498.0,516.0
502.0,485.0,489.0,516.0
505.0,489.0,488.0,516.0
513.0,493.0,485.0,510.0
515.0,502.0,490.0,508.0
518.0,511.0,491.0,507.0
516.0,524.0,501.0,510.0
517.0,520.0,513.0,510.0
524.0,523.0,524.0,512.0
526.0,518.0,529.0,510.0
522.0,517.0,534.0,505.0
516.0,514.0,537.0,510.0
515.0,501.0,530.0,508.0
512.0,488.0,526.0,510.0
504.0,485.0,518.0,512.0
498.0,492.0,509.0,514.0
499.0,492.0,503.0,518.0
499.0,504.0,496.0,517.0
505.0,530.0,494.0,517.0
511.0,526.0,490.0,515.0
511.0,514.0,491.0,511.0
509.0,508.0,490.0,511.0
508.0,504.0,497.0,511.0
507.0,501.0,500.0,506.0
513.0,502.0,514.0,506.0
524.0,506.0,521.0,507.0
522.0,506.0,529.0,507.0
523.0,526.0,537.0,510.0
522.0,510.0,535.0,514.0
517.0,500.0,534.0,511.0
507.0,487.0,528.0,516.0
501.0,487.0,519.0,518.0
499.0,491.0,507.0,520.0
500.0,508.0,501.0,519.0
500.0,502.0,494.0,520.0
499.0,507.0,495.0,521.0
507.0,519.0,494.0,519.0
506.0,515.0,499.0,517.0
506.0,510.0,500.0,518.0
511.0,511.0,508.0,514.0
516.0,506.0,515.0,513.0
522.0,510.0,518.0,509.0
528.0,509.0,522.0,504.0
532.0,509.0,525.0,504.0
531.0,500.0,529.0,505.0
529.0,494.0,532.0,507.0
524.0,503.0,528.0,511.0
509.0,498.0,521.0,512.0
503.0,500.0,511.0,512.0
496.0,499.0,504.0,512.0
492.0,490.0,498.0,515.0
498.0,471.0,493.0,515.0
502.0,484.0,494.0,516.0
505.0,505.0,491.0,513.0
508.0,529.0,490.0,513.0
514.0,536.0,497.0,509.0
520.0,536.0,503.0,505.0
520.0,547.0,513.0,502.0
516.0,492.0,525.0,507.0
521.0,497.0,527.0,507.0
523.0,502.0,533.0,510.0
526.0,511.0,537.0,511.0
525.0,511.0,534.0,514.0
515.0,503.0,531.0,512.0
505.0,493.0,522.0,519.0
499.0,488.0,514.0,522.0
495.0,486.0,506.0,522.0
503.0,497.0,496.0,520.0
498.0,500.0,490.0,514.0
505.0,494.0,490.0,509.0
505.0,493.0,489.0,512.0
508.0,491.0,490.0,509.0
512.0,489.0,495.0,504.0
515.0,516.0,504.0,507.0
521.0,529.0,513.0,508.0
524.0,532.0,519.0,507.0
530.0,520.0,531.0,507.0
525.0,511.0,533.0,508.0
520.0,514.0,533.0,509.0
518.0,517.0,529.0,513.0
510.0,497.0,527.0,511.0
504.0,497.0,517.0,517.0
503.0,495.0,510.0,519.0
503.0,499.0,504.0,520.0
504.0,506.0,496.0,516.0
503.0,507.0,493.0,517.0
502.0,507.0,488.0,513.0
504.0,510.0,489.0,509.0
505.0,508.0,490.0,510.0
511.0,503.0,500.0,508.0
514.0,501.0,510.0,510.0
518.0,500.0,520.0,510.0
522.0,505.0,526.0,509.0
528.0,518.0,537.0,511.0
529.0,515.0,533.0,507.0
522.0,501.0,532.0,510.0
514.0,500.0,531.0,514.0
505.0,495.0,522.0,515.0
500.0,491.0,512.0,515.0
499.0,498.0,501.0,516.0
499.0,499.0,496.0,519.0
499.0,503.0,493.0,518.0
505.0,507.0,491.0,516.0
509.0,510.0,490.0,514.0
507.0,511.0,489.0,510.0
509.0,512.0,496.0,507.0
511.0,520.0,501.0,509.0
518.0,502.0,511.0,509.0
524.0,503.0,520.0,510.0
526.0,497.0,530.0,511.0
527.0,492.0,536.0,514.0
528.0,515.0,539.0,515.0
525.0,523.0,538.0,516.0
521.0,509.0,531.0,517.0
509.0,499.0,525.0,522.0
500.0,497.0,518.0,524.0
496.0,475.0,505.0,523.0
497.0,492.0,494.0,518.0
498.0,504.0,491.0,517.0
500.0,517.0,490.0,514.0
504.0,510.0,488.0,512.0
503.0,500.0,489.0,512.0
504.0,519.0,498.0,509.0
509.0,525.0,501.0,509.0
514.0,518.0,514.0,509.0
521.0,513.0,521.0,505.0
524.0,486.0,529.0,509.0
525.0,501.0,535.0,509.0
525.0,506.0,534.0,510.0
517.0,502.0,532.0,511.0
510.0,483.0,527.0,513.0
508.0,482.0,518.0,517.0
507.0,491.0,508.0,516.0
504.0,494.0,500.0,518.0
503.0,496.0,494.0,516.0
503.0,508.0,491.0,514.0
503.0,514.0,490.0,515.0
503.0,514.0,492.0,511.0
507.0,516.0,495.0,512.0
514.0,523.0,499.0,510.0
517.0,525.0,506.0,508.0
520.0,524.0,518.0,507.0
523.0,509.0,523.0,511.0
521.0,502.0,533.0,507.0
522.0,507.0,535.0,509.0
518.0,503.0,532.0,510.0
514.0,502.0,527.0,511.0
507.0,493.0,523.0,516.0
500.0,487.0,515.0,516.0
501.0,499.0,506.0,518.0
500.0,506.0,497.0,522.0
503.0,504.0,495.0,520.0
504.0,505.0,493.0,518.0
509.0,510.0,489.0,514.0
508.0,509.0,492.0,514.0
506.0,504.0,493.0,511.0
513.0,498.0,503.0,506.0
511.0,501.0,513.0,510.0
520.0,506.0,517.0,508.0
528.0,512.0,529.0,508.0
532.0,511.0,536.0,509.0
528.0,507.0,538.0,510.0
524.0,499.0,533.0,513.0
517.0,503.0,529.0,514.0
507.0,497.0,521.0,517.0
500.0,501.0,512.0,520.0
493.0,509.0,504.0,519.0
497.0,513.0,495.0,520.0
501.0,510.0,489.0,517.0
502.0,513.0,491.0,516.0
504.0,508.0,492.0,513.0
502.0,502.0,495.0,510.0
505.0,503.0,496.0,506.0
512.0,504.0,509.0,506.0
517.0,506.0,514.0,506.0
520.0,507.0,518.0,508.0
525.0,514.0,531.0,511.0
526.0,509.0,534.0,511.0
524.0,507.0,538.0,514.0
518.0,504.0,536.0,514.0
510.0,491.0,532.0,517.0
505.0,491.0,522.0,518.0
497.0,491.0,508.0,519.0
497.0,495.0,500.0,518.0
499.0,497.0,496.0,519.0
500.0,499.0,492.0,511.0
506.0,514.0,489.0,514.0
502.0,509.0,495.0,513.0
509.0,503.0,495.0,509.0
515.0,491.0,500.0,505.0
512.0,479.0,506.0,509.0
519.0,484.0,517.0,507.0
528.0,499.0,526.0,508.0
533.0,517.0,532.0,508.0
526.0,538.0,536.0,513.0
523.0,525.0,534.0,512.0
517.0,512.0,530.0,514.0
505.0,497.0,523.0,513.0
501.0,493.0,515.0,518.0
504.0,499.0,510.0,518.0
500.0,507.0,504.0,521.0
504.0,510.0,499.0,520.0
507.0,516.0,501.0,520.0
507.0,510.0,498.0,517.0
509.0,505.0,496.0,514.0
508.0,511.0,494.0,508.0
509.0,511.0,497.0,504.0
515.0,515.0,504.0,499.0
519.0,518.0,512.0,503.0
524.0,516.0,524.0,505.0
527.0,513.0,531.0,510.0
524.0,508.0,534.0,508.0
511.0,503.0,531.0,510.0
510.0,490.0,526.0,508.0
502.0,492.0,520.0,509.0
503.0,495.0,512.0,516.0
499.0,502.0,500.0,516.0
501.0,495.0,496.0,514.0
501.0,495.0,491.0,516.0
503.0,500.0,492.0,516.0
506.0,492.0,489.0,513.0
507.0,500.0,493.0,509.0
510.0,505.0,498.0,509.0
519.0,521.0,505.0,508.0
521.0,535.0,515.0,508.0
521.0,553.0,522.0,508.0
533.0,557.0,528.0,508.0
523.0,484.0,536.0,510.0
522.0,475.0,538.0,513.0
520.0,484.0,533.0,516.0
513.0,485.0,527.0,513.0
507.0,488.0,520.0,517.0
503.0,490.0,509.0,518.0
499.0,493.0,496.0,516.0
498.0,510.0,493.0,518.0
502.0,499.0,491.0,512.0
503.0,505.0,489.0,516.0
502.0,508.0,492.0,512.0
507.0,502.0,494.0,511.0
513.0,506.0,500.0,507.0
515.0,501.0,509.0,508.0
519.0,504.0,514.0,507.0
524.0,509.0,527.0,509.0
529.0,512.0,535.0,505.0
531.0,513.0,536.0,509.0
525.0,505.0,536.0,510.0
520.0,498.0,531.0,513.0
511.0,494.0,524.0,515.0
506.0,484.0,516.0,517.0
498.0,489.0,507.0,520.0
499.0,495.0,499.0,517.0
502.0,496.0,494.0,518.0
501.0,502.0,493.0,516.0
506.0,520.0,491.0,511.0
510.0,514.0,493.0,513.0
509.0,505.0,496.0,510.0
513.0,504.0,502.0,509.0
518.0,517.0,512.0,507.0
528.0,531.0,521.0,507.0
527.0,529.0,527.0,509.0
529.0,522.0,534.0,510.0
526.0,518.0,535.0,512.0
518.0,504.0,532.0,514.0
514.0,497.0,527.0,510.0
506.0,481.0,521.0,514.0
499.0,480.0,510.0,522.0
501.0,492.0,503.0,518.0
503.0,507.0,497.0,516.0
507.0,514.0,493.0,515.0
506.0,529.0,491.0,516.0
505.0,516.0,492.0,514.0
512.0,502.0,491.0,512.0
507.0,499.0,498.0,510.0
512.0,505.0,502.0,507.0
517.0,507.0,512.0,508.0
524.0,507.0,523.0,510.0
529.0,511.0,531.0,513.0
528.0,512.0,536.0,512.0
525.0,505.0,537.0,509.0
520.0,501.0,533.0,511.0
511.0,494.0,528.0,512.0
504.0,496.0,515.0,515.0
499.0,491.0,506.0,518.0
498.0,495.0,501.0,519.0
500.0,502.0,495.0,517.0
500.0,500.0,487.0,517.0
506.0,499.0,487.0,516.0
507.0,500.0,492.0,512.0
506.0,493.0,494.0,507.0
507.0,502.0,501.0,509.0
512.0,502.0,506.0,507.0
518.0,512.0,513.0,509.0
524.0,504.0,526.0,510.0
529.0,514.0,532.0,509.0
530.0,513.0,536.0,512.0
525.0,505.0,536.0,511.0
517.0,500.0,532.0,511.0
504.0,492.0,525.0,516.0
505.0,500.0,517.0,515.0
503.0,501.0,508.0,513.0
501.0,501.0,497.0,517.0
501.0,512.0,495.0,515.0
504.0,515.0,489.0,517.0
506.0,517.0,493.0,514.0
506.0,515.0,489.0,512.0
508.0,508.0,495.0,511.0
514.0,508.0,504.0,508.0
518.0,510.0,512.0,507.0
522.0,512.0,521.0,509.0
528.0,509.0,533.0,509.0
528.0,508.0,535.0,510.0
527.0,509.0,538.0,510.0
513.0,506.0,535.0,513.0
502.0,499.0,531.0,513.0
491.0,491.0,522.0,513.0
490.0,490.0,512.0,517.0
488.0,491.0,508.0,518.0
490.0,493.0,495.0,518.0
498.0,503.0,494.0,516.0
514.0,503.0,494.0,516.0
526.0,513.0,490.0,514.0
519.0,515.0,496.0,512.0
517.0,510.0,498.0,510.0
517.0,506.0,503.0,508.0
523.0,506.0,515.0,510.0
527.0,502.0,522.0,508.0
535.0,503.0,532.0,508.0
523.0,502.0,539.0,511.0
516.0,502.0,537.0,511.0
508.0,515.0,533.0,513.0
492.0,500.0,529.0,508.0
488.0,496.0,519.0,513.0
486.0,492.0,508.0,516.0
486.0,491.0,500.0,517.0
493.0,499.0,496.0,518.0
508.0,509.0,494.0,516.0
514.0,512.0,491.0,515.0
520.0,513.0,493.0,512.0
529.0,512.0,494.0,511.0
522.0,516.0,501.0,508.0
516.0,509.0,510.0,505.0
518.0,512.0,517.0,512.0
524.0,520.0,527.0,514.0
532.0,511.0,535.0,512.0
528.0,510.0,536.0,512.0
525.0,504.0,538.0,511.0
518.0,493.0,531.0,513.0
508.0,495.0,524.0,515.0
513.0,496.0,516.0,517.0
498.0,491.0,508.0,518.0
494.0,491.0,500.0,517.0
492.0,494.0,496.0,516.0
498.0,500.0,493.0,516.0
504.0,502.0,489.0,514.0
510.0,506.0,492.0,513.0
509.0,506.0,496.0,510.0
524.0,505.0,506.0,509.0
535.0,513.0,513.0,508.0
530.0,515.0,519.0,509.0
536.0,517.0,527.0,510.0
534.0,515.0,537.0,511.0
527.0,511.0,538.0,513.0
524.0,509.0,537.0,513.0
520.0,504.0,532.0,514.0
508.0,497.0,523.0,514.0
499.0,497.0,515.0,517.0
500.0,505.0,502.0,519.0
501.0,507.0,498.0,519.0
504.0,503.0,494.0,518.0
505.0,506.0,490.0,515.0
506.0,499.0,493.0,514.0
504.0,510.0,495.0,512.0
507.0,515.0,498.0,509.0
510.0,507.0,506.0,508.0
515.0,507.0,513.0,509.0
522.0,509.0,527.0,510.0
526.0,513.0,531.0,509.0
529.0,510.0,537.0,512.0
523.0,508.0,538.0,512.0
519.0,505.0,536.0,512.0
511.0,492.0,532.0,515.0
504.0,488.0,520.0,518.0
501.0,489.0,509.0,518.0
497.0,489.0,501.0,518.0
497.0,493.0,497.0,517.0
501.0,495.0,492.0,512.0
506.0,504.0,493.0,514.0
505.0,512.0,491.0,512.0
506.0,506.0,494.0,510.0
510.0,505.0,502.0,508.0
514.0,506.0,510.0,508.0
520.0,515.0,517.0,508.0
530.0,517.0,527.0,508.0
532.0,511.0,536.0,506.0
527.0,505.0,539.0,510.0
520.0,514.0,537.0,512.0
512.0,505.0,535.0,511.0
494.0,483.0,527.0,517.0
491.0,492.0,517.0,514.0
492.0,495.0,508.0,514.0
492.0,499.0,501.0,515.0
493.0,501.0,496.0,514.0
492.0,504.0,492.0,516.0
501.0,507.0,493.0,515.0
507.0,510.0,493.0,514.0
509.0,503.0,495.0,509.0
514.0,501.0,503.0,510.0
518.0,506.0,513.0,506.0
538.0,514.0,520.0,508.0
536.0,521.0,529.0,508.0
533.0,513.0,536.0,510.0
531.0,507.0,536.0,511.0
524.0,499.0,537.0,519.0
518.0,495.0,532.0,526.0
505.0,493.0,524.0,517.0
501.0,490.0,508.0,520.0
499.0,490.0,504.0,514.0
500.0,493.0,500.0,508.0
502.0,500.0,492.0,518.0
503.0,503.0,493.0,514.0
508.0,516.0,493.0,511.0
505.0,518.0,495.0,512.0
506.0,512.0,497.0,508.0
508.0,506.0,503.0,506.0
512.0,510.0,514.0,505.0
519.0,510.0,523.0,506.0
521.0,512.0,534.0,512.0
518.0,506.0,539.0,519.0
516.0,507.0,536.0,514.0
501.0,508.0,533.0,511.0
492.0,497.0,530.0,511.0
495.0,493.0,522.0,512.0
496.0,497.0,513.0,516.0
495.0,498.0,504.0,517.0
500.0,502.0,497.0,518.0
502.0,504.0,491.0,515.0
521.0,514.0,490.0,516.0
523.0,514.0,492.0,512.0
521.0,506.0,493.0,508.0
519.0,503.0,499.0,506.0
519.0,504.0,508.0,507.0
525.0,501.0,516.0,506.0
537.0,505.0,527.0,504.0
537.0,515.0,536.0,505.0
534.0,517.0,536.0,509.0
527.0,511.0,537.0,512.0
525.0,501.0,534.0,511.0
512.0,490.0,525.0,512.0
510.0,491.0,517.0,517.0
500.0,493.0,507.0,517.0
495.0,499.0,495.0,518.0
502.0,504.0,494.0,515.0
504.0,507.0,488.0,515.0
507.0,513.0,490.0,512.0
507.0,512.0,494.0,512.0
511.0,511.0,498.0,510.0
514.0,511.0,503.0,508.0
519.0,507.0,511.0,505.0
523.0,512.0,519.0,506.0
526.0,512.0,528.0,510.0
527.0,505.0,535.0,513.0
524.0,510.0,537.0,513.0
520.0,503.0,536.0,515.0
524.0,498.0,531.0,513.0
509.0,488.0,524.0,514.0
502.0,485.0,515.0,517.0
500.0,492.0,505.0,518.0
501.0,501.0,495.0,518.0
498.0,499.0,493.0,516.0
502.0,506.0,493.0,513.0
508.0,509.0,493.0,513.0
505.0,510.0,490.0,511.0
507.0,507.0,499.0,509.0
509.0,508.0,503.0,508.0
518.0,512.0,513.0,508.0
523.0,519.0,525.0,506.0
528.0,511.0,533.0,509.0
527.0,510.0,539.0,509.0
523.0,506.0,539.0,511.0
519.0,500.0,535.0,513.0
509.0,494.0,529.0,510.0
502.0,487.0,520.0,516.0
499.0,490.0,510.0,518.0
498.0,493.0,502.0,520.0
499.0,498.0,498.0,518.0
502.0,507.0,494.0,516.0
505.0,514.0,492.0,517.0
505.0,511.0,493.0,513.0
509.0,512.0,495.0,513.0
509.0,504.0,501.0,509.0
513.0,505.0,510.0,504.0
518.0,513.0,520.0,509.0
522.0,512.0,530.0,510.0
525.0,508.0,536.0,508.0
527.0,512.0,541.0,510.0
521.0,504.0,540.0,515.0
518.0,502.0,537.0,515.0
508.0,495.0,532.0,517.0
498.0,490.0,519.0,518.0
496.0,487.0,506.0,519.0
499.0,494.0,500.0,518.0
499.0,503.0,494.0,519.0
497.0,502.0,493.0,518.0
506.0,515.0,493.0,516.0
506.0,516.0,493.0,512.0
508.0,517.0,494.0,511.0
511.0,510.0,503.0,507.0
517.0,508.0,513.0,509.0
522.0,510.0,523.0,510.0
527.0,514.0,531.0,508.0
530.0,513.0,538.0,510.0
526.0,508.0,541.0,513.0
521.0,501.0,537.0,510.0
515.0,491.0,533.0,511.0
505.0,489.0,522.0,517.0
499.0,493.0,512.0,519.0
498.0,498.0,505.0,526.0
500.0,508.0,495.0,522.0
501.0,506.0,489.0,523.0
507.0,512.0,490.0,517.0
504.0,515.0,491.0,507.0
509.0,516.0,494.0,512.0
509.0,514.0,497.0,515.0
512.0,507.0,507.0,508.0
517.0,510.0,516.0,508.0
525.0,494.0,524.0,505.0
534.0,491.0,535.0,510.0
526.0,493.0,539.0,512.0
525.0,492.0,540.0,509.0
518.0,502.0,537.0,514.0
506.0,512.0,533.0,513.0
492.0,490.0,519.0,517.0
488.0,488.0,508.0,519.0
485.0,500.0,501.0,517.0
491.0,503.0,493.0,523.0
500.0,511.0,491.0,516.0
501.0,518.0,493.0,516.0
503.0,512.0,493.0,514.0
502.0,506.0,493.0,515.0
503.0,507.0,497.0,509.0
507.0,517.0,507.0,508.0
507.0,508.0,516.0,507.0
511.0,512.0,525.0,509.0
521.0,512.0,534.0,508.0
532.0,514.0,537.0,509.0
541.0,507.0,536.0,514.0
534.0,501.0,539.0,515.0
513.0,486.0,525.0,513.0
502.0,492.0,518.0,518.0
501.0,495.0,507.0,520.0
493.0,492.0,499.0,520.0
498.0,500.0,494.0,521.0
502.0,509.0,492.0,522.0
510.0,509.0,488.0,518.0
502.0,508.0,493.0,511.0
502.0,509.0,497.0,509.0
513.0,504.0,501.0,506.0
531.0,509.0,509.0,519.0
540.0,518.0,516.0,519.0
542.0,514.0,525.0,506.0
536.0,506.0,536.0,507.0
535.0,506.0,541.0,507.0
530.0,499.0,540.0,510.0
520.0,504.0,533.0,512.0
507.0,496.0,522.0,516.0
505.0,497.0,511.0,516.0
504.0,500.0,503.0,526.0
504.0,505.0,498.0,538.0
502.0,500.0,490.0,526.0
506.0,505.0,492.0,523.0
511.0,507.0,493.0,517.0
512.0,509.0,492.0,500.0
514.0,508.0,496.0,501.0
522.0,507.0,508.0,506.0
518.0,501.0,518.0,527.0
524.0,510.0,521.0,532.0
527.0,507.0,527.0,509.0
526.0,500.0,536.0,501.0
526.0,493.0,535.0,513.0
517.0,483.0,532.0,505.0
505.0,486.0,528.0,525.0
498.0,491.0,524.0,508.0
493.0,496.0,512.0,510.0
497.0,500.0,503.0,513.0
501.0,507.0,496.0,515.0
501.0,509.0,493.0,512.0
505.0,508.0,493.0,514.0
509.0,506.0,492.0,526.0
509.0,505.0,492.0,542.0
508.0,502.0,498.0,509.0
514.0,517.0,505.0,507.0
516.0,515.0,515.0,494.0
522.0,519.0,526.0,507.0
530.0,513.0,540.0,503.0
525.0,509.0,542.0,510.0
522.0,506.0,540.0,512.0
518.0,506.0,536.0,508.0
503.0,494.0,525.0,512.0
501.0,497.0,517.0,516.0
498.0,500.0,508.0,517.0
497.0,499.0,501.0,518.0
497.0,499.0,496.0,517.0
502.0,501.0,493.0,511.0
504.0,511.0,489.0,516.0
505.0,509.0,494.0,517.0
506.0,513.0,497.0,518.0
508.0,508.0,502.0,514.0
513.0,508.0,512.0,511.0
522.0,507.0,522.0,502.0
525.0,508.0,528.0,510.0
526.0,509.0,537.0,513.0
527.0,513.0,539.0,514.0
513.0,504.0,537.0,511.0
513.0,506.0,535.0,511.0
508.0,502.0,526.0,518.0
503.0,491.0,516.0,520.0
496.0,498.0,505.0,520.0
495.0,502.0,497.0,521.0
499.0,504.0,492.0,520.0
500.0,501.0,491.0,517.0
502.0,503.0,493.0,516.0
509.0,507.0,492.0,514.0
518.0,508.0,493.0,519.0
515.0,509.0,503.0,505.0
517.0,514.0,514.0,512.0
524.0,519.0,526.0,506.0
526.0,511.0,534.0,513.0
527.0,507.0,539.0,514.0
525.0,513.0,538.0,531.0
519.0,509.0,537.0,535.0
509.0,511.0,529.0,498.0
502.0,497.0,518.0,508.0
492.0,492.0,515.0,521.0
495.0,494.0,508.0,539.0
491.0,469.0,495.0,527.0
491.0,491.0,489.0,519.0
494.0,512.0,494.0,523.0
494.0,505.0,492.0,525.0
501.0,497.0,497.0,506.0
514.0,497.0,504.0,517.0
528.0,491.0,509.0,504.0
534.0,497.0,512.0,495.0
533.0,496.0,524.0,502.0
521.0,497.0,531.0,516.0
518.0,513.0,545.0,528.0
517.0,531.0,543.0,515.0
508.0,529.0,534.0,511.0
493.0,507.0,529.0,513.0
489.0,502.0,519.0,513.0
489.0,495.0,510.0,533.0
496.0,493.0,504.0,513.0
493.0,459.0,494.0,502.0
505.0,491.0,484.0,524.0
527.0,525.0,492.0,522.0
519.0,523.0,489.0,505.0
505.0,515.0,496.0,508.0
497.0,529.0,507.0,516.0
516.0,537.0,514.0,510.0
519.0,540.0,512.0,506.0
531.0,538.0,530.0,502.0
530.0,525.0,544.0,489.0
527.0,485.0,543.0,508.0
531.0,477.0,537.0,527.0
536.0,493.0,531.0,530.0
524.0,492.0,523.0,504.0
518.0,495.0,520.0,506.0
506.0,495.0,510.0,515.0
504.0,490.0,495.0,512.0
509.0,496.0,488.0,519.0
508.0,501.0,491.0,528.0
510.0,500.0,486.0,520.0
508.0,502.0,494.0,520.0
509.0,499.0,500.0,497.0
515.0,496.0,500.0,500.0
517.0,483.0,526.0,525.0
518.0,490.0,537.0,510.0
526.0,500.0,528.0,498.0
530.0,503.0,535.0,508.0
533.0,498.0,537.0,517.0
525.0,500.0,537.0,515.0
511.0,540.0,535.0,516.0
508.0,522.0,526.0,516.0
502.0,511.0,509.0,525.0
496.0,508.0,499.0,516.0
493.0,505.0,499.0,533.0
492.0,512.0,496.0,520.0
496.0,523.0,482.0,528.0
510.0,520.0,482.0,508.0
516.0,518.0,497.0,487.0
518.0,513.0,510.0,505.0
518.0,513.0,513.0,515.0
520.0,513.0,516.0,512.0
524.0,515.0,534.0,523.0
533.0,514.0,538.0,502.0
529.0,510.0,535.0,514.0
524.0,507.0,538.0,534.0
522.0,506.0,537.0,511.0
511.0,495.0,533.0,518.0
508.0,494.0,519.0,536.0
499.0,490.0,496.0,522.0
493.0,492.0,502.0,503.0
490.0,495.0,498.0,508.0
482.0,497.0,496.0,510.0
496.0,507.0,494.0,507.0
501.0,509.0,489.0,507.0
505.0,506.0,497.0,508.0
504.0,511.0,505.0,520.0
524.0,512.0,514.0,496.0
531.0,510.0,521.0,503.0
539.0,509.0,537.0,511.0
535.0,509.0,542.0,517.0
532.0,507.0,537.0,516.0
528.0,506.0,535.0,519.0
521.0,501.0,529.0,504.0
504.0,488.0,528.0,516.0
505.0,489.0,520.0,524.0
503.0,492.0,502.0,535.0
494.0,493.0,489.0,521.0
489.0,490.0,491.0,553.0
493.0,498.0,491.0,521.0
499.0,509.0,486.0,497.0
505.0,517.0,510.0,511.0
506.0,509.0,497.0,538.0
522.0,509.0,502.0,509.0
538.0,527.0,516.0,483.0
532.0,539.0,533.0,527.0
530.0,544.0,535.0,505.0
521.0,532.0,538.0,476.0
502.0,511.0,547.0,502.0
484.0,477.0,543.0,523.0
464.0,465.0,527.0,506.0
462.0,477.0,517.0,509.0
472.0,478.0,508.0,527.0
472.0,483.0,494.0,553.0
498.0,494.0,498.0,535.0
529.0,501.0,498.0,506.0
537.0,510.0,499.0,516.0
517.0,510.0,492.0,511.0
502.0,505.0,495.0,504.0
510.0,508.0,506.0,552.0
511.0,507.0,497.0,558.0
497.0,501.0,503.0,543.0
499.0,506.0,539.0,456.0
495.0,512.0,540.0,496.0
479.0,498.0,548.0,534.0
477.0,489.0,555.0,516.0
484.0,491.0,542.0,530.0
482.0,481.0,518.0,544.0
507.0,489.0,514.0,511.0
540.0,500.0,516.0,482.0
539.0,504.0,505.0,506.0
562.0,508.0,479.0,513.0
523.0,499.0,491.0,522.0
508.0,512.0,510.0,515.0
509.0,516.0,500.0,508.0
504.0,507.0,509.0,502.0
514.0,508.0,521.0,496.0
537.0,522.0,501.0,470.0
540.0,537.0,505.0,496.0
532.0,529.0,523.0,526.0
519.0,518.0,536.0,500.0
505.0,506.0,538.0,531.0
500.0,496.0,541.0,534.0
504.0,469.0,525.0,497.0
487.0,452.0,522.0,509.0
462.0,450.0,515.0,527.0
438.0,464.0,515.0,515.0
447.0,481.0,506.0,494.0
468.0,506.0,496.0,508.0
517.0,559.0,486.0,528.0
507.0,573.0,487.0,522.0
494.0,539.0,505.0,523.0
553.0,536.0,479.0,498.0
534.0,472.0,484.0,501.0
513.0,474.0,515.0,510.0
507.0,496.0,521.0,491.0
493.0,494.0,555.0,510.0
499.0,503.0,567.0,509.0
552.0,530.0,545.0,536.0
577.0,526.0,507.0,565.0
554.0,502.0,541.0,495.0
531.0,495.0,539.0,499.0
530.0,502.0,502.0,523.0
498.0,497.0,497.0,498.0
508.0,501.0,511.0,498.0
499.0,504.0,505.0,503.0
503.0,507.0,501.0,547.0
509.0,510.0,484.0,499.0
522.0,517.0,486.0,522.0
566.0,537.0,496.0,517.0
565.0,533.0,529.0,502.0
549.0,510.0,546.0,507.0
548.0,519.0,526.0,504.0
521.0,504.0,515.0,523.0
515.0,501.0,539.0,496.0
485.0,498.0,561.0,470.0
485.0,500.0,525.0,545.0
452.0,482.0,496.0,497.0
450.0,488.0,519.0,472.0
485.0,488.0,538.0,526.0
499.0,496.0,569.0,549.0
479.0,490.0,533.0,509.0
562.0,510.0,468.0,494.0
548.0,520.0,458.0,517.0
538.0,528.0,494.0,535.0
527.0,533.0,530.0,511.0
536.0,518.0,470.0,502.0
555.0,513.0,470.0,513.0
562.0,509.0,518.0,517.0
573.0,519.0,519.0,517.0
559.0,525.0,532.0,489.0
532.0,522.0,568.0,498.0
488.0,498.0,612.0,563.0
467.0,489.0,568.0,534.0
437.0,477.0,485.0,487.0
432.0,485.0,512.0,473.0
446.0,488.0,490.0,548.0
475.0,496.0,453.0,536.0
508.0,502.0,459.0,538.0
519.0,504.0,543.0,546.0
547.0,517.0,504.0,500.0
540.0,511.0,519.0,561.0
514.0,512.0,504.0,518.0
511.0,508.0,493.0,488.0
520.0,510.0,523.0,552.0
520.0,510.0,582.0,511.0
510.0,506.0,579.0,490.0
483.0,501.0,546.0,492.0
459.0,493.0,555.0,524.0
455.0,494.0,517.0,540.0
445.0,492.0,484.0,510.0
439.0,487.0,533.0,453.0
444.0,481.0,539.0,455.0
482.0,485.0,511.0,507.0
581.0,507.0,539.0,530.0
597.0,502.0,517.0,529.0
580.0,513.0,531.0,569.0
571.0,510.0,506.0,537.0
532.0,514.0,463.0,581.0
504.0,508.0,497.0,630.0
501.0,515.0,496.0,441.0
502.0,521.0,559.0,436.0
504.0,507.0,683.0,550.0
510.0,501.0,690.0,514.0
520.0,500.0,491.0,493.0
445.0,477.0,460.0,488.0
369.0,477.0,589.0,539.0
337.0,465.0,532.0,496.0
305.0,450.0,394.0,528.0
344.0,466.0,479.0,601.0
443.0,484.0,582.0,423.0
501.0,486.0,549.0,497.0
555.0,497.0,499.0,488.0
605.0,536.0,533.0,517.0
572.0,543.0,497.0,517.0
576.0,535.0,558.0,524.0
582.0,536.0,504.0,480.0
552.0,527.0,441.0,484.0
531.0,499.0,457.0,498.0
540.0,470.0,514.0,514.0
567.0,511.0,537.0,515.0
543.0,511.0,549.0,551.0
507.0,490.0,578.0,532.0
564.0,499.0,552.0,513.0
539.0,507.0,529.0,464.0
530.0,505.0,489.0,536.0
511.0,498.0,483.0,539.0
482.0,501.0,465.0,515.0
492.0,492.0,475.0,528.0
481.0,495.0,535.0,574.0
461.0,501.0,519.0,501.0
451.0,497.0,542.0,485.0
473.0,500.0,509.0,555.0
419.0,485.0,492.0,598.0
414.0,494.0,538.0,486.0
398.0,484.0,694.0,459.0
456.0,510.0,653.0,477.0
494.0,500.0,442.0,422.0
510.0,491.0,493.0,562.0
554.0,499.0,482.0,587.0
617.0,529.0,506.0,493.0
644.0,533.0,560.0,497.0
615.0,504.0,506.0,515.0
591.0,527.0,412.0,550.0
570.0,534.0,537.0,404.0
550.0,509.0,531.0,632.0
564.0,441.0,567.0,561.0
539.0,447.0,479.0,446.0
535.0,495.0,452.0,529.0
540.0,467.0,577.0,543.0
480.0,472.0,599.0,502.0
468.0,492.0,474.0,480.0
490.0,550.0,536.0,553.0
507.0,559.0,622.0,497.0
505.0,537.0,712.0,497.0
496.0,545.0,532.0,417.0
524.0,548.0,416.0,535.0
467.0,505.0,516.0,598.0
413.0,495.0,484.0,582.0
433.0,505.0,449.0,458.0
502.0,514.0,571.0,501.0
507.0,506.0,528.0,615.0
533.0,499.0,450.0,456.0
547.0,507.0,532.0,488.0
562.0,521.0,593.0,518.0
553.0,526.0,524.0,590.0
569.0,535.0,508.0,560.0
543.0,514.0,478.0,487.0
574.0,526.0,483.0,494.0
592.0,524.0,607.0,493.0
580.0,513.0,572.0,474.0
563.0,516.0,443.0,443.0
547.0,502.0,532.0,540.0
548.0,521.0,612.0,506.0
521.0,500.0,554.0,463.0
507.0,505.0,530.0,546.0
504.0,495.0,497.0,535.0
499.0,484.0,494.0,560.0
496.0,491.0,632.0,528.0
493.0,503.0,567.0,492.0
506.0,504.0,473.0,486.0
514.0,518.0,389.0,532.0
510.0,509.0,494.0,501.0
506.0,498.0,521.0,495.0
469.0,493.0,542.0,511.0
458.0,508.0,581.0,483.0
460.0,503.0,628.0,576.0
464.0,500.0,476.0,519.0
485.0,501.0,446.0,506.0
474.0,494.0,562.0,518.0
571.0,527.0,489.0,470.0
532.0,524.0,481.0,531.0
466.0,518.0,482.0,469.0
411.0,508.0,492.0,501.0
432.0,509.0,495.0,525.0
436.0,436.0,539.0,586.0
400.0,425.0,489.0,519.0
357.0,450.0,476.0,493.0
344.0,471.0,529.0,416.0
302.0,446.0,555.0,489.0
271.0,437.0,532.0,551.0
295.0,445.0,512.0,543.0
448.0,488.0,605.0,559.0
623.0,532.0,542.0,503.0
731.0,543.0,494.0,488.0
722.0,562.0,602.0,552.0
713.0,543.0,540.0,475.0
670.0,530.0,493.0,464.0
616.0,513.0,678.0,557.0
591.0,483.0,805.0,584.0
589.0,481.0,470.0,515.0
546.0,487.0,257.0,449.0
503.0,523.0,560.0,562.0
477.0,502.0,547.0,550.0
486.0,490.0,465.0,530.0
482.0,474.0,491.0,539.0
505.0,469.0,417.0,401.0
470.0,458.0,423.0,521.0
485.0,487.0,590.0,605.0
555.0,513.0,511.0,523.0
565.0,528.0,568.0,497.0
567.0,511.0,620.0,515.0
602.0,536.0,511.0,471.0
539.0,547.0,477.0,505.0
473.0,529.0,493.0,487.0
440.0,537.0,522.0,552.0
374.0,531.0,513.0,504.0
340.0,511.0,536.0,491.0
394.0,470.0,571.0,550.0
480.0,486.0,514.0,524.0
473.0,488.0,592.0,503.0
558.0,539.0,713.0,521.0
667.0,578.0,627.0,544.0
635.0,557.0,369.0,516.0
629.0,541.0,433.0,463.0
613.0,504.0,487.0,488.0
594.0,462.0,504.0,543.0
564.0,487.0,506.0,533.0
558.0,484.0,482.0,514.0
547.0,479.0,525.0,527.0
517.0,487.0,491.0,482.0
498.0,489.0,498.0,511.0
462.0,521.0,494.0,490.0
434.0,527.0,522.0,375.0
396.0,497.0,561.0,552.0
406.0,468.0,518.0,613.0
433.0,482.0,482.0,540.0
423.0,492.0,489.0,529.0
474.0,507.0,476.0,506.0
533.0,495.0,493.0,511.0
578.0,488.0,516.0,506.0
613.0,477.0,525.0,588.0
649.0,496.0,464.0,419.0
613.0,537.0,564.0,428.0
581.0,530.0,669.0,543.0
559.0,532.0,567.0,468.0
549.0,531.0,476.0,487.0
536.0,519.0,528.0,516.0
526.0,515.0,532.0,532.0
521.0,524.0,528.0,565.0
515.0,526.0,539.0,514.0
502.0,513.0,657.0,478.0
