CH1,CH2,CH3,CH4
507.0,504.0,526.0,524.0
505.0,508.0,516.0,528.0
502.0,511.0,507.0,536.0
496.0,520.0,495.0,533.0
473.0,539.0,487.0,530.0
469.0,528.0,488.0,522.0
475.0,516.0,485.0,515.0
479.0,510.0,484.0,505.0
498.0,512.0,493.0,501.0
523.0,513.0,505.0,497.0
551.0,517.0,516.0,496.0
548.0,514.0,531.0,492.0
524.0,509.0,539.0,497.0
524.0,497.0,542.0,500.0
526.0,510.0,545.0,505.0
511.0,490.0,538.0,513.0
489.0,484.0,534.0,519.0
494.0,491.0,521.0,524.0
499.0,488.0,512.0,526.0
500.0,498.0,503.0,526.0
509.0,513.0,495.0,524.0
515.0,511.0,491.0,521.0
518.0,516.0,493.0,517.0
505.0,522.0,476.0,508.0
516.0,513.0,481.0,503.0
528.0,512.0,494.0,501.0
541.0,521.0,505.0,499.0
550.0,508.0,522.0,494.0
543.0,510.0,532.0,492.0
541.0,518.0,537.0,498.0
537.0,507.0,548.0,505.0
525.0,499.0,555.0,506.0
504.0,487.0,541.0,518.0
494.0,485.0,529.0,524.0
490.0,500.0,531.0,528.0
488.0,511.0,518.0,535.0
480.0,511.0,483.0,531.0
494.0,514.0,479.0,531.0
490.0,513.0,482.0,520.0
500.0,519.0,480.0,516.0
502.0,513.0,478.0,502.0
514.0,511.0,485.0,501.0
525.0,504.0,495.0,496.0
536.0,496.0,507.0,492.0
546.0,496.0,519.0,494.0
548.0,500.0,529.0,496.0
540.0,498.0,538.0,500.0
531.0,511.0,541.0,501.0
510.0,507.0,551.0,508.0
488.0,501.0,546.0,517.0
481.0,492.0,527.0,520.0
477.0,481.0,510.0,525.0
478.0,494.0,503.0,528.0
479.0,501.0,493.0,527.0
488.0,514.0,487.0,524.0
490.0,503.0,481.0,517.0
498.0,524.0,482.0,514.0
505.0,512.0,484.0,501.0
517.0,513.0,490.0,501.0
528.0,512.0,505.0,500.0
538.0,513.0,517.0,497.0
544.0,506.0,532.0,495.0
543.0,514.0,544.0,500.0
530.0,507.0,551.0,507.0
529.0,510.0,548.0,508.0
505.0,493.0,531.0,512.0
489.0,458.0,524.0,521.0
490.0,483.0,523.0,526.0
480.0,473.0,513.0,531.0
474.0,476.0,504.0,528.0
482.0,485.0,496.0,523.0
484.0,508.0,482.0,519.0
495.0,534.0,483.0,518.0
509.0,527.0,485.0,512.0
516.0,522.0,485.0,505.0
523.0,527.0,495.0,503.0
536.0,524.0,509.0,500.0
545.0,517.0,522.0,497.0
546.0,512.0,532.0,498.0
542.0,506.0,540.0,502.0
533.0,501.0,545.0,504.0
524.0,496.0,542.0,511.0
503.0,491.0,534.0,516.0
492.0,488.0,527.0,522.0
485.0,497.0,520.0,527.0
486.0,499.0,509.0,528.0
490.0,499.0,498.0,529.0
493.0,510.0,493.0,522.0
491.0,512.0,480.0,517.0
500.0,524.0,482.0,514.0
504.0,516.0,481.0,503.0
515.0,513.0,489.0,500.0
521.0,506.0,500.0,498.0
533.0,496.0,514.0,497.0
543.0,500.0,525.0,498.0
550.0,498.0,536.0,497.0
540.0,488.0,540.0,501.0
533.0,499.0,542.0,503.0
517.0,492.0,540.0,511.0
499.0,503.0,539.0,519.0
483.0,502.0,527.0,525.0
480.0,514.0,519.0,530.0
487.0,520.0,499.0,525.0
484.0,524.0,495.0,526.0
492.0,513.0,486.0,524.0
493.0,504.0,484.0,518.0
501.0,509.0,482.0,512.0
507.0,503.0,483.0,503.0
527.0,505.0,492.0,500.0
530.0,508.0,503.0,497.0
537.0,505.0,517.0,495.0
541.0,501.0,528.0,493.0
541.0,504.0,541.0,496.0
530.0,495.0,542.0,500.0
527.0,500.0,547.0,500.0
513.0,495.0,540.0,510.0
495.0,486.0,525.0,518.0
485.0,484.0,517.0,526.0
488.0,498.0,512.0,530.0
487.0,508.0,504.0,527.0
496.0,520.0,493.0,525.0
486.0,513.0,486.0,521.0
491.0,509.0,483.0,515.0
498.0,513.0,482.0,510.0
501.0,504.0,486.0,504.0
517.0,491.0,496.0,499.0
535.0,504.0,508.0,499.0
559.0,508.0,521.0,496.0
559.0,506.0,533.0,496.0
546.0,507.0,539.0,503.0
514.0,519.0,542.0,499.0
509.0,507.0,539.0,506.0
496.0,493.0,535.0,515.0
490.0,494.0,529.0,520.0
490.0,501.0,520.0,528.0
484.0,502.0,507.0,528.0
489.0,511.0,495.0,529.0
493.0,525.0,488.0,525.0
492.0,517.0,485.0,520.0
495.0,511.0,482.0,518.0
502.0,507.0,479.0,513.0
512.0,502.0,487.0,504.0
520.0,502.0,500.0,501.0
531.0,504.0,512.0,500.0
547.0,514.0,526.0,495.0
554.0,509.0,537.0,496.0
541.0,499.0,537.0,499.0
526.0,503.0,540.0,504.0
510.0,495.0,537.0,508.0
500.0,492.0,527.0,517.0
487.0,493.0,525.0,524.0
487.0,497.0,515.0,529.0
489.0,506.0,505.0,531.0
494.0,515.0,496.0,531.0
495.0,508.0,489.0,523.0
493.0,508.0,482.0,517.0
501.0,509.0,484.0,513.0
507.0,502.0,487.0,503.0
516.0,506.0,490.0,500.0
528.0,509.0,493.0,497.0
541.0,512.0,520.0,496.0
548.0,509.0,542.0,496.0
548.0,504.0,552.0,499.0
531.0,498.0,538.0,500.0
528.0,496.0,541.0,503.0
510.0,492.0,536.0,512.0
495.0,487.0,533.0,522.0
485.0,483.0,528.0,528.0
491.0,488.0,504.0,536.0
484.0,496.0,497.0,531.0
496.0,513.0,490.0,528.0
498.0,532.0,478.0,518.0
502.0,532.0,479.0,516.0
505.0,517.0,478.0,511.0
509.0,502.0,486.0,508.0
524.0,508.0,498.0,502.0
524.0,513.0,512.0,499.0
534.0,503.0,514.0,494.0
536.0,502.0,524.0,496.0
529.0,497.0,529.0,500.0
526.0,507.0,534.0,497.0
531.0,500.0,540.0,502.0
517.0,489.0,527.0,512.0
506.0,495.0,522.0,518.0
495.0,498.0,513.0,526.0
494.0,499.0,501.0,530.0
490.0,489.0,494.0,527.0
492.0,501.0,491.0,521.0
492.0,507.0,481.0,516.0
505.0,516.0,482.0,513.0
508.0,511.0,483.0,505.0
518.0,513.0,486.0,501.0
525.0,519.0,496.0,497.0
539.0,519.0,506.0,493.0
545.0,513.0,523.0,492.0
547.0,510.0,536.0,498.0
536.0,500.0,541.0,501.0
529.0,502.0,542.0,503.0
512.0,487.0,538.0,511.0
499.0,485.0,533.0,518.0
488.0,490.0,525.0,522.0
488.0,495.0,511.0,531.0
486.0,503.0,499.0,529.0
485.0,511.0,498.0,528.0
492.0,511.0,489.0,525.0
494.0,507.0,486.0,524.0
499.0,508.0,481.0,514.0
510.0,501.0,484.0,507.0
519.0,506.0,488.0,502.0
532.0,506.0,499.0,496.0
540.0,513.0,519.0,496.0
544.0,509.0,531.0,494.0
547.0,506.0,539.0,501.0
535.0,499.0,540.0,500.0
528.0,497.0,543.0,506.0
506.0,481.0,536.0,515.0
494.0,488.0,531.0,523.0
489.0,503.0,522.0,524.0
485.0,508.0,512.0,530.0
485.0,505.0,500.0,530.0
492.0,515.0,497.0,526.0
488.0,514.0,487.0,523.0
492.0,513.0,484.0,513.0
500.0,500.0,482.0,516.0
510.0,499.0,486.0,502.0
520.0,502.0,494.0,497.0
531.0,505.0,503.0,495.0
542.0,502.0,522.0,494.0
543.0,506.0,532.0,495.0
539.0,504.0,541.0,498.0
525.0,483.0,539.0,499.0
514.0,492.0,538.0,506.0
493.0,490.0,534.0,515.0
480.0,491.0,526.0,522.0
472.0,491.0,516.0,527.0
484.0,501.0,507.0,528.0
498.0,509.0,499.0,526.0
508.0,519.0,491.0,524.0
506.0,511.0,483.0,518.0
506.0,511.0,485.0,515.0
509.0,503.0,482.0,508.0
519.0,504.0,489.0,504.0
530.0,510.0,501.0,499.0
543.0,510.0,514.0,498.0
545.0,494.0,524.0,494.0
543.0,493.0,536.0,495.0
528.0,490.0,539.0,498.0
525.0,505.0,541.0,500.0
508.0,514.0,538.0,508.0
491.0,504.0,528.0,517.0
484.0,504.0,523.0,524.0
486.0,505.0,514.0,527.0
488.0,497.0,504.0,527.0
504.0,503.0,495.0,531.0
502.0,509.0,488.0,524.0
500.0,501.0,483.0,524.0
507.0,508.0,479.0,514.0
512.0,511.0,489.0,507.0
524.0,518.0,492.0,506.0
530.0,513.0,503.0,499.0
542.0,508.0,520.0,497.0
545.0,510.0,543.0,496.0
542.0,504.0,551.0,499.0
530.0,498.0,528.0,497.0
526.0,508.0,533.0,501.0
506.0,494.0,538.0,510.0
495.0,492.0,545.0,520.0
488.0,494.0,542.0,526.0
482.0,489.0,522.0,533.0
483.0,493.0,488.0,526.0
489.0,505.0,484.0,523.0
488.0,511.0,480.0,525.0
497.0,521.0,472.0,524.0
502.0,514.0,466.0,513.0
512.0,511.0,486.0,509.0
520.0,508.0,496.0,501.0
534.0,506.0,503.0,499.0
543.0,511.0,513.0,495.0
545.0,519.0,528.0,495.0
542.0,520.0,538.0,504.0
534.0,514.0,545.0,505.0
518.0,509.0,547.0,509.0
497.0,494.0,527.0,518.0
485.0,486.0,522.0,526.0
481.0,491.0,516.0,532.0
482.0,499.0,506.0,531.0
486.0,508.0,497.0,532.0
493.0,521.0,493.0,525.0
492.0,516.0,483.0,517.0
503.0,521.0,481.0,513.0
503.0,510.0,481.0,503.0
520.0,502.0,489.0,501.0
528.0,498.0,498.0,498.0
542.0,497.0,509.0,496.0
547.0,505.0,523.0,492.0
553.0,503.0,532.0,498.0
536.0,497.0,537.0,494.0
528.0,507.0,539.0,504.0
509.0,489.0,535.0,508.0
493.0,481.0,533.0,517.0
485.0,491.0,522.0,523.0
486.0,503.0,516.0,526.0
488.0,511.0,502.0,534.0
485.0,510.0,496.0,526.0
489.0,501.0,486.0,523.0
486.0,490.0,481.0,519.0
504.0,497.0,482.0,509.0
514.0,496.0,490.0,503.0
520.0,499.0,494.0,500.0
531.0,503.0,507.0,496.0
543.0,512.0,521.0,497.0
546.0,515.0,530.0,497.0
547.0,513.0,538.0,502.0
522.0,509.0,539.0,495.0
524.0,514.0,541.0,507.0
502.0,494.0,536.0,521.0
489.0,489.0,525.0,524.0
487.0,509.0,520.0,518.0
486.0,503.0,508.0,524.0
491.0,500.0,501.0,532.0
494.0,513.0,499.0,536.0
493.0,513.0,484.0,530.0
505.0,513.0,474.0,514.0
505.0,522.0,479.0,504.0
501.0,534.0,486.0,504.0
518.0,526.0,497.0,499.0
540.0,520.0,515.0,499.0
541.0,502.0,533.0,492.0
541.0,501.0,533.0,496.0
537.0,509.0,539.0,497.0
526.0,505.0,541.0,502.0
524.0,478.0,534.0,512.0
506.0,460.0,535.0,521.0
501.0,457.0,523.0,527.0
491.0,488.0,514.0,526.0
489.0,497.0,506.0,524.0
484.0,498.0,493.0,523.0
489.0,521.0,492.0,520.0
466.0,527.0,481.0,513.0
475.0,509.0,481.0,512.0
494.0,502.0,486.0,508.0
519.0,515.0,486.0,502.0
536.0,514.0,499.0,498.0
552.0,520.0,514.0,493.0
548.0,519.0,527.0,502.0
549.0,519.0,539.0,517.0
531.0,507.0,540.0,499.0
521.0,506.0,537.0,503.0
504.0,492.0,537.0,503.0
491.0,501.0,531.0,517.0
489.0,498.0,524.0,527.0
487.0,503.0,512.0,537.0
494.0,497.0,503.0,530.0
500.0,487.0,494.0,526.0
500.0,498.0,485.0,523.0
502.0,508.0,479.0,517.0
503.0,515.0,479.0,509.0
495.0,537.0,484.0,504.0
517.0,524.0,490.0,495.0
528.0,499.0,501.0,492.0
541.0,505.0,514.0,493.0
542.0,506.0,526.0,492.0
543.0,517.0,535.0,494.0
529.0,504.0,539.0,492.0
539.0,493.0,537.0,504.0
513.0,478.0,537.0,514.0
502.0,481.0,528.0,526.0
498.0,483.0,522.0,547.0
485.0,500.0,511.0,530.0
470.0,505.0,496.0,508.0
483.0,500.0,496.0,539.0
495.0,503.0,495.0,540.0
503.0,509.0,491.0,526.0
502.0,512.0,480.0,507.0
521.0,511.0,486.0,502.0
529.0,516.0,496.0,507.0
524.0,521.0,510.0,499.0
532.0,537.0,521.0,499.0
542.0,527.0,540.0,502.0
537.0,501.0,543.0,503.0
528.0,500.0,545.0,507.0
519.0,490.0,548.0,508.0
499.0,487.0,538.0,515.0
498.0,491.0,523.0,518.0
490.0,496.0,512.0,520.0
491.0,508.0,500.0,522.0
483.0,528.0,491.0,523.0
489.0,519.0,485.0,519.0
495.0,500.0,481.0,518.0
495.0,493.0,482.0,512.0
506.0,491.0,486.0,506.0
515.0,481.0,494.0,502.0
525.0,491.0,500.0,500.0
526.0,513.0,511.0,497.0
537.0,527.0,525.0,491.0
553.0,527.0,536.0,495.0
533.0,503.0,536.0,492.0
526.0,498.0,539.0,493.0
507.0,484.0,536.0,500.0
497.0,495.0,527.0,513.0
493.0,496.0,522.0,522.0
493.0,496.0,511.0,529.0
491.0,503.0,499.0,527.0
495.0,514.0,494.0,529.0
493.0,514.0,491.0,522.0
491.0,507.0,482.0,520.0
502.0,499.0,483.0,514.0
513.0,487.0,484.0,509.0
525.0,504.0,496.0,501.0
533.0,507.0,507.0,504.0
553.0,527.0,519.0,493.0
544.0,533.0,533.0,497.0
534.0,543.0,544.0,498.0
523.0,511.0,541.0,499.0
520.0,503.0,533.0,501.0
494.0,499.0,535.0,515.0
481.0,489.0,532.0,545.0
485.0,512.0,523.0,557.0
500.0,504.0,503.0,529.0
490.0,514.0,500.0,528.0
481.0,514.0,498.0,513.0
485.0,514.0,482.0,520.0
496.0,505.0,489.0,518.0
506.0,505.0,505.0,509.0
519.0,498.0,488.0,506.0
529.0,510.0,487.0,499.0
536.0,514.0,514.0,499.0
557.0,506.0,527.0,499.0
558.0,506.0,535.0,502.0
553.0,501.0,542.0,499.0
530.0,479.0,539.0,500.0
514.0,474.0,535.0,504.0
495.0,499.0,530.0,511.0
489.0,496.0,523.0,521.0
478.0,491.0,515.0,524.0
478.0,496.0,503.0,525.0
477.0,498.0,498.0,526.0
483.0,509.0,491.0,527.0
493.0,509.0,482.0,523.0
501.0,534.0,475.0,513.0
503.0,524.0,480.0,506.0
518.0,515.0,486.0,496.0
525.0,504.0,497.0,488.0
530.0,515.0,531.0,505.0
529.0,516.0,539.0,508.0
527.0,514.0,540.0,509.0
520.0,503.0,533.0,510.0
509.0,488.0,529.0,513.0
504.0,485.0,517.0,514.0
500.0,489.0,508.0,518.0
502.0,496.0,502.0,517.0
501.0,502.0,494.0,521.0
510.0,506.0,489.0,519.0
508.0,514.0,490.0,515.0
506.0,507.0,488.0,515.0
508.0,517.0,491.0,513.0
511.0,523.0,497.0,506.0
512.0,523.0,506.0,509.0
513.0,517.0,516.0,507.0
523.0,503.0,528.0,509.0
525.0,496.0,537.0,508.0
525.0,507.0,541.0,511.0
520.0,510.0,539.0,513.0
516.0,499.0,539.0,508.0
501.0,490.0,527.0,513.0
498.0,489.0,514.0,515.0
499.0,486.0,504.0,513.0
502.0,498.0,496.0,520.0
503.0,503.0,492.0,520.0
506.0,506.0,489.0,517.0
508.0,511.0,489.0,516.0
506.0,515.0,488.0,512.0
505.0,509.0,494.0,509.0
507.0,506.0,505.0,509.0
512.0,508.0,515.0,504.0
523.0,498.0,528.0,506.0
531.0,513.0,525.0,509.0
530.0,497.0,537.0,505.0
529.0,508.0,535.0,504.0
522.0,496.0,539.0,510.0
513.0,501.0,531.0,511.0
497.0,493.0,519.0,516.0
493.0,497.0,511.0,517.0
498.0,500.0,501.0,516.0
503.0,511.0,497.0,519.0
501.0,527.0,493.0,517.0
502.0,535.0,491.0,517.0
509.0,519.0,488.0,513.0
511.0,514.0,492.0,515.0
508.0,507.0,492.0,510.0
508.0,494.0,503.0,507.0
518.0,498.0,514.0,507.0
526.0,500.0,526.0,506.0
531.0,499.0,537.0,509.0
530.0,501.0,540.0,506.0
531.0,516.0,540.0,511.0
524.0,524.0,536.0,512.0
510.0,516.0,529.0,510.0
504.0,511.0,514.0,512.0
499.0,510.0,505.0,519.0
492.0,474.0,500.0,519.0
491.0,468.0,491.0,518.0
494.0,511.0,489.0,519.0
504.0,517.0,487.0,516.0
502.0,513.0,491.0,514.0
504.0,515.0,494.0,510.0
505.0,511.0,498.0,508.0
511.0,510.0,505.0,506.0
518.0,513.0,514.0,505.0
525.0,519.0,527.0,501.0
529.0,520.0,531.0,503.0
528.0,517.0,539.0,507.0
522.0,501.0,538.0,509.0
510.0,490.0,534.0,510.0
498.0,483.0,525.0,513.0
499.0,491.0,516.0,515.0
497.0,493.0,506.0,517.0
495.0,496.0,497.0,520.0
502.0,502.0,492.0,517.0
503.0,500.0,489.0,518.0
509.0,512.0,489.0,516.0
510.0,512.0,490.0,515.0
508.0,511.0,493.0,508.0
509.0,509.0,499.0,508.0
514.0,511.0,512.0,505.0
520.0,508.0,520.0,507.0
524.0,519.0,529.0,508.0
523.0,494.0,538.0,508.0
528.0,500.0,539.0,510.0
519.0,498.0,536.0,512.0
514.0,495.0,533.0,510.0
501.0,482.0,519.0,513.0
497.0,481.0,513.0,519.0
494.0,494.0,506.0,521.0
501.0,506.0,499.0,521.0
504.0,497.0,498.0,522.0
511.0,504.0,492.0,520.0
513.0,505.0,492.0,518.0
511.0,513.0,493.0,514.0
512.0,513.0,497.0,512.0
513.0,512.0,508.0,510.0
513.0,519.0,516.0,508.0
515.0,524.0,524.0,506.0
522.0,523.0,532.0,504.0
527.0,515.0,537.0,500.0
528.0,513.0,527.0,503.0
520.0,500.0,526.0,505.0
504.0,487.0,524.0,509.0
495.0,484.0,517.0,512.0
491.0,484.0,509.0,516.0
491.0,494.0,502.0,515.0
498.0,492.0,493.0,519.0
505.0,501.0,487.0,516.0
512.0,508.0,487.0,513.0
515.0,511.0,486.0,510.0
515.0,525.0,493.0,509.0
510.0,514.0,496.0,507.0
515.0,512.0,508.0,504.0
520.0,512.0,517.0,507.0
523.0,512.0,526.0,506.0
520.0,500.0,535.0,507.0
527.0,502.0,539.0,506.0
518.0,504.0,537.0,505.0
518.0,523.0,530.0,506.0
499.0,502.0,523.0,510.0
496.0,492.0,512.0,512.0
497.0,501.0,502.0,515.0
501.0,508.0,495.0,519.0
500.0,508.0,492.0,519.0
505.0,510.0,493.0,515.0
509.0,518.0,492.0,516.0
509.0,515.0,493.0,515.0
508.0,514.0,496.0,510.0
511.0,513.0,498.0,509.0
515.0,527.0,505.0,504.0
525.0,530.0,516.0,503.0
530.0,533.0,527.0,504.0
524.0,510.0,535.0,506.0
523.0,460.0,536.0,508.0
519.0,469.0,535.0,510.0
516.0,474.0,530.0,509.0
501.0,473.0,520.0,513.0
495.0,488.0,508.0,516.0
495.0,507.0,500.0,516.0
500.0,506.0,492.0,518.0
503.0,513.0,491.0,518.0
508.0,530.0,490.0,517.0
508.0,528.0,489.0,515.0
504.0,518.0,491.0,510.0
504.0,515.0,497.0,508.0
508.0,495.0,504.0,505.0
512.0,503.0,510.0,505.0
517.0,504.0,528.0,509.0
525.0,514.0,531.0,508.0
523.0,515.0,546.0,512.0
526.0,518.0,545.0,509.0
521.0,509.0,532.0,511.0
506.0,480.0,528.0,513.0
496.0,480.0,518.0,517.0
494.0,488.0,508.0,518.0
496.0,491.0,501.0,520.0
501.0,496.0,495.0,523.0
502.0,510.0,492.0,517.0
509.0,524.0,491.0,518.0
508.0,519.0,488.0,514.0
510.0,508.0,490.0,513.0
506.0,494.0,498.0,507.0
511.0,501.0,504.0,505.0
522.0,506.0,518.0,507.0
526.0,505.0,529.0,509.0
532.0,498.0,535.0,508.0
531.0,492.0,541.0,509.0
522.0,488.0,540.0,508.0
512.0,502.0,536.0,509.0
500.0,495.0,528.0,512.0
498.0,493.0,518.0,515.0
498.0,505.0,508.0,516.0
504.0,512.0,496.0,517.0
505.0,514.0,490.0,516.0
504.0,511.0,485.0,513.0
514.0,510.0,488.0,515.0
513.0,501.0,484.0,513.0
507.0,501.0,492.0,510.0
510.0,502.0,502.0,505.0
512.0,506.0,508.0,505.0
519.0,522.0,520.0,502.0
520.0,525.0,529.0,503.0
523.0,514.0,536.0,503.0
527.0,512.0,535.0,506.0
514.0,499.0,534.0,508.0
512.0,493.0,533.0,508.0
496.0,480.0,520.0,512.0
496.0,483.0,512.0,514.0
498.0,490.0,500.0,517.0
500.0,496.0,495.0,519.0
506.0,506.0,490.0,516.0
509.0,511.0,490.0,516.0
510.0,502.0,490.0,512.0
507.0,521.0,492.0,510.0
503.0,506.0,496.0,506.0
510.0,502.0,506.0,503.0
516.0,513.0,517.0,505.0
517.0,517.0,526.0,506.0
524.0,518.0,535.0,507.0
527.0,513.0,540.0,510.0
527.0,516.0,537.0,507.0
521.0,501.0,533.0,509.0
510.0,492.0,526.0,512.0
507.0,497.0,515.0,517.0
501.0,512.0,505.0,515.0
499.0,526.0,498.0,517.0
497.0,509.0,493.0,518.0
493.0,495.0,490.0,519.0
509.0,517.0,489.0,516.0
507.0,498.0,490.0,510.0
510.0,507.0,494.0,509.0
508.0,506.0,496.0,506.0
514.0,498.0,507.0,504.0
518.0,501.0,515.0,507.0
518.0,502.0,527.0,509.0
520.0,508.0,538.0,508.0
522.0,509.0,541.0,510.0
519.0,500.0,538.0,509.0
515.0,499.0,533.0,511.0
496.0,492.0,525.0,509.0
493.0,481.0,512.0,515.0
494.0,491.0,501.0,515.0
499.0,502.0,497.0,518.0
500.0,503.0,491.0,520.0
500.0,512.0,490.0,516.0
507.0,501.0,490.0,516.0
509.0,496.0,492.0,512.0
507.0,505.0,493.0,509.0
506.0,509.0,500.0,508.0
513.0,512.0,513.0,507.0
523.0,518.0,521.0,504.0
523.0,524.0,531.0,506.0
524.0,513.0,543.0,508.0
526.0,506.0,540.0,512.0
518.0,504.0,539.0,513.0
516.0,498.0,535.0,513.0
500.0,488.0,519.0,513.0
495.0,483.0,508.0,517.0
495.0,491.0,500.0,519.0
505.0,492.0,496.0,519.0
508.0,489.0,493.0,516.0
515.0,506.0,493.0,517.0
516.0,512.0,496.0,518.0
517.0,518.0,494.0,517.0
513.0,521.0,495.0,510.0
505.0,517.0,505.0,510.0
509.0,499.0,513.0,506.0
518.0,512.0,522.0,504.0
528.0,517.0,530.0,506.0
521.0,513.0,536.0,504.0
524.0,511.0,539.0,507.0
517.0,504.0,539.0,500.0
503.0,491.0,522.0,507.0
498.0,491.0,511.0,510.0
496.0,498.0,505.0,516.0
492.0,503.0,499.0,519.0
498.0,504.0,494.0,519.0
501.0,503.0,491.0,518.0
507.0,508.0,491.0,518.0
508.0,504.0,488.0,512.0
509.0,507.0,491.0,509.0
512.0,504.0,495.0,506.0
516.0,507.0,507.0,506.0
520.0,513.0,517.0,506.0
524.0,514.0,527.0,505.0
525.0,513.0,536.0,507.0
522.0,505.0,538.0,513.0
521.0,496.0,536.0,514.0
516.0,492.0,535.0,512.0
501.0,472.0,525.0,515.0
495.0,475.0,513.0,515.0
500.0,503.0,505.0,518.0
507.0,521.0,497.0,519.0
507.0,511.0,493.0,519.0
509.0,504.0,488.0,521.0
511.0,515.0,488.0,510.0
513.0,511.0,487.0,508.0
511.0,507.0,490.0,503.0
506.0,513.0,496.0,500.0
513.0,513.0,511.0,503.0
519.0,521.0,520.0,505.0
524.0,516.0,528.0,505.0
523.0,507.0,535.0,506.0
525.0,501.0,544.0,506.0
515.0,493.0,538.0,510.0
512.0,503.0,531.0,512.0
501.0,484.0,523.0,513.0
499.0,495.0,512.0,519.0
497.0,508.0,502.0,521.0
503.0,507.0,496.0,519.0
506.0,508.0,490.0,517.0
509.0,511.0,488.0,517.0
513.0,513.0,487.0,514.0
508.0,503.0,490.0,511.0
507.0,503.0,500.0,502.0
509.0,508.0,503.0,502.0
516.0,505.0,513.0,505.0
527.0,514.0,525.0,502.0
526.0,513.0,533.0,503.0
526.0,507.0,542.0,507.0
524.0,499.0,542.0,506.0
519.0,495.0,538.0,508.0
514.0,492.0,527.0,510.0
507.0,499.0,514.0,512.0
503.0,512.0,504.0,517.0
501.0,513.0,499.0,520.0
499.0,469.0,496.0,519.0
501.0,490.0,492.0,518.0
505.0,501.0,493.0,518.0
506.0,503.0,492.0,515.0
498.0,499.0,495.0,512.0
507.0,503.0,499.0,509.0
513.0,516.0,508.0,514.0
517.0,520.0,522.0,510.0
526.0,521.0,532.0,511.0
526.0,522.0,536.0,510.0
529.0,510.0,539.0,508.0
523.0,493.0,535.0,508.0
517.0,494.0,530.0,508.0
502.0,479.0,520.0,513.0
498.0,480.0,513.0,515.0
502.0,485.0,506.0,518.0
503.0,500.0,496.0,519.0
508.0,515.0,488.0,518.0
507.0,517.0,488.0,514.0
501.0,522.0,485.0,508.0
502.0,512.0,485.0,508.0
506.0,502.0,491.0,510.0
503.0,496.0,501.0,507.0
512.0,499.0,507.0,505.0
521.0,513.0,523.0,502.0
524.0,526.0,531.0,505.0
523.0,514.0,536.0,504.0
526.0,507.0,537.0,507.0
520.0,507.0,534.0,507.0
517.0,503.0,528.0,511.0
500.0,472.0,519.0,514.0
501.0,505.0,506.0,519.0
494.0,493.0,501.0,518.0
496.0,498.0,495.0,517.0
501.0,506.0,486.0,517.0
505.0,508.0,490.0,515.0
504.0,508.0,490.0,513.0
507.0,520.0,492.0,510.0
512.0,515.0,495.0,505.0
512.0,522.0,503.0,505.0
521.0,521.0,517.0,509.0
523.0,514.0,527.0,509.0
529.0,511.0,538.0,510.0
526.0,508.0,547.0,509.0
522.0,506.0,542.0,514.0
520.0,501.0,538.0,511.0
503.0,489.0,531.0,514.0
494.0,489.0,514.0,512.0
496.0,482.0,504.0,513.0
498.0,489.0,496.0,515.0
503.0,507.0,488.0,515.0
508.0,509.0,487.0,514.0
508.0,513.0,486.0,513.0
507.0,504.0,488.0,511.0
509.0,503.0,491.0,507.0
507.0,501.0,497.0,505.0
512.0,513.0,509.0,506.0
520.0,528.0,517.0,507.0
527.0,527.0,529.0,506.0
525.0,523.0,538.0,509.0
523.0,484.0,540.0,510.0
519.0,485.0,542.0,512.0
514.0,505.0,537.0,512.0
499.0,491.0,525.0,515.0
498.0,491.0,518.0,519.0
498.0,489.0,508.0,518.0
501.0,488.0,497.0,521.0
498.0,489.0,494.0,521.0
504.0,491.0,489.0,521.0
509.0,495.0,488.0,518.0
508.0,505.0,494.0,515.0
506.0,511.0,492.0,508.0
514.0,508.0,500.0,504.0
515.0,516.0,510.0,501.0
523.0,518.0,518.0,501.0
530.0,509.0,531.0,506.0
529.0,504.0,539.0,506.0
531.0,504.0,546.0,507.0
524.0,504.0,535.0,509.0
518.0,500.0,534.0,512.0
506.0,499.0,522.0,514.0
489.0,501.0,511.0,519.0
489.0,504.0,506.0,521.0
499.0,502.0,495.0,519.0
502.0,504.0,484.0,518.0
505.0,509.0,489.0,514.0
507.0,514.0,488.0,510.0
506.0,520.0,494.0,507.0
510.0,505.0,492.0,512.0
514.0,503.0,503.0,505.0
517.0,494.0,514.0,506.0
518.0,493.0,525.0,506.0
520.0,538.0,535.0,509.0
524.0,526.0,542.0,512.0
523.0,513.0,543.0,513.0
522.0,509.0,536.0,514.0
504.0,485.0,531.0,517.0
496.0,482.0,518.0,517.0
493.0,496.0,506.0,515.0
497.0,502.0,495.0,516.0
505.0,515.0,488.0,516.0
505.0,512.0,485.0,510.0
509.0,515.0,483.0,508.0
505.0,511.0,488.0,508.0
509.0,506.0,494.0,507.0
506.0,500.0,500.0,504.0
514.0,502.0,504.0,502.0
518.0,505.0,513.0,501.0
524.0,501.0,522.0,504.0
525.0,496.0,535.0,504.0
527.0,495.0,537.0,507.0
521.0,497.0,539.0,508.0
518.0,504.0,533.0,508.0
506.0,498.0,523.0,510.0
503.0,494.0,513.0,514.0
496.0,497.0,500.0,515.0
495.0,505.0,495.0,518.0
500.0,502.0,489.0,521.0
505.0,505.0,488.0,516.0
509.0,516.0,488.0,515.0
506.0,503.0,491.0,513.0
513.0,518.0,495.0,507.0
515.0,518.0,500.0,506.0
511.0,514.0,512.0,506.0
524.0,522.0,522.0,504.0
529.0,514.0,530.0,507.0
525.0,499.0,538.0,506.0
524.0,490.0,539.0,510.0
519.0,485.0,535.0,511.0
508.0,481.0,529.0,510.0
498.0,481.0,521.0,515.0
493.0,500.0,510.0,517.0
501.0,509.0,499.0,519.0
500.0,512.0,495.0,520.0
506.0,513.0,489.0,521.0
505.0,511.0,490.0,517.0
504.0,470.0,490.0,517.0
505.0,477.0,495.0,511.0
513.0,500.0,495.0,509.0
515.0,516.0,506.0,507.0
520.0,514.0,512.0,505.0
530.0,513.0,527.0,506.0
530.0,516.0,536.0,506.0
525.0,522.0,537.0,506.0
523.0,515.0,536.0,508.0
519.0,510.0,533.0,509.0
503.0,495.0,526.0,512.0
496.0,485.0,514.0,516.0
498.0,493.0,505.0,518.0
493.0,512.0,497.0,518.0
498.0,522.0,495.0,520.0
504.0,516.0,490.0,518.0
509.0,519.0,488.0,515.0
509.0,517.0,492.0,514.0
508.0,505.0,492.0,513.0
505.0,497.0,499.0,508.0
509.0,516.0,506.0,505.0
516.0,527.0,517.0,507.0
526.0,528.0,529.0,508.0
527.0,522.0,537.0,507.0
524.0,500.0,544.0,509.0
518.0,493.0,539.0,512.0
515.0,497.0,538.0,513.0
502.0,484.0,529.0,517.0
494.0,477.0,516.0,522.0
493.0,482.0,504.0,526.0
498.0,490.0,499.0,528.0
503.0,498.0,491.0,525.0
503.0,506.0,491.0,514.0
511.0,511.0,489.0,511.0
511.0,510.0,486.0,511.0
509.0,501.0,491.0,503.0
509.0,501.0,502.0,504.0
517.0,518.0,508.0,507.0
525.0,516.0,522.0,504.0
528.0,510.0,529.0,503.0
525.0,510.0,537.0,503.0
522.0,511.0,538.0,508.0
518.0,502.0,533.0,509.0
511.0,495.0,527.0,509.0
500.0,489.0,518.0,513.0
497.0,492.0,508.0,515.0
498.0,501.0,503.0,520.0
502.0,506.0,491.0,521.0
506.0,513.0,491.0,517.0
509.0,513.0,492.0,515.0
508.0,522.0,490.0,514.0
511.0,518.0,489.0,514.0
511.0,509.0,496.0,509.0
515.0,512.0,503.0,506.0
517.0,506.0,513.0,508.0
523.0,498.0,534.0,508.0
529.0,497.0,535.0,508.0
529.0,498.0,536.0,508.0
523.0,510.0,535.0,510.0
518.0,506.0,533.0,507.0
499.0,492.0,523.0,509.0
491.0,489.0,511.0,512.0
492.0,486.0,501.0,512.0
496.0,491.0,494.0,517.0
499.0,500.0,491.0,517.0
506.0,515.0,485.0,519.0
510.0,528.0,486.0,515.0
514.0,516.0,488.0,510.0
514.0,505.0,491.0,508.0
510.0,502.0,498.0,507.0
518.0,503.0,506.0,506.0
521.0,506.0,519.0,507.0
524.0,509.0,527.0,510.0
524.0,503.0,537.0,509.0
522.0,502.0,539.0,511.0
520.0,504.0,540.0,510.0
516.0,499.0,532.0,515.0
501.0,482.0,525.0,516.0
499.0,481.0,516.0,518.0
498.0,491.0,504.0,518.0
505.0,509.0,492.0,517.0
507.0,507.0,487.0,516.0
508.0,508.0,490.0,516.0
504.0,517.0,487.0,511.0
503.0,508.0,487.0,511.0
503.0,513.0,498.0,508.0
508.0,510.0,507.0,507.0
513.0,520.0,513.0,506.0
521.0,521.0,524.0,505.0
524.0,517.0,531.0,509.0
525.0,514.0,543.0,510.0
524.0,507.0,541.0,511.0
521.0,494.0,534.0,509.0
512.0,480.0,528.0,510.0
499.0,473.0,513.0,513.0
501.0,480.0,508.0,513.0
497.0,494.0,497.0,516.0
501.0,523.0,492.0,519.0
507.0,514.0,488.0,517.0
503.0,510.0,490.0,515.0
506.0,514.0,489.0,514.0
509.0,516.0,494.0,515.0
507.0,505.0,499.0,508.0
511.0,509.0,508.0,508.0
520.0,515.0,519.0,507.0
526.0,515.0,529.0,506.0
528.0,526.0,535.0,506.0
529.0,528.0,538.0,510.0
525.0,532.0,540.0,508.0
524.0,519.0,532.0,514.0
502.0,446.0,528.0,511.0
495.0,459.0,518.0,514.0
502.0,486.0,507.0,519.0
498.0,493.0,497.0,525.0
505.0,502.0,494.0,520.0
509.0,503.0,490.0,517.0
510.0,501.0,485.0,513.0
508.0,530.0,490.0,514.0
515.0,515.0,496.0,514.0
510.0,495.0,500.0,509.0
509.0,489.0,510.0,508.0
511.0,490.0,521.0,508.0
521.0,509.0,530.0,506.0
520.0,526.0,537.0,508.0
519.0,518.0,539.0,504.0
518.0,514.0,536.0,506.0
521.0,506.0,532.0,509.0
505.0,497.0,522.0,513.0
498.0,495.0,512.0,513.0
495.0,496.0,502.0,518.0
497.0,486.0,496.0,517.0
498.0,488.0,489.0,517.0
500.0,512.0,490.0,513.0
508.0,517.0,487.0,517.0
512.0,516.0,492.0,508.0
512.0,509.0,495.0,506.0
513.0,515.0,503.0,505.0
516.0,498.0,514.0,505.0
521.0,490.0,521.0,507.0
527.0,493.0,533.0,505.0
531.0,493.0,541.0,509.0
531.0,510.0,540.0,510.0
522.0,505.0,542.0,512.0
514.0,494.0,532.0,511.0
504.0,486.0,519.0,508.0
499.0,504.0,510.0,516.0
495.0,516.0,499.0,519.0
494.0,513.0,492.0,519.0
501.0,513.0,491.0,515.0
504.0,512.0,487.0,516.0
504.0,514.0,490.0,513.0
504.0,516.0,491.0,508.0
504.0,507.0,500.0,505.0
511.0,506.0,508.0,504.0
516.0,508.0,524.0,507.0
526.0,512.0,526.0,505.0
528.0,515.0,535.0,505.0
527.0,514.0,537.0,514.0
523.0,512.0,536.0,510.0
516.0,507.0,534.0,512.0
505.0,490.0,527.0,512.0
501.0,490.0,516.0,514.0
495.0,496.0,503.0,516.0
497.0,499.0,500.0,519.0
499.0,502.0,492.0,520.0
508.0,505.0,491.0,518.0
511.0,508.0,489.0,519.0
514.0,508.0,489.0,513.0
512.0,514.0,493.0,511.0
508.0,505.0,501.0,507.0
515.0,508.0,511.0,505.0
519.0,515.0,522.0,506.0
526.0,514.0,531.0,506.0
526.0,512.0,542.0,507.0
522.0,506.0,542.0,511.0
520.0,500.0,540.0,511.0
518.0,512.0,535.0,511.0
507.0,499.0,522.0,513.0
500.0,497.0,507.0,513.0
499.0,507.0,501.0,517.0
502.0,479.0,493.0,522.0
504.0,500.0,492.0,520.0
506.0,508.0,491.0,517.0
507.0,499.0,488.0,517.0
504.0,511.0,489.0,511.0
505.0,508.0,493.0,508.0
511.0,509.0,505.0,507.0
514.0,507.0,516.0,505.0
521.0,512.0,524.0,507.0
528.0,516.0,533.0,507.0
527.0,511.0,540.0,509.0
523.0,504.0,541.0,509.0
518.0,490.0,535.0,509.0
504.0,480.0,531.0,511.0
494.0,484.0,520.0,509.0
496.0,494.0,506.0,511.0
498.0,498.0,494.0,515.0
500.0,497.0,490.0,515.0
505.0,494.0,488.0,514.0
508.0,490.0,485.0,517.0
511.0,494.0,485.0,510.0
511.0,498.0,489.0,508.0
509.0,518.0,497.0,504.0
510.0,520.0,506.0,504.0
516.0,517.0,516.0,505.0
528.0,512.0,527.0,506.0
533.0,511.0,534.0,504.0
528.0,518.0,539.0,509.0
524.0,521.0,537.0,507.0
519.0,517.0,535.0,509.0
503.0,495.0,522.0,513.0
497.0,489.0,513.0,513.0
493.0,493.0,502.0,518.0
499.0,494.0,496.0,520.0
503.0,500.0,493.0,517.0
505.0,496.0,485.0,516.0
512.0,500.0,495.0,517.0
509.0,504.0,491.0,514.0
511.0,506.0,495.0,511.0
514.0,502.0,507.0,512.0
515.0,513.0,512.0,509.0
519.0,519.0,521.0,509.0
524.0,514.0,531.0,508.0
521.0,509.0,539.0,507.0
520.0,512.0,536.0,506.0
518.0,508.0,535.0,507.0
520.0,504.0,530.0,506.0
502.0,494.0,523.0,510.0
497.0,493.0,512.0,513.0
498.0,494.0,503.0,515.0
496.0,498.0,494.0,520.0
493.0,505.0,491.0,518.0
500.0,509.0,490.0,516.0
505.0,508.0,494.0,514.0
509.0,522.0,492.0,510.0
514.0,518.0,493.0,508.0
518.0,512.0,502.0,504.0
522.0,508.0,511.0,506.0
527.0,507.0,524.0,508.0
531.0,513.0,534.0,505.0
525.0,508.0,536.0,505.0
519.0,506.0,540.0,503.0
510.0,507.0,537.0,510.0
503.0,499.0,526.0,510.0
496.0,492.0,515.0,515.0
498.0,492.0,506.0,515.0
495.0,492.0,498.0,515.0
499.0,504.0,491.0,518.0
502.0,515.0,487.0,518.0
506.0,515.0,486.0,513.0
510.0,514.0,490.0,511.0
507.0,504.0,491.0,510.0
502.0,492.0,497.0,507.0
516.0,507.0,506.0,505.0
519.0,520.0,517.0,506.0
529.0,517.0,528.0,506.0
529.0,508.0,535.0,508.0
526.0,498.0,541.0,507.0
523.0,496.0,542.0,510.0
519.0,496.0,536.0,513.0
497.0,485.0,527.0,514.0
499.0,491.0,516.0,515.0
499.0,494.0,504.0,518.0
501.0,492.0,496.0,519.0
501.0,495.0,492.0,519.0
507.0,502.0,495.0,518.0
516.0,513.0,492.0,515.0
514.0,507.0,493.0,514.0
512.0,507.0,492.0,515.0
511.0,500.0,501.0,510.0
516.0,518.0,511.0,507.0
515.0,534.0,521.0,506.0
526.0,531.0,531.0,505.0
522.0,521.0,539.0,507.0
515.0,472.0,538.0,510.0
519.0,478.0,536.0,513.0
511.0,481.0,531.0,512.0
496.0,492.0,519.0,513.0
494.0,487.0,507.0,517.0
495.0,495.0,495.0,515.0
502.0,505.0,493.0,514.0
503.0,516.0,489.0,515.0
507.0,513.0,497.0,513.0
514.0,518.0,489.0,513.0
512.0,517.0,491.0,509.0
508.0,514.0,493.0,509.0
515.0,503.0,502.0,506.0
517.0,507.0,509.0,502.0
521.0,509.0,524.0,507.0
524.0,511.0,537.0,511.0
524.0,501.0,547.0,511.0
522.0,503.0,537.0,508.0
517.0,501.0,535.0,511.0
507.0,493.0,526.0,516.0
500.0,488.0,517.0,515.0
499.0,491.0,508.0,518.0
507.0,503.0,497.0,522.0
514.0,512.0,490.0,520.0
506.0,515.0,490.0,517.0
504.0,511.0,491.0,513.0
505.0,538.0,489.0,513.0
502.0,502.0,491.0,510.0
505.0,488.0,503.0,507.0
508.0,499.0,514.0,509.0
517.0,514.0,522.0,513.0
521.0,522.0,525.0,512.0
526.0,518.0,538.0,510.0
528.0,510.0,545.0,510.0
523.0,509.0,535.0,510.0
516.0,504.0,530.0,507.0
502.0,496.0,518.0,504.0
496.0,491.0,509.0,510.0
499.0,497.0,501.0,511.0
503.0,502.0,494.0,515.0
504.0,507.0,487.0,517.0
504.0,515.0,486.0,514.0
509.0,509.0,487.0,517.0
511.0,513.0,488.0,511.0
511.0,515.0,493.0,507.0
510.0,498.0,497.0,506.0
515.0,501.0,509.0,504.0
522.0,501.0,519.0,511.0
525.0,499.0,533.0,505.0
525.0,498.0,538.0,508.0
526.0,494.0,538.0,508.0
521.0,500.0,534.0,508.0
512.0,499.0,531.0,510.0
501.0,492.0,516.0,513.0
498.0,491.0,506.0,517.0
495.0,504.0,502.0,518.0
498.0,508.0,496.0,520.0
503.0,502.0,492.0,520.0
504.0,507.0,489.0,517.0
512.0,510.0,491.0,516.0
514.0,510.0,490.0,512.0
513.0,520.0,498.0,510.0
513.0,527.0,504.0,509.0
513.0,524.0,515.0,511.0
515.0,521.0,526.0,511.0
522.0,500.0,532.0,512.0
528.0,483.0,541.0,512.0
523.0,489.0,541.0,515.0
523.0,489.0,539.0,516.0
515.0,487.0,533.0,516.0
509.0,495.0,523.0,517.0
499.0,512.0,513.0,514.0
489.0,509.0,497.0,515.0
490.0,483.0,487.0,515.0
498.0,501.0,486.0,512.0
501.0,504.0,484.0,512.0
505.0,515.0,489.0,512.0
509.0,518.0,495.0,513.0
510.0,504.0,499.0,508.0
515.0,499.0,506.0,503.0
517.0,501.0,517.0,503.0
521.0,505.0,528.0,505.0
522.0,514.0,538.0,506.0
524.0,511.0,541.0,509.0
526.0,498.0,543.0,513.0
526.0,503.0,535.0,512.0
509.0,493.0,525.0,513.0
507.0,490.0,514.0,516.0
500.0,500.0,504.0,513.0
502.0,510.0,496.0,516.0
498.0,509.0,492.0,517.0
503.0,508.0,489.0,515.0
505.0,507.0,488.0,511.0
509.0,507.0,492.0,512.0
510.0,500.0,488.0,512.0
511.0,496.0,502.0,503.0
516.0,506.0,509.0,498.0
526.0,517.0,520.0,502.0
530.0,523.0,529.0,503.0
534.0,517.0,537.0,504.0
528.0,515.0,538.0,510.0
519.0,498.0,535.0,506.0
512.0,493.0,530.0,510.0
501.0,491.0,519.0,511.0
498.0,489.0,507.0,515.0
500.0,492.0,503.0,518.0
501.0,502.0,496.0,520.0
501.0,511.0,494.0,520.0
505.0,523.0,487.0,517.0
505.0,521.0,489.0,512.0
503.0,519.0,489.0,511.0
506.0,508.0,494.0,506.0
515.0,497.0,503.0,503.0
520.0,494.0,514.0,508.0
526.0,494.0,525.0,506.0
531.0,502.0,535.0,505.0
528.0,503.0,540.0,505.0
522.0,519.0,538.0,512.0
521.0,516.0,534.0,515.0
507.0,489.0,524.0,513.0
502.0,491.0,518.0,516.0
495.0,489.0,509.0,518.0
491.0,484.0,500.0,519.0
499.0,504.0,495.0,517.0
501.0,505.0,488.0,514.0
507.0,506.0,485.0,512.0
514.0,514.0,488.0,511.0
511.0,507.0,492.0,509.0
506.0,504.0,498.0,505.0
513.0,503.0,508.0,505.0
520.0,510.0,518.0,505.0
527.0,505.0,528.0,508.0
528.0,506.0,536.0,508.0
524.0,503.0,540.0,509.0
517.0,510.0,540.0,513.0
515.0,503.0,534.0,511.0
503.0,491.0,521.0,513.0
499.0,486.0,511.0,513.0
497.0,491.0,504.0,520.0
497.0,493.0,494.0,521.0
502.0,498.0,493.0,521.0
504.0,514.0,498.0,518.0
506.0,512.0,489.0,516.0
507.0,511.0,486.0,513.0
509.0,504.0,494.0,511.0
510.0,493.0,497.0,509.0
515.0,493.0,509.0,506.0
528.0,498.0,520.0,505.0
530.0,513.0,529.0,507.0
532.0,508.0,537.0,507.0
524.0,509.0,538.0,507.0
517.0,515.0,535.0,511.0
508.0,514.0,531.0,512.0
497.0,489.0,521.0,514.0
494.0,487.0,509.0,519.0
497.0,501.0,500.0,519.0
501.0,509.0,494.0,520.0
502.0,514.0,489.0,525.0
503.0,518.0,488.0,521.0
508.0,520.0,490.0,518.0
511.0,516.0,489.0,512.0
511.0,506.0,498.0,510.0
513.0,503.0,504.0,506.0
524.0,505.0,514.0,503.0
528.0,506.0,526.0,503.0
531.0,509.0,530.0,504.0
527.0,506.0,538.0,507.0
521.0,502.0,535.0,507.0
517.0,500.0,533.0,511.0
504.0,501.0,527.0,512.0
498.0,503.0,517.0,515.0
502.0,513.0,507.0,518.0
499.0,512.0,499.0,523.0
500.0,473.0,496.0,520.0
504.0,500.0,489.0,520.0
504.0,509.0,488.0,515.0
504.0,511.0,487.0,514.0
505.0,513.0,491.0,507.0
507.0,504.0,492.0,502.0
509.0,502.0,504.0,502.0
518.0,503.0,516.0,502.0
523.0,505.0,528.0,505.0
531.0,509.0,539.0,505.0
527.0,506.0,542.0,508.0
523.0,502.0,537.0,509.0
517.0,502.0,531.0,509.0
501.0,485.0,520.0,512.0
496.0,493.0,512.0,514.0
500.0,490.0,504.0,515.0
501.0,506.0,494.0,519.0
501.0,507.0,491.0,521.0
503.0,514.0,488.0,524.0
501.0,518.0,489.0,514.0
509.0,515.0,492.0,513.0
508.0,497.0,495.0,506.0
507.0,499.0,501.0,504.0
515.0,497.0,511.0,502.0
527.0,504.0,519.0,505.0
533.0,516.0,531.0,504.0
528.0,513.0,539.0,507.0
521.0,506.0,542.0,510.0
514.0,511.0,536.0,510.0
510.0,509.0,529.0,514.0
495.0,496.0,519.0,516.0
495.0,493.0,506.0,516.0
497.0,498.0,500.0,519.0
499.0,482.0,492.0,518.0
498.0,498.0,492.0,519.0
502.0,511.0,487.0,516.0
502.0,516.0,491.0,515.0
504.0,514.0,494.0,512.0
503.0,510.0,498.0,508.0
508.0,508.0,508.0,506.0
516.0,505.0,516.0,507.0
525.0,504.0,530.0,508.0
536.0,513.0,535.0,508.0
532.0,513.0,541.0,508.0
523.0,514.0,536.0,508.0
521.0,522.0,534.0,510.0
506.0,496.0,527.0,512.0
497.0,482.0,517.0,514.0
498.0,490.0,506.0,514.0
499.0,483.0,497.0,519.0
503.0,484.0,493.0,519.0
503.0,513.0,489.0,517.0
504.0,515.0,489.0,516.0
508.0,513.0,492.0,513.0
513.0,518.0,492.0,511.0
506.0,493.0,500.0,508.0
516.0,523.0,514.0,504.0
522.0,516.0,519.0,507.0
527.0,507.0,530.0,503.0
526.0,507.0,538.0,508.0
523.0,502.0,539.0,510.0
520.0,502.0,537.0,508.0
514.0,501.0,534.0,512.0
504.0,485.0,524.0,513.0
494.0,488.0,513.0,517.0
493.0,492.0,502.0,518.0
499.0,499.0,498.0,519.0
504.0,510.0,492.0,517.0
508.0,511.0,490.0,516.0
506.0,506.0,489.0,512.0
510.0,508.0,488.0,513.0
509.0,503.0,494.0,507.0
513.0,498.0,503.0,508.0
512.0,507.0,513.0,505.0
521.0,511.0,521.0,505.0
527.0,511.0,532.0,506.0
528.0,504.0,538.0,507.0
525.0,486.0,538.0,511.0
521.0,483.0,540.0,512.0
514.0,478.0,532.0,512.0
505.0,477.0,519.0,512.0
507.0,510.0,508.0,517.0
500.0,511.0,501.0,517.0
501.0,506.0,495.0,521.0
505.0,511.0,491.0,514.0
507.0,515.0,491.0,515.0
506.0,529.0,490.0,512.0
504.0,528.0,491.0,513.0
505.0,507.0,497.0,507.0
512.0,504.0,507.0,504.0
515.0,512.0,520.0,508.0
522.0,518.0,531.0,508.0
532.0,517.0,539.0,504.0
528.0,514.0,536.0,507.0
516.0,501.0,535.0,506.0
513.0,502.0,536.0,512.0
503.0,491.0,527.0,512.0
498.0,492.0,514.0,515.0
498.0,495.0,504.0,515.0
496.0,494.0,499.0,519.0
505.0,504.0,494.0,519.0
504.0,503.0,492.0,518.0
504.0,506.0,488.0,515.0
508.0,509.0,489.0,511.0
510.0,506.0,494.0,510.0
511.0,499.0,505.0,508.0
514.0,500.0,510.0,506.0
515.0,510.0,520.0,506.0
526.0,511.0,527.0,507.0
526.0,512.0,536.0,507.0
524.0,509.0,538.0,508.0
517.0,503.0,537.0,510.0
517.0,502.0,531.0,511.0
503.0,488.0,523.0,514.0
498.0,486.0,511.0,514.0
497.0,490.0,501.0,517.0
497.0,494.0,495.0,520.0
500.0,495.0,492.0,519.0
505.0,504.0,491.0,518.0
505.0,507.0,486.0,514.0
509.0,508.0,487.0,511.0
511.0,508.0,494.0,507.0
511.0,513.0,502.0,503.0
516.0,513.0,511.0,505.0
521.0,512.0,521.0,506.0
527.0,511.0,533.0,503.0
525.0,510.0,540.0,509.0
520.0,504.0,540.0,510.0
518.0,502.0,537.0,512.0
510.0,498.0,529.0,512.0
501.0,487.0,518.0,514.0
500.0,490.0,509.0,517.0
499.0,494.0,504.0,520.0
501.0,504.0,492.0,514.0
503.0,510.0,494.0,516.0
507.0,511.0,488.0,516.0
503.0,510.0,488.0,514.0
504.0,508.0,494.0,512.0
503.0,504.0,498.0,505.0
512.0,509.0,506.0,504.0
516.0,510.0,518.0,506.0
517.0,515.0,526.0,505.0
519.0,507.0,535.0,507.0
521.0,502.0,540.0,509.0
511.0,492.0,537.0,506.0
511.0,496.0,531.0,515.0
493.0,482.0,525.0,512.0
489.0,487.0,515.0,513.0
509.0,500.0,501.0,516.0
514.0,500.0,497.0,519.0
508.0,495.0,492.0,516.0
505.0,499.0,490.0,518.0
504.0,499.0,486.0,514.0
508.0,498.0,489.0,513.0
518.0,532.0,492.0,509.0
516.0,518.0,501.0,508.0
522.0,516.0,508.0,507.0
532.0,515.0,518.0,510.0
528.0,514.0,529.0,503.0
532.0,507.0,540.0,510.0
533.0,503.0,538.0,509.0
525.0,499.0,534.0,510.0
522.0,502.0,533.0,512.0
497.0,492.0,523.0,515.0
489.0,499.0,513.0,518.0
491.0,501.0,510.0,517.0
496.0,504.0,494.0,517.0
499.0,509.0,488.0,517.0
509.0,514.0,487.0,517.0
507.0,512.0,487.0,512.0
516.0,522.0,488.0,512.0
516.0,518.0,492.0,508.0
517.0,512.0,502.0,506.0
518.0,509.0,510.0,505.0
520.0,507.0,521.0,504.0
521.0,513.0,535.0,505.0
521.0,508.0,544.0,508.0
516.0,502.0,538.0,511.0
515.0,504.0,536.0,509.0
513.0,507.0,529.0,510.0
499.0,499.0,519.0,515.0
503.0,501.0,507.0,518.0
512.0,482.0,500.0,520.0
506.0,470.0,492.0,519.0
507.0,517.0,488.0,517.0
513.0,517.0,489.0,517.0
506.0,514.0,489.0,512.0
513.0,513.0,491.0,512.0
515.0,506.0,494.0,505.0
516.0,503.0,506.0,503.0
522.0,505.0,515.0,504.0
524.0,508.0,526.0,506.0
524.0,507.0,535.0,507.0
528.0,512.0,536.0,507.0
518.0,511.0,537.0,510.0
519.0,506.0,532.0,511.0
506.0,484.0,525.0,511.0
500.0,484.0,518.0,518.0
497.0,487.0,508.0,519.0
497.0,493.0,498.0,519.0
499.0,504.0,493.0,518.0
505.0,512.0,488.0,521.0
505.0,506.0,490.0,516.0
510.0,506.0,489.0,509.0
508.0,504.0,493.0,509.0
506.0,499.0,500.0,504.0
510.0,507.0,508.0,505.0
522.0,513.0,520.0,505.0
524.0,516.0,529.0,506.0
525.0,516.0,537.0,511.0
522.0,511.0,538.0,510.0
513.0,504.0,537.0,511.0
511.0,502.0,536.0,512.0
499.0,488.0,524.0,514.0
501.0,492.0,510.0,514.0
501.0,494.0,504.0,517.0
502.0,495.0,497.0,517.0
501.0,492.0,495.0,519.0
508.0,504.0,491.0,516.0
510.0,507.0,487.0,514.0
506.0,522.0,492.0,511.0
506.0,518.0,496.0,508.0
516.0,510.0,504.0,505.0
519.0,516.0,517.0,504.0
525.0,515.0,522.0,507.0
526.0,512.0,534.0,507.0
529.0,506.0,538.0,507.0
524.0,501.0,539.0,507.0
516.0,504.0,538.0,511.0
511.0,497.0,530.0,508.0
501.0,495.0,518.0,518.0
497.0,493.0,508.0,516.0
498.0,493.0,499.0,519.0
503.0,507.0,495.0,518.0
504.0,513.0,490.0,515.0
506.0,511.0,489.0,515.0
499.0,509.0,490.0,512.0
506.0,512.0,491.0,511.0
505.0,507.0,497.0,508.0
510.0,514.0,504.0,504.0
518.0,518.0,516.0,502.0
524.0,520.0,529.0,508.0
528.0,514.0,540.0,510.0
534.0,497.0,541.0,508.0
523.0,488.0,537.0,509.0
519.0,492.0,532.0,508.0
503.0,487.0,527.0,512.0
499.0,489.0,515.0,516.0
500.0,501.0,505.0,516.0
500.0,502.0,495.0,516.0
501.0,506.0,494.0,521.0
502.0,514.0,490.0,517.0
500.0,512.0,490.0,511.0
502.0,511.0,491.0,508.0
502.0,507.0,492.0,508.0
505.0,501.0,500.0,506.0
508.0,501.0,509.0,507.0
515.0,504.0,522.0,506.0
529.0,507.0,533.0,505.0
526.0,504.0,541.0,507.0
529.0,503.0,542.0,509.0
520.0,500.0,536.0,512.0
520.0,506.0,534.0,514.0
504.0,496.0,522.0,515.0
490.0,497.0,511.0,517.0
476.0,503.0,500.0,515.0
479.0,500.0,497.0,519.0
478.0,499.0,499.0,519.0
482.0,503.0,485.0,515.0
480.0,503.0,487.0,512.0
493.0,501.0,494.0,512.0
529.0,498.0,498.0,508.0
511.0,487.0,505.0,508.0
514.0,502.0,513.0,507.0
530.0,514.0,517.0,503.0
528.0,513.0,533.0,503.0
534.0,504.0,542.0,509.0
535.0,502.0,540.0,512.0
540.0,511.0,538.0,513.0
528.0,500.0,532.0,513.0
516.0,486.0,520.0,513.0
508.0,498.0,508.0,515.0
505.0,498.0,500.0,516.0
497.0,506.0,494.0,519.0
503.0,513.0,491.0,516.0
501.0,511.0,489.0,515.0
502.0,513.0,490.0,512.0
509.0,514.0,494.0,508.0
507.0,506.0,499.0,508.0
527.0,513.0,514.0,507.0
528.0,514.0,521.0,510.0
530.0,516.0,527.0,505.0
533.0,513.0,539.0,504.0
526.0,505.0,542.0,508.0
511.0,497.0,535.0,507.0
512.0,503.0,533.0,510.0
499.0,496.0,526.0,513.0
511.0,496.0,517.0,516.0
500.0,488.0,508.0,519.0
500.0,500.0,501.0,518.0
502.0,505.0,494.0,517.0
494.0,511.0,490.0,518.0
497.0,509.0,488.0,511.0
496.0,506.0,489.0,511.0
506.0,510.0,495.0,512.0
522.0,510.0,502.0,510.0
526.0,501.0,511.0,504.0
539.0,505.0,520.0,504.0
549.0,510.0,533.0,506.0
539.0,507.0,541.0,508.0
536.0,501.0,541.0,509.0
523.0,483.0,538.0,508.0
522.0,494.0,536.0,509.0
510.0,486.0,526.0,518.0
502.0,503.0,510.0,520.0
504.0,513.0,500.0,514.0
504.0,521.0,496.0,517.0
505.0,519.0,491.0,516.0
504.0,514.0,492.0,518.0
502.0,498.0,491.0,515.0
508.0,504.0,494.0,511.0
510.0,504.0,497.0,505.0
513.0,509.0,503.0,504.0
520.0,509.0,516.0,508.0
523.0,514.0,528.0,512.0
531.0,516.0,535.0,510.0
530.0,514.0,543.0,509.0
523.0,508.0,540.0,507.0
516.0,505.0,538.0,505.0
505.0,496.0,532.0,508.0
497.0,484.0,518.0,514.0
493.0,488.0,507.0,511.0
499.0,496.0,501.0,519.0
499.0,495.0,495.0,519.0
503.0,503.0,491.0,516.0
500.0,507.0,491.0,513.0
503.0,505.0,490.0,510.0
516.0,511.0,492.0,508.0
512.0,503.0,499.0,507.0
514.0,506.0,509.0,506.0
522.0,500.0,519.0,504.0
524.0,506.0,534.0,507.0
528.0,518.0,537.0,505.0
528.0,518.0,543.0,510.0
517.0,501.0,540.0,508.0
514.0,503.0,536.0,510.0
503.0,490.0,529.0,510.0
497.0,488.0,518.0,512.0
491.0,489.0,506.0,516.0
495.0,496.0,496.0,519.0
492.0,501.0,493.0,518.0
496.0,507.0,489.0,516.0
496.0,505.0,488.0,513.0
499.0,510.0,490.0,511.0
502.0,509.0,497.0,508.0
501.0,500.0,501.0,507.0
506.0,509.0,512.0,508.0
518.0,509.0,526.0,508.0
525.0,514.0,520.0,505.0
525.0,508.0,536.0,503.0
522.0,502.0,541.0,508.0
510.0,495.0,537.0,512.0
512.0,499.0,534.0,512.0
511.0,485.0,524.0,514.0
504.0,486.0,514.0,517.0
501.0,493.0,503.0,517.0
502.0,501.0,492.0,517.0
500.0,505.0,492.0,519.0
514.0,509.0,491.0,516.0
503.0,508.0,490.0,514.0
508.0,515.0,493.0,512.0
507.0,510.0,500.0,508.0
514.0,507.0,505.0,508.0
518.0,508.0,512.0,508.0
531.0,508.0,525.0,504.0
529.0,513.0,533.0,505.0
526.0,507.0,541.0,510.0
513.0,492.0,544.0,510.0
509.0,493.0,539.0,512.0
496.0,490.0,528.0,515.0
474.0,481.0,519.0,516.0
477.0,488.0,510.0,519.0
481.0,492.0,498.0,515.0
479.0,500.0,490.0,518.0
487.0,511.0,489.0,516.0
506.0,514.0,493.0,515.0
511.0,510.0,491.0,514.0
523.0,512.0,497.0,514.0
526.0,513.0,498.0,509.0
526.0,515.0,510.0,507.0
530.0,518.0,518.0,505.0
539.0,516.0,528.0,506.0
535.0,517.0,534.0,515.0
540.0,510.0,539.0,508.0
536.0,500.0,542.0,507.0
530.0,498.0,535.0,512.0
517.0,479.0,526.0,516.0
503.0,486.0,512.0,515.0
503.0,494.0,502.0,510.0
508.0,504.0,498.0,518.0
510.0,503.0,497.0,526.0
508.0,511.0,484.0,512.0
508.0,507.0,482.0,510.0
499.0,505.0,491.0,513.0
498.0,503.0,496.0,507.0
496.0,499.0,504.0,507.0
506.0,502.0,512.0,508.0
515.0,504.0,521.0,503.0
510.0,507.0,530.0,504.0
534.0,507.0,541.0,508.0
514.0,502.0,542.0,506.0
499.0,488.0,538.0,507.0
497.0,480.0,534.0,512.0
497.0,479.0,523.0,514.0
498.0,491.0,515.0,521.0
517.0,510.0,503.0,517.0
526.0,519.0,496.0,518.0
522.0,511.0,489.0,517.0
519.0,522.0,492.0,517.0
517.0,528.0,487.0,511.0
519.0,529.0,494.0,512.0
516.0,518.0,499.0,507.0
511.0,516.0,508.0,508.0
512.0,495.0,521.0,519.0
521.0,496.0,522.0,513.0
526.0,507.0,530.0,516.0
528.0,504.0,543.0,517.0
528.0,495.0,538.0,502.0
525.0,497.0,541.0,509.0
514.0,491.0,537.0,507.0
499.0,488.0,520.0,513.0
497.0,489.0,510.0,514.0
499.0,500.0,499.0,516.0
504.0,509.0,496.0,517.0
505.0,511.0,492.0,518.0
510.0,517.0,492.0,514.0
504.0,507.0,493.0,510.0
509.0,508.0,493.0,514.0
508.0,508.0,503.0,507.0
513.0,514.0,512.0,503.0
520.0,512.0,519.0,506.0
525.0,507.0,530.0,510.0
526.0,505.0,531.0,506.0
527.0,506.0,538.0,504.0
515.0,501.0,538.0,509.0
519.0,503.0,536.0,507.0
499.0,487.0,530.0,514.0
494.0,484.0,511.0,513.0
501.0,495.0,502.0,514.0
500.0,496.0,504.0,521.0
502.0,497.0,500.0,523.0
506.0,511.0,493.0,519.0
500.0,513.0,491.0,518.0
498.0,513.0,489.0,511.0
502.0,505.0,494.0,507.0
502.0,500.0,503.0,508.0
510.0,498.0,510.0,505.0
513.0,503.0,522.0,505.0
518.0,500.0,537.0,503.0
520.0,500.0,542.0,509.0
525.0,496.0,538.0,516.0
517.0,489.0,531.0,511.0
516.0,496.0,531.0,505.0
509.0,492.0,531.0,519.0
509.0,490.0,527.0,536.0
501.0,495.0,507.0,538.0
506.0,520.0,495.0,528.0
504.0,519.0,497.0,505.0
499.0,518.0,497.0,500.0
492.0,510.0,490.0,513.0
492.0,505.0,491.0,528.0
493.0,498.0,499.0,520.0
501.0,497.0,507.0,504.0
509.0,498.0,514.0,505.0
529.0,508.0,527.0,506.0
531.0,509.0,542.0,525.0
533.0,512.0,542.0,517.0
542.0,507.0,534.0,508.0
522.0,507.0,534.0,508.0
514.0,507.0,527.0,511.0
502.0,498.0,526.0,522.0
491.0,495.0,512.0,564.0
490.0,496.0,503.0,548.0
489.0,501.0,503.0,506.0
495.0,508.0,499.0,490.0
512.0,519.0,489.0,505.0
506.0,509.0,506.0,520.0
513.0,514.0,508.0,526.0
509.0,508.0,497.0,517.0
512.0,507.0,499.0,504.0
511.0,505.0,513.0,509.0
515.0,509.0,543.0,511.0
525.0,507.0,552.0,519.0
554.0,518.0,549.0,508.0
541.0,504.0,527.0,519.0
519.0,504.0,537.0,531.0
505.0,491.0,542.0,536.0
498.0,487.0,508.0,499.0
494.0,495.0,504.0,490.0
499.0,501.0,511.0,519.0
503.0,505.0,498.0,536.0
499.0,507.0,495.0,523.0
505.0,504.0,497.0,539.0
497.0,503.0,493.0,529.0
498.0,506.0,499.0,530.0
495.0,507.0,516.0,508.0
499.0,511.0,524.0,503.0
520.0,511.0,522.0,508.0
536.0,507.0,519.0,479.0
544.0,508.0,532.0,501.0
536.0,512.0,548.0,547.0
518.0,498.0,560.0,572.0
520.0,494.0,524.0,516.0
506.0,487.0,518.0,483.0
484.0,486.0,526.0,502.0
475.0,490.0,516.0,521.0
476.0,496.0,509.0,524.0
466.0,499.0,493.0,516.0
463.0,513.0,502.0,529.0
443.0,506.0,496.0,510.0
465.0,509.0,507.0,522.0
478.0,500.0,491.0,561.0
477.0,499.0,494.0,537.0
487.0,496.0,524.0,515.0
543.0,501.0,525.0,475.0
586.0,515.0,538.0,498.0
581.0,512.0,555.0,520.0
553.0,504.0,572.0,535.0
540.0,498.0,525.0,565.0
528.0,500.0,518.0,529.0
525.0,506.0,514.0,487.0
517.0,501.0,514.0,496.0
513.0,497.0,518.0,515.0
516.0,494.0,508.0,541.0
516.0,514.0,491.0,537.0
517.0,526.0,491.0,522.0
516.0,532.0,499.0,483.0
520.0,536.0,499.0,487.0
518.0,525.0,504.0,495.0
521.0,510.0,513.0,500.0
531.0,485.0,528.0,505.0
534.0,493.0,537.0,504.0
530.0,501.0,535.0,500.0
527.0,504.0,542.0,501.0
524.0,502.0,544.0,514.0
526.0,505.0,528.0,509.0
504.0,489.0,525.0,522.0
491.0,483.0,521.0,505.0
491.0,490.0,509.0,515.0
494.0,499.0,501.0,515.0
510.0,508.0,493.0,509.0
508.0,510.0,492.0,518.0
505.0,510.0,495.0,520.0
505.0,503.0,492.0,518.0
519.0,512.0,497.0,508.0
521.0,518.0,504.0,492.0
518.0,509.0,513.0,501.0
518.0,514.0,523.0,507.0
524.0,501.0,534.0,502.0
518.0,498.0,543.0,505.0
519.0,503.0,548.0,518.0
503.0,486.0,532.0,517.0
500.0,486.0,507.0,509.0
493.0,484.0,517.0,521.0
483.0,485.0,522.0,504.0
490.0,498.0,513.0,508.0
497.0,517.0,500.0,516.0
502.0,524.0,489.0,519.0
506.0,529.0,485.0,510.0
495.0,519.0,491.0,514.0
500.0,517.0,493.0,515.0
501.0,508.0,502.0,500.0
502.0,506.0,513.0,480.0
512.0,492.0,509.0,503.0
520.0,506.0,529.0,548.0
516.0,509.0,525.0,495.0
507.0,505.0,546.0,474.0
474.0,499.0,554.0,518.0
448.0,487.0,528.0,511.0
438.0,484.0,551.0,512.0
427.0,475.0,521.0,506.0
459.0,483.0,495.0,502.0
490.0,485.0,497.0,529.0
537.0,510.0,514.0,545.0
565.0,515.0,507.0,525.0
571.0,529.0,525.0,522.0
549.0,527.0,487.0,498.0
525.0,517.0,498.0,528.0
523.0,510.0,503.0,521.0
523.0,501.0,517.0,535.0
529.0,503.0,518.0,497.0
536.0,521.0,519.0,489.0
549.0,515.0,516.0,483.0
560.0,516.0,546.0,529.0
529.0,508.0,527.0,549.0
517.0,506.0,511.0,516.0
494.0,491.0,548.0,501.0
478.0,487.0,556.0,507.0
461.0,483.0,502.0,497.0
455.0,494.0,481.0,518.0
473.0,500.0,493.0,526.0
500.0,513.0,513.0,505.0
507.0,506.0,496.0,528.0
485.0,502.0,469.0,506.0
476.0,501.0,484.0,516.0
469.0,505.0,492.0,541.0
491.0,516.0,500.0,510.0
510.0,536.0,561.0,469.0
488.0,540.0,576.0,504.0
506.0,522.0,561.0,501.0
508.0,493.0,512.0,471.0
495.0,476.0,504.0,542.0
528.0,490.0,498.0,521.0
524.0,488.0,568.0,491.0
522.0,494.0,530.0,497.0
532.0,489.0,518.0,528.0
511.0,501.0,501.0,507.0
492.0,502.0,496.0,511.0
485.0,505.0,497.0,535.0
505.0,521.0,491.0,542.0
500.0,509.0,498.0,514.0
493.0,507.0,503.0,485.0
505.0,498.0,509.0,519.0
502.0,512.0,520.0,525.0
532.0,511.0,531.0,524.0
546.0,509.0,542.0,523.0
540.0,506.0,541.0,514.0
544.0,514.0,548.0,508.0
538.0,498.0,531.0,485.0
516.0,491.0,526.0,489.0
544.0,494.0,539.0,503.0
520.0,496.0,517.0,519.0
490.0,491.0,518.0,539.0
498.0,506.0,510.0,499.0
462.0,488.0,475.0,525.0
469.0,504.0,491.0,552.0
464.0,511.0,494.0,516.0
452.0,499.0,477.0,495.0
471.0,494.0,498.0,485.0
509.0,493.0,530.0,558.0
547.0,516.0,518.0,547.0
578.0,548.0,531.0,536.0
561.0,549.0,553.0,487.0
520.0,539.0,541.0,441.0
462.0,509.0,609.0,533.0
452.0,501.0,619.0,451.0
454.0,492.0,582.0,545.0
485.0,450.0,458.0,517.0
470.0,467.0,486.0,482.0
509.0,476.0,515.0,482.0
571.0,489.0,542.0,503.0
533.0,505.0,473.0,491.0
493.0,512.0,463.0,590.0
495.0,505.0,462.0,632.0
479.0,504.0,474.0,488.0
488.0,499.0,522.0,454.0
527.0,527.0,583.0,527.0
522.0,497.0,534.0,490.0
513.0,500.0,529.0,490.0
514.0,493.0,541.0,520.0
525.0,505.0,554.0,529.0
506.0,479.0,529.0,516.0
505.0,468.0,533.0,498.0
551.0,489.0,577.0,569.0
522.0,507.0,581.0,547.0
497.0,509.0,499.0,453.0
461.0,512.0,389.0,540.0
469.0,511.0,521.0,458.0
468.0,515.0,507.0,395.0
398.0,498.0,538.0,561.0
409.0,503.0,586.0,516.0
420.0,515.0,482.0,534.0
434.0,514.0,399.0,579.0
418.0,487.0,555.0,521.0
519.0,497.0,628.0,510.0
626.0,529.0,626.0,493.0
672.0,538.0,640.0,500.0
639.0,529.0,542.0,493.0
611.0,506.0,475.0,579.0
559.0,498.0,490.0,532.0
518.0,482.0,528.0,549.0
498.0,493.0,563.0,640.0
486.0,497.0,585.0,534.0
478.0,508.0,517.0,435.0
475.0,513.0,461.0,546.0
530.0,513.0,459.0,491.0
522.0,498.0,540.0,498.0
535.0,510.0,556.0,474.0
538.0,516.0,469.0,443.0
593.0,542.0,474.0,514.0
580.0,534.0,545.0,512.0
527.0,512.0,469.0,540.0
533.0,508.0,425.0,551.0
533.0,522.0,552.0,404.0
505.0,500.0,632.0,464.0
472.0,487.0,591.0,531.0
478.0,485.0,519.0,560.0
500.0,495.0,561.0,524.0
463.0,492.0,512.0,514.0
467.0,503.0,419.0,508.0
481.0,502.0,521.0,522.0
483.0,503.0,519.0,565.0
444.0,499.0,408.0,499.0
429.0,504.0,437.0,463.0
444.0,500.0,528.0,505.0
465.0,497.0,524.0,526.0
462.0,496.0,534.0,531.0
489.0,504.0,577.0,493.0
564.0,538.0,631.0,532.0
621.0,560.0,565.0,549.0
591.0,551.0,639.0,488.0
466.0,520.0,622.0,512.0
398.0,507.0,553.0,611.0
396.0,432.0,449.0,485.0
422.0,422.0,511.0,546.0
400.0,430.0,498.0,527.0
435.0,450.0,517.0,555.0
521.0,478.0,575.0,456.0
588.0,495.0,501.0,463.0
553.0,494.0,441.0,458.0
577.0,526.0,524.0,578.0
522.0,519.0,517.0,576.0
497.0,507.0,488.0,508.0
513.0,505.0,507.0,481.0
480.0,503.0,502.0,519.0
517.0,522.0,508.0,484.0
464.0,511.0,524.0,533.0
419.0,487.0,525.0,485.0
421.0,485.0,484.0,425.0
384.0,473.0,573.0,525.0
437.0,482.0,641.0,538.0
562.0,529.0,783.0,415.0
519.0,526.0,622.0,587.0
520.0,536.0,368.0,539.0
536.0,523.0,432.0,523.0
489.0,507.0,494.0,529.0
507.0,504.0,495.0,521.0
492.0,498.0,563.0,550.0
425.0,469.0,483.0,500.0
436.0,472.0,493.0,494.0
511.0,493.0,494.0,502.0
563.0,512.0,548.0,526.0
585.0,500.0,708.0,615.0
629.0,496.0,748.0,574.0
628.0,502.0,496.0,547.0
665.0,547.0,504.0,456.0
570.0,527.0,634.0,449.0
531.0,511.0,487.0,508.0
508.0,512.0,356.0,508.0
515.0,522.0,447.0,589.0
520.0,455.0,484.0,499.0
544.0,507.0,512.0,547.0
540.0,526.0,505.0,517.0
521.0,538.0,505.0,521.0
471.0,540.0,610.0,549.0
432.0,516.0,523.0,434.0
439.0,497.0,527.0,454.0
479.0,492.0,495.0,502.0
542.0,493.0,563.0,557.0
589.0,506.0,594.0,456.0
639.0,512.0,462.0,471.0
597.0,498.0,435.0,498.0
545.0,497.0,625.0,478.0
492.0,473.0,661.0,501.0
487.0,479.0,486.0,498.0
461.0,471.0,405.0,496.0
431.0,486.0,513.0,580.0
473.0,496.0,588.0,626.0
464.0,513.0,571.0,537.0
478.0,495.0,511.0,435.0
492.0,495.0,628.0,432.0
506.0,508.0,539.0,622.0
532.0,519.0,329.0,439.0
523.0,501.0,468.0,579.0
576.0,502.0,559.0,497.0
607.0,527.0,582.0,638.0
606.0,541.0,725.0,607.0
544.0,518.0,677.0,464.0
506.0,506.0,472.0,467.0
472.0,492.0,599.0,527.0
451.0,485.0,597.0,523.0
436.0,489.0,434.0,550.0
459.0,490.0,413.0,501.0
518.0,480.0,392.0,507.0
556.0,490.0,486.0,520.0
531.0,548.0,500.0,512.0
489.0,525.0,473.0,544.0
500.0,521.0,597.0,495.0
517.0,512.0,603.0,519.0
521.0,514.0,526.0,620.0
517.0,507.0,461.0,515.0
558.0,514.0,540.0,475.0
613.0,512.0,635.0,479.0
589.0,506.0,572.0,442.0
541.0,500.0,527.0,430.0
494.0,488.0,546.0,646.0
420.0,471.0,451.0,560.0
346.0,462.0,497.0,417.0
337.0,471.0,535.0,420.0
386.0,455.0,458.0,418.0
426.0,462.0,498.0,642.0
458.0,510.0,528.0,593.0
499.0,540.0,524.0,624.0
502.0,531.0,574.0,493.0
461.0,520.0,639.0,540.0
415.0,501.0,456.0,565.0
454.0,493.0,478.0,476.0
503.0,499.0,522.0,486.0
543.0,521.0,520.0,523.0
581.0,514.0,598.0,556.0
557.0,527.0,645.0,458.0
470.0,491.0,631.0,407.0
361.0,451.0,616.0,530.0
328.0,441.0,477.0,535.0
331.0,423.0,526.0,596.0
346.0,453.0,532.0,517.0
419.0,467.0,465.0,486.0
520.0,507.0,412.0,493.0
645.0,517.0,547.0,575.0
630.0,553.0,500.0,406.0
667.0,541.0,517.0,540.0
633.0,516.0,487.0,475.0
574.0,514.0,417.0,494.0
523.0,511.0,505.0,538.0
515.0,513.0,528.0,488.0
509.0,511.0,529.0,502.0
514.0,497.0,561.0,529.0
528.0,508.0,583.0,529.0
507.0,476.0,599.0,520.0
477.0,470.0,584.0,551.0
510.0,495.0,475.0,583.0
483.0,499.0,501.0,542.0
546.0,532.0,423.0,477.0
585.0,564.0,447.0,489.0
601.0,562.0,476.0,532.0
623.0,538.0,512.0,520.0
667.0,530.0,487.0,548.0
612.0,546.0,606.0,502.0
564.0,528.0,640.0,516.0
550.0,519.0,436.0,447.0
530.0,501.0,439.0,479.0
514.0,496.0,517.0,568.0
544.0,509.0,529.0,468.0
544.0,504.0,587.0,484.0
437.0,482.0,427.0,618.0
383.0,460.0,606.0,507.0
362.0,465.0,727.0,528.0
344.0,475.0,488.0,462.0
367.0,461.0,511.0,507.0
531.0,504.0,415.0,569.0
618.0,535.0,471.0,563.0
587.0,544.0,593.0,447.0
617.0,556.0,593.0,588.0
633.0,564.0,597.0,574.0
583.0,547.0,553.0,473.0
593.0,521.0,374.0,504.0
569.0,524.0,418.0,536.0
587.0,515.0,545.0,544.0
593.0,520.0,699.0,516.0
592.0,488.0,458.0,498.0
565.0,471.0,437.0,550.0
528.0,484.0,479.0,433.0
488.0,503.0,488.0,467.0
468.0,496.0,657.0,459.0
464.0,485.0,614.0,475.0
478.0,503.0,315.0,593.0
488.0,499.0,477.0,539.0
525.0,491.0,580.0,511.0
558.0,516.0,511.0,451.0
516.0,499.0,444.0,491.0
497.0,516.0,519.0,642.0
506.0,530.0,443.0,564.0
496.0,515.0,517.0,550.0
498.0,517.0,545.0,598.0
543.0,519.0,598.0,527.0
539.0,517.0,612.0,519.0
529.0,498.0,579.0,522.0
548.0,507.0,646.0,505.0
532.0,516.0,540.0,495.0
508.0,510.0,547.0,517.0
499.0,509.0,421.0,493.0
493.0,505.0,407.0,395.0
487.0,506.0,437.0,561.0
505.0,520.0,483.0,577.0
486.0,465.0,525.0,621.0
476.0,466.0,512.0,517.0
437.0,474.0,457.0,462.0
397.0,493.0,440.0,494.0
392.0,479.0,498.0,516.0
315.0,464.0,546.0,502.0
284.0,470.0,531.0,500.0
322.0,466.0,546.0,553.0
485.0,502.0,736.0,548.0
485.0,504.0,648.0,538.0
547.0,489.0,504.0,527.0
617.0,517.0,388.0,396.0
540.0,514.0,369.0,376.0
448.0,494.0,446.0,686.0
433.0,495.0,538.0,563.0
445.0,509.0,529.0,530.0
507.0,507.0,466.0,566.0
602.0,525.0,592.0,497.0
619.0,524.0,665.0,572.0
572.0,506.0,497.0,581.0
440.0,498.0,488.0,501.0
420.0,478.0,495.0,453.0
376.0,481.0,454.0,471.0
348.0,466.0,479.0,539.0
455.0,487.0,561.0,530.0
531.0,514.0,679.0,576.0
649.0,526.0,542.0,658.0
585.0,499.0,415.0,501.0
629.0,513.0,487.0,515.0
654.0,527.0,611.0,513.0
653.0,521.0,551.0,513.0
613.0,517.0,452.0,530.0
618.0,529.0,439.0,522.0
597.0,526.0,487.0,522.0
601.0,537.0,468.0,525.0
544.0,537.0,420.0,573.0
483.0,515.0,514.0,542.0
464.0,508.0,454.0,477.0
405.0,469.0,539.0,474.0
416.0,482.0,532.0,532.0
480.0,489.0,513.0,527.0
539.0,492.0,519.0,475.0
515.0,512.0,504.0,505.0
481.0,509.0,530.0,512.0
531.0,504.0,617.0,578.0
525.0,494.0,561.0,562.0
590.0,512.0,393.0,504.0
542.0,500.0,498.0,520.0
490.0,490.0,550.0,521.0
524.0,494.0,647.0,638.0
573.0,525.0,654.0,533.0
576.0,542.0,420.0,390.0
563.0,526.0,423.0,491.0
560.0,522.0,525.0,460.0
550.0,531.0,559.0,606.0
545.0,530.0,542.0,579.0
568.0,518.0,426.0,491.0
583.0,488.0,419.0,465.0
581.0,517.0,536.0,498.0
570.0,521.0,535.0,508.0
551.0,524.0,499.0,509.0
534.0,514.0,502.0,501.0
521.0,514.0,491.0,464.0
514.0,511.0,546.0,548.0
511.0,517.0,581.0,595.0
514.0,541.0,568.0,487.0
516.0,546.0,631.0,489.0
508.0,545.0,532.0,510.0
502.0,497.0,354.0,489.0
500.0,474.0,344.0,455.0
514.0,491.0,488.0,544.0
514.0,501.0,535.0,552.0
514.0,499.0,519.0,520.0
513.0,499.0,495.0,523.0
506.0,493.0,611.0,563.0
508.0,497.0,580.0,519.0
520.0,498.0,642.0,474.0
516.0,506.0,508.0,514.0
501.0,492.0,412.0,512.0
506.0,493.0,459.0,522.0
504.0,490.0,529.0,503.0
485.0,485.0,502.0,549.0
481.0,485.0,496.0,505.0
414.0,479.0,575.0,449.0
267.0,470.0,486.0,534.0
152.0,460.0,334.0,535.0
152.0,450.0,492.0,504.0
155.0,434.0,534.0,552.0
233.0,428.0,454.0,510.0
551.0,478.0,505.0,507.0
803.0,571.0,463.0,469.0
759.0,560.0,519.0,464.0
719.0,540.0,558.0,564.0
687.0,546.0,631.0,590.0
634.0,524.0,606.0,552.0
609.0,516.0,452.0,473.0
532.0,498.0,458.0,424.0
521.0,505.0,573.0,486.0
548.0,528.0,504.0,530.0
538.0,517.0,452.0,571.0
535.0,512.0,459.0,522.0
584.0,525.0,493.0,508.0
599.0,540.0,593.0,514.0
558.0,525.0,618.0,473.0
520.0,513.0,549.0,524.0
498.0,504.0,435.0,553.0
444.0,516.0,484.0,511.0
340.0,477.0,459.0,473.0
319.0,451.0,521.0,512.0
326.0,483.0,512.0,511.0
265.0,453.0,547.0,500.0
263.0,450.0,476.0,491.0
421.0,488.0,478.0,519.0
565.0,499.0,518.0,569.0
618.0,517.0,468.0,559.0
748.0,542.0,405.0,439.0
792.0,549.0,512.0,454.0
736.0,542.0,525.0,417.0
634.0,539.0,503.0,483.0
592.0,522.0,518.0,556.0
551.0,507.0,507.0,557.0
501.0,512.0,518.0,540.0
426.0,495.0,563.0,518.0
222.0,474.0,488.0,482.0
148.0,474.0,514.0,498.0
197.0,464.0,652.0,474.0
315.0,481.0,555.0,525.0
445.0,464.0,398.0,515.0
694.0,502.0,518.0,440.0
898.0,582.0,501.0,516.0
840.0,570.0,556.0,586.0
727.0,562.0,745.0,590.0
645.0,520.0,540.0,418.0
614.0,502.0,263.0,430.0
595.0,504.0,478.0,529.0
590.0,510.0,507.0,547.0
576.0,539.0,453.0,524.0
572.0,541.0,499.0,526.0
569.0,533.0,467.0,489.0
560.0,514.0,483.0,518.0
546.0,498.0,616.0,459.0
543.0,505.0,570.0,506.0
523.0,494.0,454.0,538.0
507.0,494.0,504.0,493.0
492.0,494.0,541.0,487.0
493.0,493.0,574.0,494.0
481.0,488.0,577.0,540.0
493.0,482.0,533.0,536.0
549.0,508.0,586.0,595.0
525.0,518.0,463.0,519.0
510.0,528.0,328.0,473.0
513.0,527.0,522.0,515.0
508.0,515.0,538.0,513.0
511.0,506.0,510.0,441.0
508.0,501.0,470.0,523.0
512.0,505.0,398.0,488.0
516.0,518.0,532.0,501.0
521.0,507.0,502.0,431.0
516.0,485.0,551.0,522.0
530.0,510.0,548.0,511.0
510.0,505.0,497.0,527.0
495.0,499.0,562.0,462.0
477.0,493.0,468.0,477.0
456.0,496.0,467.0,532.0
428.0,493.0,491.0,473.0
404.0,495.0,477.0,494.0
335.0,482.0,496.0,456.0
383.0,502.0,521.0,533.0
424.0,493.0,475.0,644.0
427.0,466.0,585.0,540.0
507.0,487.0,517.0,424.0
656.0,538.0,590.0,440.0
632.0,538.0,635.0,534.0
568.0,519.0,625.0,525.0
541.0,516.0,494.0,487.0
543.0,514.0,499.0,499.0
547.0,511.0,531.0,506.0
565.0,511.0,554.0,603.0
535.0,489.0,648.0,556.0
477.0,477.0,657.0,502.0
472.0,488.0,368.0,508.0
466.0,501.0,359.0,489.0
469.0,503.0,522.0,600.0
488.0,518.0,537.0,512.0
438.0,515.0,501.0,470.0
359.0,476.0,414.0,498.0
290.0,438.0,436.0,530.0
313.0,445.0,494.0,506.0
435.0,499.0,540.0,506.0
518.0,515.0,450.0,459.0
627.0,516.0,484.0,446.0
687.0,546.0,481.0,466.0
676.0,535.0,531.0,493.0
648.0,519.0,541.0,509.0
539.0,483.0,501.0,517.0
404.0,460.0,517.0,522.0
306.0,444.0,517.0,494.0
296.0,460.0,520.0,542.0
310.0,467.0,505.0,512.0
355.0,455.0,465.0,499.0
421.0,482.0,449.0,502.0
557.0,527.0,465.0,474.0
693.0,572.0,497.0,421.0
610.0,513.0,562.0,419.0
632.0,508.0,542.0,681.0
732.0,564.0,515.0,588.0
705.0,562.0,469.0,458.0
660.0,538.0,510.0,453.0
602.0,527.0,534.0,458.0
577.0,514.0,571.0,420.0
579.0,512.0,534.0,550.0
606.0,518.0,568.0,538.0
546.0,503.0,522.0,489.0
484.0,489.0,533.0,488.0
513.0,498.0,488.0,496.0
493.0,488.0,434.0,545.0
501.0,498.0,493.0,436.0
546.0,512.0,485.0,433.0
569.0,513.0,497.0,515.0
566.0,499.0,455.0,511.0
553.0,534.0,576.0,523.0
556.0,521.0,584.0,564.0
552.0,521.0,558.0,562.0
541.0,524.0,436.0,470.0
541.0,531.0,505.0,534.0
537.0,499.0,527.0,466.0
533.0,491.0,537.0,498.0
523.0,499.0,670.0,505.0
506.0,492.0,635.0,512.0
496.0,498.0,425.0,525.0
485.0,497.0,491.0,497.0
490.0,489.0,551.0,492.0
493.0,495.0,362.0,479.0
513.0,524.0,493.0,518.0
512.0,531.0,483.0,498.0
504.0,521.0,425.0,503.0
498.0,511.0,436.0,473.0
499.0,512.0,469.0,444.0
513.0,512.0,509.0,485.0
520.0,513.0,620.0,590.0
524.0,518.0,531.0,491.0
531.0,522.0,555.0,527.0
528.0,527.0,622.0,538.0
514.0,513.0,390.0,448.0
513.0,486.0,455.0,523.0
490.0,476.0,547.0,539.0
488.0,480.0,502.0,459.0
489.0,484.0,471.0,487.0
484.0,514.0,487.0,483.0
470.0,509.0,488.0,499.0
466.0,509.0,448.0,443.0
436.0,505.0,468.0,469.0
431.0,492.0,494.0,546.0
425.0,482.0,529.0,543.0
458.0,508.0,476.0,479.0
491.0,506.0,632.0,477.0
533.0,510.0,446.0,466.0
584.0,524.0,475.0,519.0
559.0,512.0,543.0,518.0
524.0,501.0,501.0,457.0
474.0,492.0,520.0,547.0
419.0,491.0,635.0,535.0
375.0,473.0,658.0,537.0
342.0,454.0,501.0,440.0
410.0,462.0,470.0,483.0
551.0,506.0,404.0,476.0
646.0,535.0,480.0,562.0
663.0,536.0,507.0,544.0
600.0,529.0,510.0,551.0
542.0,519.0,515.0,519.0
524.0,509.0,439.0,342.0
560.0,524.0,473.0,464.0
556.0,517.0,570.0,554.0
556.0,516.0,527.0,557.0
616.0,536.0,496.0,484.0
600.0,552.0,473.0,477.0
559.0,528.0,501.0,467.0
531.0,497.0,521.0,391.0
482.0,475.0,525.0,517.0
398.0,457.0,522.0,529.0
338.0,442.0,499.0,511.0
339.0,455.0,480.0,539.0
316.0,454.0,485.0,531.0
238.0,434.0,601.0,586.0
372.0,474.0,571.0,578.0
503.0,505.0,484.0,459.0
542.0,510.0,425.0,479.0
487.0,484.0,477.0,479.0
722.0,532.0,487.0,498.0
775.0,552.0,503.0,478.0
716.0,571.0,452.0,507.0
630.0,522.0,547.0,480.0
617.0,518.0,540.0,496.0
606.0,519.0,532.0,496.0
578.0,505.0,561.0,371.0
550.0,503.0,513.0,441.0
530.0,509.0,463.0,625.0
531.0,513.0,477.0,475.0
516.0,516.0,491.0,495.0
522.0,532.0,490.0,509.0
520.0,525.0,485.0,515.0
550.0,523.0,506.0,521.0
526.0,505.0,493.0,497.0
506.0,500.0,469.0,447.0
505.0,502.0,502.0,492.0
502.0,503.0,532.0,524.0
536.0,533.0,482.0,480.0
543.0,516.0,563.0,507.0
526.0,516.0,535.0,477.0
533.0,519.0,553.0,488.0
530.0,521.0,518.0,516.0
510.0,508.0,527.0,433.0
499.0,481.0,542.0,498.0
494.0,498.0,519.0,542.0
494.0,494.0,478.0,494.0
509.0,501.0,427.0,520.0
513.0,515.0,470.0,477.0
507.0,503.0,461.0,475.0
508.0,518.0,471.0,478.0
500.0,513.0,516.0,508.0
499.0,495.0,495.0,515.0
521.0,527.0,487.0,459.0
519.0,511.0,533.0,504.0
526.0,518.0,644.0,525.0
529.0,511.0,548.0,483.0
523.0,503.0,455.0,513.0
518.0,504.0,513.0,448.0
520.0,501.0,513.0,461.0
506.0,491.0,542.0,532.0
499.0,489.0,541.0,503.0
495.0,492.0,535.0,497.0
491.0,507.0,487.0,509.0
498.0,516.0,435.0,545.0
496.0,511.0,442.0,477.0
498.0,513.0,472.0,436.0
501.0,503.0,542.0,508.0
499.0,504.0,523.0,543.0
499.0,505.0,471.0,512.0
512.0,502.0,466.0,441.0
533.0,514.0,525.0,484.0
536.0,518.0,538.0,537.0
531.0,516.0,539.0,462.0
528.0,509.0,545.0,526.0
496.0,498.0,543.0,497.0
447.0,486.0,534.0,469.0
420.0,472.0,479.0,482.0
423.0,483.0,479.0,473.0
409.0,481.0,469.0,486.0
417.0,477.0,499.0,545.0
565.0,516.0,475.0,509.0
599.0,538.0,466.0,495.0
522.0,518.0,479.0,399.0
533.0,513.0,460.0,572.0
561.0,515.0,511.0,514.0
545.0,511.0,508.0,474.0
537.0,511.0,504.0,478.0
553.0,522.0,506.0,485.0
536.0,512.0,526.0,481.0
513.0,499.0,517.0,483.0
504.0,495.0,532.0,491.0
496.0,498.0,517.0,505.0
493.0,494.0,517.0,487.0
503.0,497.0,509.0,471.0
512.0,490.0,496.0,496.0
540.0,509.0,493.0,502.0
521.0,521.0,485.0,501.0
505.0,492.0,482.0,497.0
516.0,484.0,478.0,500.0
506.0,476.0,480.0,489.0
510.0,495.0,479.0,491.0
514.0,514.0,483.0,484.0
512.0,496.0,498.0,483.0
509.0,507.0,508.0,482.0
497.0,519.0,517.0,481.0
505.0,520.0,521.0,480.0
537.0,524.0,529.0,481.0
550.0,513.0,527.0,482.0
518.0,516.0,520.0,486.0
525.0,505.0,515.0,492.0
506.0,506.0,508.0,495.0
462.0,483.0,496.0,497.0
460.0,501.0,489.0,499.0
496.0,511.0,483.0,498.0
508.0,510.0,480.0,500.0
503.0,509.0,477.0,494.0
563.0,530.0,475.0,489.0
588.0,550.0,478.0,489.0
553.0,542.0,489.0,485.0
534.0,526.0,496.0,476.0
545.0,545.0,502.0,473.0
550.0,532.0,509.0,479.0
547.0,518.0,521.0,475.0
542.0,514.0,526.0,487.0
538.0,514.0,524.0,502.0
523.0,509.0,521.0,497.0
515.0,497.0,510.0,487.0
507.0,511.0,495.0,487.0
508.0,507.0,481.0,479.0
508.0,510.0,481.0,504.0
508.0,507.0,479.0,505.0
510.0,504.0,473.0,489.0
509.0,507.0,470.0,510.0
513.0,524.0,484.0,489.0
507.0,513.0,484.0,475.0
510.0,497.0,491.0,476.0
519.0,524.0,501.0,479.0
525.0,520.0,510.0,476.0
531.0,513.0,505.0,459.0
531.0,506.0,512.0,473.0
528.0,500.0,536.0,500.0
517.0,497.0,533.0,502.0
513.0,494.0,502.0,479.0
499.0,489.0,494.0,471.0
495.0,488.0,492.0,526.0
496.0,489.0,501.0,508.0
500.0,499.0,479.0,515.0
494.0,504.0,467.0,499.0
510.0,511.0,479.0,475.0
513.0,513.0,482.0,495.0
510.0,505.0,473.0,491.0
512.0,502.0,474.0,498.0
509.0,496.0,487.0,521.0
509.0,505.0,503.0,473.0
527.0,508.0,520.0,468.0
530.0,509.0,522.0,490.0
529.0,505.0,530.0,473.0
524.0,503.0,532.0,488.0
523.0,501.0,517.0,487.0
507.0,487.0,514.0,492.0
502.0,485.0,513.0,485.0
503.0,489.0,500.0,510.0
501.0,497.0,488.0,507.0
502.0,504.0,484.0,501.0
511.0,513.0,481.0,496.0
514.0,528.0,479.0,497.0
511.0,522.0,477.0,497.0
511.0,514.0,484.0,482.0
514.0,511.0,497.0,474.0
515.0,499.0,492.0,489.0
528.0,508.0,499.0,484.0
525.0,504.0,518.0,487.0
523.0,495.0,528.0,490.0
526.0,509.0,531.0,489.0
521.0,503.0,529.0,493.0
515.0,499.0,522.0,496.0
505.0,495.0,516.0,499.0
497.0,502.0,508.0,503.0
502.0,498.0,496.0,503.0
503.0,505.0,487.0,502.0
504.0,506.0,479.0,499.0
511.0,510.0,475.0,498.0
513.0,512.0,477.0,495.0
510.0,512.0,479.0,491.0
509.0,504.0,481.0,483.0
517.0,513.0,490.0,485.0
520.0,510.0,498.0,482.0
521.0,503.0,511.0,484.0
529.0,498.0,523.0,483.0
525.0,495.0,530.0,488.0
522.0,487.0,534.0,491.0
518.0,493.0,528.0,495.0
514.0,487.0,521.0,493.0
503.0,484.0,511.0,497.0
503.0,475.0,499.0,502.0
497.0,483.0,496.0,500.0
490.0,498.0,483.0,500.0
489.0,469.0,482.0,502.0
493.0,495.0,481.0,497.0
476.0,508.0,481.0,495.0
482.0,518.0,482.0,493.0
487.0,522.0,492.0,490.0
500.0,535.0,498.0,489.0
507.0,535.0,509.0,490.0
547.0,541.0,515.0,491.0
564.0,547.0,524.0,490.0
558.0,541.0,531.0,492.0
556.0,526.0,530.0,490.0
540.0,495.0,526.0,490.0
517.0,495.0,515.0,494.0
525.0,494.0,505.0,496.0
518.0,484.0,494.0,502.0
509.0,477.0,490.0,505.0
508.0,507.0,483.0,500.0
508.0,521.0,477.0,496.0
500.0,533.0,474.0,493.0
495.0,530.0,476.0,492.0
497.0,525.0,481.0,495.0
512.0,549.0,492.0,490.0
515.0,542.0,509.0,491.0
561.0,546.0,519.0,492.0
558.0,545.0,523.0,490.0
534.0,476.0,528.0,489.0
530.0,491.0,534.0,491.0
527.0,492.0,530.0,495.0
521.0,494.0,523.0,497.0
507.0,478.0,517.0,503.0
503.0,482.0,508.0,503.0
496.0,496.0,497.0,506.0
502.0,508.0,490.0,507.0
504.0,520.0,483.0,505.0
508.0,527.0,482.0,503.0
512.0,508.0,483.0,496.0
511.0,482.0,485.0,498.0
508.0,483.0,489.0,497.0
509.0,497.0,497.0,493.0
515.0,506.0,504.0,489.0
524.0,514.0,511.0,492.0
536.0,514.0,524.0,491.0
531.0,508.0,534.0,496.0
529.0,514.0,534.0,500.0
518.0,510.0,531.0,500.0
502.0,482.0,526.0,500.0
497.0,479.0,513.0,506.0
499.0,500.0,501.0,507.0
507.0,509.0,494.0,506.0
505.0,509.0,490.0,509.0
506.0,517.0,488.0,512.0
510.0,517.0,485.0,509.0
506.0,516.0,486.0,504.0
505.0,509.0,485.0,500.0
507.0,501.0,490.0,495.0
512.0,498.0,498.0,493.0
518.0,501.0,513.0,494.0
522.0,514.0,524.0,499.0
523.0,517.0,529.0,497.0
529.0,503.0,536.0,501.0
524.0,489.0,534.0,499.0
517.0,488.0,528.0,502.0
503.0,483.0,518.0,504.0
506.0,481.0,509.0,505.0
506.0,488.0,500.0,508.0
503.0,503.0,491.0,511.0
502.0,515.0,488.0,507.0
502.0,516.0,483.0,506.0
518.0,547.0,483.0,505.0
512.0,547.0,484.0,501.0
511.0,518.0,485.0,502.0
518.0,508.0,496.0,498.0
511.0,510.0,505.0,498.0
519.0,488.0,517.0,497.0
529.0,501.0,527.0,498.0
532.0,502.0,532.0,501.0
530.0,496.0,540.0,504.0
525.0,516.0,539.0,506.0
523.0,489.0,536.0,507.0
512.0,472.0,523.0,510.0
501.0,452.0,509.0,514.0
497.0,444.0,498.0,511.0
485.0,474.0,491.0,514.0
497.0,499.0,488.0,512.0
500.0,535.0,488.0,508.0
516.0,561.0,487.0,508.0
514.0,563.0,488.0,506.0
511.0,544.0,489.0,502.0
515.0,534.0,497.0,504.0
522.0,537.0,510.0,503.0
528.0,524.0,528.0,504.0
532.0,509.0,534.0,502.0
524.0,507.0,535.0,505.0
525.0,494.0,536.0,502.0
517.0,491.0,528.0,503.0
501.0,467.0,526.0,501.0
493.0,460.0,512.0,502.0
485.0,476.0,503.0,506.0
496.0,503.0,493.0,509.0
506.0,524.0,488.0,509.0
509.0,539.0,486.0,510.0
520.0,555.0,485.0,508.0
520.0,547.0,488.0,512.0
520.0,535.0,493.0,508.0
521.0,527.0,499.0,503.0
515.0,454.0,509.0,498.0
520.0,481.0,520.0,498.0
527.0,526.0,528.0,505.0
526.0,529.0,541.0,502.0
527.0,529.0,542.0,504.0
523.0,536.0,543.0,503.0
518.0,523.0,538.0,501.0
498.0,483.0,525.0,501.0
495.0,481.0,509.0,502.0
499.0,488.0,500.0,501.0
500.0,473.0,494.0,506.0
498.0,480.0,492.0,498.0
502.0,512.0,483.0,497.0
510.0,524.0,487.0,495.0
509.0,520.0,487.0,494.0
508.0,513.0,487.0,488.0
510.0,502.0,495.0,486.0
512.0,501.0,504.0,484.0
521.0,504.0,515.0,488.0
524.0,498.0,531.0,490.0
523.0,500.0,541.0,491.0
525.0,513.0,540.0,493.0
519.0,509.0,536.0,497.0
512.0,506.0,532.0,501.0
500.0,497.0,520.0,502.0
494.0,483.0,511.0,504.0
499.0,503.0,499.0,504.0
504.0,500.0,491.0,507.0
503.0,502.0,487.0,506.0
504.0,506.0,489.0,505.0
509.0,513.0,486.0,503.0
509.0,509.0,487.0,500.0
507.0,503.0,490.0,491.0
514.0,503.0,498.0,492.0
517.0,497.0,513.0,493.0
523.0,509.0,523.0,494.0
524.0,509.0,537.0,492.0
527.0,515.0,541.0,496.0
526.0,527.0,543.0,499.0
519.0,515.0,530.0,496.0
505.0,503.0,525.0,497.0
505.0,501.0,515.0,499.0
502.0,499.0,502.0,500.0
505.0,493.0,497.0,503.0
501.0,492.0,489.0,502.0
504.0,490.0,483.0,502.0
507.0,499.0,484.0,497.0
509.0,500.0,484.0,490.0
502.0,505.0,489.0,486.0
501.0,505.0,496.0,485.0
509.0,523.0,506.0,487.0
519.0,530.0,514.0,482.0
531.0,510.0,530.0,488.0
536.0,514.0,537.0,496.0
532.0,524.0,543.0,501.0
525.0,531.0,545.0,501.0
526.0,550.0,540.0,497.0
512.0,502.0,530.0,497.0
503.0,476.0,521.0,502.0
500.0,492.0,510.0,503.0
489.0,472.0,502.0,506.0
491.0,491.0,493.0,504.0
506.0,511.0,487.0,496.0
510.0,520.0,485.0,491.0
505.0,503.0,484.0,492.0
506.0,506.0,484.0,480.0
510.0,503.0,491.0,483.0
517.0,514.0,507.0,486.0
522.0,520.0,520.0,491.0
523.0,496.0,517.0,485.0
528.0,488.0,526.0,489.0
530.0,496.0,531.0,494.0
529.0,535.0,529.0,495.0
521.0,527.0,527.0,498.0
505.0,502.0,514.0,501.0
506.0,493.0,505.0,500.0
501.0,500.0,500.0,502.0
502.0,528.0,492.0,501.0
504.0,534.0,490.0,508.0
514.0,555.0,495.0,507.0
524.0,567.0,497.0,507.0
530.0,547.0,496.0,505.0
523.0,521.0,503.0,505.0
502.0,447.0,507.0,499.0
510.0,446.0,509.0,496.0
518.0,465.0,519.0,492.0
516.0,493.0,528.0,496.0
513.0,493.0,535.0,491.0
525.0,493.0,534.0,496.0
519.0,486.0,533.0,500.0
503.0,509.0,524.0,503.0
496.0,530.0,517.0,510.0
498.0,522.0,508.0,515.0
500.0,519.0,500.0,517.0
503.0,514.0,496.0,516.0
506.0,477.0,498.0,516.0
504.0,457.0,500.0,517.0
502.0,479.0,496.0,512.0
501.0,488.0,496.0,502.0
504.0,504.0,504.0,496.0
511.0,517.0,505.0,493.0
524.0,530.0,517.0,492.0
531.0,544.0,521.0,494.0
524.0,521.0,524.0,497.0
524.0,505.0,528.0,493.0
514.0,495.0,529.0,498.0
509.0,501.0,526.0,500.0
498.0,483.0,516.0,501.0
490.0,480.0,506.0,504.0
490.0,489.0,500.0,507.0
493.0,499.0,487.0,512.0
499.0,512.0,485.0,510.0
504.0,523.0,482.0,514.0
508.0,521.0,485.0,508.0
509.0,523.0,492.0,510.0
506.0,512.0,501.0,502.0
506.0,516.0,506.0,503.0
509.0,516.0,516.0,503.0
517.0,510.0,519.0,503.0
528.0,516.0,533.0,504.0
525.0,518.0,541.0,507.0
527.0,519.0,536.0,504.0
515.0,514.0,531.0,503.0
511.0,516.0,523.0,502.0
502.0,487.0,514.0,504.0
497.0,487.0,503.0,505.0
497.0,507.0,494.0,509.0
504.0,518.0,487.0,507.0
502.0,508.0,481.0,509.0
512.0,492.0,479.0,504.0
513.0,496.0,480.0,502.0
511.0,505.0,482.0,502.0
513.0,526.0,491.0,500.0
513.0,509.0,501.0,501.0
514.0,503.0,509.0,500.0
524.0,520.0,521.0,505.0
527.0,501.0,540.0,507.0
529.0,491.0,541.0,510.0
527.0,485.0,542.0,509.0
519.0,495.0,537.0,512.0
512.0,513.0,528.0,511.0
493.0,517.0,517.0,513.0
491.0,502.0,506.0,511.0
496.0,505.0,496.0,517.0
503.0,507.0,493.0,514.0
502.0,481.0,490.0,517.0
518.0,494.0,487.0,517.0
517.0,512.0,487.0,512.0
507.0,524.0,491.0,508.0
509.0,488.0,493.0,504.0
507.0,458.0,505.0,506.0
504.0,490.0,518.0,504.0
513.0,513.0,524.0,507.0
520.0,520.0,529.0,501.0
523.0,524.0,532.0,500.0
517.0,526.0,531.0,504.0
510.0,530.0,527.0,502.0
499.0,509.0,521.0,503.0
495.0,491.0,506.0,504.0
495.0,483.0,493.0,506.0
497.0,470.0,488.0,506.0
500.0,470.0,486.0,506.0
500.0,494.0,481.0,505.0
512.0,516.0,480.0,503.0
513.0,523.0,482.0,500.0
519.0,488.0,480.0,495.0
517.0,474.0,487.0,491.0
520.0,483.0,500.0,495.0
526.0,502.0,511.0,502.0
528.0,556.0,518.0,502.0
528.0,577.0,535.0,501.0
519.0,549.0,547.0,505.0
518.0,578.0,533.0,505.0
516.0,566.0,530.0,508.0
500.0,506.0,524.0,511.0
493.0,457.0,501.0,507.0
492.0,468.0,494.0,511.0
497.0,495.0,486.0,510.0
498.0,496.0,484.0,506.0
502.0,497.0,485.0,503.0
505.0,504.0,486.0,499.0
507.0,502.0,486.0,494.0
510.0,499.0,488.0,493.0
507.0,507.0,496.0,494.0
514.0,506.0,498.0,491.0
522.0,511.0,504.0,491.0
531.0,517.0,517.0,487.0
533.0,519.0,525.0,492.0
526.0,512.0,524.0,492.0
523.0,512.0,516.0,494.0
510.0,499.0,504.0,494.0
504.0,500.0,499.0,501.0
495.0,491.0,484.0,502.0
495.0,477.0,479.0,500.0
493.0,438.0,477.0,502.0
502.0,481.0,483.0,505.0
507.0,510.0,483.0,509.0
508.0,542.0,490.0,507.0
514.0,557.0,496.0,509.0
515.0,558.0,500.0,502.0
518.0,516.0,505.0,499.0
517.0,501.0,507.0,493.0
522.0,525.0,516.0,495.0
523.0,514.0,524.0,501.0
523.0,495.0,528.0,494.0
513.0,495.0,524.0,501.0
512.0,479.0,523.0,506.0
500.0,467.0,509.0,509.0
497.0,473.0,497.0,510.0
497.0,484.0,493.0,512.0
501.0,497.0,489.0,513.0
503.0,495.0,489.0,507.0
505.0,488.0,493.0,509.0
509.0,491.0,496.0,508.0
510.0,474.0,493.0,505.0
506.0,484.0,492.0,501.0
506.0,524.0,488.0,498.0
516.0,550.0,498.0,494.0
521.0,537.0,507.0,495.0
527.0,581.0,520.0,493.0
527.0,550.0,529.0,494.0
523.0,497.0,527.0,492.0
522.0,499.0,524.0,495.0
518.0,497.0,515.0,498.0
504.0,488.0,502.0,500.0
487.0,457.0,496.0,512.0
489.0,484.0,492.0,508.0
497.0,501.0,489.0,514.0
500.0,517.0,490.0,518.0
508.0,515.0,490.0,520.0
512.0,501.0,492.0,515.0
513.0,516.0,487.0,513.0
508.0,506.0,490.0,505.0
509.0,454.0,498.0,508.0
506.0,500.0,510.0,506.0
520.0,543.0,519.0,514.0
525.0,519.0,534.0,515.0
528.0,513.0,538.0,514.0
529.0,525.0,536.0,512.0
521.0,501.0,534.0,512.0
505.0,486.0,524.0,511.0
495.0,468.0,511.0,508.0
488.0,452.0,494.0,502.0
490.0,473.0,484.0,503.0
494.0,500.0,476.0,500.0
499.0,510.0,476.0,501.0
505.0,531.0,475.0,500.0
507.0,535.0,476.0,498.0
512.0,517.0,479.0,499.0
511.0,516.0,490.0,497.0
512.0,519.0,499.0,500.0
523.0,534.0,509.0,501.0
528.0,532.0,522.0,506.0
529.0,509.0,527.0,505.0
526.0,478.0,534.0,506.0
518.0,495.0,530.0,514.0
518.0,496.0,525.0,514.0
502.0,475.0,516.0,513.0
499.0,485.0,508.0,517.0
495.0,516.0,498.0,517.0
502.0,512.0,494.0,519.0
498.0,501.0,489.0,517.0
500.0,512.0,487.0,519.0
506.0,515.0,490.0,518.0
509.0,519.0,492.0,518.0
506.0,518.0,492.0,517.0
511.0,511.0,498.0,508.0
515.0,514.0,508.0,513.0
520.0,500.0,522.0,514.0
530.0,498.0,535.0,516.0
528.0,494.0,547.0,518.0
527.0,491.0,556.0,515.0
513.0,484.0,545.0,511.0
514.0,492.0,528.0,505.0
505.0,485.0,505.0,501.0
498.0,481.0,491.0,502.0
502.0,494.0,485.0,504.0
501.0,504.0,482.0,508.0
495.0,522.0,480.0,508.0
502.0,536.0,479.0,512.0
499.0,531.0,482.0,508.0
504.0,520.0,485.0,515.0
502.0,486.0,493.0,506.0
506.0,488.0,503.0,509.0
513.0,471.0,519.0,511.0
526.0,475.0,522.0,510.0
525.0,481.0,530.0,512.0
523.0,487.0,534.0,518.0
518.0,501.0,540.0,517.0
519.0,504.0,533.0,511.0
509.0,489.0,526.0,512.0
503.0,508.0,513.0,519.0
505.0,509.0,510.0,521.0
505.0,521.0,505.0,517.0
513.0,528.0,494.0,525.0
512.0,534.0,496.0,528.0
516.0,556.0,491.0,526.0
504.0,524.0,493.0,519.0
507.0,510.0,490.0,511.0
517.0,481.0,497.0,509.0
521.0,483.0,500.0,508.0
526.0,510.0,506.0,501.0
528.0,515.0,512.0,497.0
518.0,480.0,522.0,500.0
510.0,501.0,528.0,501.0
502.0,517.0,528.0,503.0
508.0,516.0,523.0,503.0
497.0,501.0,518.0,505.0
492.0,495.0,515.0,508.0
492.0,492.0,493.0,513.0
494.0,502.0,489.0,512.0
501.0,506.0,482.0,512.0
505.0,515.0,485.0,515.0
507.0,508.0,489.0,517.0
504.0,496.0,489.0,517.0
506.0,478.0,491.0,514.0
509.0,476.0,502.0,513.0
517.0,507.0,513.0,512.0
528.0,535.0,519.0,508.0
534.0,545.0,523.0,508.0
532.0,526.0,526.0,509.0
526.0,523.0,527.0,509.0
514.0,442.0,526.0,511.0
511.0,449.0,526.0,513.0
497.0,483.0,524.0,519.0
488.0,496.0,519.0,521.0
491.0,522.0,515.0,520.0
495.0,525.0,499.0,520.0
502.0,521.0,485.0,511.0
508.0,523.0,482.0,506.0
505.0,509.0,479.0,506.0
503.0,512.0,482.0,502.0
501.0,514.0,485.0,501.0
510.0,516.0,491.0,497.0
517.0,503.0,502.0,498.0
522.0,513.0,517.0,502.0
525.0,501.0,531.0,507.0
523.0,500.0,537.0,510.0
520.0,503.0,534.0,513.0
514.0,502.0,529.0,513.0
505.0,497.0,521.0,516.0
499.0,501.0,515.0,516.0
495.0,493.0,503.0,519.0
494.0,492.0,495.0,519.0
501.0,495.0,492.0,517.0
503.0,488.0,490.0,520.0
511.0,497.0,490.0,521.0
512.0,498.0,494.0,518.0
512.0,511.0,495.0,514.0
512.0,515.0,498.0,516.0
513.0,527.0,504.0,515.0
515.0,521.0,512.0,509.0
520.0,516.0,519.0,505.0
523.0,507.0,527.0,508.0
523.0,505.0,534.0,510.0
521.0,500.0,532.0,515.0
520.0,506.0,536.0,521.0
503.0,493.0,529.0,521.0
497.0,489.0,518.0,523.0
492.0,489.0,508.0,523.0
500.0,500.0,499.0,524.0
500.0,511.0,493.0,523.0
509.0,513.0,490.0,514.0
509.0,513.0,487.0,510.0
509.0,524.0,484.0,505.0
510.0,514.0,480.0,493.0
515.0,508.0,489.0,491.0
517.0,504.0,498.0,493.0
523.0,474.0,509.0,496.0
523.0,495.0,520.0,500.0
523.0,512.0,527.0,503.0
524.0,494.0,529.0,511.0
512.0,478.0,527.0,509.0
508.0,477.0,520.0,514.0
498.0,475.0,514.0,516.0
496.0,485.0,505.0,517.0
506.0,528.0,499.0,524.0
504.0,484.0,498.0,520.0
500.0,499.0,501.0,524.0
506.0,538.0,498.0,523.0
507.0,522.0,494.0,521.0
505.0,515.0,495.0,513.0
507.0,484.0,500.0,510.0
513.0,483.0,503.0,510.0
515.0,489.0,512.0,505.0
532.0,509.0,517.0,511.0
538.0,524.0,528.0,510.0
535.0,534.0,534.0,514.0
515.0,536.0,534.0,516.0
512.0,511.0,531.0,515.0
503.0,489.0,528.0,518.0
500.0,478.0,520.0,518.0
499.0,485.0,508.0,519.0
496.0,502.0,492.0,517.0
500.0,504.0,486.0,517.0
499.0,503.0,485.0,514.0
510.0,508.0,488.0,511.0
518.0,522.0,490.0,510.0
522.0,529.0,492.0,513.0
518.0,528.0,498.0,508.0
522.0,531.0,502.0,510.0
528.0,525.0,512.0,513.0
522.0,502.0,524.0,511.0
502.0,482.0,533.0,514.0
510.0,512.0,534.0,515.0
515.0,493.0,531.0,519.0
514.0,492.0,533.0,516.0
502.0,483.0,523.0,517.0
489.0,478.0,512.0,517.0
500.0,528.0,505.0,522.0
502.0,512.0,497.0,520.0
501.0,477.0,486.0,516.0
502.0,496.0,481.0,513.0
506.0,514.0,483.0,512.0
511.0,515.0,491.0,515.0
510.0,513.0,497.0,515.0
508.0,521.0,508.0,520.0
511.0,522.0,525.0,519.0
523.0,517.0,541.0,519.0
524.0,516.0,537.0,513.0
522.0,499.0,526.0,504.0
523.0,497.0,526.0,505.0
518.0,503.0,519.0,502.0
508.0,492.0,519.0,503.0
498.0,482.0,515.0,508.0
493.0,481.0,500.0,512.0
500.0,489.0,490.0,510.0
502.0,502.0,486.0,514.0
506.0,502.0,497.0,519.0
509.0,499.0,501.0,519.0
510.0,491.0,490.0,506.0
510.0,494.0,490.0,504.0
499.0,507.0,491.0,509.0
511.0,525.0,502.0,510.0
510.0,513.0,513.0,509.0
524.0,525.0,520.0,509.0
526.0,508.0,530.0,512.0
525.0,508.0,535.0,511.0
519.0,503.0,532.0,514.0
517.0,515.0,531.0,516.0
506.0,494.0,525.0,520.0
498.0,496.0,516.0,521.0
499.0,490.0,511.0,527.0
503.0,496.0,503.0,526.0
497.0,508.0,499.0,526.0
502.0,513.0,499.0,526.0
510.0,518.0,499.0,522.0
507.0,512.0,496.0,511.0
506.0,518.0,492.0,505.0
510.0,513.0,500.0,509.0
514.0,503.0,505.0,507.0
525.0,508.0,522.0,508.0
527.0,514.0,524.0,511.0
523.0,509.0,528.0,510.0
527.0,508.0,533.0,512.0
522.0,505.0,531.0,512.0
517.0,503.0,526.0,511.0
500.0,488.0,514.0,513.0
497.0,486.0,503.0,514.0
496.0,488.0,498.0,516.0
496.0,477.0,493.0,515.0
498.0,498.0,490.0,518.0
509.0,508.0,489.0,519.0
508.0,512.0,489.0,514.0
508.0,519.0,493.0,515.0
508.0,510.0,497.0,511.0
514.0,504.0,501.0,507.0
523.0,509.0,511.0,506.0
521.0,519.0,519.0,511.0
524.0,517.0,531.0,512.0
525.0,507.0,536.0,511.0
524.0,505.0,534.0,514.0
517.0,498.0,532.0,514.0
511.0,492.0,528.0,515.0
499.0,489.0,517.0,517.0
499.0,492.0,508.0,518.0
504.0,501.0,501.0,519.0
505.0,506.0,498.0,521.0
507.0,524.0,497.0,522.0
511.0,498.0,493.0,519.0
502.0,465.0,493.0,514.0
504.0,513.0,497.0,518.0
508.0,509.0,501.0,511.0
513.0,499.0,509.0,512.0
520.0,504.0,514.0,511.0
528.0,506.0,530.0,511.0
532.0,505.0,533.0,515.0
532.0,507.0,538.0,512.0
522.0,501.0,536.0,517.0
514.0,536.0,533.0,518.0
501.0,486.0,524.0,518.0
495.0,471.0,521.0,521.0
495.0,470.0,511.0,522.0
499.0,457.0,503.0,521.0
499.0,469.0,500.0,522.0
500.0,478.0,500.0,524.0
503.0,486.0,498.0,523.0
505.0,542.0,496.0,523.0
511.0,531.0,497.0,519.0
510.0,535.0,500.0,514.0
505.0,546.0,509.0,510.0
516.0,548.0,515.0,512.0
524.0,551.0,525.0,506.0
524.0,515.0,529.0,503.0
526.0,482.0,532.0,506.0
523.0,496.0,528.0,510.0
521.0,505.0,526.0,514.0
503.0,495.0,517.0,514.0
505.0,499.0,512.0,520.0
508.0,508.0,504.0,522.0
499.0,510.0,502.0,525.0
494.0,518.0,505.0,526.0
500.0,517.0,500.0,522.0
503.0,522.0,498.0,514.0
497.0,515.0,493.0,513.0
498.0,509.0,494.0,509.0
509.0,498.0,497.0,503.0
511.0,501.0,506.0,503.0
522.0,509.0,519.0,502.0
525.0,507.0,527.0,505.0
524.0,508.0,534.0,508.0
525.0,500.0,534.0,511.0
517.0,499.0,534.0,512.0
510.0,498.0,524.0,512.0
501.0,506.0,515.0,511.0
500.0,505.0,502.0,519.0
493.0,488.0,499.0,515.0
501.0,493.0,491.0,517.0
503.0,500.0,488.0,516.0
509.0,511.0,488.0,511.0
511.0,508.0,490.0,513.0
511.0,516.0,493.0,512.0
509.0,504.0,498.0,508.0
515.0,505.0,506.0,506.0
514.0,512.0,515.0,503.0
516.0,506.0,529.0,509.0
521.0,509.0,533.0,506.0
519.0,505.0,536.0,513.0
518.0,498.0,533.0,513.0
513.0,502.0,533.0,515.0
504.0,493.0,521.0,515.0
500.0,488.0,512.0,521.0
496.0,492.0,503.0,518.0
496.0,499.0,505.0,523.0
500.0,503.0,496.0,524.0
508.0,506.0,494.0,520.0
512.0,510.0,494.0,520.0
515.0,511.0,492.0,516.0
514.0,507.0,495.0,509.0
513.0,504.0,498.0,512.0
514.0,507.0,509.0,507.0
519.0,510.0,520.0,508.0
525.0,508.0,529.0,509.0
527.0,517.0,537.0,512.0
527.0,521.0,543.0,514.0
521.0,518.0,536.0,518.0
516.0,502.0,532.0,520.0
499.0,456.0,522.0,521.0
495.0,461.0,512.0,520.0
497.0,490.0,509.0,522.0
495.0,503.0,497.0,521.0
499.0,505.0,490.0,519.0
504.0,514.0,488.0,516.0
506.0,515.0,490.0,516.0
509.0,516.0,491.0,516.0
507.0,501.0,497.0,513.0
509.0,496.0,508.0,507.0
514.0,483.0,520.0,514.0
517.0,488.0,529.0,511.0
525.0,503.0,538.0,514.0
526.0,520.0,539.0,515.0
525.0,540.0,535.0,515.0
521.0,523.0,531.0,515.0
506.0,500.0,527.0,512.0
496.0,492.0,518.0,519.0
498.0,489.0,507.0,523.0
498.0,491.0,499.0,526.0
504.0,507.0,494.0,528.0
506.0,509.0,490.0,523.0
503.0,519.0,492.0,519.0
510.0,530.0,490.0,515.0
514.0,524.0,489.0,507.0
514.0,522.0,498.0,513.0
518.0,517.0,507.0,511.0
520.0,470.0,516.0,506.0
529.0,472.0,522.0,507.0
529.0,486.0,530.0,508.0
513.0,503.0,539.0,512.0
512.0,534.0,536.0,515.0
515.0,512.0,533.0,519.0
496.0,479.0,523.0,517.0
498.0,478.0,510.0,517.0
495.0,455.0,497.0,517.0
494.0,488.0,492.0,519.0
500.0,526.0,491.0,519.0
504.0,538.0,494.0,518.0
507.0,533.0,496.0,521.0
506.0,523.0,498.0,517.0
507.0,515.0,492.0,506.0
511.0,515.0,499.0,505.0
519.0,504.0,507.0,503.0
521.0,507.0,516.0,506.0
523.0,521.0,523.0,507.0
527.0,516.0,530.0,508.0
527.0,512.0,529.0,509.0
520.0,507.0,531.0,512.0
515.0,494.0,525.0,512.0
498.0,488.0,518.0,516.0
493.0,485.0,509.0,519.0
498.0,496.0,502.0,519.0
501.0,501.0,497.0,522.0
504.0,505.0,492.0,517.0
503.0,498.0,488.0,517.0
507.0,497.0,489.0,514.0
511.0,500.0,494.0,511.0
507.0,514.0,499.0,509.0
515.0,527.0,509.0,512.0
522.0,524.0,516.0,514.0
522.0,495.0,523.0,516.0
525.0,507.0,535.0,513.0
523.0,518.0,540.0,515.0
524.0,514.0,538.0,516.0
517.0,501.0,531.0,516.0
504.0,489.0,525.0,517.0
500.0,498.0,515.0,518.0
499.0,504.0,508.0,519.0
498.0,508.0,504.0,525.0
503.0,508.0,497.0,525.0
504.0,509.0,498.0,522.0
505.0,505.0,496.0,520.0
509.0,507.0,495.0,517.0
509.0,510.0,499.0,516.0
510.0,499.0,505.0,511.0
515.0,508.0,512.0,511.0
526.0,512.0,521.0,512.0
525.0,515.0,527.0,514.0
526.0,505.0,538.0,515.0
521.0,490.0,542.0,516.0
520.0,503.0,538.0,516.0
520.0,496.0,530.0,512.0
503.0,486.0,519.0,512.0
498.0,488.0,512.0,514.0
502.0,490.0,504.0,515.0
503.0,488.0,499.0,517.0
508.0,496.0,497.0,518.0
509.0,504.0,491.0,521.0
508.0,506.0,493.0,516.0
510.0,502.0,493.0,514.0
504.0,497.0,496.0,511.0
506.0,498.0,504.0,511.0
506.0,516.0,510.0,513.0
509.0,518.0,520.0,511.0
522.0,516.0,527.0,517.0
525.0,514.0,537.0,514.0
524.0,490.0,540.0,514.0
520.0,498.0,536.0,513.0
510.0,517.0,532.0,517.0
501.0,494.0,521.0,518.0
491.0,493.0,513.0,520.0
495.0,502.0,504.0,522.0
497.0,497.0,498.0,523.0
499.0,498.0,494.0,521.0
505.0,502.0,493.0,519.0
505.0,510.0,494.0,516.0
508.0,518.0,496.0,516.0
509.0,514.0,502.0,512.0
517.0,513.0,511.0,511.0
521.0,503.0,517.0,512.0
523.0,500.0,522.0,514.0
530.0,498.0,531.0,513.0
522.0,496.0,537.0,513.0
522.0,502.0,542.0,515.0
519.0,512.0,543.0,517.0
506.0,500.0,533.0,521.0
499.0,505.0,526.0,522.0
500.0,497.0,513.0,524.0
498.0,507.0,500.0,527.0
502.0,499.0,495.0,529.0
502.0,483.0,495.0,525.0
511.0,526.0,495.0,526.0
511.0,542.0,497.0,520.0
514.0,549.0,494.0,514.0
514.0,541.0,504.0,512.0
520.0,541.0,510.0,511.0
517.0,479.0,521.0,507.0
513.0,434.0,529.0,508.0
523.0,480.0,530.0,509.0
520.0,492.0,530.0,508.0
525.0,515.0,532.0,509.0
527.0,516.0,531.0,511.0
508.0,493.0,522.0,516.0
501.0,487.0,512.0,517.0
505.0,486.0,499.0,519.0
504.0,495.0,491.0,511.0
501.0,521.0,489.0,516.0
490.0,522.0,487.0,512.0
501.0,524.0,487.0,508.0
505.0,512.0,493.0,513.0
505.0,509.0,496.0,507.0
512.0,528.0,504.0,505.0
512.0,515.0,509.0,510.0
519.0,513.0,520.0,509.0
527.0,507.0,530.0,507.0
529.0,508.0,536.0,513.0
528.0,503.0,537.0,515.0
524.0,499.0,535.0,514.0
514.0,493.0,531.0,517.0
502.0,493.0,520.0,519.0
492.0,497.0,515.0,520.0
495.0,500.0,506.0,519.0
496.0,512.0,499.0,518.0
502.0,511.0,494.0,518.0
506.0,525.0,490.0,517.0
511.0,497.0,488.0,515.0
507.0,494.0,493.0,514.0
508.0,497.0,497.0,510.0
514.0,499.0,506.0,513.0
518.0,515.0,517.0,510.0
528.0,514.0,527.0,510.0
529.0,509.0,531.0,510.0
528.0,501.0,539.0,514.0
522.0,498.0,537.0,518.0
515.0,495.0,532.0,515.0
506.0,482.0,527.0,520.0
493.0,484.0,518.0,520.0
494.0,495.0,513.0,523.0
499.0,499.0,509.0,524.0
500.0,496.0,497.0,521.0
500.0,507.0,494.0,523.0
506.0,502.0,493.0,520.0
510.0,502.0,493.0,516.0
514.0,515.0,498.0,516.0
513.0,519.0,503.0,514.0
517.0,514.0,511.0,511.0
522.0,516.0,519.0,509.0
525.0,513.0,528.0,512.0
528.0,516.0,537.0,513.0
524.0,508.0,539.0,512.0
524.0,502.0,536.0,517.0
517.0,506.0,532.0,514.0
505.0,496.0,522.0,519.0
497.0,493.0,512.0,519.0
501.0,500.0,503.0,525.0
504.0,506.0,498.0,520.0
508.0,510.0,496.0,521.0
508.0,514.0,493.0,522.0
510.0,502.0,492.0,520.0
510.0,500.0,498.0,518.0
508.0,504.0,501.0,517.0
504.0,509.0,507.0,513.0
509.0,513.0,514.0,511.0
519.0,518.0,524.0,511.0
523.0,518.0,534.0,512.0
523.0,520.0,536.0,511.0
522.0,521.0,535.0,514.0
520.0,495.0,532.0,518.0
512.0,476.0,531.0,514.0
499.0,484.0,518.0,515.0
495.0,475.0,514.0,519.0
492.0,480.0,504.0,518.0
506.0,500.0,496.0,518.0
501.0,516.0,490.0,519.0
501.0,515.0,492.0,518.0
506.0,510.0,494.0,520.0
510.0,511.0,498.0,518.0
509.0,509.0,501.0,516.0
514.0,501.0,514.0,513.0
515.0,533.0,515.0,518.0
518.0,497.0,528.0,516.0
526.0,505.0,536.0,517.0
527.0,507.0,542.0,518.0
527.0,506.0,541.0,516.0
519.0,500.0,540.0,518.0
509.0,485.0,529.0,520.0
500.0,479.0,513.0,518.0
498.0,488.0,506.0,516.0
499.0,499.0,498.0,516.0
503.0,511.0,495.0,519.0
507.0,517.0,497.0,521.0
501.0,507.0,495.0,517.0
509.0,505.0,498.0,512.0
515.0,514.0,495.0,511.0
509.0,504.0,498.0,506.0
513.0,502.0,504.0,506.0
520.0,508.0,516.0,505.0
524.0,513.0,530.0,505.0
524.0,510.0,532.0,511.0
523.0,509.0,534.0,507.0
527.0,512.0,534.0,509.0
520.0,515.0,529.0,513.0
505.0,515.0,520.0,514.0
497.0,514.0,510.0,516.0
497.0,507.0,508.0,521.0
501.0,513.0,498.0,520.0
502.0,517.0,495.0,519.0
502.0,510.0,496.0,520.0
509.0,514.0,494.0,518.0
507.0,507.0,497.0,514.0
509.0,504.0,498.0,512.0
512.0,509.0,501.0,513.0
514.0,503.0,508.0,505.0
522.0,501.0,519.0,510.0
527.0,506.0,531.0,512.0
527.0,508.0,540.0,514.0
525.0,500.0,543.0,516.0
516.0,501.0,540.0,520.0
514.0,491.0,533.0,521.0
502.0,489.0,516.0,524.0
497.0,504.0,511.0,519.0
499.0,510.0,498.0,513.0
506.0,521.0,493.0,512.0
506.0,507.0,488.0,510.0
500.0,474.0,488.0,512.0
507.0,494.0,490.0,512.0
508.0,507.0,492.0,513.0
506.0,502.0,501.0,509.0
508.0,508.0,509.0,509.0
513.0,519.0,521.0,515.0
521.0,511.0,531.0,515.0
525.0,510.0,540.0,512.0
524.0,505.0,542.0,519.0
520.0,499.0,541.0,519.0
519.0,496.0,535.0,523.0
504.0,485.0,529.0,520.0
499.0,494.0,518.0,522.0
497.0,496.0,509.0,522.0
497.0,503.0,497.0,514.0
498.0,515.0,495.0,519.0
503.0,511.0,494.0,517.0
508.0,511.0,492.0,514.0
508.0,503.0,493.0,509.0
506.0,483.0,491.0,506.0
506.0,473.0,497.0,503.0
509.0,482.0,502.0,505.0
519.0,501.0,513.0,505.0
529.0,510.0,526.0,504.0
533.0,523.0,534.0,509.0
527.0,529.0,532.0,512.0
521.0,524.0,532.0,514.0
514.0,513.0,531.0,518.0
501.0,504.0,524.0,515.0
496.0,489.0,515.0,521.0
497.0,500.0,506.0,523.0
504.0,507.0,499.0,522.0
502.0,494.0,493.0,516.0
508.0,499.0,490.0,522.0
512.0,514.0,490.0,515.0
507.0,524.0,494.0,512.0
505.0,520.0,495.0,509.0
509.0,513.0,504.0,508.0
510.0,492.0,513.0,510.0
521.0,501.0,523.0,513.0
528.0,512.0,531.0,514.0
527.0,512.0,542.0,513.0
523.0,503.0,536.0,515.0
518.0,498.0,536.0,517.0
513.0,491.0,528.0,516.0
496.0,492.0,521.0,519.0
494.0,492.0,513.0,520.0
494.0,491.0,507.0,524.0
501.0,500.0,501.0,526.0
510.0,501.0,498.0,524.0
508.0,488.0,492.0,523.0
508.0,504.0,494.0,517.0
509.0,504.0,492.0,515.0
508.0,494.0,499.0,512.0
513.0,517.0,508.0,507.0
517.0,530.0,514.0,505.0
526.0,521.0,521.0,508.0
532.0,521.0,530.0,509.0
531.0,529.0,535.0,515.0
524.0,506.0,539.0,520.0
517.0,506.0,541.0,521.0
496.0,454.0,532.0,523.0
494.0,449.0,519.0,526.0
487.0,494.0,511.0,526.0
496.0,520.0,501.0,523.0
502.0,520.0,495.0,520.0
501.0,511.0,490.0,516.0
500.0,513.0,483.0,512.0
509.0,515.0,488.0,511.0
505.0,518.0,493.0,510.0
507.0,524.0,497.0,507.0
509.0,528.0,509.0,508.0
521.0,529.0,516.0,510.0
524.0,502.0,531.0,513.0
525.0,464.0,540.0,515.0
525.0,481.0,543.0,521.0
525.0,493.0,541.0,525.0
520.0,493.0,534.0,523.0
504.0,487.0,523.0,524.0
502.0,507.0,509.0,521.0
499.0,527.0,498.0,519.0
495.0,525.0,496.0,513.0
499.0,501.0,495.0,511.0
501.0,499.0,493.0,513.0
507.0,514.0,489.0,513.0
510.0,504.0,490.0,510.0
509.0,500.0,493.0,507.0
510.0,500.0,502.0,506.0
515.0,500.0,510.0,504.0
521.0,509.0,519.0,507.0
527.0,514.0,527.0,510.0
524.0,506.0,535.0,513.0
520.0,502.0,533.0,513.0
519.0,499.0,534.0,515.0
512.0,494.0,526.0,514.0
500.0,484.0,515.0,522.0
498.0,488.0,513.0,519.0
496.0,493.0,501.0,527.0
500.0,492.0,497.0,524.0
502.0,507.0,494.0,521.0
508.0,527.0,495.0,523.0
513.0,517.0,496.0,519.0
514.0,517.0,500.0,517.0
514.0,511.0,501.0,513.0
518.0,516.0,507.0,508.0
518.0,519.0,517.0,508.0
527.0,522.0,524.0,510.0
527.0,527.0,534.0,511.0
522.0,507.0,536.0,512.0
514.0,499.0,533.0,514.0
515.0,497.0,527.0,513.0
499.0,482.0,523.0,518.0
497.0,485.0,515.0,520.0
495.0,490.0,509.0,521.0
501.0,501.0,501.0,521.0
503.0,502.0,493.0,523.0
501.0,510.0,491.0,519.0
503.0,503.0,491.0,514.0
504.0,506.0,493.0,513.0
510.0,505.0,494.0,511.0
511.0,510.0,503.0,510.0
512.0,514.0,510.0,511.0
522.0,520.0,521.0,512.0
528.0,518.0,530.0,513.0
527.0,499.0,536.0,512.0
526.0,489.0,539.0,517.0
528.0,486.0,535.0,516.0
519.0,488.0,532.0,515.0
499.0,500.0,524.0,519.0
494.0,491.0,515.0,521.0
496.0,505.0,509.0,523.0
498.0,510.0,503.0,526.0
498.0,504.0,498.0,525.0
505.0,509.0,497.0,523.0
507.0,504.0,493.0,521.0
510.0,504.0,492.0,519.0
510.0,506.0,496.0,511.0
512.0,524.0,502.0,507.0
521.0,511.0,510.0,507.0
528.0,506.0,522.0,505.0
530.0,511.0,528.0,507.0
529.0,510.0,535.0,509.0
521.0,504.0,535.0,511.0
521.0,514.0,529.0,512.0
511.0,508.0,527.0,512.0
495.0,523.0,518.0,518.0
498.0,529.0,510.0,519.0
501.0,534.0,507.0,521.0
502.0,509.0,496.0,518.0
498.0,453.0,495.0,522.0
501.0,492.0,494.0,520.0
507.0,507.0,495.0,521.0
511.0,506.0,494.0,518.0
506.0,498.0,501.0,519.0
506.0,493.0,509.0,517.0
516.0,502.0,518.0,517.0
523.0,506.0,529.0,514.0
529.0,504.0,537.0,514.0
526.0,504.0,539.0,516.0
523.0,499.0,539.0,513.0
518.0,496.0,532.0,514.0
506.0,498.0,519.0,512.0
498.0,503.0,512.0,513.0
496.0,508.0,500.0,516.0
503.0,519.0,501.0,527.0
504.0,480.0,495.0,523.0
504.0,493.0,493.0,522.0
503.0,499.0,491.0,516.0
510.0,498.0,489.0,513.0
510.0,498.0,493.0,508.0
507.0,488.0,495.0,507.0
513.0,504.0,509.0,504.0
519.0,511.0,521.0,507.0
522.0,512.0,530.0,506.0
527.0,522.0,534.0,508.0
525.0,507.0,534.0,511.0
522.0,504.0,531.0,512.0
517.0,500.0,528.0,514.0
504.0,485.0,521.0,516.0
500.0,492.0,512.0,518.0
498.0,494.0,504.0,523.0
500.0,489.0,499.0,528.0
503.0,511.0,495.0,524.0
505.0,505.0,494.0,524.0
506.0,504.0,496.0,518.0
510.0,524.0,498.0,516.0
510.0,515.0,502.0,513.0
514.0,505.0,504.0,511.0
520.0,497.0,515.0,508.0
529.0,497.0,522.0,507.0
528.0,494.0,528.0,507.0
528.0,492.0,535.0,511.0
521.0,496.0,536.0,510.0
519.0,526.0,532.0,513.0
510.0,520.0,529.0,514.0
499.0,507.0,523.0,519.0
497.0,515.0,509.0,518.0
501.0,519.0,501.0,523.0
507.0,509.0,499.0,524.0
504.0,514.0,494.0,530.0
506.0,484.0,495.0,525.0
511.0,467.0,494.0,524.0
523.0,491.0,497.0,516.0
512.0,491.0,501.0,514.0
509.0,553.0,507.0,512.0
518.0,563.0,520.0,510.0
529.0,540.0,530.0,511.0
533.0,529.0,529.0,508.0
527.0,518.0,537.0,509.0
515.0,506.0,530.0,507.0
511.0,498.0,530.0,509.0
495.0,485.0,525.0,514.0
492.0,493.0,519.0,516.0
494.0,499.0,510.0,522.0
496.0,508.0,502.0,521.0
500.0,508.0,496.0,519.0
505.0,505.0,489.0,524.0
502.0,508.0,488.0,515.0
508.0,513.0,490.0,513.0
507.0,512.0,492.0,510.0
508.0,513.0,501.0,508.0
518.0,516.0,512.0,508.0
521.0,509.0,519.0,506.0
527.0,505.0,526.0,511.0
530.0,513.0,536.0,513.0
519.0,489.0,538.0,515.0
521.0,501.0,535.0,515.0
512.0,515.0,534.0,516.0
500.0,482.0,526.0,517.0
500.0,499.0,515.0,519.0
499.0,502.0,504.0,518.0
502.0,508.0,495.0,522.0
506.0,510.0,493.0,519.0
508.0,510.0,490.0,519.0
509.0,505.0,490.0,513.0
505.0,504.0,492.0,513.0
503.0,500.0,496.0,506.0
508.0,508.0,505.0,510.0
512.0,502.0,515.0,508.0
520.0,511.0,525.0,510.0
526.0,506.0,534.0,507.0
529.0,505.0,538.0,507.0
521.0,498.0,536.0,512.0
519.0,500.0,535.0,516.0
508.0,492.0,529.0,516.0
499.0,494.0,518.0,519.0
499.0,497.0,510.0,522.0
501.0,510.0,499.0,529.0
504.0,523.0,498.0,523.0
506.0,528.0,496.0,521.0
506.0,516.0,496.0,519.0
507.0,519.0,496.0,518.0
510.0,503.0,499.0,516.0
505.0,499.0,505.0,509.0
512.0,501.0,506.0,507.0
515.0,500.0,517.0,508.0
520.0,503.0,525.0,510.0
523.0,497.0,533.0,509.0
525.0,499.0,536.0,509.0
519.0,499.0,537.0,511.0
518.0,500.0,529.0,513.0
501.0,486.0,521.0,518.0
499.0,493.0,515.0,522.0
498.0,501.0,511.0,518.0
498.0,518.0,502.0,523.0
505.0,515.0,498.0,524.0
505.0,525.0,500.0,522.0
505.0,505.0,502.0,518.0
508.0,509.0,501.0,519.0
510.0,508.0,494.0,511.0
511.0,501.0,501.0,512.0
513.0,506.0,513.0,514.0
521.0,518.0,517.0,513.0
525.0,510.0,528.0,510.0
527.0,504.0,534.0,510.0
520.0,505.0,534.0,509.0
518.0,506.0,539.0,512.0
515.0,498.0,530.0,513.0
498.0,484.0,522.0,516.0
499.0,486.0,513.0,519.0
500.0,496.0,502.0,518.0
503.0,515.0,494.0,522.0
505.0,516.0,495.0,518.0
514.0,508.0,491.0,516.0
503.0,490.0,496.0,519.0
504.0,484.0,492.0,512.0
507.0,500.0,493.0,509.0
511.0,509.0,503.0,507.0
513.0,519.0,513.0,508.0
525.0,526.0,524.0,508.0
527.0,522.0,531.0,514.0
525.0,508.0,538.0,514.0
523.0,496.0,537.0,514.0
517.0,501.0,536.0,519.0
507.0,491.0,535.0,519.0
501.0,490.0,523.0,524.0
503.0,490.0,516.0,524.0
498.0,497.0,506.0,517.0
501.0,498.0,494.0,520.0
505.0,506.0,491.0,515.0
505.0,514.0,489.0,512.0
509.0,523.0,490.0,511.0
510.0,517.0,493.0,507.0
507.0,505.0,499.0,506.0
513.0,509.0,506.0,506.0
518.0,504.0,517.0,506.0
523.0,502.0,527.0,508.0
527.0,505.0,532.0,508.0
523.0,498.0,536.0,508.0
520.0,493.0,535.0,512.0
524.0,490.0,531.0,509.0
507.0,488.0,522.0,515.0
502.0,497.0,512.0,517.0
503.0,497.0,503.0,517.0
500.0,510.0,497.0,518.0
503.0,528.0,494.0,514.0
502.0,517.0,493.0,520.0
496.0,511.0,492.0,515.0
504.0,511.0,497.0,517.0
503.0,507.0,498.0,518.0
509.0,517.0,506.0,516.0
511.0,508.0,516.0,514.0
521.0,515.0,524.0,515.0
525.0,525.0,538.0,514.0
526.0,501.0,542.0,517.0
520.0,499.0,544.0,514.0
518.0,499.0,534.0,512.0
514.0,496.0,531.0,512.0
500.0,491.0,518.0,517.0
498.0,492.0,506.0,517.0
497.0,503.0,500.0,516.0
501.0,517.0,494.0,518.0
504.0,517.0,493.0,520.0
510.0,521.0,494.0,518.0
503.0,518.0,493.0,516.0
510.0,519.0,496.0,516.0
512.0,512.0,499.0,510.0
512.0,509.0,505.0,510.0
514.0,498.0,514.0,509.0
519.0,508.0,522.0,508.0
526.0,507.0,531.0,507.0
526.0,504.0,539.0,512.0
519.0,492.0,542.0,507.0
518.0,492.0,535.0,518.0
508.0,490.0,528.0,518.0
502.0,490.0,518.0,515.0
501.0,498.0,506.0,518.0
498.0,507.0,500.0,520.0
495.0,493.0,495.0,520.0
504.0,511.0,494.0,520.0
506.0,516.0,490.0,513.0
508.0,513.0,491.0,513.0
512.0,505.0,492.0,509.0
508.0,505.0,501.0,510.0
516.0,510.0,509.0,507.0
522.0,514.0,518.0,512.0
530.0,513.0,531.0,511.0
531.0,508.0,536.0,514.0
531.0,507.0,536.0,513.0
521.0,498.0,535.0,512.0
519.0,502.0,531.0,514.0
500.0,487.0,524.0,518.0
496.0,482.0,516.0,520.0
497.0,496.0,505.0,518.0
495.0,502.0,499.0,518.0
506.0,511.0,495.0,514.0
509.0,516.0,492.0,516.0
506.0,508.0,491.0,512.0
510.0,518.0,494.0,513.0
507.0,514.0,498.0,514.0
518.0,508.0,506.0,509.0
518.0,495.0,521.0,515.0
527.0,500.0,527.0,517.0
529.0,502.0,536.0,518.0
526.0,494.0,540.0,519.0
522.0,500.0,539.0,512.0
518.0,499.0,537.0,514.0
516.0,501.0,530.0,512.0
501.0,499.0,517.0,511.0
493.0,492.0,506.0,516.0
497.0,499.0,498.0,517.0
498.0,504.0,494.0,518.0
503.0,511.0,492.0,518.0
504.0,520.0,492.0,515.0
504.0,503.0,494.0,513.0
513.0,503.0,497.0,512.0
509.0,503.0,501.0,509.0
514.0,506.0,508.0,508.0
515.0,518.0,516.0,510.0
523.0,514.0,526.0,509.0
529.0,509.0,534.0,514.0
529.0,513.0,538.0,516.0
517.0,502.0,540.0,518.0
514.0,501.0,539.0,520.0
500.0,496.0,531.0,521.0
499.0,487.0,520.0,524.0
498.0,485.0,510.0,523.0
498.0,490.0,505.0,524.0
503.0,496.0,498.0,520.0
505.0,526.0,493.0,517.0
507.0,524.0,485.0,513.0
506.0,521.0,491.0,509.0
508.0,523.0,493.0,513.0
505.0,511.0,501.0,507.0
513.0,510.0,510.0,504.0
521.0,508.0,516.0,510.0
528.0,500.0,526.0,505.0
530.0,515.0,537.0,507.0
530.0,523.0,537.0,508.0
520.0,518.0,532.0,513.0
519.0,524.0,529.0,513.0
497.0,465.0,521.0,514.0
487.0,440.0,515.0,518.0
493.0,466.0,503.0,522.0
498.0,490.0,496.0,525.0
499.0,501.0,491.0,521.0
505.0,520.0,491.0,521.0
504.0,518.0,493.0,519.0
510.0,510.0,497.0,519.0
506.0,505.0,504.0,514.0
511.0,505.0,511.0,512.0
518.0,509.0,518.0,511.0
527.0,520.0,523.0,507.0
531.0,512.0,529.0,507.0
526.0,508.0,535.0,507.0
522.0,503.0,537.0,509.0
520.0,505.0,531.0,512.0
515.0,501.0,526.0,512.0
501.0,486.0,515.0,518.0
495.0,489.0,509.0,521.0
500.0,487.0,501.0,522.0
502.0,493.0,499.0,522.0
509.0,506.0,495.0,519.0
507.0,538.0,493.0,518.0
503.0,528.0,493.0,517.0
505.0,527.0,495.0,511.0
507.0,516.0,499.0,510.0
513.0,511.0,505.0,508.0
520.0,499.0,516.0,506.0
527.0,497.0,525.0,510.0
530.0,510.0,533.0,510.0
529.0,526.0,539.0,512.0
520.0,507.0,538.0,510.0
518.0,509.0,531.0,513.0
505.0,501.0,525.0,516.0
502.0,502.0,518.0,518.0
500.0,502.0,508.0,523.0
498.0,500.0,502.0,522.0
499.0,501.0,498.0,522.0
503.0,502.0,494.0,520.0
507.0,509.0,494.0,517.0
506.0,516.0,495.0,514.0
510.0,515.0,497.0,514.0
513.0,510.0,498.0,516.0
517.0,511.0,515.0,511.0
524.0,511.0,521.0,509.0
527.0,502.0,529.0,510.0
523.0,500.0,537.0,512.0
531.0,495.0,541.0,512.0
514.0,491.0,537.0,516.0
514.0,506.0,537.0,516.0
501.0,497.0,525.0,517.0
497.0,496.0,515.0,521.0
498.0,498.0,510.0,524.0
505.0,501.0,504.0,526.0
504.0,501.0,498.0,525.0
510.0,499.0,496.0,522.0
508.0,503.0,491.0,519.0
511.0,514.0,491.0,512.0
510.0,513.0,496.0,509.0
513.0,503.0,505.0,509.0
516.0,510.0,510.0,508.0
520.0,521.0,518.0,513.0
519.0,518.0,530.0,509.0
523.0,512.0,534.0,511.0
522.0,498.0,535.0,512.0
517.0,491.0,534.0,511.0
512.0,489.0,530.0,518.0
506.0,492.0,522.0,521.0
502.0,513.0,513.0,524.0
503.0,518.0,508.0,526.0
501.0,497.0,501.0,528.0
501.0,480.0,495.0,519.0
509.0,499.0,491.0,516.0
507.0,510.0,490.0,513.0
513.0,519.0,491.0,509.0
508.0,517.0,492.0,503.0
510.0,514.0,502.0,507.0
512.0,504.0,512.0,511.0
517.0,508.0,524.0,508.0
522.0,510.0,538.0,510.0
525.0,507.0,539.0,510.0
516.0,496.0,531.0,514.0
518.0,503.0,527.0,516.0
503.0,496.0,521.0,515.0
497.0,484.0,516.0,519.0
497.0,502.0,505.0,521.0
501.0,528.0,502.0,524.0
502.0,544.0,498.0,526.0
506.0,548.0,498.0,524.0
497.0,500.0,499.0,521.0
503.0,491.0,496.0,519.0
510.0,509.0,498.0,514.0
510.0,506.0,503.0,513.0
515.0,508.0,508.0,510.0
517.0,509.0,517.0,507.0
526.0,503.0,529.0,509.0
523.0,506.0,533.0,515.0
528.0,506.0,536.0,511.0
517.0,498.0,532.0,510.0
516.0,501.0,526.0,508.0
501.0,486.0,517.0,511.0
498.0,493.0,508.0,512.0
496.0,499.0,502.0,519.0
503.0,503.0,493.0,520.0
505.0,506.0,490.0,518.0
508.0,510.0,490.0,517.0
503.0,508.0,488.0,514.0
509.0,510.0,490.0,511.0
509.0,504.0,496.0,508.0
515.0,505.0,503.0,509.0
516.0,514.0,512.0,510.0
525.0,530.0,521.0,510.0
531.0,523.0,532.0,513.0
525.0,494.0,539.0,515.0
525.0,496.0,539.0,513.0
515.0,489.0,536.0,515.0
510.0,477.0,531.0,516.0
500.0,485.0,522.0,517.0
496.0,491.0,512.0,523.0
496.0,485.0,502.0,524.0
501.0,497.0,499.0,523.0
499.0,508.0,493.0,522.0
508.0,520.0,492.0,518.0
503.0,502.0,494.0,516.0
510.0,495.0,495.0,513.0
508.0,497.0,501.0,514.0
512.0,515.0,510.0,512.0
517.0,511.0,518.0,511.0
524.0,519.0,527.0,509.0
530.0,531.0,535.0,511.0
528.0,526.0,540.0,513.0
520.0,509.0,536.0,515.0
518.0,502.0,533.0,515.0
505.0,486.0,524.0,518.0
499.0,495.0,512.0,518.0
498.0,497.0,505.0,519.0
501.0,513.0,498.0,518.0
505.0,525.0,494.0,515.0
506.0,530.0,492.0,513.0
510.0,533.0,488.0,513.0
504.0,486.0,492.0,510.0
508.0,490.0,495.0,508.0
513.0,495.0,501.0,506.0
519.0,490.0,508.0,508.0
523.0,491.0,520.0,508.0
527.0,492.0,527.0,508.0
529.0,489.0,534.0,509.0
529.0,494.0,535.0,508.0
511.0,505.0,533.0,509.0
510.0,516.0,531.0,512.0
490.0,504.0,521.0,517.0
497.0,499.0,516.0,519.0
495.0,495.0,510.0,525.0
499.0,496.0,502.0,523.0
504.0,496.0,496.0,520.0
506.0,499.0,492.0,518.0
503.0,500.0,491.0,517.0
499.0,524.0,492.0,513.0
509.0,518.0,493.0,511.0
507.0,524.0,503.0,510.0
517.0,524.0,512.0,508.0
524.0,523.0,524.0,513.0
528.0,525.0,537.0,508.0
530.0,526.0,543.0,511.0
522.0,513.0,540.0,513.0
512.0,485.0,533.0,513.0
505.0,486.0,529.0,512.0
497.0,489.0,517.0,516.0
497.0,488.0,510.0,515.0
502.0,499.0,501.0,517.0
500.0,506.0,496.0,518.0
504.0,513.0,490.0,518.0
510.0,512.0,491.0,515.0
505.0,505.0,490.0,515.0
513.0,513.0,493.0,516.0
511.0,503.0,496.0,510.0
513.0,509.0,508.0,511.0
520.0,504.0,515.0,512.0
525.0,499.0,526.0,506.0
528.0,506.0,533.0,509.0
531.0,518.0,534.0,507.0
519.0,506.0,536.0,512.0
515.0,486.0,537.0,516.0
497.0,471.0,525.0,514.0
494.0,479.0,516.0,519.0
496.0,494.0,506.0,519.0
498.0,505.0,501.0,521.0
506.0,514.0,495.0,521.0
508.0,521.0,496.0,521.0
511.0,522.0,495.0,519.0
506.0,517.0,496.0,515.0
510.0,518.0,500.0,514.0
509.0,508.0,505.0,509.0
516.0,490.0,514.0,509.0
523.0,503.0,520.0,510.0
528.0,514.0,529.0,511.0
529.0,511.0,539.0,509.0
532.0,527.0,541.0,514.0
516.0,491.0,536.0,513.0
516.0,492.0,533.0,514.0
502.0,484.0,523.0,517.0
495.0,483.0,510.0,522.0
497.0,492.0,499.0,518.0
499.0,511.0,495.0,517.0
503.0,515.0,493.0,517.0
509.0,514.0,491.0,522.0
505.0,507.0,492.0,513.0
508.0,512.0,498.0,512.0
511.0,506.0,500.0,510.0
514.0,513.0,508.0,510.0
519.0,513.0,521.0,512.0
525.0,509.0,533.0,515.0
532.0,515.0,538.0,518.0
528.0,491.0,544.0,518.0
517.0,466.0,540.0,516.0
511.0,472.0,537.0,516.0
507.0,473.0,524.0,511.0
503.0,470.0,515.0,510.0
501.0,474.0,507.0,512.0
500.0,489.0,494.0,507.0
503.0,505.0,488.0,512.0
504.0,507.0,488.0,513.0
510.0,525.0,490.0,515.0
508.0,540.0,492.0,514.0
503.0,523.0,493.0,512.0
503.0,507.0,501.0,508.0
506.0,511.0,508.0,509.0
518.0,517.0,518.0,509.0
524.0,527.0,526.0,510.0
529.0,518.0,536.0,514.0
528.0,518.0,537.0,514.0
518.0,512.0,536.0,512.0
516.0,505.0,532.0,517.0
504.0,492.0,524.0,516.0
499.0,494.0,515.0,518.0
499.0,499.0,507.0,518.0
500.0,509.0,499.0,526.0
505.0,511.0,500.0,524.0
509.0,516.0,497.0,524.0
509.0,513.0,495.0,521.0
510.0,508.0,495.0,513.0
511.0,515.0,497.0,512.0
510.0,504.0,503.0,510.0
510.0,504.0,515.0,510.0
526.0,503.0,525.0,506.0
530.0,503.0,531.0,503.0
525.0,505.0,531.0,508.0
526.0,514.0,532.0,508.0
513.0,504.0,531.0,511.0
517.0,500.0,527.0,513.0
497.0,485.0,519.0,514.0
493.0,483.0,512.0,516.0
496.0,488.0,501.0,517.0
501.0,501.0,495.0,518.0
503.0,511.0,491.0,522.0
508.0,516.0,491.0,522.0
506.0,509.0,490.0,514.0
509.0,505.0,493.0,514.0
508.0,498.0,494.0,510.0
511.0,497.0,504.0,507.0
518.0,502.0,518.0,509.0
524.0,515.0,524.0,507.0
524.0,522.0,534.0,510.0
528.0,518.0,539.0,514.0
524.0,512.0,539.0,516.0
510.0,506.0,534.0,516.0
507.0,499.0,531.0,520.0
497.0,497.0,518.0,520.0
497.0,496.0,509.0,523.0
498.0,499.0,506.0,523.0
498.0,495.0,500.0,522.0
500.0,504.0,495.0,521.0
508.0,517.0,491.0,515.0
510.0,510.0,491.0,512.0
511.0,510.0,494.0,510.0
509.0,505.0,498.0,509.0
514.0,507.0,508.0,513.0
518.0,515.0,520.0,511.0
529.0,520.0,530.0,515.0
528.0,517.0,531.0,508.0
528.0,508.0,537.0,511.0
515.0,471.0,531.0,505.0
513.0,482.0,531.0,513.0
498.0,486.0,525.0,515.0
498.0,505.0,512.0,518.0
494.0,494.0,506.0,516.0
500.0,507.0,500.0,520.0
506.0,522.0,494.0,521.0
509.0,525.0,494.0,518.0
507.0,536.0,490.0,518.0
503.0,494.0,493.0,513.0
505.0,494.0,497.0,511.0
509.0,512.0,503.0,511.0
515.0,514.0,511.0,509.0
517.0,502.0,521.0,510.0
527.0,502.0,535.0,509.0
528.0,503.0,536.0,511.0
531.0,504.0,540.0,516.0
520.0,499.0,532.0,514.0
524.0,495.0,534.0,514.0
508.0,484.0,526.0,524.0
502.0,480.0,517.0,526.0
500.0,491.0,504.0,524.0
500.0,500.0,501.0,525.0
503.0,507.0,498.0,524.0
511.0,519.0,493.0,523.0
503.0,521.0,494.0,518.0
504.0,524.0,495.0,515.0
507.0,517.0,498.0,508.0
510.0,515.0,505.0,510.0
512.0,508.0,514.0,506.0
515.0,506.0,522.0,507.0
525.0,507.0,531.0,509.0
523.0,493.0,536.0,512.0
521.0,486.0,536.0,512.0
511.0,486.0,532.0,513.0
503.0,483.0,525.0,514.0
497.0,488.0,515.0,518.0
499.0,493.0,509.0,521.0
497.0,504.0,500.0,523.0
502.0,514.0,497.0,526.0
502.0,511.0,497.0,524.0
501.0,518.0,498.0,525.0
501.0,507.0,496.0,521.0
507.0,514.0,498.0,522.0
509.0,502.0,502.0,511.0
517.0,502.0,510.0,507.0
515.0,507.0,519.0,507.0
523.0,514.0,525.0,508.0
527.0,519.0,532.0,506.0
530.0,509.0,537.0,507.0
519.0,493.0,538.0,510.0
518.0,493.0,530.0,510.0
503.0,485.0,519.0,510.0
495.0,484.0,508.0,515.0
494.0,496.0,500.0,516.0
501.0,509.0,496.0,516.0
505.0,514.0,491.0,519.0
506.0,522.0,487.0,520.0
510.0,518.0,489.0,515.0
503.0,506.0,490.0,510.0
506.0,517.0,494.0,510.0
511.0,517.0,501.0,510.0
513.0,511.0,515.0,513.0
522.0,516.0,528.0,515.0
527.0,504.0,537.0,514.0
526.0,495.0,540.0,516.0
522.0,499.0,539.0,512.0
513.0,492.0,535.0,511.0
512.0,498.0,529.0,513.0
498.0,505.0,521.0,512.0
496.0,494.0,511.0,517.0
498.0,493.0,504.0,518.0
500.0,500.0,500.0,519.0
502.0,499.0,491.0,518.0
506.0,511.0,494.0,519.0
507.0,514.0,494.0,516.0
510.0,512.0,495.0,518.0
507.0,505.0,501.0,514.0
514.0,510.0,510.0,511.0
520.0,524.0,519.0,512.0
524.0,520.0,525.0,512.0
528.0,519.0,532.0,506.0
535.0,516.0,535.0,508.0
527.0,519.0,531.0,508.0
511.0,487.0,529.0,509.0
508.0,481.0,521.0,512.0
497.0,480.0,513.0,517.0
499.0,481.0,506.0,517.0
499.0,489.0,500.0,517.0
499.0,494.0,495.0,519.0
505.0,493.0,497.0,518.0
507.0,507.0,491.0,519.0
507.0,516.0,495.0,522.0
515.0,517.0,497.0,513.0
511.0,508.0,502.0,512.0
519.0,511.0,510.0,512.0
524.0,524.0,524.0,512.0
524.0,504.0,529.0,515.0
525.0,488.0,540.0,513.0
528.0,495.0,542.0,517.0
515.0,470.0,537.0,518.0
516.0,496.0,536.0,522.0
501.0,495.0,527.0,518.0
494.0,496.0,520.0,520.0
498.0,501.0,505.0,517.0
497.0,499.0,500.0,519.0
501.0,505.0,498.0,519.0
504.0,516.0,492.0,517.0
506.0,511.0,491.0,513.0
505.0,502.0,491.0,511.0
507.0,514.0,493.0,509.0
509.0,513.0,497.0,508.0
516.0,521.0,507.0,502.0
519.0,526.0,520.0,506.0
530.0,520.0,529.0,510.0
527.0,515.0,536.0,507.0
527.0,508.0,540.0,514.0
517.0,490.0,537.0,513.0
516.0,498.0,530.0,516.0
503.0,486.0,522.0,514.0
498.0,493.0,510.0,516.0
493.0,493.0,503.0,520.0
500.0,511.0,497.0,521.0
503.0,511.0,490.0,520.0
508.0,515.0,490.0,518.0
505.0,516.0,491.0,517.0
508.0,506.0,489.0,513.0
507.0,499.0,499.0,514.0
506.0,507.0,507.0,511.0
510.0,507.0,519.0,511.0
520.0,516.0,526.0,512.0
525.0,519.0,536.0,515.0
528.0,514.0,537.0,514.0
522.0,515.0,539.0,516.0
515.0,504.0,533.0,516.0
509.0,502.0,529.0,515.0
505.0,497.0,519.0,517.0
503.0,498.0,511.0,519.0
500.0,503.0,502.0,522.0
501.0,506.0,497.0,521.0
503.0,512.0,493.0,519.0
506.0,519.0,492.0,515.0
499.0,499.0,492.0,514.0
503.0,503.0,495.0,509.0
504.0,502.0,497.0,506.0
509.0,501.0,507.0,509.0
517.0,503.0,518.0,504.0
524.0,513.0,524.0,509.0
527.0,508.0,535.0,509.0
528.0,509.0,538.0,511.0
518.0,499.0,534.0,513.0
516.0,494.0,530.0,514.0
504.0,477.0,523.0,515.0
500.0,479.0,516.0,519.0
498.0,489.0,505.0,519.0
500.0,508.0,499.0,520.0
502.0,525.0,494.0,520.0
508.0,548.0,491.0,520.0
507.0,533.0,491.0,521.0
505.0,513.0,490.0,518.0
506.0,496.0,498.0,514.0
513.0,487.0,507.0,510.0
518.0,507.0,514.0,512.0
523.0,518.0,523.0,512.0
531.0,528.0,534.0,514.0
525.0,511.0,539.0,515.0
519.0,485.0,540.0,514.0
512.0,497.0,535.0,516.0
512.0,496.0,530.0,511.0
500.0,482.0,522.0,517.0
497.0,481.0,512.0,520.0
498.0,484.0,503.0,520.0
503.0,489.0,499.0,519.0
501.0,510.0,493.0,517.0
507.0,522.0,491.0,517.0
503.0,514.0,491.0,516.0
504.0,515.0,492.0,511.0
506.0,510.0,498.0,509.0
515.0,510.0,506.0,507.0
522.0,512.0,515.0,506.0
527.0,516.0,524.0,511.0
532.0,512.0,535.0,508.0
533.0,508.0,539.0,511.0
532.0,498.0,537.0,509.0
524.0,485.0,530.0,511.0
510.0,478.0,524.0,516.0
494.0,471.0,512.0,514.0
492.0,481.0,507.0,519.0
491.0,489.0,500.0,523.0
492.0,495.0,495.0,525.0
491.0,508.0,495.0,521.0
496.0,539.0,495.0,523.0
500.0,540.0,497.0,514.0
516.0,526.0,498.0,511.0
513.0,503.0,504.0,508.0
513.0,511.0,510.0,506.0
520.0,518.0,518.0,509.0
528.0,524.0,529.0,507.0
528.0,513.0,532.0,509.0
530.0,507.0,535.0,512.0
518.0,502.0,532.0,511.0
513.0,500.0,527.0,510.0
500.0,497.0,521.0,513.0
500.0,498.0,511.0,513.0
494.0,505.0,502.0,516.0
501.0,505.0,497.0,515.0
499.0,503.0,494.0,515.0
507.0,511.0,492.0,518.0
504.0,514.0,491.0,514.0
505.0,504.0,491.0,511.0
509.0,506.0,497.0,509.0
512.0,506.0,504.0,508.0
518.0,514.0,516.0,514.0
524.0,512.0,524.0,511.0
526.0,508.0,527.0,512.0
526.0,497.0,538.0,513.0
528.0,503.0,540.0,513.0
519.0,496.0,533.0,515.0
511.0,495.0,530.0,517.0
497.0,490.0,518.0,516.0
491.0,495.0,512.0,520.0
495.0,495.0,504.0,521.0
500.0,498.0,496.0,521.0
506.0,500.0,495.0,520.0
507.0,505.0,496.0,518.0
508.0,502.0,493.0,517.0
503.0,503.0,496.0,514.0
508.0,524.0,495.0,506.0
513.0,538.0,505.0,504.0
521.0,530.0,516.0,506.0
522.0,524.0,526.0,508.0
528.0,522.0,539.0,510.0
530.0,512.0,537.0,515.0
523.0,504.0,537.0,515.0
514.0,498.0,533.0,515.0
498.0,477.0,527.0,519.0
492.0,488.0,517.0,517.0
492.0,495.0,508.0,520.0
500.0,501.0,506.0,522.0
502.0,503.0,497.0,519.0
505.0,503.0,493.0,516.0
510.0,508.0,494.0,514.0
504.0,505.0,491.0,515.0
512.0,510.0,496.0,514.0
510.0,508.0,502.0,511.0
513.0,515.0,512.0,511.0
522.0,521.0,520.0,511.0
527.0,511.0,529.0,509.0
524.0,506.0,540.0,513.0
526.0,509.0,536.0,514.0
515.0,489.0,538.0,516.0
511.0,489.0,538.0,520.0
500.0,488.0,530.0,523.0
497.0,492.0,520.0,523.0
495.0,497.0,507.0,521.0
500.0,499.0,502.0,525.0
499.0,504.0,495.0,520.0
512.0,519.0,491.0,518.0
510.0,514.0,491.0,513.0
508.0,509.0,491.0,508.0
515.0,508.0,497.0,508.0
516.0,505.0,501.0,506.0
516.0,501.0,511.0,507.0
519.0,484.0,520.0,507.0
527.0,487.0,529.0,509.0
525.0,513.0,541.0,515.0
525.0,516.0,542.0,516.0
514.0,498.0,535.0,512.0
507.0,499.0,531.0,516.0
497.0,484.0,523.0,519.0
497.0,490.0,513.0,520.0
496.0,491.0,504.0,520.0
500.0,501.0,495.0,521.0
501.0,515.0,493.0,514.0
512.0,520.0,489.0,512.0
508.0,510.0,488.0,512.0
511.0,514.0,495.0,511.0
511.0,499.0,501.0,512.0
513.0,498.0,511.0,513.0
516.0,500.0,523.0,512.0
522.0,510.0,527.0,510.0
525.0,517.0,533.0,513.0
521.0,519.0,539.0,512.0
518.0,505.0,542.0,515.0
512.0,494.0,535.0,517.0
507.0,488.0,529.0,516.0
503.0,497.0,519.0,514.0
502.0,506.0,506.0,514.0
501.0,518.0,498.0,515.0
505.0,519.0,491.0,516.0
505.0,503.0,492.0,515.0
505.0,505.0,491.0,512.0
502.0,513.0,487.0,513.0
511.0,498.0,496.0,514.0
506.0,499.0,498.0,510.0
511.0,497.0,509.0,507.0
521.0,505.0,519.0,507.0
525.0,505.0,528.0,505.0
527.0,508.0,535.0,513.0
527.0,521.0,540.0,515.0
520.0,511.0,537.0,514.0
511.0,513.0,534.0,514.0
503.0,497.0,526.0,519.0
494.0,489.0,521.0,522.0
497.0,495.0,507.0,524.0
502.0,511.0,498.0,519.0
499.0,515.0,494.0,517.0
505.0,516.0,492.0,516.0
501.0,515.0,492.0,513.0
501.0,507.0,491.0,509.0
507.0,503.0,496.0,508.0
511.0,500.0,504.0,507.0
517.0,504.0,512.0,508.0
522.0,506.0,524.0,506.0
529.0,517.0,532.0,509.0
527.0,525.0,538.0,512.0
524.0,522.0,539.0,513.0
517.0,504.0,537.0,512.0
514.0,498.0,530.0,515.0
506.0,502.0,522.0,521.0
501.0,488.0,510.0,525.0
497.0,480.0,506.0,523.0
502.0,504.0,497.0,520.0
505.0,514.0,494.0,517.0
508.0,505.0,492.0,515.0
508.0,499.0,487.0,510.0
501.0,499.0,494.0,510.0
508.0,504.0,500.0,509.0
516.0,505.0,506.0,508.0
518.0,511.0,517.0,509.0
525.0,511.0,529.0,512.0
530.0,510.0,537.0,511.0
524.0,517.0,542.0,516.0
519.0,510.0,538.0,516.0
510.0,489.0,533.0,515.0
501.0,479.0,525.0,515.0
497.0,484.0,512.0,513.0
494.0,489.0,503.0,513.0
498.0,496.0,498.0,520.0
503.0,503.0,497.0,517.0
509.0,509.0,495.0,518.0
512.0,514.0,495.0,514.0
507.0,506.0,495.0,519.0
507.0,500.0,498.0,513.0
510.0,498.0,501.0,510.0
511.0,503.0,510.0,509.0
521.0,498.0,521.0,510.0
522.0,518.0,531.0,510.0
528.0,512.0,538.0,513.0
529.0,509.0,539.0,514.0
521.0,504.0,538.0,514.0
509.0,494.0,533.0,516.0
500.0,486.0,522.0,517.0
494.0,492.0,508.0,518.0
496.0,490.0,504.0,518.0
500.0,500.0,499.0,521.0
504.0,504.0,497.0,521.0
506.0,519.0,500.0,520.0
513.0,517.0,498.0,523.0
510.0,513.0,497.0,517.0
515.0,514.0,500.0,510.0
515.0,504.0,503.0,509.0
517.0,498.0,513.0,508.0
523.0,501.0,520.0,511.0
528.0,512.0,530.0,507.0
529.0,510.0,536.0,510.0
526.0,508.0,538.0,509.0
511.0,499.0,531.0,511.0
506.0,493.0,527.0,511.0
498.0,485.0,515.0,513.0
498.0,493.0,511.0,516.0
498.0,511.0,504.0,517.0
500.0,517.0,497.0,519.0
498.0,521.0,495.0,518.0
506.0,523.0,492.0,517.0
511.0,524.0,493.0,515.0
502.0,515.0,493.0,514.0
506.0,518.0,497.0,512.0
513.0,510.0,505.0,507.0
519.0,493.0,516.0,507.0
528.0,496.0,531.0,508.0
531.0,493.0,539.0,511.0
529.0,510.0,546.0,515.0
521.0,511.0,540.0,515.0
514.0,492.0,535.0,515.0
500.0,486.0,526.0,520.0
493.0,486.0,520.0,524.0
491.0,496.0,511.0,525.0
493.0,501.0,504.0,526.0
505.0,510.0,499.0,522.0
508.0,516.0,497.0,516.0
509.0,515.0,489.0,508.0
501.0,499.0,486.0,505.0
507.0,497.0,488.0,504.0
512.0,512.0,499.0,499.0
517.0,507.0,511.0,503.0
521.0,511.0,518.0,506.0
518.0,515.0,526.0,508.0
524.0,515.0,538.0,512.0
525.0,509.0,539.0,515.0
515.0,500.0,536.0,515.0
510.0,493.0,532.0,514.0
505.0,488.0,522.0,523.0
506.0,505.0,512.0,521.0
505.0,506.0,504.0,520.0
506.0,508.0,494.0,516.0
509.0,518.0,491.0,515.0
510.0,495.0,490.0,514.0
506.0,488.0,493.0,512.0
507.0,512.0,492.0,511.0
505.0,513.0,497.0,505.0
505.0,514.0,505.0,508.0
511.0,505.0,512.0,509.0
516.0,507.0,524.0,512.0
521.0,523.0,535.0,513.0
527.0,522.0,541.0,511.0
524.0,509.0,544.0,518.0
515.0,489.0,538.0,518.0
504.0,478.0,534.0,518.0
499.0,484.0,522.0,515.0
499.0,490.0,511.0,519.0
499.0,509.0,502.0,516.0
504.0,505.0,494.0,516.0
508.0,499.0,490.0,513.0
510.0,508.0,490.0,513.0
513.0,508.0,491.0,511.0
499.0,501.0,492.0,509.0
506.0,526.0,499.0,511.0
512.0,516.0,509.0,510.0
522.0,521.0,517.0,512.0
527.0,518.0,528.0,512.0
527.0,507.0,536.0,511.0
525.0,509.0,539.0,513.0
521.0,507.0,538.0,512.0
510.0,496.0,532.0,515.0
501.0,491.0,523.0,515.0
499.0,489.0,512.0,516.0
499.0,490.0,505.0,516.0
499.0,495.0,500.0,517.0
502.0,500.0,494.0,521.0
505.0,506.0,497.0,520.0
510.0,514.0,493.0,523.0
506.0,507.0,492.0,518.0
505.0,506.0,496.0,513.0
509.0,510.0,500.0,509.0
513.0,514.0,510.0,509.0
522.0,521.0,520.0,511.0
530.0,509.0,526.0,515.0
534.0,504.0,538.0,515.0
532.0,500.0,538.0,516.0
525.0,490.0,537.0,516.0
509.0,478.0,532.0,514.0
502.0,479.0,525.0,520.0
498.0,484.0,514.0,519.0
494.0,497.0,506.0,522.0
501.0,507.0,501.0,519.0
501.0,510.0,494.0,523.0
508.0,527.0,491.0,515.0
508.0,535.0,489.0,515.0
504.0,525.0,491.0,510.0
505.0,514.0,495.0,508.0
509.0,489.0,503.0,506.0
518.0,489.0,511.0,505.0
528.0,498.0,522.0,514.0
530.0,505.0,534.0,510.0
530.0,504.0,536.0,509.0
527.0,500.0,538.0,513.0
517.0,500.0,531.0,513.0
508.0,497.0,527.0,512.0
496.0,498.0,518.0,517.0
502.0,496.0,507.0,520.0
502.0,502.0,502.0,520.0
504.0,501.0,498.0,516.0
506.0,504.0,494.0,518.0
508.0,517.0,492.0,517.0
504.0,512.0,497.0,513.0
499.0,504.0,493.0,512.0
506.0,515.0,500.0,506.0
511.0,513.0,507.0,508.0
517.0,513.0,516.0,507.0
524.0,514.0,527.0,509.0
527.0,511.0,532.0,508.0
528.0,509.0,538.0,513.0
518.0,501.0,536.0,515.0
509.0,496.0,532.0,515.0
502.0,488.0,526.0,515.0
500.0,492.0,518.0,518.0
498.0,504.0,512.0,522.0
503.0,517.0,502.0,522.0
507.0,517.0,494.0,520.0
508.0,516.0,493.0,518.0
512.0,523.0,491.0,516.0
507.0,517.0,489.0,512.0
504.0,502.0,492.0,511.0
508.0,497.0,501.0,507.0
510.0,504.0,508.0,506.0
519.0,515.0,519.0,508.0
527.0,519.0,528.0,510.0
523.0,511.0,534.0,509.0
527.0,503.0,541.0,512.0
518.0,491.0,537.0,519.0
509.0,489.0,531.0,521.0
504.0,502.0,523.0,524.0
501.0,511.0,512.0,523.0
499.0,514.0,505.0,527.0
503.0,503.0,502.0,525.0
504.0,475.0,498.0,523.0
512.0,493.0,500.0,518.0
506.0,503.0,501.0,518.0
505.0,499.0,494.0,511.0
506.0,502.0,499.0,509.0
514.0,502.0,504.0,503.0
519.0,510.0,507.0,504.0
524.0,514.0,518.0,503.0
530.0,509.0,525.0,505.0
528.0,492.0,533.0,508.0
529.0,525.0,535.0,510.0
522.0,513.0,530.0,512.0
509.0,490.0,525.0,508.0
501.0,477.0,515.0,513.0
496.0,493.0,509.0,518.0
494.0,511.0,504.0,520.0
498.0,520.0,502.0,518.0
502.0,520.0,494.0,520.0
507.0,525.0,491.0,517.0
508.0,522.0,491.0,512.0
506.0,508.0,491.0,510.0
506.0,498.0,499.0,505.0
512.0,511.0,503.0,508.0
521.0,501.0,518.0,506.0
524.0,492.0,529.0,505.0
526.0,492.0,536.0,509.0
527.0,503.0,538.0,510.0
520.0,505.0,530.0,512.0
510.0,519.0,530.0,513.0
501.0,502.0,522.0,513.0
497.0,500.0,515.0,516.0
498.0,506.0,506.0,516.0
498.0,504.0,498.0,519.0
500.0,504.0,499.0,517.0
507.0,509.0,493.0,519.0
510.0,511.0,495.0,519.0
507.0,507.0,498.0,517.0
504.0,499.0,501.0,517.0
510.0,504.0,510.0,513.0
514.0,508.0,516.0,511.0
524.0,511.0,521.0,506.0
528.0,512.0,528.0,508.0
525.0,510.0,532.0,507.0
525.0,508.0,535.0,506.0
524.0,498.0,535.0,507.0
513.0,497.0,526.0,502.0
505.0,489.0,518.0,511.0
499.0,489.0,511.0,516.0
499.0,499.0,501.0,518.0
501.0,496.0,501.0,521.0
504.0,495.0,494.0,516.0
513.0,499.0,493.0,518.0
514.0,502.0,495.0,516.0
505.0,501.0,495.0,510.0
512.0,517.0,499.0,509.0
517.0,516.0,506.0,507.0
521.0,514.0,515.0,505.0
524.0,524.0,524.0,507.0
525.0,516.0,530.0,507.0
525.0,517.0,536.0,506.0
525.0,513.0,539.0,513.0
518.0,497.0,534.0,514.0
502.0,482.0,525.0,516.0
497.0,485.0,519.0,516.0
498.0,501.0,510.0,520.0
501.0,510.0,504.0,521.0
500.0,515.0,497.0,520.0
504.0,516.0,498.0,520.0
508.0,518.0,500.0,519.0
507.0,511.0,498.0,519.0
505.0,502.0,498.0,515.0
506.0,505.0,503.0,512.0
518.0,506.0,509.0,506.0
519.0,506.0,520.0,509.0
526.0,505.0,530.0,509.0
526.0,506.0,535.0,511.0
525.0,517.0,537.0,512.0
520.0,515.0,532.0,510.0
512.0,506.0,529.0,510.0
499.0,494.0,518.0,510.0
495.0,490.0,513.0,515.0
491.0,486.0,505.0,517.0
498.0,505.0,498.0,518.0
500.0,523.0,495.0,520.0
506.0,534.0,491.0,520.0
510.0,542.0,496.0,518.0
510.0,502.0,489.0,512.0
509.0,477.0,494.0,510.0
514.0,484.0,503.0,505.0
517.0,491.0,510.0,505.0
522.0,496.0,522.0,509.0
524.0,503.0,531.0,510.0
528.0,493.0,537.0,511.0
523.0,489.0,538.0,513.0
522.0,501.0,533.0,513.0
516.0,505.0,529.0,512.0
507.0,501.0,521.0,515.0
501.0,502.0,510.0,520.0
502.0,489.0,502.0,520.0
502.0,501.0,498.0,526.0
508.0,506.0,497.0,523.0
516.0,516.0,493.0,520.0
516.0,516.0,492.0,510.0
509.0,508.0,493.0,510.0
510.0,505.0,498.0,507.0
516.0,512.0,505.0,505.0
516.0,518.0,514.0,505.0
522.0,515.0,525.0,511.0
525.0,502.0,534.0,509.0
530.0,497.0,538.0,513.0
528.0,502.0,536.0,510.0
518.0,497.0,532.0,512.0
510.0,483.0,525.0,516.0
506.0,501.0,520.0,521.0
497.0,511.0,506.0,516.0
497.0,521.0,504.0,518.0
503.0,520.0,495.0,518.0
501.0,501.0,493.0,518.0
505.0,486.0,491.0,515.0
505.0,492.0,492.0,513.0
506.0,491.0,498.0,509.0
505.0,505.0,501.0,507.0
515.0,510.0,510.0,506.0
521.0,522.0,519.0,507.0
524.0,518.0,527.0,508.0
525.0,510.0,535.0,510.0
520.0,512.0,539.0,511.0
513.0,519.0,537.0,514.0
511.0,507.0,532.0,515.0
502.0,493.0,523.0,516.0
499.0,493.0,516.0,517.0
496.0,497.0,510.0,521.0
498.0,502.0,502.0,522.0
501.0,505.0,495.0,519.0
507.0,514.0,494.0,520.0
510.0,515.0,493.0,514.0
506.0,511.0,489.0,510.0
506.0,508.0,495.0,509.0
511.0,503.0,502.0,507.0
516.0,509.0,509.0,515.0
526.0,507.0,521.0,510.0
527.0,517.0,531.0,511.0
526.0,515.0,533.0,509.0
526.0,509.0,536.0,511.0
519.0,500.0,531.0,511.0
506.0,494.0,528.0,513.0
498.0,492.0,518.0,512.0
496.0,495.0,506.0,518.0
498.0,499.0,502.0,517.0
500.0,494.0,497.0,520.0
501.0,499.0,493.0,519.0
509.0,507.0,492.0,515.0
508.0,507.0,492.0,513.0
501.0,504.0,494.0,513.0
510.0,509.0,497.0,511.0
517.0,513.0,507.0,510.0
516.0,519.0,514.0,509.0
525.0,522.0,525.0,510.0
525.0,495.0,538.0,510.0
531.0,507.0,538.0,514.0
526.0,506.0,536.0,513.0
514.0,498.0,533.0,512.0
499.0,489.0,527.0,516.0
505.0,499.0,520.0,520.0
501.0,505.0,508.0,520.0
501.0,505.0,505.0,523.0
503.0,503.0,496.0,521.0
504.0,483.0,492.0,517.0
511.0,500.0,490.0,515.0
510.0,507.0,490.0,511.0
501.0,517.0,494.0,510.0
509.0,515.0,497.0,512.0
513.0,507.0,509.0,507.0
521.0,506.0,520.0,508.0
525.0,505.0,528.0,507.0
526.0,504.0,533.0,514.0
525.0,502.0,538.0,512.0
523.0,498.0,536.0,512.0
513.0,498.0,530.0,510.0
502.0,495.0,525.0,514.0
500.0,494.0,515.0,515.0
498.0,499.0,505.0,519.0
503.0,501.0,498.0,520.0
501.0,492.0,494.0,519.0
505.0,493.0,497.0,516.0
506.0,505.0,493.0,515.0
505.0,510.0,493.0,515.0
506.0,516.0,498.0,511.0
503.0,528.0,505.0,510.0
515.0,514.0,515.0,507.0
520.0,508.0,523.0,511.0
524.0,501.0,531.0,509.0
520.0,497.0,538.0,511.0
527.0,506.0,538.0,512.0
521.0,501.0,535.0,517.0
510.0,494.0,527.0,509.0
498.0,490.0,521.0,517.0
491.0,486.0,509.0,520.0
493.0,478.0,503.0,518.0
498.0,483.0,501.0,519.0
