CH1,CH2,CH3,CH4,CH5
523,500,522,514,509
522,492,516,531,443
532,494,513,542,396
527,497,505,545,370
523,493,502,546,362
516,496,495,542,368
504,491,486,529,397
497,498,488,517,458
498,510,499,503,522
505,519,511,496,591
505,525,524,489,634
496,515,525,489,639
501,514,528,486,637
499,509,528,487,637
503,509,527,487,631
505,506,527,496,599
523,501,524,507,539
529,499,520,519,485
530,494,515,532,418
529,497,514,544,388
529,498,505,545,368
521,495,499,543,363
514,493,494,538,367
500,491,487,525,407
495,499,491,512,480
495,512,503,497,553
498,523,516,494,617
501,525,524,489,635
504,515,526,487,635
507,514,530,486,638
508,508,525,485,634
509,506,526,489,620
514,504,527,498,579
519,496,521,509,525
525,498,521,526,461
528,493,514,537,406
524,493,507,543,380
523,497,504,543,374
513,495,495,539,374
508,489,488,535,381
499,496,487,522,428
499,508,494,508,497
500,516,503,498,558
502,523,520,494,624
510,520,523,487,638
510,518,529,488,638
509,515,525,485,635
507,512,529,492,627
508,509,530,497,609
515,504,526,503,562
519,498,519,512,503
523,495,517,530,434
524,495,510,538,393
527,496,509,545,378
522,493,499,544,367
517,489,492,538,373
504,489,485,529,395
497,497,488,517,449
493,509,499,505,519
497,520,513,497,594
500,525,523,489,636
502,520,525,488,637
504,512,524,487,637
505,513,528,488,633
509,514,526,490,629
513,508,526,496,598
513,502,520,505,548
518,496,519,519,498
524,495,515,533,426
523,494,509,545,392
528,498,504,547,370
519,494,497,545,365
513,495,495,539,367
501,492,484,524,403
494,498,489,514,469
496,511,501,504,544
499,524,514,494,620
506,522,523,487,652
507,519,522,487,644
508,517,528,490,638
508,517,527,489,633
509,510,527,491,616
519,505,527,501,580
520,499,522,513,525
520,496,516,525,465
524,492,512,540,408
527,497,509,544,380
523,496,501,547,369
519,494,496,545,365
513,492,491,535,375
500,496,488,525,428
495,505,495,513,491
498,517,507,501,575
500,526,521,490,632
503,522,524,489,632
506,517,527,487,627
510,514,527,488,629
514,513,526,487,624
513,506,526,493,608
515,507,527,504,568
521,499,521,514,512
524,493,515,530,451
529,493,511,542,397
527,496,508,544,372
521,494,501,547,363
514,491,495,542,369
502,490,486,527,392
501,499,486,523,449
500,512,496,507,517
501,521,508,497,585
505,526,521,490,633
508,519,523,488,637
509,518,526,490,636
509,515,528,488,634
507,512,524,487,629
505,506,526,495,592
511,501,522,508,541
514,496,520,521,493
523,492,515,535,426
527,495,511,542,390
538,501,507,547,365
531,497,499,546,362
518,494,493,541,368
502,492,484,526,411
498,500,490,513,474
497,512,498,504,545
497,525,515,495,607
502,525,525,490,642
505,515,526,490,632
507,516,524,488,632
506,512,524,490,630
507,509,526,491,619
512,505,523,499,586
517,498,525,511,535
526,499,519,525,472
530,494,513,538,409
531,495,509,543,384
529,497,502,545,359
522,495,496,540,359
510,491,491,533,372
499,493,486,524,426
497,505,493,512,494
496,515,506,497,569
498,525,519,489,628
503,524,524,489,641
506,517,527,491,632
508,515,526,488,632
507,513,529,489,625
506,507,526,493,606
511,504,525,502,566
515,499,521,512,515
529,496,519,530,452
530,494,513,541,400
527,496,512,548,377
524,495,501,542,364
520,494,496,542,369
506,491,487,531,391
497,498,486,519,445
500,509,500,506,512
501,526,512,499,588
500,527,524,489,639
506,519,524,486,638
507,513,525,488,639
505,513,527,487,634
510,509,525,489,627
510,506,525,494,598
509,505,522,504,551
521,496,519,518,495
530,494,514,532,424
530,495,508,540,388
527,502,509,549,369
518,494,500,545,364
515,491,493,540,373
499,488,484,530,404
495,503,490,516,468
496,513,502,503,543
498,524,513,495,607
505,525,525,492,635
506,518,526,488,633
505,515,528,488,635
511,511,527,489,634
509,509,524,488,629
510,505,524,498,590
515,498,522,509,533
525,500,521,525,474
530,493,514,538,413
525,496,509,543,386
527,496,504,546,368
517,493,497,543,371
515,493,492,537,377
497,492,486,522,427
494,503,493,509,493
497,513,504,500,559
501,525,519,492,620
504,520,522,486,635
509,521,527,490,633
509,516,529,486,636
508,512,529,489,632
511,511,527,491,613
511,503,526,498,573
521,498,522,514,516
526,497,520,527,450
527,495,514,541,400
528,497,505,545,375
525,495,502,545,361
515,494,496,542,371
507,491,488,532,387
500,493,486,519,449
493,505,496,505,517
495,517,509,496,587
499,526,524,490,639
499,515,522,487,639
508,518,526,489,635
507,513,528,492,633
511,513,528,489,627
513,504,526,495,596
517,502,526,507,547
522,499,524,518,492
529,495,515,533,426
531,495,513,544,390
531,496,508,546,371
523,499,500,545,370
514,494,495,541,369
498,491,483,526,409
495,503,489,514,470
497,513,501,504,533
496,519,512,497,606
508,522,525,488,633
502,516,526,488,634
510,517,528,487,632
509,512,528,485,629
504,509,526,489,624
511,503,526,498,581
516,499,524,507,531
520,495,520,524,476
527,488,513,538,415
528,492,510,543,388
525,494,505,545,371
519,496,498,541,368
513,494,493,535,374
502,496,487,524,422
498,505,494,511,491
500,516,505,500,556
505,527,520,493,619
502,521,524,488,633
508,521,526,490,630
508,515,529,488,634
512,513,528,488,626
509,508,527,491,609
514,503,527,502,571
521,498,522,514,518
526,495,518,527,456
528,495,511,540,401
532,489,505,545,377
527,495,502,546,366
515,495,495,541,369
504,491,487,532,388
497,496,489,521,441
493,506,497,508,514
498,518,510,496,576
501,527,521,492,630
500,522,527,491,628
511,519,528,492,628
507,516,527,487,630
505,510,527,488,628
509,501,524,491,602
524,500,527,506,546
522,498,523,520,489
525,497,518,534,429
528,495,509,540,395
528,496,510,547,376
521,491,500,544,369
513,490,495,538,373
503,485,484,526,403
496,488,487,513,468
497,505,499,506,534
500,512,516,494,600
500,514,524,489,635
504,509,524,487,632
513,509,526,487,629
508,510,519,491,629
508,514,527,490,624
515,509,530,499,589
518,499,523,509,535
523,497,521,522,478
528,501,521,538,418
526,507,514,545,386
526,501,510,546,370
522,493,500,540,365
512,493,488,539,379
496,493,478,522,426
495,502,488,510,489
500,513,504,501,553
501,520,516,494,618
501,524,524,489,642
508,517,526,491,638
508,507,524,486,632
504,500,522,489,631
506,496,522,491,616
515,492,522,502,573
517,483,514,510,519
527,486,515,527,458
535,494,514,540,399
533,503,510,543,383
520,504,510,540,370
512,506,508,541,373
512,499,492,533,386
502,490,482,517,440
490,504,489,506,510
498,518,510,501,576
502,524,521,496,626
502,512,523,497,636
516,505,527,497,631
508,502,526,494,633
506,502,527,493,632
505,492,521,501,608
512,493,515,513,555
513,493,509,516,505
523,506,516,521,436
531,529,523,542,387
534,530,517,536,368
523,507,507,531,366
517,494,506,538,372
502,489,493,527,398
497,503,496,509,462
496,517,501,492,537
501,526,508,482,601
509,524,518,486,627
515,523,532,490,618
516,528,536,486,624
510,518,537,481,625
502,509,543,496,628
505,498,543,509,599
517,494,528,514,542
520,491,514,526,488
529,497,515,536,422
525,511,495,540,391
523,504,507,541,374
516,501,501,545,371
513,498,500,548,375
497,499,496,534,422
500,512,497,523,481
503,510,499,512,547
511,511,509,493,613
500,507,511,483,642
503,504,517,480,640
505,501,513,482,637
511,506,520,482,629
511,514,521,489,610
513,523,525,500,567
518,514,520,509,520
529,507,515,527,458
536,498,512,545,396
532,491,509,553,374
527,491,505,556,364
516,488,497,547,368
506,471,486,533,384
491,469,482,522,442
493,499,489,510,512
500,524,507,504,573
497,517,516,497,632
495,513,516,495,640
510,522,518,497,635
508,522,526,489,635
505,511,530,479,635
508,505,531,476,608
515,496,521,488,558
519,514,520,508,498
526,517,519,523,436
530,518,518,548,394
532,500,520,552,369
528,485,516,555,361
506,482,509,544,369
497,483,493,529,398
504,491,488,522,446
505,504,506,515,512
495,518,516,501,595
513,535,531,495,624
512,534,528,491,631
504,528,532,486,642
503,508,528,484,635
504,496,534,486,626
511,508,549,498,583
504,509,546,501,542
520,505,545,512,485
529,494,526,531,414
522,506,504,547,389
514,521,514,565,373
519,503,507,560,365
516,471,499,553,373
501,464,488,534,419
512,470,487,511,471
499,475,496,494,539
488,483,507,478,612
502,503,513,471,638
507,537,523,476,635
521,516,532,493,625
526,501,508,503,621
513,486,487,503,619
496,461,480,504,591
514,453,479,519,528
529,486,496,543,463
531,498,528,564,400
525,507,529,579,379
541,488,510,576,362
536,510,507,532,359
504,498,481,491,395
469,478,479,480,453
472,501,481,466,519
492,518,516,465,576
509,574,548,463,623
502,534,552,470,640
502,514,563,485,642
503,494,533,493,641
502,495,529,492,632
496,519,552,493,610
519,545,577,531,553
522,554,603,545,487
532,524,564,543,437
532,500,526,535,399
528,508,527,549,372
527,499,509,544,364
520,491,513,549,362
508,487,496,530,391
503,490,472,529,431
486,462,483,509,517
481,485,485,488,620
513,535,526,481,643
507,494,527,481,636
499,462,525,488,630
501,480,528,485,622
540,530,571,519,603
528,517,557,513,578
507,496,516,468,557
505,473,496,466,510
517,452,517,467,434
529,489,522,509,394
519,516,509,570,370
502,506,452,569,374
515,531,496,552,373
508,556,517,540,410
496,538,495,530,481
510,558,535,547,540
526,585,577,538,592
525,520,567,501,629
523,466,562,485,620
527,491,499,485,622
504,476,518,508,626
481,449,588,519,615
485,436,667,515,578
512,484,693,534,512
517,504,621,561,460
523,532,550,543,404
523,541,438,456,394
539,535,492,467,358
534,515,500,531,346
505,478,501,503,392
485,419,430,485,447
476,473,425,488,520
474,491,466,525,578
512,499,485,516,623
531,510,536,549,613
508,449,564,523,603
498,470,576,503,619
478,519,658,510,644
505,594,692,486,627
518,529,614,465,572
526,473,586,508,510
546,459,515,526,438
538,496,497,518,394
521,519,520,548,377
537,562,467,574,341
529,564,428,572,350
523,557,549,586,368
496,553,651,557,452
491,518,636,542,536
456,434,530,486,626
453,463,409,437,675
490,520,371,422,671
507,531,428,482,631
503,552,467,477,630
512,610,521,502,614
516,578,520,495,591
511,548,521,511,541
518,540,526,536,489
525,537,517,540,424
528,539,524,551,390
526,525,517,553,367
512,509,512,541,362
512,517,522,517,375
503,506,506,497,406
515,519,503,498,459
496,513,486,518,545
496,517,507,527,612
504,512,514,534,632
507,502,520,509,627
518,498,538,499,614
513,476,527,499,614
505,455,495,502,612
494,482,503,511,598
507,497,585,530,529
527,514,590,541,458
521,525,571,557,396
515,513,516,462,399
516,467,451,441,372
500,443,442,539,369
502,457,484,582,358
494,483,496,565,421
497,505,489,529,494
503,537,481,480,560
517,533,526,494,614
529,529,530,546,623
496,522,525,587,646
488,500,470,532,669
495,428,444,448,656
512,418,494,445,615
497,350,488,463,580
509,492,487,514,512
527,588,514,540,440
540,587,556,547,389
559,524,622,584,343
521,443,622,527,354
521,427,548,515,352
491,467,572,492,395
465,470,461,456,470
484,515,314,476,536
497,507,392,527,587
528,536,476,558,612
530,573,528,586,611
527,501,532,546,619
518,441,542,446,614
485,378,619,434,648
483,402,577,436,620
507,460,492,503,554
526,523,413,571,478
531,599,454,616,411
522,526,439,523,398
521,449,467,483,370
515,444,488,478,364
519,446,434,502,373
512,478,442,522,411
523,590,453,564,436
509,635,513,468,511
494,594,562,466,604
497,563,556,499,632
501,543,492,528,637
499,526,509,529,628
506,499,489,491,642
511,505,480,511,626
512,468,499,498,596
499,459,524,513,540
509,525,570,536,483
527,485,495,490,409
531,518,468,558,374
534,566,586,625,347
522,512,599,593,343
504,445,421,477,368
492,483,424,523,422
491,559,467,546,484
499,518,504,448,541
519,550,621,485,596
518,491,641,530,608
519,426,539,499,625
500,409,404,506,640
490,367,568,555,634
487,521,626,555,615
510,527,587,488,577
524,539,496,469,516
509,525,451,428,458
529,569,518,486,403
542,523,445,552,370
534,518,419,539,360
511,508,424,557,369
494,506,415,546,387
501,523,441,529,439
485,514,447,516,517
491,515,462,509,582
504,504,519,503,616
507,524,521,504,625
496,572,519,496,660
508,591,527,487,633
511,585,535,485,625
496,538,517,497,616
504,530,518,504,559
519,526,519,525,501
527,517,513,535,434
526,509,505,544,397
532,512,499,544,376
533,509,496,548,358
531,506,497,555,348
502,505,493,545,387
482,508,484,504,492
483,492,483,489,558
490,486,500,489,622
498,492,516,484,643
491,460,511,474,645
507,518,526,472,628
521,522,519,485,624
510,454,494,469,623
526,524,523,499,560
510,556,534,529,528
523,510,509,512,468
520,496,514,548,421
522,504,514,559,391
527,497,499,559,371
525,495,485,544,361
507,494,487,539,381
489,488,471,525,438
484,515,507,518,497
504,520,532,496,562
512,516,520,471,610
524,519,519,487,627
514,509,513,511,624
503,457,500,488,632
501,475,514,506,631
492,436,511,524,610
505,494,501,507,561
514,506,485,473,516
520,468,541,553,442
527,417,524,568,396
508,389,498,561,387
526,518,509,493,371
545,571,559,495,365
519,501,575,515,389
499,525,410,545,438
501,525,445,534,502
520,587,639,553,558
508,554,622,523,621
490,546,512,447,637
479,508,507,399,668
500,495,560,390,645
531,469,518,527,592
524,506,639,572,562
520,526,603,540,541
509,489,518,521,494
504,422,461,542,441
527,453,462,531,394
509,418,478,540,403
497,466,523,521,390
515,593,517,519,383
511,596,491,505,422
504,506,422,510,463
503,462,439,479,528
502,458,518,453,612
488,463,616,580,652
486,523,577,539,632
510,581,465,477,637
525,553,527,478,619
520,438,487,473,605
517,435,474,481,573
513,475,487,522,528
521,552,491,520,474
531,606,528,547,417
533,549,519,581,385
533,492,485,587,365
519,515,537,585,363
512,518,642,598,379
487,471,573,486,447
490,563,427,471,503
495,571,490,472,562
499,569,554,484,619
503,541,507,452,639
509,503,498,443,635
502,466,522,521,627
499,505,553,502,626
513,547,505,496,603
514,520,555,507,558
526,534,572,525,507
527,521,524,529,454
519,504,497,539,403
533,508,486,541,380
530,501,479,538,361
515,489,463,532,368
506,483,467,538,392
497,484,500,516,449
508,497,517,511,500
507,503,504,495,566
500,529,507,501,642
496,534,506,491,635
500,525,500,489,625
506,537,524,498,620
509,518,515,490,620
502,488,515,497,599
521,484,540,496,540
536,477,526,496,492
536,484,503,535,436
532,501,511,551,391
510,483,496,551,379
517,516,495,544,380
511,484,507,536,373
494,457,484,522,413
480,444,486,500,483
496,514,529,474,541
498,513,540,465,604
497,505,503,495,646
516,601,514,500,639
517,526,512,495,632
518,459,524,500,625
502,406,521,456,627
496,385,506,484,598
520,546,557,523,537
535,595,547,548,468
519,496,520,545,421
518,506,518,546,392
527,499,528,538,371
517,505,516,545,367
528,534,480,549,368
510,456,480,542,415
491,433,474,519,494
480,462,475,485,574
498,564,542,480,625
504,565,569,486,637
520,588,550,505,627
526,547,519,484,625
512,538,550,478,619
517,545,557,498,608
524,519,533,515,561
539,514,550,572,488
523,496,562,591,450
518,473,520,583,410
510,435,474,545,394
518,481,516,497,373
529,495,474,501,356
508,495,463,499,377
479,508,466,500,450
484,511,515,493,525
507,516,564,482,585
505,517,554,466,646
508,508,575,455,638
506,493,615,472,627
506,509,574,502,619
507,515,527,453,619
500,461,451,453,630
500,427,525,546,567
521,522,537,586,494
540,541,496,542,428
532,542,485,553,385
529,541,512,549,365
525,506,534,547,366
517,488,515,558,370
500,460,447,520,399
490,486,417,463,467
489,519,497,503,529
510,542,514,530,580
518,550,516,506,616
504,527,564,514,624
502,502,586,511,636
518,531,573,482,636
516,541,515,490,626
509,529,507,488,604
515,498,509,499,548
512,459,487,517,485
526,513,514,530,417
529,531,515,543,384
534,514,518,554,352
512,491,529,557,352
515,509,479,532,360
503,515,483,511,414
505,519,505,529,464
496,507,531,514,531
511,527,567,506,588
505,484,523,492,634
507,493,497,489,627
499,480,528,473,629
508,553,535,487,615
514,546,524,492,584
513,500,534,484,559
513,494,548,535,519
522,493,514,546,461
530,519,468,509,439
538,489,483,532,398
523,479,511,579,375
508,476,508,581,381
514,477,501,557,382
502,480,483,477,443
486,437,471,470,508
481,484,494,488,599
499,582,540,492,660
506,580,537,479,651
513,545,531,472,645
504,519,536,457,654
506,528,553,493,648
520,534,526,523,614
513,512,550,517,561
515,491,538,507,501
516,483,528,512,448
532,501,499,540,400
532,487,482,547,380
516,494,488,541,376
516,517,498,540,367
501,481,486,526,395
488,460,470,512,462
485,447,478,503,535
502,438,490,496,602
508,477,494,492,636
509,455,519,486,639
501,496,598,497,633
516,601,609,461,630
518,550,525,465,619
520,561,510,485,596
532,524,498,552,512
532,538,534,546,471
533,514,502,537,423
527,486,542,543,389
515,463,539,554,359
500,456,470,526,387
512,506,452,520,386
497,525,441,533,426
485,526,522,551,491
499,501,503,517,548
505,525,528,486,613
498,534,503,465,645
513,517,504,480,634
520,477,561,492,624
518,503,516,502,617
514,554,558,500,612
526,571,653,515,565
528,521,606,531,504
519,480,528,489,464
508,425,404,497,410
510,485,499,528,396
541,540,523,572,350
524,479,426,573,351
507,478,493,492,387
499,510,509,535,435
502,562,509,532,500
495,549,502,475,575
485,541,513,455,651
498,530,516,480,638
505,530,536,489,640
516,524,519,496,632
512,519,516,494,633
517,492,488,524,595
519,441,520,516,545
500,379,537,485,518
509,405,491,486,439
520,456,461,545,403
529,623,533,569,382
534,609,574,575,361
514,516,570,556,382
507,474,524,499,407
510,454,457,501,455
494,466,459,498,533
493,527,510,504,600
500,550,527,495,637
513,518,511,483,633
509,472,515,498,628
501,480,505,484,633
502,504,532,483,625
517,545,545,481,592
521,566,558,522,539
515,515,534,542,484
523,485,489,521,426
527,468,505,540,395
531,479,496,544,373
508,448,498,546,373
503,509,531,567,374
504,578,511,538,422
503,522,502,536,478
509,477,497,514,538
512,483,539,478,607
511,538,493,528,623
490,533,534,493,641
500,551,597,466,641
502,539,564,501,633
513,524,518,451,618
508,463,501,450,584
521,480,550,512,516
518,428,505,534,469
532,504,499,540,401
523,488,490,522,382
530,507,489,549,368
511,499,488,561,373
500,486,470,524,385
500,536,517,501,440
501,559,523,511,498
498,564,504,501,573
509,545,555,490,620
507,520,571,461,630
514,515,576,470,625
513,507,522,502,622
494,481,479,522,632
510,536,499,489,606
529,520,493,507,553
518,512,513,503,519
524,499,527,507,452
519,499,502,546,406
529,510,485,544,376
514,497,539,571,371
528,501,561,560,364
511,468,491,508,411
497,494,505,512,467
500,510,475,523,521
489,484,460,497,603
500,502,481,465,636
520,557,550,497,636
535,553,515,497,624
506,516,523,512,621
504,504,539,492,613
511,492,539,497,590
524,456,508,509,541
514,397,476,514,495
508,436,513,527,417
539,595,505,543,389
539,581,533,577,374
524,520,613,545,376
518,505,565,531,382
503,534,478,518,420
485,505,452,507,488
500,528,512,495,551
502,515,507,499,611
506,508,522,499,634
503,464,504,498,623
496,482,505,513,637
504,527,522,517,629
504,534,532,530,611
518,523,540,539,564
520,519,524,503,525
534,510,512,511,459
534,479,519,499,406
524,483,482,539,395
525,463,469,543,382
500,408,476,525,394
496,423,472,510,394
505,509,488,508,437
503,471,506,488,487
505,529,526,464,564
496,500,515,464,631
500,581,526,505,642
515,570,523,488,627
519,523,517,478,623
521,555,561,507,623
505,520,554,525,613
513,516,514,537,555
516,499,510,523,513
521,461,483,515,450
516,409,460,527,411
509,424,467,542,399
508,467,478,546,377
515,547,493,547,373
515,542,503,512,401
512,574,492,505,442
499,547,510,514,529
497,535,510,498,596
500,522,529,447,632
517,528,524,445,624
499,528,566,524,633
507,522,561,503,629
517,542,526,491,621
522,499,517,500,584
529,488,563,528,522
514,473,533,535,478
528,499,480,537,424
518,481,480,543,403
524,503,496,557,380
514,482,495,545,370
508,531,497,535,377
496,527,479,498,425
501,504,480,497,484
504,477,491,525,542
505,466,503,504,606
503,490,511,495,636
502,580,531,514,629
510,559,548,505,630
504,525,549,476,635
508,530,544,488,613
515,518,542,498,575
521,499,531,516,524
532,509,544,540,463
526,504,497,479,410
534,505,487,547,380
526,499,525,562,373
514,497,487,546,373
514,468,455,516,386
494,477,475,509,434
480,473,491,507,508
479,478,507,515,584
498,574,525,487,631
518,570,526,479,634
508,507,521,487,631
510,490,519,490,631
511,484,516,489,623
512,497,526,492,610
519,499,522,511,568
517,472,523,540,512
520,478,500,540,451
524,483,521,510,407
530,506,517,515,379
518,498,496,534,374
523,556,497,567,375
518,530,511,551,384
501,511,507,490,451
503,514,502,456,517
499,537,558,516,585
506,533,567,504,629
509,504,512,496,624
510,477,514,484,636
501,440,485,504,630
510,442,499,519,613
500,447,515,524,605
514,565,557,518,549
534,562,594,515,490
527,516,530,505,440
520,465,464,553,398
525,466,458,553,369
521,506,478,522,366
518,549,495,542,368
509,534,490,522,408
491,495,474,509,488
501,489,477,498,550
498,516,490,484,615
501,547,560,489,641
505,527,549,486,630
500,501,507,484,629
511,516,523,500,626
525,525,569,516,605
515,467,563,492,567
510,464,522,488,535
517,515,445,543,474
540,483,527,539,390
521,455,507,515,391
521,470,488,521,366
518,540,541,565,359
521,572,516,550,372
503,535,466,507,429
500,511,505,503,511
497,508,521,524,574
499,498,488,515,621
511,531,498,467,648
503,528,509,431,654
500,532,528,465,640
508,531,476,492,627
509,536,518,527,599
512,517,535,512,553
521,504,525,518,512
522,497,528,529,457
525,506,531,543,402
525,505,506,546,386
518,509,502,547,376
523,506,520,545,364
505,500,516,526,404
499,500,494,519,448
501,492,451,509,518
498,482,493,503,583
509,522,527,492,627
505,532,519,457,635
507,533,537,490,626
505,529,542,504,632
506,510,528,501,616
510,500,524,501,598
519,470,512,504,554
538,513,520,519,479
520,519,524,540,417
525,505,516,550,391
520,501,507,532,397
515,497,494,527,387
510,489,492,539,381
504,489,483,521,415
500,503,489,511,473
504,519,498,507,535
503,531,520,500,601
506,531,525,480,635
503,516,521,462,635
505,514,520,477,629
509,515,529,481,632
511,520,545,522,619
515,505,512,504,578
519,501,513,511,526
520,476,514,547,473
525,463,517,538,418
514,447,510,542,400
519,481,510,558,376
524,526,499,544,370
521,493,488,526,371
498,463,479,522,427
492,470,486,497,496
503,556,507,497,556
502,559,522,494,614
504,531,523,487,625
506,518,525,490,630
508,509,521,489,633
509,491,518,488,627
505,498,520,489,620
514,511,525,504,570
516,489,529,515,516
524,464,518,530,458
514,434,500,532,417
520,524,514,545,388
529,551,524,550,373
525,515,510,549,378
508,489,488,538,400
497,486,502,534,451
499,520,527,514,522
496,549,557,466,594
507,546,520,483,633
505,516,522,476,637
508,503,503,505,626
507,509,497,501,620
513,525,525,503,616
512,507,515,501,593
525,498,524,515,533
519,508,529,520,494
522,490,515,529,440
530,514,509,540,396
535,511,508,553,371
518,501,500,545,376
511,499,492,535,390
501,498,482,521,408
497,504,490,517,471
490,513,502,507,546
498,521,510,489,612
506,523,518,485,637
507,524,531,488,634
506,518,528,486,633
506,513,525,481,629
511,512,531,487,619
510,506,528,501,586
519,503,526,512,532
524,501,521,521,473
529,496,515,538,413
532,499,512,547,382
526,505,510,550,372
520,495,498,542,368
516,494,498,542,371
504,493,492,528,421
495,501,490,503,498
493,516,501,493,564
500,527,522,495,617
501,523,522,487,645
503,517,527,484,638
507,518,530,488,634
507,512,529,491,628
509,509,529,495,614
514,507,527,498,572
515,500,523,513,522
523,499,517,526,459
526,497,515,540,405
523,500,512,550,386
523,500,504,544,374
513,498,496,538,378
508,494,490,530,394
504,499,491,520,446
501,506,499,507,514
501,513,510,496,584
501,523,523,489,630
501,514,522,484,637
505,515,528,486,630
508,513,529,486,627
509,509,531,493,619
508,504,528,497,591
511,504,528,506,546
512,499,522,515,491
525,498,521,532,435
522,498,514,541,401
521,501,513,546,383
521,498,501,542,377
523,498,499,542,376
517,493,490,528,414
507,504,493,515,475
499,512,505,502,540
503,518,514,492,605
502,519,525,492,631
501,512,526,493,627
501,513,532,490,634
496,509,530,485,627
488,509,531,491,621
474,503,530,498,588
462,497,523,506,543
469,495,522,525,490
480,492,519,541,429
497,499,518,549,399
516,505,510,544,376
503,497,500,537,379
506,501,498,539,380
536,501,491,520,417
541,508,501,512,484
521,514,510,501,551
510,521,522,495,614
511,518,527,487,633
524,522,532,491,637
536,518,531,489,635
544,517,534,491,623
540,512,534,491,599
540,507,531,502,552
534,503,528,512,508
530,499,523,527,460
523,499,521,542,418
494,499,514,546,394
486,500,510,548,378
466,496,501,542,378
452,491,490,532,389
441,489,490,519,446
444,498,499,507,501
454,504,510,495,564
487,514,524,487,628
501,510,523,483,647
532,513,530,486,642
567,520,535,491,638
557,516,537,494,630
545,509,534,495,602
544,507,534,504,549
551,504,531,518,487
555,501,525,530,424
554,501,520,540,384
555,504,516,550,371
545,499,507,545,368
537,499,501,538,366
529,494,494,528,394
524,504,495,513,451
527,514,508,503,521
519,516,519,493,585
520,522,528,488,629
516,515,531,487,632
521,512,529,487,624
508,512,533,487,630
483,504,528,486,632
480,498,528,496,595
482,499,528,511,547
496,499,528,524,486
497,496,522,538,423
487,496,516,540,413
494,500,510,539,395
534,498,504,542,379
566,507,505,543,369
543,502,497,524,425
532,505,499,510,487
523,514,508,494,549
515,518,521,490,631
518,515,525,486,644
522,514,531,488,639
519,514,531,485,641
513,509,532,488,633
520,506,530,489,606
529,508,532,502,558
521,501,526,511,517
526,499,528,528,459
531,500,518,541,406
514,503,514,545,390
502,502,510,545,374
482,496,500,540,377
477,491,492,532,389
470,493,490,518,443
484,501,499,503,502
499,513,511,496,562
495,518,524,492,613
543,516,524,487,621
552,513,524,483,629
538,514,530,486,631
524,512,531,487,627
516,503,528,492,605
510,499,524,499,571
517,498,519,511,516
532,503,522,531,440
537,507,520,545,395
525,506,517,548,381
509,500,505,542,375
504,499,505,541,374
499,493,492,526,403
483,498,493,509,469
489,508,502,500,543
496,515,514,491,597
493,511,519,484,634
499,510,524,485,649
506,509,529,488,649
499,507,525,485,632
500,507,529,490,625
521,508,528,498,592
535,508,530,509,531
536,507,526,526,457
533,503,520,540,399
525,503,512,539,397
522,501,508,547,381
520,498,497,539,381
511,494,496,539,386
498,489,484,520,417
497,496,491,510,479
510,510,505,501,542
516,515,519,495,590
527,518,526,489,606
516,511,525,487,602
514,510,527,487,593
521,511,523,487,585
522,507,526,491,566
516,501,526,501,543
495,500,522,511,533
485,500,517,526,482
481,499,516,541,435
485,503,514,545,434
488,502,509,551,404
493,496,500,544,398
500,493,493,535,402
533,499,490,521,450
548,505,495,509,507
530,518,510,500,579
514,521,519,490,640
516,515,521,484,645
528,516,527,489,631
525,517,524,488,616
527,511,525,487,609
527,508,524,492,596
528,506,524,503,562
534,503,517,516,505
541,501,514,531,432
535,504,511,540,387
539,508,509,548,357
537,502,500,546,340
531,499,493,541,356
515,493,484,527,387
512,500,489,517,442
506,508,497,504,523
507,510,505,492,602
516,517,517,488,625
512,510,515,485,626
521,510,521,485,627
513,511,522,486,641
504,507,521,485,657
497,509,521,494,615
499,502,518,503,550
507,504,520,522,498
516,503,514,537,432
517,504,510,544,395
509,502,505,547,376
501,497,495,543,378
518,500,493,542,373
507,493,484,526,415
502,503,488,513,482
502,508,499,501,545
493,515,510,491,606
494,514,516,488,626
497,515,520,487,623
504,508,519,483,605
513,506,520,483,624
513,502,517,485,625
521,501,519,500,579
532,501,518,513,513
544,501,514,528,447
544,501,513,541,391
534,501,507,546,374
530,500,497,546,358
519,499,495,541,361
505,500,489,538,381
491,497,487,523,431
491,503,490,507,487
488,506,498,496,601
495,510,508,485,655
496,506,512,480,660
503,509,514,482,640
514,513,519,487,648
514,512,521,489,634
514,511,522,496,593
514,505,521,502,536
521,501,514,515,479
529,502,512,533,414
533,505,509,545,370
524,504,504,545,406
513,502,493,542,430
507,502,495,539,412
500,496,480,529,402
503,503,484,518,446
513,506,491,501,508
520,513,503,492,573
535,515,511,486,612
533,511,512,483,624
514,506,516,485,641
505,510,519,487,643
495,509,520,490,636
489,499,513,491,589
490,501,516,506,545
496,499,514,518,490
502,494,504,532,430
504,500,505,543,401
535,507,504,547,364
536,500,493,543,360
503,501,490,538,381
475,491,481,524,428
465,501,486,510,499
479,506,495,500,561
497,518,510,489,600
504,514,515,490,604
509,510,516,487,604
512,512,519,489,621
511,512,522,487,630
519,507,520,490,640
536,506,517,499,615
530,506,516,509,562
529,501,512,523,495
540,499,505,533,438
540,502,502,545,394
506,497,496,542,369
492,497,492,545,358
510,500,488,542,350
502,497,482,523,400
501,500,486,509,460
524,507,492,494,543
552,519,508,489,609
546,511,512,487,625
529,509,514,486,623
520,508,517,487,628
519,506,517,486,621
523,504,515,492,592
528,503,513,502,549
529,498,512,515,498
541,495,505,526,442
546,495,499,537,402
537,500,501,548,381
531,498,495,550,370
514,499,490,546,367
484,493,478,526,395
476,494,476,515,457
479,508,490,507,526
482,517,503,495,583
502,523,515,487,616
516,518,517,486,629
519,516,519,489,629
513,513,519,487,636
509,509,516,488,634
512,503,516,499,614
517,502,513,507,548
519,501,512,521,488
526,496,507,534,428
525,497,502,541,400
525,496,497,545,382
531,495,485,540,389
530,492,481,535,397
516,488,476,525,434
494,500,488,514,484
493,513,497,504,537
497,523,510,493,603
501,523,516,486,632
506,512,513,485,625
523,512,514,485,616
532,515,520,492,599
521,507,518,492,586
517,502,518,499,560
517,499,515,514,504
524,497,512,528,473
525,493,507,538,437
523,494,498,541,407
527,497,496,545,376
518,492,488,540,372
518,494,484,536,369
505,492,482,520,426
502,501,487,509,498
498,515,498,499,567
503,523,510,492,612
507,515,513,488,625
510,519,518,490,622
507,514,519,490,622
504,511,517,490,626
501,507,520,494,610
498,501,516,504,568
507,497,512,516,511
522,493,507,529,442
532,490,498,538,395
534,495,497,544,375
533,494,488,541,365
521,489,479,536,372
509,489,475,527,402
501,497,479,514,458
497,509,487,504,520
504,522,501,495,578
505,526,513,492,619
501,516,511,485,624
503,510,515,486,625
501,512,516,490,621
488,508,514,490,616
488,504,517,497,587
494,498,513,508,542
510,496,508,519,497
524,492,503,531,428
536,496,501,544,398
541,498,498,547,383
528,497,489,541,386
515,495,485,539,381
491,491,475,523,419
485,499,479,514,502
498,511,490,499,546
501,521,504,493,612
500,521,512,489,658
528,520,517,492,619
519,512,518,491,605
522,514,520,491,593
520,510,517,491,595
523,505,518,505,557
529,500,512,513,514
533,495,507,523,462
536,491,501,536,407
524,493,495,541,388
519,498,496,545,371
507,493,482,537,381
502,492,482,533,387
496,493,475,520,423
498,504,486,508,506
513,515,495,500,575
528,529,511,496,629
519,521,515,492,642
520,514,517,491,626
513,513,516,489,620
511,510,518,494,616
513,506,517,494,601
514,501,515,503,559
520,497,511,515,508
530,498,509,530,451
531,491,502,538,407
529,494,501,543,389
523,493,489,536,380
516,488,485,539,391
503,487,477,527,411
493,496,480,516,460
492,508,490,504,525
497,519,504,499,585
506,527,516,493,625
508,518,515,489,624
510,514,520,491,620
508,513,523,492,619
508,513,522,493,610
508,504,519,501,586
520,501,517,507,542
524,498,512,518,489
526,497,509,533,432
526,494,504,540,400
523,493,499,543,392
518,496,493,539,394
515,492,486,534,395
502,493,479,522,425
494,500,485,513,484
491,514,498,502,544
492,524,513,499,598
504,522,519,493,612
511,516,521,491,601
514,513,522,488,604
516,512,523,489,616
510,510,524,494,611
512,505,521,500,570
515,501,516,510,521
523,494,512,521,473
527,495,507,533,427
524,496,503,538,395
526,496,499,542,377
522,490,485,533,393
502,485,481,529,401
491,493,481,520,441
498,504,489,508,503
499,515,501,496,560
506,525,515,493,614
511,524,519,492,624
514,521,525,491,622
508,517,526,493,622
498,513,524,490,612
505,507,523,496,587
510,500,520,505,552
508,495,513,515,509
543,494,509,526,457
545,494,504,535,411
538,494,500,541,395
526,493,493,536,383
519,492,486,533,383
507,487,479,522,399
493,495,479,516,459
493,507,491,505,518
495,519,505,494,578
497,527,516,492,628
504,520,518,490,627
511,517,521,492,619
518,513,523,493,603
510,513,524,495,608
510,508,523,495,588
510,503,519,508,540
527,497,515,518,481
533,495,509,529,432
529,495,503,538,398
527,495,496,540,382
520,494,491,538,388
516,495,488,534,394
498,489,479,522,432
499,498,482,515,479
499,512,496,505,528
497,522,510,493,582
495,524,518,490,611
497,514,519,492,616
503,512,521,491,623
500,511,525,491,630
509,510,525,496,618
523,506,522,500,571
530,498,517,512,523
530,497,516,526,473
532,493,510,536,414
531,495,503,539,392
527,494,499,543,387
517,491,491,535,389
510,491,487,531,401
499,492,480,517,436
492,503,489,508,499
493,515,499,500,543
496,524,512,491,611
505,522,521,492,620
520,521,525,492,611
516,516,524,489,616
507,513,526,488,631
507,507,523,495,609
515,504,522,502,571
518,496,516,513,514
524,491,512,527,456
525,491,507,538,410
526,495,504,541,395
521,494,495,537,382
511,491,490,535,382
507,490,483,524,399
501,495,484,518,454
498,507,492,505,516
500,521,507,499,576
506,527,521,492,618
506,520,524,490,617
507,518,524,492,615
504,514,526,490,613
502,510,526,490,613
507,506,524,496,599
519,501,521,508,548
523,497,518,519,495
527,493,512,531,441
525,493,507,538,405
528,497,504,544,386
520,493,491,536,380
506,489,488,534,387
509,488,477,520,414
503,497,485,510,479
493,508,497,501,543
487,516,509,494,600
494,522,522,493,625
507,516,523,492,616
511,517,524,492,617
504,514,524,494,620
502,512,527,494,611
508,504,521,498,582
520,502,521,510,538
529,499,516,522,488
537,495,512,534,430
535,495,506,538,401
522,494,500,544,387
519,494,493,535,383
518,494,487,533,385
507,497,484,521,430
503,504,490,511,493
500,517,503,500,555
500,526,516,491,613
498,520,520,490,630
503,515,526,490,628
516,519,527,494,606
515,513,529,494,604
516,504,522,494,595
531,504,523,504,555
529,500,521,516,510
529,495,511,525,463
529,495,509,534,418
532,495,504,541,397
526,491,497,542,388
509,490,488,533,394
498,488,483,527,405
485,498,489,518,452
479,508,497,508,518
483,517,507,499,568
494,527,522,495,614
507,521,523,491,616
514,517,524,490,612
518,511,522,490,624
511,509,525,493,623
512,508,523,496,593
515,503,524,507,549
517,498,518,520,493
525,496,517,531,434
539,492,506,538,401
528,496,500,540,396
524,493,496,537,380
523,492,490,535,384
510,490,484,521,417
499,498,487,511,472
503,510,500,506,533
508,522,514,493,597
516,526,522,489,624
513,517,524,488,621
504,514,524,492,625
495,513,527,492,619
497,511,528,496,604
498,504,525,499,574
502,503,521,510,535
500,500,520,524,489
519,495,514,537,431
520,493,509,542,402
537,495,499,542,384
533,488,492,535,384
530,491,489,531,386
503,490,483,519,436
497,501,495,511,497
500,515,506,501,558
504,522,519,495,610
510,520,526,493,623
510,517,526,492,615
511,517,530,494,614
511,514,530,493,611
512,511,529,496,595
513,502,526,502,558
521,498,523,515,523
527,495,517,526,466
530,493,511,536,416
528,495,507,541,395
522,494,500,541,386
517,491,494,536,386
509,491,490,531,403
497,496,487,517,455
496,508,496,507,518
495,518,510,503,578
501,529,524,493,622
501,519,525,488,620
506,518,528,495,616
510,516,531,497,612
504,515,531,494,611
510,507,527,500,587
523,500,524,507,542
517,498,518,514,514
528,491,514,528,456
528,494,510,539,412
527,499,507,543,390
520,495,499,542,386
517,491,492,535,385
499,488,482,523,417
493,501,489,513,470
491,513,500,504,534
492,523,512,496,593
498,525,527,492,628
498,517,525,492,622
501,518,532,494,619
504,518,530,494,616
509,513,530,495,605
507,505,528,500,582
514,502,525,507,531
526,498,520,522,479
533,492,512,533,420
532,493,506,537,402
534,499,504,542,384
522,492,494,536,381
513,490,485,531,384
500,491,484,519,426
496,501,491,508,485
498,513,503,499,548
502,524,515,493,608
504,520,525,492,627
509,518,525,493,621
511,513,528,492,618
508,512,528,494,616
507,509,531,497,604
512,505,525,503,562
523,502,520,515,519
524,500,518,527,467
521,495,512,536,420
525,496,507,540,399
528,494,501,541,387
518,491,493,536,387
510,492,489,529,399
498,496,484,515,445
494,506,497,508,501
494,519,507,498,561
504,527,520,493,612
504,520,527,492,630
511,516,527,492,638
512,514,529,491,618
511,510,527,493,611
510,506,523,494,591
502,505,524,506,553
510,497,521,517,513
520,493,514,528,462
530,496,512,541,428
522,498,508,542,403
519,494,498,541,394
512,491,492,538,387
494,485,483,528,406
481,495,489,513,447
491,511,499,507,510
519,525,510,497,576
519,526,523,491,621
512,516,523,490,622
509,512,524,491,618
511,512,529,493,607
513,513,530,494,595
502,505,526,502,578
518,502,522,510,529
521,499,519,522,486
534,492,513,532,440
541,495,509,539,406
539,496,503,539,377
521,490,494,538,384
520,493,491,531,393
508,491,483,522,436
503,502,493,510,489
499,515,504,499,548
500,524,519,496,599
502,523,524,493,615
503,516,527,492,605
505,514,526,489,604
508,511,526,488,603
524,512,529,494,592
520,506,526,503,570
520,499,522,511,530
527,499,518,526,475
530,494,512,537,421
531,496,510,541,399
525,494,500,542,388
515,492,494,538,388
511,493,491,534,394
498,496,485,516,444
493,506,495,503,511
497,517,508,498,569
501,527,525,493,620
504,520,523,491,620
507,516,526,491,620
509,517,530,492,621
509,515,528,493,617
510,509,525,496,596
513,501,523,504,548
520,496,517,518,505
527,494,516,530,445
525,493,509,539,407
526,496,511,542,391
522,494,498,537,378
515,491,492,534,387
501,487,483,522,411
498,497,488,514,462
499,509,500,505,526
497,519,508,494,587
500,528,525,493,623
502,518,525,491,620
505,517,527,492,620
506,514,528,491,617
504,514,528,494,611
509,510,526,499,582
520,498,520,506,539
526,498,516,521,490
527,491,511,531,436
523,494,507,540,406
527,498,504,542,380
522,493,492,535,376
512,491,489,533,390
504,491,483,519,424
499,502,488,511,481
493,514,504,502,546
495,525,518,495,606
491,523,521,491,629
491,519,530,494,627
501,516,528,490,624
509,515,527,491,615
511,513,527,495,601
517,505,528,503,568
524,499,519,511,523
526,495,515,523,470
527,492,511,534,419
526,495,504,541,399
528,494,502,545,382
514,495,494,536,385
505,493,489,533,395
494,492,484,514,445
493,505,492,507,507
495,523,509,502,571
501,527,521,493,618
510,519,522,491,619
506,517,525,488,619
506,515,523,488,621
514,511,526,490,615
513,508,523,493,602
522,504,521,502,558
525,498,517,513,509
531,494,515,529,451
531,498,510,538,405
526,496,506,540,380
518,492,498,541,378
512,492,491,536,382
504,488,483,526,407
500,495,489,516,452
494,509,497,506,522
494,522,511,493,584
502,525,521,492,623
502,518,524,489,628
507,517,530,493,623
508,515,529,492,619
507,514,528,495,608
502,506,522,498,582
505,501,519,505,542
513,498,516,518,491
526,493,512,531,422
532,495,508,537,401
537,498,507,543,387
530,496,496,539,384
513,494,492,533,392
496,492,483,521,433
491,502,489,510,479
485,514,503,502,539
487,523,516,496,598
499,523,525,494,625
508,520,525,493,640
527,518,529,493,632
524,513,528,487,618
523,509,526,493,606
523,505,524,502,574
528,499,523,512,525
533,494,518,525,465
528,490,509,536,408
517,497,509,538,389
520,495,499,542,380
517,492,491,536,386
512,493,490,532,395
497,492,488,518,439
495,504,496,509,497
493,517,507,497,561
508,526,524,493,613
507,520,522,490,622
501,517,526,493,622
509,516,530,492,624
520,515,529,491,617
520,510,527,497,598
515,504,523,504,556
519,497,519,514,509
528,495,515,529,449
529,496,509,539,403
531,496,502,539,388
525,493,498,542,383
522,494,493,539,386
510,491,485,526,412
497,495,486,514,464
494,508,496,505,527
498,521,511,499,582
500,527,522,493,622
505,519,524,490,620
508,516,528,494,621
506,515,529,493,621
510,516,529,493,615
511,505,527,499,589
516,498,523,508,542
519,494,518,518,494
525,493,515,533,436
524,498,510,541,400
526,498,506,543,385
518,493,492,539,379
513,495,491,533,387
499,492,482,522,425
495,500,488,512,480
494,514,500,502,546
500,524,515,495,601
510,523,521,492,618
507,516,525,492,618
507,518,526,492,620
512,512,528,494,619
507,509,527,492,616
510,504,524,497,579
513,498,518,508,532
520,494,516,524,472
526,493,512,534,416
530,496,505,540,395
529,496,505,543,385
516,492,494,536,384
513,492,489,532,389
497,491,484,520,438
491,502,489,509,502
499,518,507,500,561
500,527,520,492,622
501,517,523,489,634
505,519,529,493,627
501,515,528,488,624
505,513,528,493,617
509,508,525,495,600
514,501,523,503,554
517,497,519,510,509
527,496,514,526,459
531,494,510,537,413
529,495,504,539,389
520,495,499,541,376
518,492,493,534,373
506,489,484,527,399
496,495,486,519,452
492,506,496,506,513
497,521,509,497,577
506,529,522,492,618
505,516,523,489,627
509,520,529,492,627
510,515,528,492,625
506,513,526,492,617
508,506,524,497,586
510,500,524,504,541
512,498,519,520,494
515,496,515,533,434
521,495,509,541,402
527,498,507,544,383
532,495,497,540,378
524,492,493,537,389
509,490,482,526,422
502,500,491,513,478
500,512,503,502,540
500,523,516,493,596
501,528,525,493,622
502,518,525,490,626
503,517,528,491,622
502,513,528,489,621
505,511,528,496,610
513,504,526,500,569
523,499,521,508,521
523,494,518,525,478
527,494,511,537,420
534,497,509,544,393
528,495,501,543,378
517,493,493,536,384
519,492,491,532,388
502,494,484,520,436
497,507,491,508,497
507,517,503,498,555
500,525,520,496,610
500,521,528,493,624
510,520,528,491,620
513,517,530,495,618
513,512,529,493,619
509,507,528,497,603
511,507,525,504,559
517,498,518,512,514
534,496,517,528,455
531,494,509,539,416
531,497,506,543,391
523,493,500,544,382
518,493,493,537,384
509,487,485,528,401
499,494,487,517,453
496,509,497,507,514
497,521,512,499,581
503,527,524,491,621
504,519,525,492,625
508,517,528,488,619
507,513,529,494,622
511,515,528,493,618
512,509,528,497,595
517,503,524,507,547
524,499,521,517,497
521,492,515,535,442
524,497,511,540,405
526,496,506,543,385
517,490,496,540,382
516,494,493,537,381
501,493,485,524,413
496,499,489,512,473
494,510,501,503,535
503,523,515,492,594
501,524,522,489,622
502,515,524,490,620
511,514,529,492,622
504,514,530,494,619
504,511,527,493,613
503,501,525,500,584
512,498,521,509,532
521,500,519,525,483
524,491,512,536,428
536,495,510,543,400
531,497,504,543,384
521,493,495,536,385
517,492,489,529,387
503,493,485,519,426
496,504,493,509,488
502,515,506,501,553
500,528,519,493,613
502,520,524,485,630
508,516,524,488,624
519,514,529,492,616
514,511,532,492,616
499,510,530,496,608
511,505,526,503,566
520,499,520,512,515
529,499,518,528,458
527,493,511,536,415
523,494,506,538,390
519,494,500,542,383
513,494,494,540,383
504,491,491,529,397
491,494,487,517,453
493,504,495,505,513
498,518,510,497,575
498,527,523,493,621
498,518,524,490,626
509,519,529,491,623
500,515,530,489,618
503,512,529,493,618
513,508,528,495,589
534,504,526,508,541
530,501,520,518,493
539,496,516,530,435
529,498,510,541,401
528,497,506,541,385
521,493,499,543,385
517,494,495,537,389
502,490,486,528,415
497,503,491,514,466
499,514,501,504,537
495,520,513,495,599
497,524,526,489,623
502,517,526,491,621
504,515,527,491,620
504,513,526,490,619
505,508,529,493,610
508,505,527,499,582
514,500,521,506,528
521,496,519,522,478
532,493,510,535,418
534,496,506,541,398
530,495,504,540,388
521,493,495,539,385
518,493,491,533,387
501,491,485,521,433
490,501,492,509,500
497,515,507,501,559
495,526,521,494,621
501,521,525,490,640
506,519,527,491,637
507,517,528,491,637
515,513,529,491,627
513,511,528,494,599
521,505,526,503,549
521,499,521,510,507
522,495,516,530,457
524,490,511,536,411
522,494,505,541,388
521,494,501,541,374
511,492,494,533,378
508,492,488,530,393
502,495,487,516,448
496,506,494,505,508
492,519,511,500,572
495,527,522,493,617
506,521,525,492,615
514,518,527,493,615
517,517,530,495,614
514,513,529,492,612
510,507,527,498,598
514,501,522,505,553
522,498,520,521,507
531,494,516,528,446
534,495,512,541,406
531,497,507,542,386
524,493,498,540,384
519,490,492,536,386
500,490,488,524,414
494,500,489,516,465
501,512,503,504,529
505,523,514,497,594
503,526,529,495,626
505,519,527,491,624
507,517,529,492,623
505,514,529,492,621
512,514,531,495,612
517,505,528,500,580
521,499,523,510,528
522,495,517,522,481
527,490,513,539,422
529,495,511,541,395
527,495,505,545,379
517,493,492,536,386
511,492,491,535,394
501,493,485,516,432
495,502,491,506,491
495,514,502,498,553
498,524,519,490,610
501,521,525,492,627
506,517,528,490,623
508,515,529,491,624
504,512,527,491,620
500,508,528,496,608
505,504,525,502,571
516,497,521,513,520
527,498,518,526,462
517,493,512,536,414
522,497,508,542,394
538,493,501,542,380
522,492,495,535,386
515,492,491,530,393
497,494,485,515,449
498,506,496,507,509
502,516,508,501,573
505,527,523,493,621
505,520,524,489,626
506,514,525,489,621
508,512,531,489,620
510,514,529,492,612
510,507,528,495,590
514,502,525,503,547
519,499,520,513,502
526,495,515,531,448
528,494,510,536,410
525,497,506,543,389
520,493,498,540,380
511,492,493,534,387
504,488,484,525,416
496,500,489,513,470
492,509,501,504,533
498,521,515,495,590
501,524,525,489,626
506,518,526,489,621
515,518,526,490,615
512,514,529,492,618
515,513,531,494,610
510,503,526,497,582
515,499,523,509,534
524,499,520,522,483
527,496,515,534,422
527,497,511,541,398
523,496,505,541,380
514,493,494,535,385
505,492,492,535,396
504,494,487,522,426
502,503,493,509,485
499,517,503,501,546
502,524,519,494,609
499,522,523,491,624
503,517,527,492,620
509,516,528,492,620
511,513,526,490,617
510,508,528,493,600
514,503,526,502,560
515,496,520,512,517
530,498,518,527,453
527,493,511,536,419
526,494,504,540,400
523,496,502,540,384
511,494,495,537,390
504,495,489,533,397
492,494,486,520,447
492,505,497,508,507
498,518,508,499,568
517,529,522,494,619
515,520,524,488,619
510,516,528,490,615
508,515,527,490,623
510,513,528,493,615
514,505,526,497,592
517,504,526,506,551
520,499,521,518,505
526,494,515,531,446
528,495,510,540,406
529,498,504,544,385
522,494,496,539,378
515,492,492,537,384
500,488,482,525,408
494,499,488,516,463
494,510,498,505,530
496,520,512,497,591
500,525,521,492,625
507,519,528,492,626
514,519,530,494,623
508,517,531,493,623
512,512,529,495,616
505,508,526,500,589
519,502,522,506,539
529,499,520,521,485
528,495,512,535,426
521,494,510,542,398
520,494,502,544,382
522,494,497,540,378
515,493,491,537,380
500,491,485,524,426
492,505,491,511,489
492,515,505,501,550
501,528,520,497,609
502,522,525,488,629
506,515,526,490,628
506,518,530,492,626
508,513,529,492,621
507,511,530,494,606
519,504,526,501,571
525,501,519,512,520
526,496,514,524,465
529,495,512,536,413
525,494,507,543,394
525,496,503,542,378
520,496,493,539,373
507,491,493,534,384
501,493,484,519,431
492,508,495,510,496
492,523,509,501,570
498,525,521,490,635
504,524,527,492,635
514,518,528,491,622
513,515,525,489,623
509,513,530,491,624
510,506,528,495,601
513,502,526,504,560
518,497,520,514,509
524,494,519,530,450
531,495,511,537,406
526,495,506,544,381
520,496,500,542,378
517,494,493,535,383
507,491,485,524,411
501,499,489,514,462
501,510,500,503,525
500,524,514,497,586
506,527,525,492,619
506,518,527,490,623
514,518,526,491,616
508,514,527,489,621
507,513,529,494,617
507,506,526,498,586
514,501,524,509,538
524,500,521,521,487
526,494,515,535,430
529,497,509,541,400
527,497,501,542,385
518,493,496,541,382
515,494,493,536,383
499,492,487,523,424
492,505,491,512,483
494,514,504,501,547
497,525,518,494,606
502,521,524,491,631
502,518,527,490,625
513,520,529,492,621
511,514,527,491,622
509,509,528,494,611
514,506,524,501,573
515,499,522,512,525
522,494,518,525,467
528,492,511,536,413
530,495,507,538,390
525,494,501,537,376
520,493,492,537,383
516,491,489,533,390
498,495,486,518,440
494,506,495,507,504
496,516,506,498,571
500,524,522,493,626
497,520,525,491,641
502,519,528,490,631
502,516,529,492,626
511,511,528,489,623
514,508,530,495,601
512,502,525,505,550
523,500,521,516,505
529,496,516,527,436
527,493,509,538,395
527,495,504,542,384
523,495,498,540,376
523,493,489,535,386
507,488,484,525,408
499,501,488,516,459
493,510,500,505,522
501,520,512,497,583
503,526,522,490,624
502,518,526,491,628
507,517,530,493,628
508,516,531,494,623
509,514,529,493,616
507,507,527,498,592
512,504,523,506,545
521,496,519,520,491
532,494,515,530,429
529,495,511,541,397
525,495,505,546,378
512,492,494,537,380
509,491,490,535,385
493,492,485,524,422
500,502,490,512,479
500,514,503,501,545
500,527,519,494,601
509,523,524,490,625
507,516,528,490,625
513,519,530,492,621
512,516,530,491,614
511,510,529,494,607
508,505,526,496,575
515,499,520,509,524
520,496,517,521,467
525,491,512,536,415
534,495,506,541,395
533,496,503,543,381
518,492,494,538,384
513,493,487,532,388
498,496,486,520,439
494,508,495,510,502
498,520,507,501,562
500,527,521,493,617
500,520,525,488,631
511,518,527,491,622
512,515,526,491,620
511,513,527,491,618
511,508,527,493,597
516,501,526,506,557
514,498,521,517,511
521,494,515,529,453
525,495,513,538,413
531,497,509,545,390
520,493,500,544,376
505,490,490,538,382
507,488,482,525,402
516,499,487,517,455
503,508,498,506,520
497,520,510,496,588
499,524,521,489,632
504,517,525,490,629
507,516,528,490,620
511,516,528,490,618
510,512,529,490,612
512,506,526,498,587
512,500,522,507,540
516,497,519,520,492
526,494,514,530,430
529,494,509,539,398
528,496,505,541,382
514,490,496,541,386
505,491,491,537,394
497,491,486,521,428
493,502,489,512,482
492,513,501,503,544
497,526,516,495,603
504,528,527,493,625
503,518,524,489,621
516,514,527,492,618
513,514,530,494,617
509,513,530,496,608
513,503,524,501,576
515,499,522,514,526
523,496,520,523,471
525,491,512,534,420
526,494,508,543,397
526,496,502,541,382
521,495,493,538,382
512,492,491,531,387
500,495,486,520,434
499,504,495,509,501
501,518,506,498,561
504,525,520,493,617
507,518,524,490,626
510,518,527,490,621
509,516,530,490,622
507,511,529,495,620
511,506,526,496,601
513,503,525,503,565
516,497,521,515,513
527,497,517,529,450
529,495,511,539,406
528,495,504,541,390
520,495,499,543,381
513,492,494,537,380
505,489,488,527,396
491,494,485,516,452
489,507,494,504,517
497,520,511,498,578
496,525,523,491,621
498,515,524,490,632
513,518,529,491,630
518,518,528,489,625
517,513,529,492,618
517,507,526,497,584
527,502,525,508,531
528,498,519,519,486
530,492,514,532,434
532,494,510,539,397
532,496,505,543,390
526,496,498,541,386
515,493,491,536,384
502,491,488,525,422
493,502,492,514,477
486,512,501,503,540
483,521,517,500,608
488,527,524,492,632
488,518,522,489,626
497,514,527,490,620
509,514,529,491,615
519,514,530,496,609
529,505,526,503,577
533,501,523,513,526
533,496,519,521,470
537,490,512,537,416
532,495,508,540,393
529,495,505,544,379
522,494,494,539,380
516,492,492,535,387
498,494,484,522,438
492,504,493,507,503
495,518,507,500,559
501,527,522,493,616
502,521,526,490,623
506,518,526,490,620
505,513,529,493,622
506,511,528,489,621
505,509,527,492,600
509,504,526,504,561
514,497,521,513,514
528,497,515,528,452
529,495,511,536,407
530,497,505,542,390
528,493,500,544,377
529,491,493,538,373
513,490,484,526,395
496,496,487,520,457
504,506,496,506,526
506,521,510,499,578
507,527,525,493,618
502,516,524,491,621
506,517,529,494,620
508,514,528,490,622
508,512,529,490,617
516,505,526,497,591
517,502,523,507,543
521,495,519,519,496
529,495,515,533,437
524,494,509,541,403
523,495,502,541,387
518,494,497,541,384
513,493,495,536,387
503,488,482,522,414
497,499,490,512,477
494,513,500,503,539
499,526,515,497,597
506,523,525,493,627
505,516,528,490,624
506,515,529,491,621
506,515,532,491,621
507,512,529,495,611
507,505,524,499,574
511,498,522,509,532
519,495,519,524,477
532,496,511,536,425
531,495,511,543,396
531,495,503,543,374
523,490,494,539,376
517,493,492,535,382
504,491,484,521,432
494,503,490,508,497
494,518,507,502,559
495,524,521,494,613
502,522,523,488,625
503,515,527,491,624
509,517,530,491,624
501,514,530,493,623
504,511,529,497,605
511,502,525,503,562
515,496,520,512,519
526,496,518,526,460
527,495,512,537,408
528,494,507,543,385
521,492,500,541,375
514,494,494,537,378
505,492,486,529,395
495,494,485,516,447
494,508,498,504,516
498,519,507,497,578
508,525,523,492,631
507,521,525,490,632
505,519,528,488,624
501,512,527,490,624
506,510,529,494,616
505,505,525,495,595
509,501,525,505,554
521,495,523,519,500
529,494,514,533,432
525,491,509,538,403
527,492,505,545,383
519,493,499,541,376
520,492,493,538,384
504,491,483,525,414
497,499,486,517,472
495,511,501,500,536
493,520,513,496,595
501,524,522,491,627
502,514,524,488,623
508,516,531,492,624
510,515,530,492,624
512,511,529,492,612
517,505,526,496,581
515,499,525,508,535
519,499,517,522,481
529,496,515,540,423
531,497,511,541,405
529,495,502,543,388
525,491,495,541,384
515,493,490,537,391
502,494,484,521,428
500,505,491,509,489
497,516,505,496,552
502,524,518,493,613
499,520,521,490,628
503,517,526,492,623
510,517,527,492,621
509,514,527,492,618
514,511,530,495,602
514,504,524,500,565
517,499,519,511,518
521,495,517,528,463
528,493,512,540,410
522,499,507,543,393
525,493,498,541,379
521,492,492,537,380
511,487,486,530,400
495,495,487,518,450
489,506,495,508,516
500,521,512,498,578
503,529,522,493,625
503,519,523,489,627
519,519,530,493,623
515,517,529,489,620
511,514,529,493,617
507,511,526,497,597
515,504,524,505,552
517,499,519,515,506
523,492,513,531,443
528,493,509,541,402
530,496,503,544,382
524,492,496,541,379
519,494,496,538,382
501,488,485,525,416
496,499,487,515,469
493,512,501,504,532
492,520,513,493,594
496,522,524,494,629
505,519,525,491,624
516,517,529,492,618
512,513,527,491,625
507,512,530,491,617
512,504,526,498,587
517,500,520,508,534
527,496,518,522,479
528,493,509,535,426
534,494,508,538,398
530,494,503,543,385
524,494,496,538,383
518,494,491,535,385
502,493,487,521,425
495,503,490,510,484
493,513,506,502,546
497,525,520,496,611
501,522,525,492,633
502,515,524,489,637
510,516,530,493,623
512,514,529,494,615
512,514,528,496,600
514,504,525,502,568
513,500,517,510,524
522,495,516,528,469
527,493,508,537,416
529,495,509,544,391
525,495,502,543,379
517,492,494,536,378
508,491,485,529,396
497,495,483,520,450
498,505,495,507,513
499,521,511,500,576
502,528,523,493,625
504,521,524,488,625
504,517,528,495,622
509,514,529,493,618
511,514,530,491,613
513,508,528,497,597
517,508,525,506,549
518,498,520,517,501
526,493,513,530,437
528,493,510,537,400
524,496,504,542,385
522,493,497,540,380
516,491,489,534,386
501,489,485,525,416
499,501,489,513,469
496,514,498,504,532
494,521,512,495,597
500,526,527,491,626
501,516,523,489,629
504,515,526,489,630
509,513,527,490,623
512,513,530,492,609
510,507,527,499,586
516,501,523,507,535
521,499,521,520,476
531,496,514,536,419
533,495,509,535,394
525,495,504,541,377
519,493,494,538,379
512,492,492,535,386
496,492,484,521,429
490,501,492,507,489
490,513,503,500,554
499,522,516,492,613
502,525,526,489,632
513,516,525,490,625
514,517,528,492,618
513,513,530,494,617
506,508,528,498,609
518,506,526,500,569
519,501,523,511,519
532,496,519,528,461
532,495,512,538,409
531,495,507,542,388
525,491,500,542,381
517,493,497,536,383
509,492,489,531,395
498,494,485,517,449
498,507,496,507,512
499,516,505,496,577
506,526,520,492,622
507,523,526,491,631
505,518,528,490,627
505,518,528,492,617
501,512,529,493,604
502,506,528,497,586
515,505,524,506,549
516,499,520,517,503
520,497,512,529,459
528,497,511,539,409
524,494,504,546,382
519,495,497,540,372
518,494,494,538,379
519,491,487,526,419
504,499,489,513,475
502,510,504,504,534
500,520,511,493,595
503,523,525,495,626
506,517,526,489,622
509,517,528,491,619
509,512,527,490,620
510,512,531,494,616
512,504,525,497,584
518,500,525,509,536
524,498,520,522,482
527,492,511,534,426
529,495,510,541,396
525,496,504,543,378
519,491,496,539,381
514,493,495,537,389
501,494,484,521,426
495,501,489,510,483
494,510,503,502,543
500,525,516,495,602
502,522,525,492,623
505,516,526,490,623
510,517,528,490,628
508,513,529,489,626
508,509,527,493,613
516,504,524,501,576
521,498,519,510,522
528,496,517,528,466
531,494,508,537,414
528,494,506,540,390
520,492,501,544,380
514,493,494,538,377
510,492,489,533,389
498,495,488,520,442
496,506,494,510,506
498,521,508,500,569
498,524,520,490,622
500,519,524,490,629
504,517,528,491,625
507,515,529,492,621
509,511,528,490,618
508,507,526,495,596
517,502,526,507,552
520,498,523,518,505
525,494,516,529,441
528,496,508,541,405
532,495,504,542,381
528,492,499,546,378
517,493,494,537,386
501,493,487,528,407
494,499,489,515,460
498,511,499,504,530
504,523,514,497,592
498,522,524,490,630
501,518,523,490,631
506,520,529,492,626
512,515,530,492,625
508,514,529,494,621
510,507,524,500,588
516,500,523,509,542
521,499,519,522,488
529,492,513,534,429
532,495,509,543,398
524,493,504,544,379
513,492,496,539,378
510,495,490,537,383
501,491,484,522,426
495,502,490,509,487
494,514,500,499,553
500,526,520,492,601
505,523,530,493,622
509,516,528,492,617
517,513,529,493,616
509,511,525,487,626
504,511,532,494,619
510,504,541,500,574
516,500,542,514,528
524,500,545,529,469
524,494,531,539,421
524,494,516,542,401
525,491,488,541,384
517,489,466,536,382
508,493,474,530,396
497,496,488,519,446
492,499,490,510,506
497,516,502,504,573
501,523,516,497,624
504,519,526,497,629
507,514,527,497,627
512,516,528,493,625
511,515,525,490,619
508,511,526,491,601
517,503,521,496,554
522,495,515,509,509
525,491,513,527,453
529,496,508,532,406
526,496,498,533,389
520,491,491,532,380
518,491,488,527,381
511,491,482,520,403
495,496,483,511,456
498,505,495,503,523
496,514,511,494,588
503,527,525,498,625
504,520,523,499,626
510,519,524,501,622
508,513,525,501,621
510,512,525,499,617
514,503,530,493,585
513,497,528,492,538
520,492,524,508,485
527,488,518,528,428
526,491,508,533,399
521,491,498,535,385
522,499,501,537,378
520,505,506,535,379
503,505,502,521,419
484,497,504,510,472
496,508,516,491,539
498,520,501,480,605
504,525,517,496,623
504,518,523,505,630
505,516,523,497,625
509,517,524,493,622
512,517,537,497,610
513,509,531,506,573
516,501,528,517,528
523,496,532,530,469
531,491,517,542,414
527,497,500,547,392
525,498,495,544,378
518,494,487,539,381
517,492,485,533,389
506,493,484,523,439
501,505,493,517,495
492,518,510,513,561
501,529,522,490,612
509,522,528,481,616
503,511,528,489,622
508,517,535,496,618
510,515,532,494,620
509,508,531,497,602
513,501,519,505,558
521,496,520,516,515
529,499,522,530,455
531,497,512,536,408
523,496,503,537,391
517,492,499,541,384
518,490,493,540,382
498,485,481,525,411
495,495,485,513,463
496,511,497,503,524
501,521,510,497,582
511,526,527,497,621
510,517,524,492,616
508,519,530,493,615
509,517,534,501,616
501,504,535,501,614
512,511,530,495,587
512,503,530,513,537
529,503,522,517,488
534,492,509,531,431
525,497,512,540,406
522,494,515,547,385
518,491,505,548,381
515,496,503,541,386
498,488,496,523,422
493,495,493,513,481
497,508,484,500,542
505,516,508,489,594
508,508,520,480,613
503,497,518,480,618
492,498,519,492,622
504,499,515,494,610
500,500,519,485,615
520,494,529,501,579
532,503,548,520,525
528,501,550,526,470
531,475,535,535,421
541,456,497,528,396
542,476,464,518,367
516,508,475,548,366
513,506,472,551,381
492,510,472,523,438
486,518,495,517,498
484,524,521,490,572
502,533,547,477,618
503,525,549,477,620
504,535,514,479,630
512,537,522,480,625
511,530,537,505,625
503,505,533,504,609
505,499,512,493,562
515,517,539,516,509
530,517,523,534,456
538,491,521,538,413
538,479,500,546,394
532,482,506,557,368
516,474,484,535,375
517,436,468,515,399
486,449,501,532,448
494,498,523,493,522
501,500,536,486,589
491,494,540,485,632
472,479,484,460,649
501,530,484,471,622
518,577,528,490,618
526,572,537,518,602
506,516,571,519,598
500,473,569,523,555
523,498,603,508,512
525,513,536,484,448
507,503,448,468,425
513,507,408,506,401
524,538,418,524,384
535,552,428,546,370
524,526,446,577,392
507,527,466,550,450
496,523,486,533,518
498,526,508,498,604
502,527,526,484,621
495,509,547,484,625
503,495,544,507,619
500,496,547,507,615
508,494,552,488,608
526,486,575,494,548
514,484,560,499,518
510,493,557,494,479
526,515,552,509,427
522,530,518,515,413
523,526,522,536,384
536,524,532,531,368
519,524,544,534,375
511,507,551,529,414
497,501,563,532,474
481,499,534,535,556
486,503,555,518,616
500,488,518,489,624
500,486,504,499,630
499,495,534,486,634
501,513,531,488,631
497,495,547,520,602
489,499,557,548,568
511,518,544,554,519
531,529,533,520,443
542,529,532,541,397
549,504,525,550,374
536,473,530,548,363
528,460,524,561,347
496,475,518,546,388
477,482,490,505,471
480,506,521,511,537
492,549,568,517,599
497,578,559,503,632
483,549,548,510,636
493,510,522,501,620
514,506,487,481,620
517,503,477,456,615
505,491,504,458,596
511,492,524,469,547
531,520,525,528,491
533,534,513,552,422
527,519,509,530,408
519,520,527,545,396
513,505,569,568,381
506,485,575,551,391
501,479,557,538,418
484,470,477,521,484
482,487,473,503,553
501,499,491,504,596
494,514,495,487,611
479,518,509,490,643
509,507,520,414,631
507,479,509,436,620
505,479,509,475,611
522,488,541,508,561
525,492,551,568,515
523,465,544,598,463
524,451,522,558,416
518,479,535,564,402
513,528,545,589,385
516,505,516,563,371
534,520,537,486,362
503,547,541,530,418
499,556,505,520,484
488,525,506,477,571
497,516,587,440,623
510,492,627,453,629
502,476,607,481,620
497,497,572,493,603
494,524,530,470,619
518,527,529,420,610
521,501,558,506,562
519,440,578,563,513
505,426,535,569,485
508,493,479,530,433
504,521,438,471,415
517,549,458,473,383
508,527,512,538,380
508,507,484,592,395
495,520,489,521,459
489,473,453,485,516
513,538,547,559,557
516,534,517,565,614
509,497,466,536,622
510,490,455,515,608
512,514,485,484,602
508,527,545,521,609
514,521,587,479,592
520,498,645,469,537
524,479,685,538,479
531,471,544,498,441
529,401,379,446,405
520,427,363,531,379
525,498,460,578,368
529,473,512,536,374
507,528,684,604,395
495,541,692,563,463
481,431,564,494,531
500,398,413,446,585
516,412,330,482,620
495,425,509,520,626
479,546,613,560,617
498,583,499,499,622
524,571,540,461,610
524,594,548,491,571
517,507,539,515,508
521,406,474,514,460
509,420,402,505,427
518,401,486,536,416
531,503,530,591,381
502,475,462,537,398
490,449,415,393,405
498,521,415,482,428
510,536,450,540,463
507,537,470,504,521
501,568,518,543,600
523,557,503,530,617
506,503,432,507,627
494,421,433,499,631
490,350,464,446,632
514,573,538,465,601
519,643,544,532,545
527,610,546,553,507
534,544,563,584,445
522,523,650,627,374
526,523,722,588,361
499,560,691,570,373
485,537,374,536,408
492,573,459,501,413
489,532,365,448,474
510,540,481,424,546
529,548,558,506,549
514,547,590,497,617
503,498,552,413,638
509,463,492,484,624
509,422,303,490,620
541,447,405,537,572
525,475,522,523,542
519,506,549,546,518
499,504,519,581,501
498,462,434,556,466
519,500,520,536,424
507,528,511,531,398
514,516,425,507,391
515,513,406,519,378
512,539,444,522,401
493,516,475,516,474
482,554,519,513,551
504,522,551,534,577
507,499,592,518,605
503,458,501,457,629
520,443,451,465,618
526,504,488,501,613
504,480,541,497,607
517,528,531,514,557
515,547,474,501,506
529,518,412,498,450
520,522,478,535,414
534,508,525,539,371
533,462,522,538,364
504,479,538,571,380
500,488,496,590,391
493,528,552,567,454
496,516,533,475,486
511,514,434,461,531
503,522,427,365,611
504,540,505,509,639
489,513,487,582,654
496,502,516,500,642
508,515,534,458,628
510,506,466,497,603
517,486,500,513,562
520,492,552,545,507
532,432,603,544,448
532,427,514,549,405
528,487,428,503,378
525,521,501,502,367
514,524,613,578,364
508,499,570,592,402
490,519,521,533,465
468,513,419,462,553
488,519,445,449,588
506,501,429,472,631
505,435,449,542,619
495,485,464,513,624
488,505,529,481,620
502,593,528,454,616
518,577,496,461,602
515,520,492,504,541
524,519,537,559,488
534,535,538,545,432
539,559,592,539,379
539,531,521,562,362
535,477,451,533,360
518,447,429,551,359
488,433,493,535,404
478,455,502,531,506
497,465,513,498,547
512,474,493,408,589
503,480,611,431,629
476,495,589,556,632
493,555,432,489,621
502,585,422,459,632
499,518,401,451,641
512,503,482,533,572
530,532,530,580,507
518,470,539,550,465
523,439,519,505,412
517,445,473,513,412
514,427,420,526,401
512,482,474,532,398
521,543,491,513,384
504,536,561,499,415
498,508,657,549,467
495,497,616,592,539
494,506,499,606,613
490,550,472,470,638
514,602,487,401,632
519,556,415,439,636
532,527,500,518,599
527,464,484,531,578
533,485,480,547,538
522,544,548,553,509
525,462,525,513,467
520,456,535,520,419
508,535,571,492,399
530,547,685,513,382
523,503,592,565,374
492,410,354,482,410
480,452,440,441,459
507,586,483,483,510
520,580,523,575,553
482,554,444,591,638
491,570,498,461,655
500,536,528,474,646
504,524,514,484,630
505,516,527,504,617
515,508,534,513,575
525,490,626,543,533
519,424,512,542,502
527,401,395,529,425
497,327,496,518,402
513,465,503,546,394
537,567,509,564,364
518,561,496,548,373
509,590,494,522,385
506,562,462,519,449
486,527,437,495,554
498,533,486,471,599
516,514,492,478,618
515,511,500,480,629
516,481,497,493,620
515,518,515,500,617
514,570,538,489,605
497,540,568,482,608
501,499,552,491,545
509,480,534,498,501
530,489,492,498,438
531,489,481,542,397
501,470,537,610,389
524,528,558,597,366
520,558,534,533,383
497,518,440,533,427
502,509,431,482,488
515,521,502,471,539
501,513,489,525,621
500,512,495,471,628
505,517,533,476,622
504,510,552,492,640
516,515,559,540,618
521,514,534,503,574
521,482,559,496,543
521,466,492,486,520
517,445,481,479,480
526,448,549,491,415
525,471,579,544,386
518,467,485,517,391
500,484,462,504,392
508,550,436,576,392
512,590,450,582,416
499,530,458,519,500
505,524,488,516,552
498,504,530,514,625
502,517,571,515,630
504,473,622,491,623
505,473,562,480,620
492,392,481,469,630
509,411,495,510,600
506,399,474,536,532
506,553,544,509,507
525,595,487,515,437
537,574,519,518,389
541,559,537,555,364
521,499,458,545,398
498,459,440,499,416
495,445,452,507,424
510,529,515,517,460
505,518,512,500,522
501,530,485,503,589
505,520,523,510,633
517,526,518,472,621
512,536,558,449,629
490,531,573,488,649
503,580,588,533,614
509,579,561,486,584
504,530,484,483,546
511,495,556,499,497
516,481,523,497,421
525,508,410,510,404
531,526,493,538,382
540,514,493,576,364
531,513,491,565,362
507,488,506,548,403
494,503,531,553,473
486,482,504,492,553
492,512,589,508,616
500,517,557,474,642
511,506,524,465,636
506,501,539,505,632
510,537,503,504,625
514,526,491,462,606
512,500,518,520,557
519,506,512,509,518
530,507,506,542,456
515,486,506,546,418
532,481,494,540,384
529,479,513,549,370
509,466,490,537,380
518,555,503,539,392
513,515,485,519,431
505,496,466,501,509
490,502,549,507,579
496,535,668,554,619
505,530,627,519,633
512,498,445,463,633
491,452,468,453,645
502,514,495,491,626
506,483,477,515,599
505,492,541,516,566
518,485,522,503,495
518,463,522,496,445
527,492,565,540,395
529,520,558,551,372
521,480,483,529,384
526,531,476,544,370
525,503,496,538,392
497,445,441,499,448
493,464,416,454,520
485,505,493,479,619
496,547,533,481,640
510,577,534,487,617
514,547,562,510,606
509,507,568,492,625
504,532,534,499,621
500,514,505,507,597
521,522,539,501,531
532,525,555,524,476
530,533,503,574,410
541,520,508,544,388
530,481,496,507,391
530,462,533,521,362
510,394,502,530,375
485,442,520,524,443
514,526,668,529,488
505,534,619,501,562
485,571,514,463,628
496,577,411,505,639
503,538,435,523,633
503,523,540,516,621
502,474,557,478,625
501,447,534,465,624
502,410,502,486,573
531,521,578,538,496
536,570,578,575,450
527,531,455,519,413
518,512,435,534,410
534,515,487,576,359
529,473,522,569,357
512,491,551,548,387
485,483,545,521,444
484,524,439,468,514
496,511,448,419,584
504,537,490,444,637
502,520,564,476,635
502,517,570,483,635
506,514,535,496,627
511,477,475,519,617
528,502,496,503,584
533,531,531,511,530
519,537,564,523,487
516,541,614,531,442
503,517,466,529,409
522,507,471,524,401
532,522,510,548,370
516,505,511,573,384
504,437,525,585,406
499,399,503,549,451
490,391,527,395,538
486,429,494,442,611
529,535,513,517,600
517,541,529,503,618
500,529,494,504,643
508,591,528,493,627
523,614,536,503,620
510,550,528,501,597
512,515,527,504,549
516,513,525,518,508
529,533,522,536,434
534,515,512,541,398
535,506,514,544,373
522,510,504,540,366
515,504,503,541,368
496,497,495,517,424
492,513,502,507,488
492,511,487,499,549
498,527,513,497,621
497,473,550,505,638
489,423,554,498,636
501,475,588,503,635
500,531,550,518,629
521,575,625,517,605
530,551,551,544,558
522,500,527,496,516
536,502,502,506,461
519,506,483,552,422
515,520,479,524,409
526,508,473,512,382
511,486,476,519,376
513,471,468,515,386
490,463,503,512,439
484,482,531,495,513
497,484,516,465,567
516,514,486,484,615
505,501,526,518,633
510,510,516,503,618
524,566,547,501,617
529,540,502,515,602
517,514,529,493,576
500,478,516,448,563
496,458,480,460,529
519,515,594,549,452
530,522,604,576,410
522,469,512,573,395
516,419,441,540,379
508,416,453,574,376
510,478,527,573,406
491,447,525,518,472
496,539,464,512,538
520,565,559,481,593
515,517,634,500,621
498,532,541,434,625
500,565,559,428,622
508,556,486,435,624
527,548,489,465,589
514,459,485,511,575
509,437,489,535,543
517,434,494,563,494
527,434,488,553,429
520,536,528,556,400
519,561,517,547,391
530,553,539,572,367
525,555,544,578,377
500,528,548,505,430
479,536,554,474,505
496,551,499,519,546
498,540,446,497,599
503,533,500,473,627
515,532,516,473,615
528,538,546,505,609
530,539,588,519,604
498,504,594,512,625
500,501,586,484,588
529,490,528,512,524
532,517,525,542,456
537,503,501,569,391
523,490,523,545,389
520,491,500,551,391
509,472,472,547,399
504,474,453,525,399
498,452,470,475,433
508,487,461,492,483
498,509,531,513,561
492,485,542,532,626
475,498,530,469,653
504,565,575,480,641
514,555,490,469,635
510,521,512,491,638
516,477,511,483,611
514,463,502,499,562
516,446,499,507,505
526,511,518,522,454
532,491,509,537,409
531,474,527,551,383
532,476,538,556,375
519,462,514,580,373
525,578,493,545,394
501,515,510,492,445
490,534,438,423,529
498,523,514,470,596
509,514,627,512,628
495,436,606,428,628
489,491,535,430,646
502,543,508,504,643
516,540,466,507,606
529,540,481,512,569
529,541,520,548,535
516,506,507,541,495
524,520,504,542,439
531,534,515,549,404
529,492,502,549,393
524,487,495,535,390
504,454,522,538,393
507,501,531,522,422
497,525,491,501,488
494,512,495,504,537
498,496,501,543,594
489,463,466,499,637
494,528,499,456,639
512,507,560,499,617
507,495,520,486,623
491,434,497,473,628
503,513,532,491,576
539,586,555,522,517
532,506,534,556,461
540,466,587,624,392
538,512,632,598,378
517,514,555,526,389
510,539,516,491,384
516,527,457,520,370
500,535,524,491,428
493,519,416,499,517
500,521,464,501,571
510,515,485,476,609
511,523,508,494,615
509,507,503,486,631
513,500,498,490,613
515,532,525,488,625
516,528,527,495,604
503,477,516,495,573
515,501,518,503,517
524,519,525,525,457
526,507,519,536,417
522,493,512,551,396
518,490,517,559,390
509,484,510,534,397
503,454,476,493,413
507,480,511,499,457
494,519,523,524,517
485,521,529,450,601
510,547,537,530,619
512,501,520,521,619
505,480,526,482,620
507,516,501,514,608
507,533,539,499,621
505,511,527,488,610
521,540,531,524,538
520,517,556,534,484
533,500,538,521,431
536,464,492,555,395
533,474,498,543,374
526,469,482,514,369
500,438,450,549,399
501,462,483,524,424
492,461,483,507,474
492,513,495,508,546
502,584,529,517,604
508,584,582,543,622
505,548,586,520,621
512,495,512,456,629
506,445,452,442,619
504,445,492,483,612
512,519,570,500,582
507,557,594,496,544
532,533,514,487,475
541,512,520,558,397
528,553,499,548,390
516,515,500,541,395
522,496,493,553,378
512,483,494,556,387
497,521,489,525,441
495,533,482,471,510
498,535,520,484,562
504,535,551,487,617
510,520,519,483,619
519,498,498,475,606
511,487,523,485,620
499,486,524,508,613
493,460,516,502,613
505,500,528,505,574
527,482,535,517,515
530,505,564,538,453
528,505,549,536,411
515,478,501,523,406
508,483,472,510,394
521,526,476,549,378
522,531,524,565,388
501,535,549,549,449
500,525,525,485,527
494,524,468,486,579
501,530,489,488,635
511,522,526,505,630
509,506,535,496,623
504,478,511,490,623
512,515,538,508,615
518,509,535,519,579
516,469,509,519,547
504,463,504,501,507
522,467,504,520,432
525,487,506,542,396
528,557,508,550,380
522,535,522,551,380
524,509,567,542,385
508,483,508,533,415
489,472,454,519,472
501,528,478,488,535
507,564,497,498,594
504,538,536,482,621
498,518,529,455,636
500,517,532,467,641
499,508,527,490,641
510,524,570,508,609
506,513,597,512,580
513,498,565,485,535
526,498,496,492,481
525,494,470,545,428
530,501,498,554,397
522,482,482,540,385
519,483,485,537,385
517,491,489,536,377
501,506,491,524,436
497,514,499,514,505
498,528,508,499,563
508,532,517,493,615
501,522,522,490,629
509,517,527,491,627
507,522,530,490,621
506,516,534,493,618
512,513,531,488,608
512,504,527,502,562
516,499,525,513,513
527,498,522,529,452
523,493,514,546,404
526,496,509,539,391
527,497,505,543,376
518,494,497,544,380
503,486,488,531,404
492,488,485,525,446
498,503,494,491,520
502,521,510,489,590
498,528,528,495,633
505,533,533,494,622
511,521,530,490,623
506,517,531,489,627
512,515,530,491,616
514,507,531,500,591
513,500,531,509,554
518,504,523,514,503
530,500,520,533,440
528,500,513,540,410
524,500,502,538,388
522,496,495,554,379
513,491,502,537,384
500,484,489,512,421
495,502,492,517,473
491,511,504,504,540
499,524,516,495,610
505,527,528,487,633
509,515,527,486,629
509,514,527,492,628
509,510,532,493,622
510,506,534,504,607
524,519,519,494,571
516,507,531,508,538
524,495,523,523,472
520,487,516,540,423
531,507,517,544,403
529,501,507,541,379
525,499,503,541,374
517,497,495,536,388
500,494,488,518,440
496,503,494,508,497
505,517,512,502,555
500,528,523,493,620
503,523,527,487,636
505,518,527,485,629
507,517,529,489,625
510,513,533,492,619
508,507,531,495,608
510,505,530,502,569
519,503,527,515,519
525,496,523,527,460
531,493,517,541,410
529,497,513,543,388
528,496,509,546,373
519,493,496,540,372
509,489,492,534,395
504,491,490,521,445
494,507,500,509,515
499,523,511,487,589
498,531,527,488,634
502,524,527,486,629
506,517,531,486,625
506,516,533,492,621
506,511,534,494,617
500,509,532,500,595
513,506,530,502,545
513,497,524,514,502
520,492,521,528,444
521,493,514,542,411
519,499,514,545,387
519,492,506,544,380
525,495,498,536,383
519,495,489,522,411
506,501,496,511,472
500,513,508,502,537
502,518,519,495,598
510,527,530,486,636
511,523,532,489,627
512,515,536,489,625
508,515,536,491,627
514,514,537,489,618
512,508,532,495,585
522,503,533,509,532
521,498,526,520,484
523,491,523,536,422
526,495,520,541,393
523,492,512,543,381
512,493,504,542,384
509,496,502,538,388
497,496,495,523,435
492,505,501,512,502
486,516,515,500,576
498,525,525,489,620
499,521,533,488,630
503,516,534,489,628
503,510,536,492,624
509,509,534,488,629
511,508,538,496,615
519,505,538,509,569
519,499,533,518,523
514,494,527,530,474
515,490,521,536,410
522,498,516,537,392
518,494,509,541,377
519,496,506,538,372
510,491,497,528,374
512,499,498,517,436
519,511,507,506,504
511,518,518,500,574
504,528,532,486,630
500,520,534,488,632
498,518,535,487,629
500,515,536,489,624
504,517,541,493,625
502,509,537,496,610
514,507,536,507,560
528,500,528,517,509
538,494,525,532,440
529,492,519,540,381
525,495,514,544,361
522,493,507,545,346
513,492,501,537,350
499,485,489,525,389
508,498,495,513,445
509,512,506,501,529
501,525,517,492,620
508,529,532,489,641
518,522,533,489,628
504,516,534,489,612
502,513,536,487,608
495,509,534,491,605
491,503,533,500,575
498,495,530,510,528
520,490,527,524,473
544,492,522,536,422
555,498,520,545,409
555,496,510,544,406
547,498,507,541,407
534,493,499,539,404
509,493,493,520,444
503,502,498,512,499
507,517,510,501,561
512,527,527,495,616
524,522,529,487,637
516,519,531,487,641
516,514,530,486,625
508,511,534,489,616
506,509,533,492,608
499,503,529,498,577
502,496,526,509,527
510,495,520,525,469
517,492,515,537,419
537,499,515,544,394
543,499,507,545,381
536,498,502,539,382
526,499,497,534,398
511,498,494,518,455
497,507,503,510,522
498,515,515,498,597
502,525,525,489,653
502,518,528,485,651
506,511,529,491,650
509,515,532,487,637
517,515,533,493,613
522,510,535,502,580
528,502,528,504,534
540,496,522,511,478
550,499,519,531,413
545,499,514,540,377
537,497,507,543,372
528,494,502,539,366
515,494,500,543,375
504,492,488,524,413
501,502,493,516,473
494,509,504,507,546
495,519,516,494,611
500,520,526,488,647
504,515,528,486,645
505,511,529,490,636
511,511,531,488,620
505,507,529,491,620
511,507,528,495,585
511,500,525,505,538
521,505,524,522,478
527,500,518,537,416
528,502,514,541,386
526,501,506,541,370
520,495,500,541,365
522,495,496,538,366
502,493,488,523,417
500,500,494,512,483
496,510,503,503,565
498,516,519,493,640
501,516,525,492,651
500,511,525,486,644
505,510,527,488,640
502,508,525,487,634
505,507,528,494,620
508,502,528,500,574
514,500,520,512,526
525,502,521,526,459
529,499,516,540,407
527,503,512,544,391
518,500,505,546,379
517,498,497,541,378
514,494,494,534,389
496,493,486,517,440
502,502,496,510,499
500,514,511,499,571
499,519,519,489,628
493,514,520,486,639
490,511,522,487,631
491,511,526,490,625
492,512,528,491,615
498,505,526,494,590
502,502,523,502,552
508,499,518,513,502
518,499,516,529,441
532,501,513,539,400
525,503,508,545,375
520,500,501,542,370
531,500,500,539,385
537,496,488,527,412
525,499,489,516,467
511,506,496,503,538
504,514,510,496,615
506,519,522,488,647
505,512,524,486,641
499,510,524,490,636
503,512,527,491,619
510,509,527,492,603
509,503,524,499,578
521,499,522,509,522
525,500,516,521,467
529,498,512,535,417
537,502,511,542,389
533,500,502,541,379
526,501,501,541,379
518,501,494,537,376
510,497,483,524,418
507,502,491,514,486
489,512,500,498,567
485,516,511,490,624
506,514,520,488,628
514,512,523,490,621
518,512,520,488,623
515,512,526,490,614
524,514,525,492,600
524,509,525,503,574
530,506,519,512,517
533,500,520,527,455
535,503,513,538,402
529,504,509,539,402
513,499,501,542,395
508,501,496,540,385
502,498,490,535,403
493,500,490,523,449
495,504,494,506,499
501,507,501,493,567
512,518,513,490,610
517,511,514,487,622
522,510,521,488,620
523,512,523,487,612
518,511,524,492,618
517,506,519,495,609
523,502,520,505,568
530,503,519,519,506
533,502,513,533,444
533,499,507,537,395
526,501,503,538,384
523,498,497,539,378
521,498,492,537,369
498,491,482,527,390
496,499,487,516,455
497,509,494,505,522
507,515,505,495,581
501,518,515,489,624
505,511,516,491,618
505,512,522,493,607
508,512,524,492,600
508,510,524,494,608
508,506,521,501,590
521,504,518,508,540
526,501,514,519,504
532,498,510,532,429
531,501,506,540,403
530,502,502,542,380
523,498,495,538,372
519,497,490,536,378
505,494,484,524,421
501,501,488,513,480
502,510,499,502,546
508,522,513,497,603
508,521,518,491,624
506,513,518,486,624
506,514,520,489,621
504,509,519,491,616
509,509,523,498,607
505,506,522,505,576
494,501,516,511,520
485,498,515,525,464
480,498,510,538,413
469,497,501,541,392
462,489,493,538,393
462,489,489,536,396
459,490,486,533,407
480,500,485,522,462
502,510,495,513,526
477,516,503,502,588
471,517,515,497,629
495,513,516,490,612
510,506,513,486,595
552,513,518,488,612
581,511,522,489,633
575,510,521,492,594
566,508,522,507,538
564,508,519,520,488
558,500,512,532,431
549,501,505,540,404
497,494,499,542,372
465,495,496,542,343
455,492,484,537,372
447,486,476,523,388
422,490,478,513,431
429,502,489,506,533
469,514,503,496,608
573,524,516,490,641
571,517,518,489,639
553,514,519,492,611
571,517,521,493,597
551,512,522,488,600
529,504,518,493,584
501,498,514,506,549
497,501,514,519,515
496,494,506,530,469
492,494,498,539,422
483,494,497,543,402
468,494,490,542,374
508,498,488,538,368
498,492,480,530,403
460,499,483,515,457
466,507,496,507,519
515,518,508,494,575
560,520,516,490,615
566,515,516,488,627
568,522,522,493,621
550,515,518,488,641
541,513,519,492,614
538,505,516,499,572
544,497,512,511,514
551,498,511,523,465
552,495,504,536,411
548,495,502,541,389
546,495,492,543,390
531,496,487,539,387
536,495,483,532,389
516,492,476,520,442
512,509,488,510,500
508,514,499,499,564
515,524,511,492,621
521,518,511,485,636
526,515,514,487,621
525,512,515,488,613
525,512,520,490,614
522,507,519,494,598
520,502,516,502,559
516,498,509,515,514
525,496,509,529,455
526,494,499,536,409
524,494,498,545,383
523,495,489,539,373
519,494,483,535,378
512,490,474,525,394
505,498,478,514,449
498,508,488,503,513
499,519,503,495,578
495,524,515,488,624
494,518,519,487,628
495,514,517,487,632
498,514,522,489,643
496,510,525,491,654
504,504,520,496,626
508,499,516,507,579
515,497,512,519,511
524,491,506,535,419
525,493,498,541,360
519,493,493,543,354
515,496,489,536,373
525,497,483,531,387
508,490,472,517,431
493,496,478,510,502
494,511,492,502,553
488,518,507,496,615
484,515,515,498,626
470,513,517,494,602
494,514,520,492,612
517,512,523,496,587
520,509,518,493,572
527,502,517,498,547
536,497,512,514,511
534,494,510,523,473
528,491,500,536,420
550,500,501,542,384
536,494,494,543,375
509,492,486,534,381
488,489,482,537,383
482,493,475,520,419
484,505,485,508,501
463,511,496,498,571
463,524,511,493,594
508,520,516,493,596
491,515,519,492,622
468,510,520,489,647
466,510,519,490,644
546,513,520,493,617
572,510,517,503,560
561,496,509,512,505
562,496,508,526,451
545,497,503,540,400
516,494,498,539,372
513,496,492,543,352
505,494,486,538,346
509,490,479,532,376
503,496,477,517,456
503,504,483,505,547
521,520,502,499,592
562,530,515,490,627
539,518,513,486,638
516,515,515,482,634
516,516,521,495,614
511,516,522,496,607
497,506,519,498,591
508,504,514,508,540
519,492,512,519,499
544,489,503,527,434
551,494,499,538,404
537,492,494,540,405
528,494,488,536,403
529,491,483,531,391
516,490,477,525,413
506,496,480,511,465
501,512,491,502,536
504,523,507,497,599
499,523,519,491,635
500,518,516,493,623
509,516,521,494,613
512,512,521,493,613
510,511,521,496,603
512,502,517,503,575
519,497,514,510,528
525,495,511,523,480
526,489,504,534,430
530,494,500,540,406
523,492,492,538,399
518,491,483,533,402
513,489,481,527,407
500,494,477,520,433
499,505,487,511,477
500,517,500,500,543
501,524,516,495,608
500,521,519,491,624
503,515,519,491,621
504,515,522,492,618
507,513,521,493,610
509,509,522,500,591
516,502,519,506,549
519,496,513,514,505
521,492,509,525,450
524,489,502,536,412
524,494,501,542,398
520,492,492,539,389
515,491,483,533,388
510,487,476,526,402
495,495,478,514,455
491,506,489,505,516
497,521,504,499,573
500,525,515,492,621
503,518,521,491,620
508,513,519,489,616
511,511,519,490,612
512,508,522,494,609
516,508,522,500,585
512,496,516,507,545
516,493,512,519,501
525,495,508,534,440
525,493,502,537,408
518,493,495,539,387
514,490,488,535,382
517,491,484,532,385
514,485,474,519,418
500,499,479,510,474
493,509,492,507,526
497,521,510,499,583
491,520,516,493,627
498,516,518,493,632
496,514,519,492,630
498,510,520,491,619
503,509,522,494,598
515,506,520,501,561
521,501,515,509,517
529,495,513,527,473
526,489,502,531,427
532,493,502,539,406
522,494,493,537,394
517,494,486,536,394
508,492,485,530,402
496,491,478,518,456
490,504,484,507,521
494,517,499,500,580
509,526,514,494,625
505,521,516,491,610
501,514,520,491,605
517,515,520,491,592
518,512,520,493,586
512,511,522,499,566
518,504,521,508,537
518,498,516,515,498
528,494,510,523,466
531,496,504,537,438
516,494,503,542,421
512,492,492,536,418
523,494,487,533,422
524,494,481,523,426
519,501,484,518,471
506,509,495,506,537
490,516,503,498,565
507,527,521,497,588
496,521,520,496,591
523,516,524,492,569
515,513,525,490,563
501,510,525,494,581
501,504,521,496,592
522,503,518,511,549
531,498,517,519,495
531,492,509,531,444
527,492,505,537,425
530,494,499,541,416
531,492,490,539,419
533,493,491,533,430
513,489,480,522,460
503,500,486,512,495
502,510,498,505,531
500,522,512,499,565
501,524,522,494,584
504,519,524,495,591
512,517,526,495,600
512,516,527,494,587
517,513,526,496,583
516,504,523,500,555
520,500,519,509,515
525,494,513,524,474
530,494,507,532,436
527,494,502,538,428
524,493,495,539,414
522,493,490,534,418
514,493,486,532,436
500,494,479,519,475
497,504,486,509,522
494,516,499,500,558
500,527,514,496,590
507,525,524,496,588
500,516,523,493,588
505,515,526,494,585
506,513,526,495,586
506,509,524,497,577
514,506,523,506,540
520,500,519,517,501
524,494,511,528,457
529,493,504,536,420
527,494,501,542,401
517,493,494,536,399
513,494,488,533,399
513,492,481,528,409
500,495,481,518,453
488,508,492,509,508
494,519,507,504,563
498,528,522,496,615
504,519,517,490,617
511,515,522,491,612
507,516,525,495,617
503,515,526,495,617
506,508,525,499,599
512,501,520,503,550
524,496,514,515,495
529,495,509,531,444
533,492,505,540,407
531,495,499,541,392
521,490,491,539,384
517,490,487,537,387
504,486,477,522,418
495,499,485,512,471
491,513,495,504,534
502,522,511,499,591
509,528,522,496,617
510,518,524,495,614
508,513,521,492,616
503,511,525,495,618
505,512,526,496,611
512,505,522,501,570
513,500,518,510,528
516,497,514,519,482
526,492,508,535,442
530,497,505,538,421
527,497,500,540,403
523,493,489,535,392
515,490,486,533,401
494,489,475,515,442
495,503,488,515,470
503,515,504,502,534
505,522,513,495,599
497,524,524,494,622
494,517,525,492,623
491,517,527,496,623
495,514,526,495,615
505,510,526,499,602
524,496,518,501,552
527,497,517,512,513
533,494,512,525,466
534,496,507,537,428
536,498,504,540,403
523,493,495,540,389
511,491,491,536,390
504,490,484,530,387
496,489,479,514,440
480,502,490,506,513
498,520,510,501,543
508,527,521,496,602
503,519,521,493,621
497,509,521,492,616
498,507,523,490,624
496,508,523,491,630
524,508,525,498,603
525,504,522,507,547
537,502,516,518,493
541,500,513,532,434
548,496,508,541,399
551,498,502,538,388
534,492,494,540,392
518,492,489,535,394
498,489,483,520,412
493,499,486,514,461
493,512,500,504,517
494,522,512,500,589
497,526,522,490,629
516,521,524,493,629
517,521,526,493,610
514,517,526,494,611
514,514,527,494,612
513,506,525,500,587
522,502,520,509,534
521,497,516,521,479
522,493,512,533,429
523,496,506,539,405
525,493,499,540,391
523,494,491,536,392
521,493,489,532,393
512,495,481,518,432
500,503,490,507,493
495,515,501,501,555
498,524,518,496,605
508,527,526,494,621
510,518,523,493,621
506,513,528,494,622
509,514,530,493,600
507,510,531,497,593
512,504,525,502,567
521,498,521,514,525
528,493,516,525,470
533,494,507,535,418
530,496,502,538,394
521,491,497,539,387
510,492,494,536,383
504,493,490,532,397
496,499,486,518,449
496,509,496,508,510
499,519,507,499,566
497,525,521,495,612
499,519,526,493,620
502,516,527,494,621
511,516,527,492,617
515,512,529,494,609
512,507,528,498,593
503,502,524,507,553
513,494,519,518,507
519,494,516,534,448
525,495,511,538,411
530,495,505,538,398
528,491,494,533,389
522,492,491,531,394
506,489,482,521,420
498,498,487,512,471
499,508,499,504,532
497,521,515,498,593
498,525,525,492,624
504,519,527,493,623
503,515,524,490,625
506,514,530,493,622
507,513,531,494,613
515,506,526,502,580
515,501,522,510,536
521,497,516,520,490
525,491,511,531,439
530,499,507,538,408
528,495,499,539,390
522,495,496,538,384
515,494,489,530,392
497,491,481,519,429
486,500,489,505,478
502,514,500,500,539
506,524,519,496,600
509,521,524,493,622
504,515,526,494,623
501,516,528,495,622
504,516,531,495,615
510,512,529,496,600
508,506,525,504,567
516,496,518,511,520
529,495,515,526,454
528,493,510,535,405
532,494,505,540,391
529,491,496,539,370
523,489,490,537,381
522,493,488,531,401
501,494,485,517,465
494,508,498,508,521
496,517,508,502,572
498,526,523,497,614
509,523,525,493,616
511,516,526,493,612
512,516,529,495,615
508,514,531,494,621
509,509,530,499,607
520,502,524,504,554
521,497,519,514,506
524,494,517,531,445
524,496,511,541,407
520,494,504,538,386
509,493,495,539,378
512,493,492,536,385
506,491,482,523,412
500,495,485,514,456
493,510,497,503,527
492,521,513,495,583
492,525,527,493,624
490,519,526,493,620
503,514,526,489,617
518,514,532,497,608
512,511,531,497,606
531,507,526,501,578
541,501,522,506,530
531,495,519,524,486
534,492,509,532,428
533,496,511,543,403
530,496,505,542,387
524,494,496,539,384
516,495,490,534,390
499,492,484,520,431
496,503,491,510,480
504,516,505,502,539
498,528,518,496,600
505,522,525,490,615
506,518,527,493,617
506,517,529,491,622
510,516,532,492,627
514,511,529,495,619
521,504,525,502,582
529,501,522,513,529
532,495,518,526,472
535,492,511,536,419
529,494,506,541,396
516,493,497,540,377
504,490,494,540,386
513,495,490,533,400
503,491,485,518,443
487,506,496,512,503
489,520,509,501,560
498,527,524,496,608
503,519,525,493,615
504,515,527,491,619
506,519,531,494,620
508,515,531,494,615
508,508,528,496,603
513,502,525,508,562
519,503,521,516,513
528,493,515,526,457
525,493,507,539,412
528,495,505,542,388
516,490,496,537,381
519,494,495,536,386
507,488,484,525,411
492,496,486,513,466
493,509,497,503,525
499,520,512,497,580
499,526,524,492,619
500,519,527,494,620
501,516,528,492,619
504,513,529,497,620
512,514,530,494,610
515,506,527,500,581
515,501,524,511,540
521,496,520,523,492
525,491,514,533,436
530,496,510,538,404
527,494,502,541,388
525,492,495,538,382
515,494,490,534,393
500,492,480,519,428
487,499,489,509,486
484,511,503,502,549
495,522,517,498,600
498,525,527,495,617
504,519,526,494,614
500,512,529,495,619
501,512,528,490,619
499,511,529,496,610
509,509,527,503,568
513,500,521,510,514
526,495,519,525,462
540,493,511,535,420
536,494,504,539,399
535,494,500,537,387
527,493,494,536,387
517,493,487,529,391
500,496,487,521,439
494,505,495,508,503
489,518,508,501,565
492,525,523,493,614
502,521,528,494,626
516,517,525,492,621
517,514,527,493,618
513,515,531,494,616
516,507,530,499,595
520,503,523,504,559
524,497,521,517,515
535,496,513,528,459
531,490,508,536,413
535,496,509,544,378
527,492,495,537,377
517,492,491,536,392
502,489,487,526,408
488,497,488,515,447
490,510,499,504,520
497,524,513,498,582
503,527,525,493,615
498,518,523,490,611
488,513,526,491,620
490,513,530,493,614
487,514,530,497,607
493,505,527,501,580
511,501,523,507,537
528,499,518,522,485
549,494,513,530,428
556,496,508,539,402
536,494,502,539,392
527,493,495,535,388
516,493,491,535,394
504,491,483,522,430
505,502,493,511,484
501,516,506,505,541
500,523,517,498,595
501,525,526,494,615
504,518,525,493,617
505,515,528,490,614
512,514,527,492,613
509,511,529,495,611
515,503,524,502,564
521,499,518,510,520
536,501,518,524,471
536,493,511,534,418
530,494,505,536,395
524,491,499,536,387
520,493,495,537,385
521,492,491,533,398
501,495,483,517,446
495,506,494,507,503
495,517,508,501,561
498,526,521,494,615
499,520,526,491,623
507,519,528,495,617
509,516,528,492,615
512,513,533,495,610
508,512,528,497,592
510,503,525,507,554
514,496,521,514,515
527,496,516,528,455
530,495,510,535,413
526,496,506,541,394
519,491,496,537,385
511,490,496,537,389
501,490,486,527,412
499,499,490,515,457
502,512,499,511,512
496,522,512,499,578
500,523,522,494,617
504,519,526,496,616
502,514,523,488,622
508,512,530,493,621
509,512,528,493,611
509,507,527,498,586
513,501,520,507,539
516,497,520,520,494
518,493,514,530,435
520,493,508,537,408
530,493,504,542,391
517,491,495,536,388
513,493,492,532,392
503,490,483,521,424
503,500,488,509,479
505,510,501,502,542
504,523,516,493,594
508,527,525,493,622
511,516,526,493,622
505,515,525,490,619
514,516,531,496,611
514,512,529,495,602
510,503,525,502,575
517,499,521,512,527
525,498,521,523,476
530,494,510,535,423
530,496,509,542,403
522,494,500,537,397
515,491,493,534,399
507,493,489,532,408
489,493,485,520,454
486,510,495,509,497
490,518,508,498,545
495,523,518,494,603
499,521,525,494,615
508,516,526,492,610
515,513,526,492,607
517,513,530,494,601
514,509,527,498,586
517,504,525,508,550
518,497,521,519,518
528,493,515,528,466
529,489,509,538,414
528,496,506,541,390
518,491,495,535,384
515,492,490,533,389
507,488,485,527,404
501,497,486,514,457
509,510,497,506,516
502,522,511,499,573
501,528,525,494,618
505,517,526,493,619
503,514,525,492,622
505,518,531,493,616
508,513,530,495,609
510,505,528,500,582
506,500,524,508,535
519,496,521,521,483
531,494,514,530,431
528,495,510,538,400
521,494,504,544,391
525,491,496,537,384
516,490,491,536,390
511,490,483,523,420
505,502,491,509,471
503,513,504,500,535
510,523,519,497,598
506,524,527,490,623
508,518,530,494,622
512,514,527,491,622
510,512,528,489,615
508,510,529,495,608
506,506,528,501,577
515,501,521,511,524
515,497,521,524,470
517,490,512,535,427
520,494,508,541,405
526,495,499,538,389
518,492,495,536,382
512,491,491,533,392
495,492,486,519,439
487,503,494,508,500
508,516,506,500,556
506,524,520,495,613
508,522,527,492,622
509,518,528,490,620
516,518,532,494,620
515,516,531,491,612
515,510,528,496,598
513,509,528,507,559
520,497,522,514,518
526,498,515,525,464
532,494,511,537,417
530,494,507,543,396
521,490,497,537,387
519,491,490,533,387
507,490,484,525,408
499,498,488,518,456
499,509,499,504,518
500,518,511,500,573
504,528,527,494,619
510,522,530,493,621
505,514,528,494,625
506,516,530,492,619
508,512,530,493,607
501,505,529,500,586
514,503,525,510,541
520,498,519,519,497
524,493,517,530,443
526,494,509,539,408
527,496,504,541,392
517,496,496,536,389
511,492,492,531,391
502,492,483,521,424
496,500,491,511,473
496,512,502,502,535
497,522,518,499,592
500,524,528,493,622
505,518,527,491,624
504,515,524,488,621
505,511,529,491,618
512,510,531,496,608
509,504,526,501,577
515,501,524,512,531
520,497,519,524,482
526,492,509,534,430
525,494,507,538,407
522,493,499,536,389
521,491,493,536,382
519,492,489,530,387
502,492,488,517,436
494,506,492,508,500
499,514,507,501,559
500,527,519,493,615
506,523,523,493,624
504,512,525,491,619
507,514,528,493,617
511,509,528,493,611
513,508,528,495,595
517,504,527,505,555
522,498,522,515,512
526,494,513,525,458
526,493,509,537,415
523,496,507,540,399
514,495,498,538,388
511,493,491,536,388
507,492,486,528,400
501,494,484,514,453
496,506,493,504,513
495,519,512,500,573
501,524,520,492,629
509,520,527,493,626
510,514,526,493,620
508,513,528,495,621
505,511,528,496,608
506,503,525,496,584
509,500,524,512,538
521,498,523,520,493
530,492,512,530,434
541,498,510,540,398
531,496,504,540,395
516,491,493,535,386
513,492,490,533,386
499,490,483,522,422
494,501,488,511,489
497,511,500,503,548
502,523,515,493,597
508,524,525,493,624
515,520,528,495,610
510,514,526,491,622
511,514,528,493,614
513,512,533,496,615
514,505,527,499,586
519,500,520,509,537
524,496,518,525,491
526,491,511,535,422
531,496,507,541,392
523,494,497,539,380
511,491,493,534,381
519,490,489,535,391
502,493,482,520,427
495,504,491,506,493
498,516,506,502,559
507,528,523,496,612
502,524,526,493,618
496,516,525,489,611
489,511,527,493,621
500,516,531,495,617
503,511,529,495,602
528,507,528,505,565
528,499,521,514,512
533,495,517,526,455
532,492,511,537,411
531,495,505,541,386
522,491,498,538,384
524,492,492,533,385
516,491,487,524,404
504,499,489,517,449
503,511,499,506,516
498,521,509,498,576
505,526,526,493,620
509,523,526,492,621
506,515,525,490,625
509,515,531,493,621
509,513,527,494,613
503,507,529,501,585
512,503,525,509,538
520,495,518,517,495
526,493,515,529,442
528,493,508,538,407
525,494,506,541,388
515,492,496,536,383
510,493,494,533,391
497,489,484,520,421
489,498,490,511,472
489,510,502,503,533
503,526,517,498,594
505,525,527,493,622
506,518,530,497,615
505,512,527,493,615
507,513,528,493,615
513,511,530,494,607
513,506,528,501,576
517,499,525,509,537
525,498,523,522,484
530,492,513,535,428
533,496,509,543,401
525,493,503,540,386
515,493,492,535,387
512,493,491,532,392
500,494,486,519,436
496,502,493,509,497
494,518,505,500,558
497,529,521,496,615
498,522,526,493,633
505,519,532,492,625
503,514,526,489,624
506,512,529,493,616
512,510,527,496,596
521,502,527,505,544
516,499,520,514,504
527,495,517,526,457
531,492,512,537,412
529,497,508,540,397
519,491,495,540,391
519,496,494,536,391
517,493,489,526,403
501,495,487,514,449
498,508,497,506,510
496,518,508,498,568
504,523,523,493,620
503,518,527,494,618
504,519,528,492,619
509,516,529,491,615
513,514,529,493,610
513,510,529,499,586
518,502,522,504,545
522,496,520,516,504
527,494,515,529,444
526,493,508,535,408
524,495,504,542,388
518,492,493,537,381
512,493,493,535,387
497,491,482,522,415
490,498,488,513,465
491,512,501,504,528
512,525,517,495,588
512,526,527,492,619
508,518,527,490,624
509,516,528,492,631
508,514,530,492,622
505,512,531,496,614
509,504,526,498,578
511,501,522,510,525
518,497,520,521,467
523,493,515,533,425
530,495,508,540,398
530,495,504,541,382
523,493,493,535,380
514,494,492,532,385
506,494,487,521,431
501,506,492,510,500
499,516,506,501,560
503,526,520,494,607
505,523,526,492,620
508,518,528,492,619
508,511,526,490,622
513,516,532,492,616
512,511,531,500,601
509,503,523,501,566
512,497,521,517,522
528,497,518,525,465
530,495,513,535,412
532,498,509,541,391
527,494,503,541,386
520,493,493,537,383
511,493,488,527,397
497,500,488,518,451
500,508,498,506,517
503,521,508,498,570
500,528,529,494,624
501,521,527,487,623
499,515,527,494,625
500,516,530,491,624
498,513,531,491,616
500,508,529,497,591
502,501,526,510,550
507,496,522,517,497
516,494,514,527,438
526,494,508,539,401
540,498,507,542,391
537,493,497,537,391
530,494,492,536,391
510,493,483,522,421
506,499,487,512,472
506,512,499,503,533
503,521,514,496,589
504,527,527,494,622
506,519,527,492,619
502,515,524,487,622
503,512,529,492,624
510,513,532,496,613
513,504,523,498,585
520,501,526,510,532
527,500,520,522,483
526,491,512,536,428
530,493,509,541,399
529,495,500,541,385
517,489,491,536,378
509,492,491,534,382
499,490,485,519,427
495,501,488,509,485
497,513,504,503,551
499,523,516,494,606
502,522,527,493,626
506,518,528,495,619
502,514,527,493,621
509,515,527,493,613
511,512,531,496,602
511,502,525,503,569
516,499,521,512,521
526,497,517,528,464
535,494,512,536,414
530,494,507,540,389
523,491,499,539,385
514,496,493,538,386
509,494,491,532,397
496,498,487,516,448
493,508,497,508,511
496,519,513,501,574
499,527,522,495,620
505,523,526,492,620
509,516,525,490,619
512,512,529,491,618
507,514,531,493,613
508,508,529,498,595
508,506,526,507,551
512,497,521,519,499
519,494,516,533,445
524,494,510,542,404
529,494,505,541,388
519,491,494,536,387
527,492,492,534,389
514,491,482,523,411
505,499,491,513,465
498,514,501,505,530
499,519,514,494,591
501,525,525,496,626
505,518,528,492,623
507,517,527,491,621
508,514,530,492,616
509,512,530,492,609
509,507,528,499,578
515,500,524,511,531
522,498,520,522,484
533,493,511,530,429
537,492,505,537,401
532,493,500,539,389
520,492,494,537,389
514,491,489,533,387
499,491,484,520,425
494,502,492,509,484
495,514,503,501,547
502,525,520,495,606
506,522,526,493,623
504,518,528,491,623
502,513,526,490,622
502,514,530,491,618
499,510,530,496,601
510,504,527,503,567
522,499,525,514,519
528,498,518,526,464
525,492,510,536,420
534,495,508,542,397
525,494,499,541,391
517,493,493,536,389
518,491,489,531,387
501,495,486,519,441
496,508,497,507,508
494,517,509,498,566
498,527,522,492,620
501,521,527,492,625
505,516,527,494,613
505,516,529,492,619
503,514,530,493,619
502,507,530,497,594
520,502,521,503,553
532,497,519,516,507
537,496,517,529,447
533,495,510,538,412
532,498,503,543,389
522,490,495,538,386
515,491,492,533,383
500,489,483,525,413
496,496,486,514,464
501,508,501,504,527
506,523,511,497,591
506,526,526,492,627
509,518,529,494,624
508,518,526,492,627
507,515,529,494,625
509,516,535,496,620
506,507,523,496,588
509,500,522,508,541
516,495,518,521,483
525,492,513,532,418
528,492,504,538,389
534,495,503,540,378
518,491,492,536,384
513,491,490,533,398
506,493,485,523,426
501,503,492,511,490
502,515,506,503,545
502,525,519,496,602
501,524,526,493,624
497,517,529,495,624
497,514,528,492,624
503,514,528,493,618
505,513,529,496,604
509,506,525,503,558
523,504,523,515,519
529,498,517,524,464
531,492,510,538,418
536,497,506,541,392
521,491,496,539,385
515,493,495,539,391
511,493,491,533,398
501,495,486,517,444
499,505,495,506,502
500,517,507,504,562
499,527,523,492,616
502,520,523,491,622
504,517,531,493,620
504,515,530,491,618
507,513,529,493,614
516,508,527,498,592
519,502,525,506,554
517,499,519,516,511
525,494,514,526,448
526,492,510,540,411
532,498,504,542,391
526,492,495,537,385
520,494,492,534,382
508,492,484,522,405
499,496,486,515,462
491,510,497,503,527
493,521,514,498,585
500,524,525,494,623
498,519,524,492,625
501,515,530,494,621
505,514,529,492,615
517,514,532,492,609
517,508,527,500,583
519,501,523,509,533
526,498,521,519,479
533,493,513,535,425
529,491,508,540,399
528,496,502,544,380
518,492,494,537,382
514,492,491,535,388
501,490,482,521,426
495,501,493,512,488
499,513,502,500,551
499,528,519,496,606
503,524,525,492,627
507,519,525,490,622
509,514,528,491,623
512,515,530,489,618
514,513,531,496,604
514,503,525,503,572
516,501,526,513,525
522,497,519,521,473
531,493,513,538,420
527,495,505,542,399
524,493,496,539,384
521,490,493,538,384
506,492,489,533,393
496,496,485,517,441
491,507,494,506,503
498,519,509,498,561
502,522,518,490,618
506,521,527,492,620
509,517,527,491,619
508,513,526,489,617
512,512,526,492,612
506,506,526,495,597
512,508,526,507,550
524,500,517,516,501
527,492,515,530,446
533,493,510,538,401
530,490,503,542,386
518,493,496,537,388
515,496,493,533,388
505,492,485,523,409
495,497,484,512,465
495,506,497,503,527
499,521,514,497,585
495,528,523,493,627
499,520,528,494,622
498,515,527,489,619
501,514,526,490,618
510,510,528,494,615
516,507,525,497,584
533,504,525,511,537
536,500,521,523,481
534,492,514,534,428
531,495,508,541,401
528,493,499,539,391
517,489,493,539,393
508,488,489,533,399
496,491,485,523,425
490,500,491,507,481
491,514,501,501,541
495,526,516,497,600
499,523,525,492,626
503,517,529,495,623
507,514,527,491,625
510,512,529,490,616
513,509,526,496,604
516,503,527,503,571
521,500,522,511,522
523,496,518,526,466
527,493,511,536,416
524,494,507,541,397
530,493,496,538,388
522,492,493,537,388
514,493,490,531,394
502,494,484,517,445
497,506,495,506,505
499,517,509,499,568
499,526,524,495,619
501,517,526,492,623
502,517,527,491,618
498,512,528,490,624
502,516,532,493,620
503,512,529,497,605
519,505,527,502,562
524,498,521,519,513
533,497,515,527,448
533,494,511,539,405
532,498,507,543,384
524,490,496,536,384
520,494,495,538,388
506,488,485,528,406
503,497,487,514,453
504,512,500,509,519
504,522,512,497,579
503,525,524,495,620
503,519,527,494,623
506,515,528,490,621
509,514,529,492,614
508,512,528,494,608
514,507,526,499,576
519,501,523,505,532
522,498,520,518,491
528,493,515,534,428
528,495,508,536,401
525,495,503,543,383
511,492,497,539,383
508,493,493,537,389
502,491,485,524,422
500,503,490,513,477
493,517,502,503,540
498,522,517,496,596
503,520,525,492,621
503,520,527,493,623
500,512,528,492,624
510,517,529,493,618
516,513,528,492,609
515,507,526,503,573
513,498,522,511,529
524,496,518,524,471
531,491,511,535,418
531,494,509,542,394
525,495,501,542,380
518,493,491,535,386
513,490,490,533,395
501,493,484,519,440
494,505,494,510,504
499,516,507,500,560
500,523,521,490,617
508,521,526,491,629
514,517,529,492,620
507,514,528,488,622
509,513,529,490,613
508,507,529,497,599
511,503,525,505,556
520,499,522,516,510
524,495,517,527,456
527,492,509,538,413
523,496,507,542,392
515,492,499,537,382
508,492,491,535,387
501,491,485,527,408
493,497,487,517,460
495,509,498,502,518
500,522,513,498,576
502,525,525,492,620
509,519,527,490,619
512,517,530,492,624
518,514,529,493,618
513,513,529,492,616
516,508,528,498,587
518,500,524,510,533
523,497,520,519,491
526,490,513,532,433
529,494,510,540,399
530,494,502,542,382
523,491,495,536,384
517,493,492,535,390
503,492,485,520,421
499,501,488,512,476
497,514,502,501,538
501,521,517,497,598
503,523,524,489,623
505,518,531,495,621
505,514,525,490,629
506,515,528,490,621
507,514,529,494,608
511,505,526,500,576
517,503,522,510,527
521,495,518,523,471
526,493,509,534,415
527,494,508,541,392
523,494,500,540,379
516,492,494,537,384
513,493,492,533,389
496,492,485,519,437
495,504,493,508,498
498,519,508,501,560
507,525,520,493,615
507,521,525,491,624
511,519,529,493,621
510,514,525,491,622
503,512,529,489,618
504,510,527,495,598
511,502,524,504,549
517,498,519,514,506
525,496,518,527,452
536,496,511,538,409
532,497,505,540,394
520,492,496,537,390
510,491,490,535,391
503,489,486,526,407
494,495,487,516,462
490,510,498,505,522
494,521,513,500,579
506,527,525,492,619
515,520,527,493,617
514,518,523,489,618
509,513,527,491,620
513,510,529,493,616
508,507,528,498,589
511,501,525,510,549
518,498,521,522,500
527,495,514,530,440
529,495,507,538,406
531,495,505,542,386
520,491,492,535,387
514,491,490,534,388
501,490,485,523,421
496,499,490,509,474
495,511,502,502,538
497,523,517,496,599
502,524,526,492,621
507,517,529,492,617
499,513,528,493,626
504,513,529,493,617
518,511,530,499,601
519,505,526,500,564
523,500,523,510,525
528,496,518,521,474
532,491,511,536,421
532,495,509,540,400
525,494,502,541,388
519,490,494,538,390
514,492,490,533,394
499,493,488,518,434
498,502,492,507,495
497,517,507,505,556
493,525,521,493,617
499,522,526,491,626
502,520,529,493,620
507,514,529,488,623
514,515,528,492,616
511,508,528,496,599
515,501,525,504,555
517,498,520,514,508
521,495,522,529,461
521,493,512,535,415
528,495,507,543,395
524,492,498,541,380
521,493,494,537,381
512,492,489,528,403
499,497,487,514,455
498,509,498,507,514
498,521,514,501,576
499,528,526,492,614
506,523,526,494,611
506,517,530,491,611
506,515,530,493,614
510,515,531,493,615
507,506,527,500,601
517,503,526,508,553
519,497,522,519,503
524,493,513,532,437
532,492,510,538,404
529,493,507,544,387
525,491,494,536,385
521,493,491,533,389
504,490,485,525,421
496,500,490,510,473
497,514,501,504,538
497,522,518,497,599
505,526,527,498,626
507,519,528,494,623
508,517,528,492,624
510,514,531,495,621
510,513,529,496,611
513,507,528,500,571
516,499,523,510,531
521,498,520,524,478
529,494,516,537,420
530,495,510,542,396
531,495,502,541,381
521,492,492,535,381
515,493,490,532,388
500,494,485,517,432
496,505,494,509,489
496,517,508,502,545
496,524,521,496,602
501,523,526,490,619
510,520,530,492,618
506,514,525,489,622
504,514,529,491,621
502,510,528,494,601
507,503,527,503,561
512,498,522,514,516
522,496,518,524,461
528,497,512,538,415
540,497,508,543,390
524,489,496,538,381
516,491,490,537,382
508,491,490,529,399
499,496,486,513,452
496,507,497,505,520
507,524,511,499,572
505,528,525,490,620
507,519,527,492,625
505,518,531,492,622
506,516,531,492,618
509,515,531,496,613
511,507,530,498,591
522,503,526,507,546
524,498,522,517,498
531,494,512,526,436
530,495,509,536,404
527,496,506,546,387
522,493,497,537,385
519,496,494,539,385
507,491,485,523,418
498,501,490,510,475
497,515,502,501,540
496,520,514,494,607
503,525,525,491,627
510,517,527,493,616
502,515,525,490,617
504,515,529,494,617
508,513,531,493,603
514,506,528,501,574
514,501,524,511,528
522,499,518,523,476
526,495,514,535,423
528,496,509,540,397
526,496,502,541,385
521,491,493,535,387
513,492,490,528,392
499,493,487,519,436
493,501,491,506,497
498,515,507,500,558
499,522,520,494,616
505,522,526,493,626
510,519,528,493,619
503,512,527,491,626
507,515,530,494,623
503,511,533,497,608
505,504,526,502,571
515,496,521,513,515
527,492,514,525,452
529,490,509,536,411
533,498,507,543,391
527,494,499,540,384
516,492,493,536,389
507,492,486,530,402
493,497,485,517,453
496,511,499,508,511
500,520,511,501,569
500,527,522,493,619
506,519,527,493,621
507,517,527,491,622
507,513,529,493,617
508,514,531,493,611
509,507,527,499,591
517,503,526,505,545
524,499,520,515,499
536,492,514,527,445
535,493,510,543,411
536,497,507,541,390
520,489,494,532,386
516,493,489,534,383
501,488,484,522,409
497,499,487,512,464
498,511,502,506,529
499,523,515,494,592
505,525,524,492,620
505,521,529,494,613
508,517,528,491,614
508,515,531,494,611
507,513,531,495,607
512,507,527,502,580
517,501,522,513,532
524,496,516,522,481
526,492,510,531,424
523,494,506,540,400
520,495,506,541,390
513,494,494,536,389
517,493,488,532,390
498,490,483,521,438
489,499,492,512,492
490,515,507,504,552
498,524,520,498,612
512,522,524,492,628
514,518,530,492,625
508,510,527,492,624
508,513,530,496,615
508,508,530,495,603
514,504,526,501,563
521,499,522,514,520
526,494,516,526,464
531,492,512,536,414
528,493,507,540,392
525,494,499,542,380
517,494,490,536,383
509,493,486,530,397
498,495,485,516,447
496,508,497,504,509
494,517,508,499,575
500,528,523,495,624
512,521,528,495,620
510,516,527,492,618
509,511,527,492,620
509,513,530,498,615
511,508,528,496,591
514,502,526,507,547
518,501,520,518,499
530,496,516,532,440
529,494,511,539,405
531,498,507,543,389
520,490,494,539,388
511,493,493,535,392
502,488,483,524,418
495,498,490,518,469
499,509,502,503,527
499,522,514,498,594
503,525,525,490,626
505,518,525,491,623
506,516,525,490,623
506,515,527,493,617
508,512,529,495,610
515,507,526,500,578
522,501,523,509,532
524,498,518,522,482
526,492,511,531,425
524,495,506,539,405
526,494,503,542,385
514,489,492,538,384
516,493,492,534,387
504,493,484,518,424
497,505,490,509,490
493,515,505,499,552
498,525,518,496,609
499,521,525,493,627
506,519,532,496,621
506,515,527,491,623
508,515,530,494,614
506,507,527,496,601
513,505,526,502,570
518,501,521,511,522
524,497,518,525,467
528,498,511,536,421
529,497,507,541,400
520,494,500,538,389
512,494,494,537,393
503,495,490,531,406
491,496,487,517,455
490,511,496,508,517
501,518,509,496,565
506,525,520,491,614
516,521,526,493,623
511,515,529,493,617
505,512,528,493,607
506,513,529,495,604
513,506,529,500,588
521,504,524,506,543
523,494,519,513,497
532,495,516,530,443
532,495,511,543,404
530,496,507,542,383
521,491,492,536,385
515,493,492,536,390
506,489,483,524,411
499,498,489,516,463
497,507,498,504,530
502,521,515,494,592
505,523,525,492,625
504,518,528,494,622
504,513,525,491,622
506,513,529,492,617
513,512,531,496,607
515,506,529,499,574
517,500,524,508,536
519,497,523,522,490
528,488,512,533,429
523,493,508,539,404
522,495,505,542,387
516,491,493,535,383
513,494,491,534,384
496,490,485,523,425
492,501,488,513,484
496,515,506,503,546
501,523,517,496,612
507,523,527,491,624
508,518,528,494,619
512,514,528,490,621
514,512,529,492,614
512,509,530,496,605
516,506,527,504,572
521,500,522,512,522
525,496,519,525,467
529,493,509,535,417
529,494,507,542,395
526,496,501,542,384
517,494,495,536,388
514,494,489,531,396
500,494,483,515,447
495,506,496,506,506
493,517,510,501,572
497,527,523,497,617
504,523,528,493,620
509,520,532,495,617
504,517,527,492,617
510,512,530,494,612
510,508,528,497,598
515,503,526,507,550
520,498,523,518,505
524,496,516,531,444
527,495,512,540,406
527,497,506,540,388
517,489,495,537,388
512,491,493,538,392
500,489,483,524,416
493,498,491,514,470
494,509,500,504,530
500,521,514,498,586
505,525,525,491,621
507,520,529,490,620
512,515,528,492,617
512,513,528,494,616
511,516,532,496,613
511,504,527,497,585
519,500,524,510,534
526,495,519,523,480
533,491,513,536,419
532,496,508,541,399
532,501,506,545,387
516,492,493,534,389
515,493,491,535,389
496,496,486,523,428
494,506,492,512,488
495,515,504,502,550
496,523,518,493,607
504,525,525,493,624
507,519,529,495,618
504,515,528,492,626
507,516,530,490,620
509,512,531,499,608
510,503,526,502,573
514,497,522,510,529
522,496,521,524,469
525,491,511,537,417
525,494,507,542,395
519,494,501,541,382
519,493,494,533,385
516,492,491,533,396
498,495,487,517,446
497,506,494,506,504
499,517,509,498,563
503,526,519,493,613
504,520,527,495,622
503,518,528,495,617
499,513,527,489,617
503,512,528,491,615
516,505,527,497,592
522,505,528,506,547
521,499,521,515,507
526,495,511,527,450
532,491,508,536,410
536,498,506,542,396
527,493,497,536,394
522,493,493,533,389
516,491,484,525,406
505,496,488,517,458
493,508,500,505,523
490,520,514,495,586
493,527,528,496,630
498,520,528,493,621
498,514,528,493,618
495,514,530,491,622
504,509,529,491,606
515,505,525,500,581
519,499,521,505,537
525,494,517,519,485
530,492,513,530,425
530,496,505,539,400
526,494,505,543,389
513,490,493,536,389
515,494,492,535,391
512,489,483,520,424
502,501,488,509,483
498,514,501,500,544
505,527,518,496,599
505,525,525,492,621
502,517,527,494,622
503,513,527,491,621
502,510,529,491,616
506,510,526,494,605
516,505,526,502,570
520,499,522,511,523
528,497,517,524,470
532,495,511,536,417
539,499,506,541,396
529,496,500,539,384
518,492,491,536,384
514,493,488,531,393
499,495,484,522,445
495,503,493,507,506
496,518,508,503,570
500,527,522,496,620
506,523,529,493,625
505,518,529,495,620
500,511,527,494,622
509,513,529,494,610
508,506,526,494,593
512,502,525,506,553
525,497,520,515,510
530,497,516,529,453
532,494,512,537,412
531,497,504,541,390
521,491,495,538,387
513,495,493,536,389
504,494,485,527,404
497,496,487,515,456
495,509,499,505,523
492,519,512,501,584
506,528,526,491,620
514,521,528,490,622
511,516,527,492,622
510,512,527,492,617
506,514,531,494,614
507,510,529,502,587
515,503,523,509,538
517,498,520,520,489
530,495,515,532,433
531,496,510,538,404
529,497,505,542,384
519,492,493,535,384
518,494,490,535,387
502,490,484,521,427
497,500,489,509,482
496,513,500,501,544
502,523,517,496,600
501,524,526,496,623
507,520,529,495,619
509,518,529,494,619
516,516,529,493,611
515,515,529,496,603
511,504,525,500,574
515,498,522,510,528
519,496,517,522,474
527,493,509,533,419
526,495,508,537,400
526,494,499,538,386
512,489,492,534,388
512,493,489,533,395
498,497,487,518,446
495,505,496,507,508
503,519,509,500,561
504,532,524,495,618
501,522,527,492,626
508,517,529,494,620
506,514,527,490,621
511,515,530,493,613
514,511,530,496,599
516,504,526,503,558
519,497,520,512,512
524,493,516,531,457
527,493,508,536,413
525,499,506,542,388
513,490,497,539,383
511,491,493,534,386
504,488,485,525,410
497,497,489,514,462
493,507,498,507,522
501,521,515,497,579
505,526,525,493,617
506,518,527,490,618
509,516,529,495,615
505,513,525,490,619
512,514,527,493,611
512,507,528,498,587
516,501,524,506,542
522,495,519,520,491
530,492,512,532,431
527,494,509,539,397
526,498,502,540,385
515,491,493,532,386
515,493,490,533,390
506,491,484,522,423
494,501,491,509,479
493,515,504,502,539
494,521,517,497,596
499,522,523,489,626
507,519,529,491,624
506,514,528,491,623
506,513,529,492,614
514,512,529,493,602
517,504,526,502,574
518,501,523,510,526
529,495,518,524,472
530,492,511,536,419
528,492,503,538,399
524,494,498,541,387
516,488,492,535,389
514,494,492,533,396
500,491,485,517,441
497,505,494,508,502
497,519,507,500,557
501,526,522,492,611
500,520,526,494,623
507,518,529,494,617
507,511,527,490,620
507,516,529,494,610
508,509,529,498,595
513,504,526,505,553
520,500,522,512,508
526,495,516,526,453
530,493,510,540,408
529,496,505,543,393
519,493,495,540,388
516,493,495,535,389
505,488,484,523,410
502,496,487,516,454
498,509,499,506,515
499,524,510,500,580
504,527,526,495,623
505,519,524,488,619
508,516,529,492,615
504,513,527,489,618
506,515,532,493,616
508,508,526,498,592
514,502,525,509,544
521,498,521,518,493
528,490,512,532,433
533,493,508,542,403
534,496,506,546,383
520,491,498,536,389
514,492,492,535,389
499,492,483,521,422
492,499,489,511,475
499,515,503,505,534
504,526,517,498,593
506,523,526,494,620
500,520,527,492,623
507,514,527,493,618
508,509,529,497,612
505,512,527,494,609
513,508,528,504,578
519,501,521,510,529
523,497,520,524,476
529,490,514,536,425
534,492,511,541,402
523,496,500,540,388
511,493,494,538,391
514,493,495,533,397
501,493,480,519,440
493,503,493,508,501
501,520,505,501,558
504,530,521,494,610
503,524,526,493,615
508,521,526,496,611
502,515,526,492,622
508,510,527,492,613
510,506,523,494,602
522,499,524,504,557
530,494,514,516,507
519,484,514,526,457
524,490,516,538,414
529,497,518,539,393
521,496,510,540,385
516,495,508,535,388
504,498,490,526,412
493,501,468,510,462
495,514,489,509,522
501,520,508,498,579
498,527,525,497,625
503,522,528,496,625
505,519,532,495,620
509,515,526,492,619
509,514,530,494,613
507,507,526,496,592
515,502,524,507,540
522,499,521,520,492
531,495,516,532,436
522,495,508,537,409
531,501,506,541,388
519,494,494,535,387
516,494,491,534,389
500,491,484,521,422
497,499,490,513,475
497,512,501,501,539
499,522,516,497,597
506,526,526,495,622
509,521,532,495,618
508,516,527,492,624
507,507,527,494,620
506,503,533,496,610
512,502,528,501,575
518,499,520,510,527
525,497,518,527,477
527,492,514,540,424
524,494,511,547,403
520,496,505,550,385
512,497,494,537,389
515,497,497,532,392
505,497,500,510,436
498,506,517,494,498
500,517,531,493,553
504,525,549,495,603
511,518,534,501,618
519,512,503,497,617
503,500,496,497,621
515,510,518,502,606
517,506,519,489,594
505,498,517,494,560
511,490,513,502,514
524,499,513,518,461
530,505,514,535,414
527,510,505,543,400
521,499,494,536,386
519,497,485,524,389
518,494,481,515,403
499,500,486,502,455
497,510,500,494,514
498,521,516,484,573
498,528,522,493,625
509,522,520,494,626
508,518,533,503,623
511,514,528,496,619
510,506,529,496,612
511,503,530,498,581
517,494,524,506,550
521,494,523,520,499
529,495,521,535,435
533,501,512,549,402
531,504,504,552,382
525,498,503,547,379
521,494,495,541,386
490,480,479,527,420
487,486,482,510,475
491,507,499,502,540
502,508,511,494,593
508,504,519,493,622
506,502,516,491,613
507,510,510,492,607
504,514,520,489,614
496,503,535,485,624
502,509,549,495,588
527,541,566,520,524
540,534,560,538,473
530,507,515,544,425
521,498,480,542,400
524,505,489,546,381
516,511,497,536,390
516,508,495,528,396
502,503,485,521,433
495,500,490,520,490
494,512,508,507,550
500,522,526,486,605
504,517,529,472,619
527,513,532,480,608
537,509,539,504,596
503,521,559,519,596
492,518,538,506,602
516,508,514,500,578
515,496,467,484,538
523,486,452,493,471
515,481,469,541,421
515,483,484,552,403
507,492,486,536,395
503,508,515,533,395
503,506,508,533,403
499,501,510,534,452
496,513,526,510,513
505,524,535,490,571
507,523,540,491,619
503,519,545,495,612
513,520,547,497,605
504,506,554,495,615
504,502,548,494,615
512,499,533,499,592
520,505,535,509,549
524,505,530,518,489
525,506,525,534,431
524,509,529,542,407
526,504,514,543,391
516,492,496,534,390
515,498,503,535,394
506,508,498,526,421
495,518,506,515,472
498,519,502,508,529
495,517,512,498,594
500,519,527,498,629
507,521,528,506,617
504,511,531,495,622
518,508,540,500,614
510,503,548,505,600
500,495,542,496,575
515,501,546,501,531
531,507,514,521,473
536,496,515,535,417
530,477,517,541,393
513,477,524,537,388
501,490,528,525,391
509,499,538,523,387
507,493,522,533,421
502,515,495,525,484
496,525,504,539,549
489,511,520,527,615
486,513,521,498,649
505,506,531,481,632
516,507,535,472,614
510,527,542,477,612
517,524,537,488,600
527,511,514,492,552
521,502,507,494,503
512,492,527,523,464
511,499,519,540,425
523,503,516,542,401
521,491,517,525,392
513,506,517,523,390
504,508,515,523,402
493,522,503,502,463
497,517,494,506,521
495,504,521,514,578
500,510,539,513,620
497,495,518,490,624
514,497,537,494,611
523,496,539,483,602
537,504,538,482,581
507,529,552,512,584
506,537,548,510,562
507,495,516,486,499
509,499,503,501,456
522,522,501,541,410
554,491,492,571,381
559,469,484,552,356
534,463,480,535,356
519,456,487,542,373
514,483,504,551,428
467,514,494,491,534
466,528,476,423,638
493,541,498,412,653
484,536,542,469,660
487,480,566,560,641
500,497,560,608,622
503,495,541,577,613
495,454,484,510,599
507,452,499,406,557
525,540,559,474,489
537,582,595,543,420
524,546,665,569,402
524,522,667,545,396
529,490,616,542,386
510,477,542,524,391
477,488,376,433,441
470,510,528,497,515
501,518,580,554,542
536,495,601,585,565
539,508,610,573,561
509,493,541,518,601
488,417,505,463,611
496,422,508,456,585
493,500,498,430,606
506,509,446,448,599
512,405,411,524,523
524,492,501,582,438
526,586,558,566,399
545,590,639,527,392
518,555,659,535,397
512,514,648,540,400
520,525,709,561,404
497,496,627,474,464
490,493,526,526,526
480,447,372,512,567
474,427,251,477,634
468,415,349,506,654
502,452,403,524,626
522,534,463,474,615
519,537,476,438,595
500,568,480,460,588
517,531,530,511,519
511,508,550,552,488
520,569,574,578,450
533,546,479,561,400
535,532,485,561,379
530,530,473,556,387
533,542,434,536,382
503,521,437,515,396
500,475,510,483,462
479,450,511,452,560
500,445,547,483,598
504,474,542,537,613
488,486,536,528,625
481,500,482,469,641
501,604,523,478,634
514,577,556,501,597
514,566,577,521,551
507,523,629,551,537
519,495,681,581,480
525,497,640,568,408
520,528,510,501,377
521,522,487,523,372
531,533,530,550,372
529,535,490,544,368
520,499,470,528,407
476,457,445,482,501
460,444,471,441,577
490,441,468,463,615
525,451,493,486,603
521,446,512,527,600
480,447,595,506,636
481,465,627,518,650
505,477,578,531,616
513,495,510,559,575
525,577,569,523,521
518,499,562,452,477
506,494,498,481,446
537,564,541,548,380
546,550,455,617,346
549,550,444,571,359
522,520,373,522,381
499,529,400,517,423
519,540,471,493,478
521,552,482,545,569
488,548,471,564,642
497,496,534,549,639
502,476,580,423,646
503,453,581,447,640
488,433,502,480,625
513,494,507,459,584
527,517,513,461,511
509,396,405,490,489
517,393,389,519,455
533,438,439,566,384
532,590,501,580,364
522,516,420,573,370
509,453,392,539,377
496,482,411,499,425
483,412,481,479,486
490,458,458,538,540
494,574,575,562,601
510,505,567,529,626
505,487,503,456,621
524,563,569,538,604
520,552,487,537,634
534,563,415,526,604
509,499,513,457,573
506,493,605,452,533
510,575,531,511,481
512,570,354,516,409
534,549,434,563,350
535,520,471,539,341
527,511,482,523,349
517,504,475,517,363
492,520,456,537,416
495,519,458,512,469
505,500,509,502,527
514,495,599,509,596
512,530,484,490,641
503,504,451,486,637
497,440,430,410,647
495,399,450,446,641
499,410,518,531,611
494,457,529,519,576
502,536,495,543,526
516,526,531,536,476
520,519,516,531,443
531,532,534,553,398
531,505,507,573,389
517,534,516,593,379
517,512,517,565,392
499,438,517,557,452
476,489,507,547,505
474,529,483,485,595
515,587,508,441,611
525,581,535,446,619
