CH1,CH2,CH3,CH4,CH5
530,495,495,549,416
524,491,485,545,411
511,490,478,541,410
503,488,471,536,428
497,497,476,521,469
495,512,497,510,523
499,525,516,495,567
508,532,536,486,604
502,522,539,489,606
507,520,541,484,598
510,516,540,487,593
512,511,539,486,591
512,507,536,493,569
511,504,531,505,532
520,495,521,519,490
530,488,505,533,450
529,492,497,543,422
527,495,493,551,412
519,491,483,545,408
512,489,475,544,415
504,488,469,530,443
502,502,482,517,487
497,517,504,504,538
499,528,523,493,584
503,528,540,488,604
507,522,541,485,597
512,517,542,487,598
507,516,541,483,594
506,511,539,485,587
511,504,533,495,558
517,499,527,507,521
523,495,516,526,479
527,490,505,543,436
530,493,498,547,420
527,493,489,551,406
516,492,478,547,410
506,489,476,539,425
497,494,477,523,458
493,509,487,512,503
500,519,511,502,549
501,530,529,491,592
505,526,538,486,602
507,521,540,484,598
508,517,542,486,593
508,516,539,485,593
507,508,538,487,579
515,504,532,498,546
520,497,521,513,513
524,493,513,533,466
536,491,503,545,427
527,495,496,547,411
521,493,483,549,408
514,491,476,544,413
502,486,468,533,432
490,497,476,520,479
492,512,497,508,531
497,525,518,496,576
499,531,536,489,605
497,526,539,487,606
502,520,542,485,598
504,516,545,487,594
505,512,540,486,590
515,507,537,493,566
523,501,526,502,528
532,497,522,519,493
532,488,507,536,449
528,489,496,546,425
528,495,491,550,412
519,490,482,551,405
515,491,475,541,410
503,491,469,529,439
496,501,483,516,485
496,517,501,502,531
498,527,525,496,581
506,529,536,487,602
510,522,538,487,599
510,521,543,488,603
510,514,542,486,602
510,513,541,487,591
513,504,538,499,559
520,500,525,509,519
525,496,514,523,477
530,488,503,538,436
530,495,497,549,416
528,494,488,550,410
520,492,480,546,410
513,491,472,541,420
499,499,476,528,455
494,508,491,511,504
497,521,510,497,551
505,529,530,490,593
510,526,540,487,600
509,519,540,488,597
506,516,543,487,594
503,512,540,485,591
509,508,538,492,571
517,505,532,501,544
517,497,522,514,511
526,494,513,531,461
530,493,503,542,428
527,494,495,549,413
524,491,485,552,409
523,492,478,545,408
506,490,471,534,428
498,499,480,523,471
499,513,497,512,518
496,523,516,496,572
502,531,534,487,602
506,521,537,485,605
508,518,540,482,595
507,515,541,486,595
506,514,540,488,593
511,505,536,493,570
515,499,526,505,531
519,496,518,518,493
526,489,508,533,446
525,489,498,545,423
532,495,493,545,413
522,493,483,544,412
510,490,476,543,418
500,489,470,529,445
500,501,482,522,488
499,516,505,506,537
494,529,526,495,583
502,528,535,488,601
510,522,540,486,594
508,517,542,490,599
508,516,541,485,597
506,511,539,486,588
511,502,533,497,559
518,494,524,509,520
526,495,515,524,476
528,491,502,538,436
526,493,495,544,417
529,494,489,548,409
518,488,477,545,418
511,490,472,539,425
499,491,473,524,461
493,507,489,513,499
498,521,511,502,541
502,529,531,488,588
508,522,537,483,593
505,518,540,485,594
510,519,544,488,600
514,516,542,486,605
510,510,539,492,588
512,503,532,500,546
518,494,522,514,506
526,483,506,528,462
529,486,498,545,427
532,493,495,551,410
522,492,485,547,413
514,487,473,539,419
500,484,469,531,436
493,496,478,518,475
495,518,501,509,525
496,528,519,498,573
502,533,533,487,603
506,517,539,485,598
509,512,543,488,597
505,508,542,486,594
503,497,537,483,601
507,494,531,491,573
516,489,518,503,534
520,486,515,520,495
528,483,504,534,450
529,490,494,544,422
529,502,491,550,410
520,492,485,548,411
516,492,480,541,416
499,489,473,528,446
493,495,488,516,487
499,499,505,507,536
504,505,516,495,579
503,497,522,486,600
508,485,524,484,600
500,490,529,483,600
502,508,534,484,597
511,515,536,489,587
521,512,540,501,545
527,498,536,517,509
524,494,526,525,474
531,498,515,540,431
521,488,496,544,425
522,493,486,549,408
519,504,469,546,406
510,512,470,541,421
498,509,472,521,467
495,521,497,510,516
498,535,519,502,557
503,547,540,494,593
504,537,545,487,598
507,527,545,490,592
517,528,545,488,591
518,524,544,487,588
518,513,540,492,565
514,504,533,503,543
523,501,524,510,504
534,490,509,530,459
538,488,499,545,416
531,486,492,553,406
521,494,487,555,404
525,495,483,556,401
499,492,472,541,435
486,494,469,519,480
487,500,481,509,529
495,526,513,499,579
498,540,532,490,609
507,530,539,484,605
510,521,545,479,598
508,521,547,478,595
506,512,543,482,597
515,504,542,493,564
521,502,533,509,519
523,508,531,522,487
519,502,516,541,438
519,496,509,546,421
523,496,498,544,418
522,490,498,548,407
520,490,492,545,413
511,487,486,532,440
498,500,501,520,485
489,514,504,504,545
490,493,497,483,594
507,480,517,478,607
508,476,530,485,597
515,468,531,489,587
505,446,537,488,589
494,435,530,483,596
504,461,528,495,568
530,496,530,511,516
537,503,513,530,475
524,502,465,535,442
528,524,473,545,417
536,552,487,541,403
523,540,479,526,408
519,526,466,524,415
506,533,486,522,453
498,544,503,511,504
493,516,509,497,551
501,505,530,499,588
506,508,540,498,598
508,504,546,503,599
511,506,548,494,595
498,497,542,484,591
498,501,544,489,580
525,525,558,503,540
527,514,547,518,499
522,487,517,528,453
525,463,497,538,416
516,451,495,538,410
516,457,496,540,402
507,469,501,539,408
491,475,497,530,442
493,494,510,534,489
493,514,470,514,532
494,534,499,495,573
507,556,532,481,599
510,552,544,477,601
519,547,547,483,596
511,534,550,481,596
505,526,541,485,592
496,499,529,490,573
496,493,526,505,534
514,526,538,524,494
532,544,537,545,436
540,548,528,554,405
531,541,516,560,400
520,526,501,551,410
525,522,494,553,410
506,511,492,540,432
494,513,498,524,486
503,516,516,507,533
496,530,536,494,591
499,535,546,485,604
503,525,549,488,595
510,527,557,489,592
514,523,558,490,595
520,517,560,491,589
519,518,553,499,552
520,501,523,518,510
524,496,513,533,466
525,490,505,549,429
521,483,495,558,420
512,480,483,549,415
512,490,478,543,406
510,505,485,543,408
504,501,483,521,447
499,495,498,505,501
490,492,514,494,558
494,503,536,490,604
502,502,522,491,606
510,507,516,490,599
497,516,526,497,604
509,532,536,495,586
507,515,517,491,568
510,499,507,501,536
518,485,498,509,498
523,462,483,520,461
531,470,482,535,422
525,494,483,538,412
520,487,479,540,403
508,475,488,535,412
495,482,494,530,436
499,513,520,523,465
508,531,550,521,510
520,515,529,528,557
525,525,554,514,592
507,524,562,498,599
494,482,545,470,609
499,468,539,462,614
512,455,525,462,606
516,440,518,478,571
504,414,494,491,536
497,424,492,511,504
510,485,501,520,454
519,516,496,527,432
524,571,509,543,418
532,618,514,556,405
526,591,483,562,401
500,556,484,548,429
499,539,512,522,483
508,547,546,502,540
507,536,559,496,587
506,524,562,487,604
501,517,576,489,601
505,516,583,490,601
505,510,586,490,601
514,548,570,495,588
518,531,543,499,554
525,483,532,507,517
539,475,528,529,469
547,454,516,541,410
525,454,491,540,400
516,479,497,555,401
520,482,514,539,398
519,481,568,582,409
489,462,610,564,460
478,451,635,533,515
490,479,594,516,555
484,466,466,474,607
491,470,464,457,622
498,457,544,485,611
500,437,535,471,604
497,476,538,474,602
497,512,535,494,584
502,521,527,531,545
525,543,543,539,502
534,568,533,533,457
526,548,523,539,434
533,515,523,545,405
524,509,519,550,388
513,518,504,510,388
491,508,513,522,425
497,533,533,540,466
496,540,539,536,518
511,562,534,514,568
518,552,545,486,592
506,492,533,472,598
500,469,509,444,613
499,465,513,469,607
493,453,523,463,600
494,461,530,495,572
511,423,513,525,539
525,401,474,539,495
527,369,449,546,446
509,402,460,555,429
493,469,499,570,420
516,612,534,606,394
528,618,524,591,398
505,618,497,584,442
506,555,530,530,479
497,507,538,483,546
493,513,550,476,604
508,536,549,484,609
497,525,534,460,616
512,525,512,455,612
504,492,493,479,602
489,484,500,467,599
500,536,542,478,552
518,573,559,507,523
530,540,564,542,470
535,568,549,556,429
528,558,535,552,418
523,535,500,547,401
519,547,496,541,405
524,536,493,545,409
507,510,493,534,459
515,493,500,520,491
505,497,531,516,529
497,474,559,494,581
498,501,571,479,600
501,496,549,478,600
494,449,511,480,608
516,487,529,491,589
505,469,503,488,579
498,400,483,487,547
502,384,562,534,506
516,382,616,496,472
522,362,577,516,440
524,388,552,543,427
519,523,529,520,411
519,623,416,545,407
517,595,431,534,424
506,532,433,500,472
500,552,464,534,523
504,586,526,540,574
511,586,518,508,600
508,593,514,509,597
510,575,539,525,595
505,560,540,484,591
500,573,547,456,591
508,538,540,480,578
524,490,514,504,532
524,471,504,510,485
531,466,508,531,427
524,454,497,539,400
530,490,496,538,397
515,460,484,533,405
518,456,517,558,386
512,485,519,566,409
512,546,498,541,476
482,490,470,560,550
487,486,480,522,603
492,507,495,501,608
505,507,495,434,607
511,443,485,453,598
521,450,517,458,586
525,448,541,485,574
504,483,553,496,568
523,563,595,513,519
523,515,595,530,471
513,533,542,577,426
508,518,455,570,418
516,489,500,533,429
509,462,482,554,414
518,525,468,533,412
510,466,494,508,462
500,483,577,507,517
492,478,650,446,574
476,513,721,447,624
481,497,656,461,613
512,462,581,478,606
511,469,513,506,599
500,524,458,520,596
517,565,476,553,552
530,622,498,540,515
530,585,530,559,488
528,557,540,580,457
526,527,472,535,419
523,525,421,521,404
519,512,408,536,383
513,487,448,544,397
502,433,473,548,435
504,426,449,593,475
496,397,456,505,513
480,393,389,427,569
492,441,434,425,594
499,476,544,412,610
508,539,615,409,613
501,486,578,484,608
517,512,542,507,589
520,493,603,545,548
517,475,675,562,509
525,561,690,533,472
521,571,591,482,441
523,529,459,513,429
521,499,490,564,405
536,469,452,617,365
542,429,375,610,373
493,363,347,529,436
495,581,425,525,512
492,597,473,525,556
506,597,496,511,576
510,643,520,501,585
504,621,539,483,603
515,599,621,509,594
506,561,628,507,607
503,535,563,526,596
504,500,408,493,568
509,480,460,503,528
521,520,565,562,479
525,540,582,567,433
521,514,528,492,427
531,474,445,446,418
516,454,411,467,427
516,487,411,562,415
501,481,435,546,455
493,473,486,495,506
488,451,554,460,561
477,480,585,489,625
488,481,518,492,617
515,607,514,501,592
515,575,500,493,578
510,532,487,510,580
510,503,506,499,563
515,472,509,504,526
520,500,484,517,490
523,539,487,540,466
547,566,501,573,414
532,531,496,576,402
507,504,478,561,412
507,496,461,548,415
501,492,451,530,437
500,522,461,517,473
498,537,478,501,527
496,520,502,466,568
491,525,524,478,600
494,519,575,498,605
505,512,583,538,595
517,474,510,517,592
503,443,494,475,599
495,423,492,499,566
510,497,510,512,522
520,565,513,506,485
524,529,516,529,439
514,490,479,540,434
529,503,484,545,408
522,503,477,555,405
510,474,464,548,415
495,445,449,513,459
490,455,469,508,500
497,465,485,505,541
507,453,482,478,582
511,408,541,498,589
489,403,617,537,575
509,547,555,512,582
503,482,450,462,609
501,448,512,399,596
506,517,551,460,556
515,581,563,541,524
536,556,510,519,461
536,545,495,536,427
530,548,495,566,418
539,551,501,582,400
527,508,520,535,408
517,469,472,520,391
520,480,455,506,436
498,529,514,472,513
485,485,527,519,564
484,489,459,546,614
502,515,523,497,598
512,486,567,445,588
506,443,526,379,595
505,418,508,416,611
505,463,526,536,585
494,480,496,544,553
520,555,511,546,493
532,611,576,584,450
538,617,590,605,423
551,592,576,598,392
541,552,486,551,392
528,486,546,539,400
504,427,628,537,433
492,410,575,492,496
478,411,503,497,548
480,626,562,531,592
511,641,538,495,592
517,562,418,478,593
525,520,489,456,587
505,477,498,464,592
502,495,571,496,587
504,491,567,479,574
519,537,538,498,524
524,519,474,534,483
541,497,504,549,427
533,457,500,545,407
510,476,420,525,421
516,525,473,523,410
521,512,501,537,399
513,517,472,506,434
489,468,535,508,502
509,512,505,534,538
493,501,490,553,582
491,565,530,511,604
501,587,524,500,597
498,534,475,453,600
499,512,458,472,597
516,539,501,484,574
523,540,524,489,546
535,520,505,499,513
539,514,503,520,466
525,498,493,556,433
513,492,488,552,417
525,501,496,555,411
513,479,481,544,416
504,453,468,535,432
486,445,459,514,472
495,552,499,514,507
497,551,538,505,561
500,540,556,498,602
502,486,544,485,599
516,501,539,490,601
505,470,505,499,608
507,463,508,473,586
506,418,521,478,574
489,353,491,484,564
514,523,514,517,503
530,591,548,553,452
528,591,522,546,429
529,537,487,531,414
531,507,488,541,397
520,500,507,555,404
510,495,513,556,424
505,433,502,531,476
485,397,428,513,528
482,443,497,535,587
491,489,524,511,614
512,525,501,447,590
515,531,523,440,599
496,482,561,493,594
522,614,601,467,574
509,589,583,476,560
506,531,548,452,535
514,515,505,479,484
529,505,520,588,433
542,533,571,588,405
520,459,509,545,420
528,436,430,565,405
533,459,500,564,420
505,433,599,535,467
499,515,659,485,506
509,579,606,441,548
522,608,541,465,576
512,573,431,476,583
498,538,453,516,603
504,546,497,538,596
514,561,545,528,593
516,539,579,504,578
505,507,570,477,561
512,477,495,531,513
526,448,463,536,475
513,410,449,539,450
519,463,416,553,422
542,532,503,573,394
528,537,620,578,393
516,463,597,573,412
480,425,453,516,460
492,502,516,502,492
499,633,527,515,554
495,578,480,519,608
506,520,497,456,589
523,510,503,445,553
524,510,467,471,544
507,538,521,476,560
516,557,526,487,535
526,542,506,490,505
529,493,505,528,482
509,435,510,550,469
513,437,481,537,453
522,464,470,535,433
513,468,448,510,450
500,463,479,524,469
500,524,535,556,458
497,563,577,525,493
491,565,529,488,548
503,556,533,495,586
513,547,512,418,612
506,516,480,456,614
514,520,537,526,593
512,530,510,524,590
507,508,509,500,595
514,500,519,506,566
518,448,503,514,524
514,429,513,528,490
510,477,518,535,461
521,515,501,541,425
517,523,481,550,418
528,548,477,553,418
514,511,488,547,415
498,469,475,505,457
496,513,493,501,496
497,548,509,520,542
500,495,520,515,582
493,421,499,481,594
510,512,510,461,589
503,496,523,471,597
515,570,548,517,591
520,569,554,507,569
519,531,532,509,551
511,470,537,497,517
518,437,513,484,469
531,485,481,541,442
523,519,500,566,426
529,558,535,573,394
524,523,503,543,405
512,489,441,532,422
496,475,471,535,470
491,458,493,514,518
491,520,499,499,568
498,534,537,478,600
495,480,537,492,611
501,536,524,511,610
517,533,541,489,602
521,524,565,533,585
504,503,573,524,564
505,516,486,478,529
526,517,552,478,496
538,476,518,506,445
539,439,457,539,402
540,419,486,554,392
536,435,469,562,389
505,393,456,545,394
484,561,454,544,439
500,592,492,524,489
491,530,471,487,550
499,523,554,462,587
510,554,551,465,601
500,536,541,471,602
510,551,578,488,595
514,566,606,469,606
515,559,625,443,593
516,508,682,544,559
527,443,510,518,521
525,420,431,509,487
524,426,486,549,440
516,483,522,520,421
501,521,446,512,437
521,577,487,544,421
530,550,498,559,409
514,542,540,559,442
502,523,552,562,486
490,531,520,543,544
518,553,493,490,574
511,493,534,475,596
497,470,564,465,616
490,490,610,495,609
511,582,559,503,587
518,563,560,527,566
529,520,505,533,539
515,498,451,500,508
508,501,485,456,491
523,482,496,505,443
525,480,454,496,425
529,433,422,542,406
509,426,394,555,419
489,437,435,524,434
506,552,471,504,467
508,582,502,500,511
507,539,496,501,561
501,503,519,496,601
497,525,535,487,604
513,542,537,484,593
514,545,558,491,592
506,534,537,488,591
510,505,526,497,572
516,492,525,510,543
521,462,517,514,501
536,464,501,520,444
528,459,498,544,424
516,432,502,584,388
520,500,559,563,410
517,473,505,518,418
486,420,405,511,441
484,475,432,492,487
517,598,519,524,515
509,600,539,520,577
519,563,533,490,603
514,565,544,478,601
520,559,553,488,595
504,529,548,485,597
493,524,540,500,599
503,496,525,499,570
514,473,526,489,532
514,445,503,520,490
526,497,518,538,437
537,509,525,553,411
523,462,512,551,413
522,535,482,527,409
521,545,490,538,414
499,492,460,535,460
504,504,563,538,498
499,497,616,528,548
488,506,492,461,607
484,463,421,450,629
497,452,524,524,606
499,522,533,469,609
516,572,545,491,594
509,550,527,465,584
506,489,543,493,551
521,460,540,529,514
528,459,527,553,461
543,482,561,576,410
518,485,495,559,393
524,544,484,535,374
515,543,443,518,412
518,510,469,525,436
502,479,472,516,466
500,465,492,500,541
501,454,503,459,584
492,464,499,449,612
512,539,536,495,595
511,585,564,510,600
513,591,579,494,600
513,570,527,453,588
507,542,516,476,563
504,513,537,508,532
532,497,510,546,481
546,498,496,567,432
540,467,500,561,413
534,450,562,578,393
518,377,555,547,401
495,318,465,488,417
501,561,465,513,454
483,554,462,503,508
511,602,510,517,523
515,589,536,535,564
492,527,563,512,602
506,554,558,507,596
512,538,513,495,597
515,522,593,494,595
520,496,533,515,582
511,535,541,506,573
522,529,554,539,523
531,511,488,518,472
523,504,471,507,439
520,492,450,521,421
525,505,486,538,418
519,522,569,558,426
507,510,627,588,424
500,476,529,570,447
496,510,381,476,487
487,477,384,405,573
487,485,514,433,603
496,499,542,476,601
495,520,544,488,611
501,519,512,486,610
507,487,532,505,600
513,504,530,509,588
500,486,499,518,556
521,519,546,540,504
530,518,559,541,465
518,439,520,521,444
517,421,468,523,423
531,490,466,548,401
527,481,477,585,397
512,511,518,539,420
510,564,494,508,450
496,528,463,479,512
488,534,484,489,566
497,581,536,491,605
509,566,550,483,595
517,550,545,507,606
511,543,571,484,612
505,514,501,470,600
506,502,498,481,582
507,477,516,494,544
521,526,522,517,489
525,509,515,541,452
528,459,490,547,427
535,431,480,540,413
517,399,470,541,408
502,549,498,559,421
502,587,488,532,442
507,547,505,498,475
508,530,520,519,525
493,527,489,481,570
506,529,521,480,568
515,526,540,498,572
515,517,528,486,608
516,520,530,479,600
517,516,534,485,596
506,502,534,503,571
520,494,545,531,528
516,477,526,536,504
526,485,504,494,457
530,497,500,531,428
537,480,476,579,395
525,448,477,563,398
508,398,486,570,416
487,441,494,506,469
495,536,466,410,510
517,585,486,486,534
511,577,526,512,574
505,537,552,516,604
498,522,553,491,607
493,503,564,461,608
505,514,567,480,602
509,485,519,500,579
507,451,509,500,552
497,429,498,502,534
519,507,523,530,485
529,508,512,540,453
535,496,489,549,401
520,429,518,569,398
526,540,563,585,406
502,426,459,520,441
497,512,490,518,474
505,544,531,512,520
512,532,481,478,555
510,571,530,461,607
514,555,516,488,595
518,546,507,488,585
522,552,514,492,578
515,556,552,493,581
504,513,511,498,562
515,522,531,521,532
519,499,531,535,503
517,500,528,524,464
523,521,546,583,424
522,508,506,583,406
516,494,474,550,407
508,462,430,526,419
503,473,433,499,447
498,485,478,489,487
496,532,520,523,529
507,541,522,505,579
511,517,511,469,599
501,468,528,455,592
499,485,565,451,598
518,469,588,487,576
520,480,547,498,565
505,503,470,495,566
514,512,515,506,531
533,547,546,522,474
536,535,539,541,421
525,543,545,546,414
518,509,468,565,412
514,498,457,563,408
512,498,490,557,406
505,482,492,514,441
490,485,459,470,531
484,498,460,480,583
492,559,535,514,602
500,547,548,492,614
508,531,533,484,605
522,518,543,488,583
510,491,553,489,606
510,486,534,494,590
514,517,547,515,557
518,505,514,525,519
523,511,534,489,476
531,523,530,525,429
536,491,432,564,414
526,487,462,566,401
511,466,473,547,419
496,454,475,541,454
484,505,437,529,482
498,540,485,512,532
497,516,521,485,573
498,507,549,470,611
490,513,551,479,620
514,553,545,480,587
510,533,522,481,586
512,530,550,487,583
516,513,544,493,569
531,512,525,511,518
532,507,530,524,478
527,496,509,517,445
519,490,498,544,432
528,496,485,572,408
516,473,476,554,408
516,490,480,539,427
497,503,484,537,443
505,516,492,520,473
498,500,499,492,534
496,505,516,480,589
496,529,531,480,601
503,526,535,499,601
505,512,526,482,599
499,520,532,486,608
508,510,541,481,598
519,490,529,505,562
516,460,564,523,524
514,463,552,460,494
530,528,531,495,449
530,502,465,582,424
523,502,468,591,417
515,494,478,547,430
526,517,474,536,417
505,502,470,524,455
498,506,486,505,500
502,529,509,502,546
505,529,532,492,583
500,519,539,487,605
503,531,544,485,601
507,521,545,483,594
503,514,544,484,594
508,512,540,493,579
515,509,537,507,548
528,507,532,524,511
525,502,519,540,468
525,480,498,533,434
525,487,489,541,415
521,494,481,547,406
516,508,489,552,404
508,513,480,542,422
500,506,481,519,478
497,509,486,508,524
492,506,492,497,564
505,528,542,481,594
503,517,541,484,602
505,516,545,479,605
510,511,552,481,598
511,506,534,484,595
515,515,538,488,572
515,506,545,502,535
520,501,516,518,498
525,499,501,537,452
527,502,499,547,425
526,495,491,552,413
517,497,481,550,407
515,501,480,547,415
504,493,470,531,439
505,495,476,514,484
490,505,521,502,539
493,504,542,490,592
503,506,495,476,605
504,505,518,475,599
504,516,541,473,605
512,511,539,485,599
509,508,540,497,592
512,519,537,502,559
517,525,536,512,527
521,501,507,523,485
530,499,502,541,440
532,504,495,549,421
531,506,492,554,408
517,504,487,548,414
514,499,480,544,419
501,500,456,525,457
496,499,480,509,507
498,516,505,496,553
504,537,529,484,591
508,525,538,483,599
508,514,538,483,598
513,514,538,482,598
513,514,543,485,594
509,508,537,491,578
518,501,528,492,546
522,493,516,502,515
528,507,517,543,467
525,503,507,553,427
523,501,495,553,411
520,500,486,548,407
516,497,480,545,417
508,495,472,534,433
493,496,477,521,476
498,508,496,511,522
492,511,511,497,570
504,516,530,484,598
504,511,534,481,599
506,509,537,479,610
512,523,545,484,599
508,513,544,488,597
513,508,537,487,567
495,501,533,503,545
499,500,523,520,503
502,496,510,535,457
510,500,499,544,430
510,501,497,551,413
505,497,484,549,408
503,496,480,543,423
512,494,471,528,441
536,505,485,519,487
530,513,505,508,540
521,523,527,491,581
521,521,540,491,600
515,518,542,484,601
514,517,544,483,603
516,514,546,484,600
520,512,543,488,587
516,507,541,501,558
522,504,531,508,520
529,499,521,523,481
531,499,510,539,446
527,503,502,546,423
526,502,496,549,412
521,500,483,545,410
514,498,482,545,419
501,500,477,526,456
499,505,494,512,506
502,512,512,499,549
499,516,532,489,599
489,513,537,478,609
490,511,538,478,607
480,509,543,481,604
479,506,544,483,602
477,504,542,488,590
481,501,537,498,554
478,496,523,508,518
503,497,518,529,471
530,502,510,545,427
537,504,501,550,418
532,501,491,550,410
535,500,487,548,409
516,494,474,534,431
523,500,483,521,472
525,507,502,510,518
516,515,522,492,568
518,523,540,484,606
525,517,538,480,601
513,513,543,480,601
505,512,546,482,603
498,509,546,485,594
500,504,541,494,564
502,501,536,501,519
504,501,525,519,486
513,495,515,537,444
527,504,505,545,420
533,504,496,550,413
527,502,490,554,427
512,502,485,544,436
483,491,476,528,459
463,499,486,514,501
459,504,505,500,551
474,518,529,490,597
464,514,538,480,625
457,506,539,479,610
461,500,537,479,600
489,504,543,477,600
521,506,542,485,587
531,506,541,499,551
503,500,531,511,512
488,496,521,527,464
518,498,509,541,425
518,504,504,546,406
510,501,493,551,415
504,500,487,549,446
499,497,481,542,434
520,498,477,523,460
534,510,497,512,510
556,523,520,501,557
554,529,537,490,594
547,523,544,485,588
546,515,541,480,590
550,514,543,481,586
541,511,544,483,597
542,510,544,490,577
546,507,537,501,530
549,506,531,512,474
553,501,519,536,434
550,503,504,545,410
545,505,501,553,398
533,501,491,554,390
534,501,485,549,389
524,498,476,537,433
517,500,482,520,483
517,510,501,506,524
512,515,519,492,580
513,519,534,482,613
516,514,538,479,610
518,515,541,482,609
518,512,542,482,606
513,509,542,485,600
521,506,539,492,572
520,501,529,503,533
529,500,524,520,492
531,506,512,536,449
532,503,501,545,429
526,501,491,549,421
522,500,484,548,412
516,497,478,544,415
506,493,471,529,443
504,497,482,518,486
500,513,505,504,542
504,515,524,487,596
507,514,535,484,615
508,508,538,481,609
514,514,542,483,600
506,513,541,483,609
509,508,541,483,598
509,507,535,495,563
511,503,526,502,531
517,501,515,524,484
519,501,504,538,436
521,502,498,546,418
520,500,487,550,406
515,497,480,552,401
512,496,470,542,409
502,493,475,527,453
493,500,490,512,503
494,512,508,498,547
497,515,528,483,596
505,516,536,482,610
507,512,537,485,606
517,512,541,485,601
511,507,538,483,594
511,507,534,488,577
515,509,532,498,546
512,501,520,507,510
519,499,510,531,466
526,505,503,548,424
527,502,494,550,413
516,497,482,548,414
511,497,478,546,414
502,495,472,540,431
491,498,477,523,469
488,504,497,506,526
489,513,517,494,571
495,516,535,484,601
500,509,534,482,619
507,507,536,481,610
514,509,538,481,600
509,508,540,484,606
515,505,533,491,590
518,504,525,502,544
518,502,518,519,502
519,500,506,535,446
521,507,499,546,409
524,504,488,548,404
519,502,482,550,406
512,498,474,541,408
504,491,468,528,440
497,500,482,516,479
498,505,502,503,523
499,514,520,490,572
511,513,535,487,591
517,511,537,485,591
516,511,538,484,592
517,508,534,479,597
527,507,537,483,587
526,502,527,492,564
521,498,518,505,527
529,501,514,524,485
525,502,501,540,446
527,506,497,550,415
527,504,485,550,406
523,500,477,547,403
515,497,470,542,409
506,494,471,526,442
502,500,486,510,496
500,509,507,497,550
502,514,527,486,598
502,512,535,484,605
506,510,536,483,601
509,511,540,485,596
506,510,537,484,591
512,508,531,486,578
514,505,527,498,547
516,500,518,509,492
522,502,508,527,455
526,502,496,539,432
522,501,489,548,421
520,502,481,550,416
514,500,474,546,423
494,495,468,539,443
483,498,478,524,485
479,506,496,507,533
481,510,514,491,581
490,514,526,480,615
504,510,532,479,610
496,506,534,480,614
509,510,537,480,611
533,514,539,485,598
534,505,530,490,569
531,505,524,503,526
524,502,513,518,497
527,502,501,533,445
531,504,494,547,406
536,503,488,551,397
534,498,475,548,402
531,500,469,544,415
510,496,465,530,448
502,495,477,517,487
502,512,499,503,536
508,516,520,491,584
508,514,530,482,599
497,509,532,480,608
493,512,534,480,621
498,515,538,484,625
497,515,539,488,607
496,505,526,494,584
500,498,516,506,533
515,502,509,526,466
527,498,493,540,420
544,501,489,550,410
543,502,482,553,388
527,504,478,554,397
514,499,470,546,412
496,492,468,524,450
517,502,484,513,490
507,511,508,499,551
508,514,527,486,594
526,514,532,484,590
527,511,537,486,596
520,512,534,487,598
520,509,534,479,598
519,505,528,486,588
524,503,526,496,547
533,504,517,515,500
534,504,508,532,454
540,501,494,541,424
533,502,489,551,412
528,501,481,551,405
522,501,475,550,404
503,496,467,533,428
488,498,474,520,477
486,503,492,505,529
492,511,516,495,574
499,512,533,487,602
506,509,533,482,604
512,508,532,481,602
509,506,536,481,600
514,506,535,481,591
514,505,529,491,567
514,502,524,505,533
524,502,516,523,484
528,502,503,538,441
531,503,495,545,418
523,502,487,550,411
515,498,477,547,410
508,499,471,539,420
496,495,470,530,452
490,499,480,517,498
491,512,503,505,538
502,514,523,491,574
514,517,531,485,570
516,513,537,483,562
512,509,536,481,579
514,510,535,481,590
514,504,536,484,575
512,503,529,496,565
514,501,519,510,530
521,504,511,525,493
530,501,498,541,449
528,503,492,546,415
522,501,482,550,401
514,500,473,547,415
511,498,473,544,428
497,497,471,527,470
493,501,488,512,519
496,511,511,501,570
504,518,532,489,613
503,515,535,485,607
503,509,535,483,593
501,509,538,483,594
508,511,538,486,588
509,506,532,488,586
512,504,526,501,540
515,501,517,514,501
527,502,508,532,456
527,505,498,545,437
523,506,489,547,427
509,500,478,549,418
495,496,473,547,420
487,493,469,537,432
487,494,474,523,471
498,506,498,509,525
510,513,513,494,558
520,516,531,486,581
521,513,533,479,580
521,512,535,481,610
511,511,536,482,612
509,505,534,483,614
500,504,531,489,595
515,499,520,503,538
532,505,514,519,483
538,503,500,537,437
536,503,493,548,411
527,499,485,550,406
521,495,473,550,393
519,495,469,544,406
505,496,466,531,450
500,499,477,514,498
501,508,503,502,556
505,518,522,491,599
506,513,533,486,610
506,511,533,484,598
505,505,533,483,587
506,503,531,481,573
504,507,533,488,577
512,508,530,500,554
519,503,518,508,518
525,505,510,527,477
526,499,496,541,427
521,504,491,551,413
515,500,479,548,407
511,497,473,548,409
498,494,464,540,420
488,492,468,525,460
488,500,484,512,508
493,509,508,499,561
496,515,528,488,595
502,513,533,485,597
515,512,533,484,595
537,511,536,483,585
531,509,533,484,588
511,505,533,486,582
509,505,527,501,558
509,502,516,513,529
525,504,505,532,470
532,504,494,542,432
528,506,487,548,421
525,501,478,548,415
516,499,472,548,410
502,492,465,534,422
494,498,476,522,459
496,510,498,510,512
505,513,512,493,566
509,515,531,484,607
519,509,530,481,593
525,510,535,482,579
518,509,537,481,584
509,508,537,485,595
505,502,527,491,576
507,497,520,501,532
517,500,514,516,497
529,502,501,537,460
534,505,492,546,422
529,505,488,549,410
518,497,475,550,409
521,498,467,541,402
516,495,471,530,437
510,498,478,512,481
508,506,500,501,525
504,516,525,491,580
505,514,536,489,590
510,514,538,487,589
505,506,534,481,619
506,507,535,480,646
505,506,535,483,633
511,501,527,494,574
517,500,518,509,510
528,503,512,531,450
527,500,499,546,405
532,502,495,553,379
526,502,481,552,384
521,501,475,547,395
513,497,469,539,434
498,494,470,522,486
493,501,489,507,523
497,510,508,497,559
500,515,527,483,602
507,513,534,484,602
505,508,536,486,607
500,509,538,485,619
502,512,539,483,612
506,510,536,493,585
509,506,530,502,545
523,505,519,514,499
528,500,507,531,449
530,503,496,544,430
520,498,486,547,421
497,494,477,546,424
507,495,474,547,434
517,493,468,533,465
510,499,478,519,478
507,508,497,506,524
507,515,517,492,595
499,516,530,483,611
498,509,535,485,589
494,508,533,484,592
499,507,536,477,574
513,506,536,483,554
510,503,531,490,539
513,499,522,500,522
530,505,516,519,489
527,497,504,536,448
530,501,495,548,430
532,500,484,547,424
531,499,478,544,417
527,495,471,545,414
508,492,467,527,449
491,497,480,516,491
498,511,503,504,517
497,520,524,491,564
494,520,535,486,592
498,514,536,480,588
506,509,536,484,585
508,506,536,485,578
507,508,535,487,572
505,500,526,494,549
518,499,518,508,519
537,496,509,525,475
545,494,496,540,437
539,497,491,548,422
531,492,480,550,419
519,493,475,546,416
506,492,472,543,422
498,495,473,523,460
499,506,485,506,512
514,519,507,495,557
513,527,527,484,589
510,524,533,484,588
516,519,534,483,577
508,515,533,481,589
509,514,537,484,583
508,507,533,488,572
505,499,525,498,545
515,496,516,516,511
525,492,505,528,462
531,491,494,544,437
526,494,489,550,426
515,490,477,546,423
518,489,471,545,434
510,489,466,537,436
509,500,475,523,457
502,514,491,505,515
504,526,513,492,556
506,527,527,481,593
507,522,533,480,599
501,517,534,482,609
505,517,536,483,601
508,515,535,484,586
514,507,529,491,553
517,497,523,502,518
526,495,512,519,488
529,491,500,539,456
526,491,491,547,438
516,491,482,545,435
509,491,474,547,428
507,492,472,544,429
508,492,464,527,452
509,502,474,511,489
507,516,499,501,537
499,528,518,488,594
500,528,530,483,611
505,522,534,486,600
508,516,534,483,595
506,514,533,482,578
508,506,529,485,570
516,503,527,496,546
520,496,516,508,513
526,492,505,526,475
529,490,495,541,440
529,492,487,546,430
525,490,474,546,424
523,493,469,544,410
514,496,468,540,428
493,499,466,521,472
488,509,485,511,516
495,520,505,497,546
488,525,522,485,579
505,522,530,481,594
516,514,527,481,596
510,512,528,479,621
504,514,534,486,598
507,506,532,498,557
514,503,523,507,527
515,496,512,519,489
527,490,499,533,437
530,491,490,540,410
530,496,485,547,412
514,489,474,544,440
508,493,469,543,434
505,489,464,530,438
503,500,472,516,468
497,513,493,507,525
494,523,514,495,572
496,525,526,484,615
507,519,532,483,610
503,516,531,484,602
510,514,534,486,594
512,514,536,488,593
512,505,529,493,569
520,498,519,505,536
526,493,509,519,499
529,488,497,535,444
522,487,488,543,426
521,492,483,548,415
516,492,471,546,413
514,493,473,542,414
492,493,466,527,450
499,507,480,512,491
500,517,503,500,544
499,530,521,489,593
503,526,531,482,611
508,520,533,485,600
506,516,536,485,607
508,516,535,485,594
510,509,531,488,586
513,501,527,497,559
516,497,513,507,525
523,493,507,528,485
526,490,493,541,449
527,493,489,546,432
520,488,476,540,419
514,488,470,542,423
511,487,466,537,437
498,496,468,518,475
495,510,485,509,498
497,522,507,497,556
498,531,528,489,600
501,526,534,487,599
501,518,534,486,603
508,515,536,486,599
508,509,534,486,595
510,505,532,495,581
513,501,524,501,547
517,496,515,516,503
522,494,505,534,463
521,493,496,545,434
527,494,487,546,415
514,488,474,544,420
504,492,472,542,424
496,492,464,531,441
497,499,473,513,469
503,513,491,502,526
507,525,516,493,574
516,530,532,489,599
513,519,533,489,597
516,516,534,482,600
516,518,538,485,596
520,516,536,487,589
517,503,530,494,568
527,500,523,507,528
527,494,514,524,483
522,489,501,536,437
520,492,494,545,420
520,488,481,547,412
522,491,475,545,411
515,491,470,541,414
499,491,465,525,439
484,501,479,511,489
482,520,504,503,531
498,531,527,492,577
496,526,535,485,616
499,520,538,490,599
510,517,535,484,595
507,515,536,484,591
508,508,537,487,578
509,501,530,498,555
513,497,519,509,525
522,494,513,527,486
525,489,497,542,455
536,495,490,546,430
528,491,480,547,423
527,494,473,543,426
520,489,468,536,426
513,494,469,521,462
500,507,484,510,501
503,521,508,503,536
505,531,535,493,590
502,526,535,486,598
500,521,538,485,594
509,519,541,489,575
510,516,543,487,599
514,507,534,490,567
521,499,525,501,538
525,496,518,515,506
522,488,503,529,460
520,487,495,546,438
526,493,491,549,425
524,487,476,546,401
517,490,469,540,402
502,487,463,530,439
514,503,479,521,468
513,517,499,509,517
514,530,523,497,560
511,529,534,486,598
508,521,533,483,611
507,516,537,483,610
511,519,539,484,608
510,515,538,485,602
508,504,531,493,575
514,500,526,505,522
520,495,514,520,492
527,491,500,536,449
525,492,496,547,426
520,489,485,547,422
506,488,476,543,419
513,494,475,544,415
507,492,472,529,451
500,503,485,516,496
499,518,505,503,539
501,531,528,492,585
507,528,539,488,603
508,522,541,489,602
504,515,540,483,601
508,514,539,491,586
510,512,541,493,564
517,501,531,499,542
516,497,524,511,514
523,493,510,525,473
528,491,503,546,436
529,496,496,550,423
519,491,480,542,422
515,488,475,542,423
509,491,471,537,428
501,496,474,526,463
496,507,490,511,506
499,522,513,498,551
504,527,531,490,591
507,523,536,488,596
505,519,539,487,602
499,515,539,484,602
506,514,539,485,595
511,505,536,490,571
513,505,531,502,543
520,498,518,514,508
526,491,509,531,466
530,495,499,542,432
528,493,493,547,417
517,487,478,544,421
515,491,476,542,421
503,490,472,530,442
495,498,477,517,483
493,513,501,506,536
498,522,519,496,573
502,528,533,487,598
507,521,539,488,590
506,517,542,487,595
506,514,542,486,594
507,512,541,489,591
507,506,536,495,566
514,498,529,506,528
518,498,519,523,496
527,493,505,536,449
531,491,494,541,425
525,492,488,549,417
516,491,478,542,416
512,493,475,542,422
497,492,474,527,459
493,504,487,514,505
497,516,505,502,552
503,529,527,492,588
505,524,536,489,598
507,521,541,487,599
507,516,537,485,599
508,513,541,487,596
512,510,539,490,584
517,501,532,497,556
515,494,522,510,523
521,492,513,526,473
529,490,497,537,432
527,492,493,550,433
522,491,479,545,431
512,491,477,544,428
506,489,471,538,430
499,496,471,523,462
502,507,489,509,498
509,519,510,498,545
506,529,530,489,590
507,518,533,487,592
512,520,537,486,601
511,516,539,485,601
515,515,538,484,585
507,507,536,491,571
507,504,529,503,539
512,496,521,515,495
524,491,508,532,456
529,488,495,543,432
530,495,490,546,417
516,488,475,544,415
509,491,478,546,415
496,490,470,532,446
489,501,480,517,477
491,512,499,508,525
508,525,518,494,565
512,529,535,488,594
503,520,538,489,591
511,517,539,487,582
512,515,539,485,589
511,510,539,489,580
510,503,533,494,554
519,497,526,507,529
522,495,515,519,494
530,491,503,537,448
528,492,497,544,433
524,493,489,547,424
517,491,480,543,427
515,491,474,541,426
503,489,469,526,454
496,504,482,512,490
500,518,508,506,536
501,529,527,493,590
502,528,538,488,601
503,523,538,487,601
501,514,539,484,596
503,515,542,489,591
506,510,542,492,574
508,505,534,501,541
513,498,526,510,522
532,490,514,529,480
540,493,503,543,432
530,496,495,548,416
518,492,486,545,422
508,488,475,537,424
509,491,473,534,439
505,496,476,518,473
504,511,492,505,515
502,523,516,497,557
502,530,532,487,592
507,524,541,485,593
506,519,537,485,596
505,515,541,486,598
505,513,540,485,593
505,507,537,489,571
520,502,532,505,537
527,498,521,514,497
526,491,510,532,454
526,490,501,545,427
531,495,493,548,419
522,487,479,542,420
519,489,477,543,421
508,489,473,531,442
501,499,479,516,482
496,514,501,505,529
498,525,523,493,568
504,530,538,488,595
504,520,541,490,598
507,518,539,484,599
507,513,541,485,594
512,515,541,487,588
518,507,537,492,560
520,497,527,505,525
524,495,519,519,486
525,488,505,537,448
528,492,499,543,426
523,492,486,546,410
511,492,480,544,414
511,492,477,542,419
496,495,475,528,452
494,505,490,514,494
495,518,505,502,544
499,528,530,491,598
504,526,538,486,600
511,522,542,488,597
507,516,544,484,602
508,513,544,484,593
508,508,540,492,580
512,498,532,497,549
516,497,525,510,518
522,495,515,525,474
523,492,501,538,437
522,493,497,546,421
521,491,484,546,413
524,491,477,543,414
516,489,472,537,436
498,494,477,526,478
493,510,493,510,521
496,520,512,498,562
501,531,537,488,595
504,521,539,486,591
515,520,540,485,590
512,516,539,484,594
511,515,539,485,595
511,505,537,492,580
516,503,531,500,542
521,492,519,515,504
529,492,509,533,443
530,494,500,543,415
529,492,491,548,405
518,487,479,546,397
513,489,475,544,415
502,487,469,529,448
502,502,481,517,482
497,515,500,506,525
500,527,522,495,573
499,527,537,491,597
506,518,539,489,577
505,515,540,490,588
502,515,542,486,589
499,511,542,487,596
503,506,536,493,588
514,499,527,505,529
527,495,518,522,476
529,487,504,535,430
530,490,496,544,423
527,492,487,546,439
519,489,478,543,434
517,494,475,542,429
503,494,474,529,459
495,503,486,513,499
505,517,506,501,536
502,530,529,493,567
504,525,536,485,586
516,522,542,486,590
509,515,538,485,596
509,514,543,485,589
509,511,537,488,572
511,502,533,493,550
518,497,524,511,518
523,489,512,526,469
525,489,503,544,437
527,494,496,549,421
520,491,486,548,419
514,491,478,544,422
508,489,473,536,430
503,498,478,529,464
499,510,494,514,506
496,523,516,499,557
507,531,536,493,587
512,522,539,486,588
508,518,541,488,589
508,515,539,481,594
515,514,540,485,589
517,507,536,490,568
521,499,530,503,536
526,493,521,516,505
527,489,509,531,463
525,492,501,547,433
521,493,493,548,419
516,492,481,544,418
511,492,477,541,421
501,489,471,530,444
501,503,481,519,479
495,516,500,505,523
496,528,519,496,572
500,529,537,489,591
503,523,539,485,593
501,520,539,484,600
506,513,537,482,593
511,515,539,487,588
514,506,534,494,564
517,497,524,507,530
520,498,518,523,494
525,490,503,537,458
530,494,497,543,432
521,492,486,546,413
511,487,475,544,419
514,493,474,543,418
502,493,473,531,454
495,506,485,516,498
495,519,506,502,542
493,531,528,491,592
495,529,538,489,602
502,521,541,490,597
497,514,534,482,602
511,513,540,482,602
522,510,538,488,593
527,501,531,497,564
527,497,521,511,519
538,495,513,526,468
540,489,500,539,422
531,492,494,548,414
519,491,481,544,412
513,491,477,543,420
506,491,471,538,418
497,496,476,527,462
495,510,492,513,514
499,523,515,497,556
506,534,535,490,595
506,523,535,486,597
509,521,542,486,604
506,514,537,485,601
511,514,540,488,586
512,508,535,488,568
519,503,532,502,531
522,494,518,515,489
528,492,508,530,444
530,492,501,544,421
531,495,493,547,409
516,488,478,543,428
515,495,477,544,421
502,490,471,532,445
496,500,480,517,481
497,515,498,504,527
497,526,522,497,571
504,531,538,489,595
504,523,537,487,597
502,518,541,486,595
504,517,542,489,593
507,514,544,490,590
508,503,534,491,564
514,499,526,508,527
523,494,517,519,484
525,491,503,537,444
528,491,492,543,425
526,495,490,550,414
515,488,475,540,419
521,491,474,543,420
506,490,470,525,455
497,505,484,511,502
502,519,509,504,542
503,531,529,493,581
499,523,537,487,599
506,521,540,485,591
503,515,539,482,593
507,514,542,486,590
507,510,538,490,582
511,504,534,499,552
524,498,523,513,516
527,492,513,528,489
533,492,502,539,444
535,494,496,548,420
529,491,484,547,407
519,490,475,544,409
512,490,471,537,416
496,495,474,524,463
493,507,497,510,514
496,521,515,499,556
495,528,535,494,596
500,521,538,487,600
507,517,541,485,594
503,514,540,484,587
508,513,542,486,587
519,509,537,490,564
521,503,532,504,537
518,497,519,515,507
523,492,505,529,468
527,493,499,540,444
528,494,494,547,436
528,492,480,543,423
522,489,473,542,397
511,489,471,532,431
501,502,483,518,480
498,516,500,506,524
496,527,524,497,566
500,528,540,488,594
510,519,541,486,588
505,515,541,484,592
508,515,540,482,590
511,513,542,486,583
513,504,535,495,561
518,501,528,507,530
523,496,519,520,488
525,491,505,535,443
528,492,494,543,428
529,495,489,548,414
513,489,473,541,417
509,489,477,541,422
496,489,471,526,456
492,507,487,514,498
493,518,509,498,543
501,527,530,491,590
501,523,538,487,601
505,520,540,488,597
507,516,539,484,588
507,513,540,485,587
506,510,540,490,577
511,503,531,498,547
520,497,523,512,515
525,493,514,525,469
527,490,499,540,438
534,495,499,548,412
526,489,484,544,405
521,488,476,544,412
508,489,471,537,422
498,496,477,522,472
495,511,494,511,514
501,527,517,500,561
503,530,533,487,596
506,522,537,485,603
508,520,543,486,601
504,514,540,479,599
508,513,541,489,589
509,510,538,492,571
514,496,529,501,537
519,496,523,516,503
527,492,507,530,454
528,491,500,547,428
528,496,494,548,414
516,490,480,542,416
511,488,476,541,420
502,486,469,530,445
496,503,482,517,486
494,515,502,504,534
497,526,523,493,578
498,528,541,489,604
502,520,541,485,597
505,518,542,489,598
509,515,539,484,595
512,511,542,489,586
516,504,535,496,562
522,497,525,505,527
530,495,516,520,490
530,491,504,536,446
525,493,497,542,428
524,495,488,548,412
521,493,477,543,412
514,491,475,539,419
502,493,474,527,457
498,506,487,515,501
497,519,509,501,551
501,531,531,492,588
499,524,537,484,599
503,522,541,486,592
493,515,540,487,588
499,514,542,487,587
511,508,539,491,567
521,505,535,501,543
520,500,524,511,512
525,493,513,524,474
529,490,499,537,433
525,493,495,549,423
520,492,483,545,414
512,489,475,540,413
506,490,471,534,422
516,499,478,522,465
513,513,492,508,515
501,521,516,497,560
504,531,534,491,593
505,521,539,490,600
513,519,542,489,587
511,511,537,484,589
513,513,542,489,587
512,507,536,491,571
514,502,532,502,539
522,497,521,517,504
523,490,506,531,460
524,491,497,543,432
524,494,493,546,411
516,489,479,541,410
508,490,475,543,415
508,491,474,533,439
504,501,484,518,482
496,516,501,505,530
496,523,520,493,574
500,527,537,487,596
506,519,539,488,593
512,517,540,486,596
506,516,540,487,597
513,516,543,489,584
520,506,536,497,554
520,498,528,508,519
523,495,515,525,487
529,489,504,537,444
526,493,497,545,428
523,494,490,547,414
510,487,478,548,421
510,491,476,543,421
495,490,474,526,451
492,505,488,512,496
505,519,510,500,539
509,534,530,491,582
508,526,540,484,597
512,522,543,487,592
503,514,540,485,593
508,515,542,486,590
511,507,539,489,586
511,502,532,497,553
521,498,524,512,518
526,492,511,526,468
529,489,502,541,434
529,495,495,549,416
521,491,488,549,412
514,490,474,543,417
510,489,473,537,428
497,500,480,525,469
498,511,498,509,516
497,521,514,498,561
500,530,536,487,596
507,524,537,486,597
509,519,540,487,597
510,511,538,478,592
512,513,540,487,590
509,508,538,493,573
509,497,528,503,542
515,497,520,519,500
524,492,508,535,454
527,490,500,547,433
530,494,490,547,423
519,487,477,544,430
514,492,477,545,424
506,490,473,533,448
499,501,483,520,477
492,517,503,508,530
494,525,523,494,575
497,529,538,487,595
501,520,539,488,586
503,517,540,483,584
501,513,539,484,588
513,511,541,488,585
513,504,532,494,557
517,495,525,505,525
521,493,517,519,477
528,490,503,537,441
527,492,497,544,420
524,497,491,551,408
517,491,477,544,413
514,491,476,543,419
499,493,474,526,457
495,504,484,509,507
494,515,506,498,554
500,529,532,492,596
506,525,539,485,598
511,521,541,487,596
509,516,541,481,587
504,510,540,487,587
509,509,545,492,575
520,502,532,498,546
522,498,527,512,511
525,492,512,527,462
527,489,498,539,434
525,494,491,546,427
518,491,483,547,422
509,493,476,544,423
506,489,473,537,431
498,495,476,523,458
498,506,493,508,508
501,523,517,496,553
505,530,534,487,590
508,523,540,483,597
510,519,540,485,599
510,512,540,484,597
509,513,542,487,596
508,508,538,491,579
514,500,528,504,539
524,495,521,518,498
529,491,508,535,451
534,493,499,540,419
531,493,490,547,408
522,490,478,543,412
513,488,472,541,416
497,486,469,530,440
490,503,483,519,486
489,515,501,504,532
492,527,521,492,568
501,529,537,488,592
499,521,540,490,590
505,517,543,488,596
503,511,538,483,603
517,513,542,487,593
521,505,533,491,568
523,499,527,505,530
521,493,516,522,484
529,490,504,538,439
535,493,496,547,415
530,496,488,549,406
517,488,474,543,410
514,491,475,542,422
503,494,469,525,458
498,503,486,514,503
502,521,507,501,545
503,529,528,491,583
506,524,538,487,593
509,517,541,488,594
507,515,538,482,592
508,514,542,483,587
509,510,539,488,572
513,503,532,501,545
518,498,522,512,508
524,492,512,530,467
526,490,503,542,434
524,494,490,546,421
522,490,481,545,418
515,489,476,542,427
508,492,472,536,436
498,499,476,519,471
491,512,493,509,514
496,525,518,498,556
503,531,535,489,593
508,524,538,486,597
509,518,541,488,597
509,515,540,483,596
510,514,542,488,586
513,506,535,490,567
521,500,529,504,529
521,494,519,514,496
533,489,506,532,451
536,493,499,544,425
532,494,494,550,414
519,490,480,547,413
509,490,473,542,419
501,493,471,530,446
497,503,482,517,488
494,516,502,503,535
496,526,524,493,581
504,529,536,486,598
507,523,542,486,593
508,521,543,487,593
504,513,539,480,597
508,512,541,488,593
511,504,533,495,562
518,502,525,507,529
524,494,517,521,488
527,489,507,538,444
530,493,496,544,422
527,491,486,548,411
514,488,479,545,417
514,492,477,543,422
507,494,473,525,461
506,504,488,513,503
504,519,508,499,547
502,529,529,489,591
500,525,540,488,596
500,516,541,487,594
500,514,538,484,593
501,513,538,486,595
502,512,540,490,584
509,502,532,503,554
527,498,523,510,514
533,494,513,528,474
533,492,502,541,436
527,494,493,546,414
523,494,486,549,409
514,488,474,543,416
506,489,472,535,433
497,498,479,523,476
490,508,496,510,528
495,523,518,498,574
504,530,533,487,593
511,522,539,486,591
510,517,541,487,592
511,514,538,483,588
509,512,540,485,578
503,505,536,491,566
510,500,530,503,543
522,498,520,518,502
533,492,509,535,459
530,492,495,543,431
532,494,489,548,411
525,488,480,546,404
517,488,474,541,409
499,488,469,530,443
494,501,482,519,485
491,517,502,505,529
492,526,524,494,572
505,530,539,487,599
506,522,538,487,597
510,521,545,488,591
503,512,538,483,591
509,514,542,489,583
521,507,537,498,551
524,499,525,508,522
523,497,516,524,484
527,493,505,539,436
529,494,494,545,422
530,494,489,548,413
524,491,475,542,423
516,492,474,539,425
503,495,472,526,458
496,505,489,513,508
498,518,511,503,556
502,532,532,493,590
505,526,540,486,592
509,521,543,485,585
508,520,541,485,593
507,513,541,481,596
512,510,539,490,590
520,503,534,502,554
522,496,523,509,514
527,492,512,527,467
533,491,498,541,428
528,492,494,549,414
524,492,485,546,408
515,489,473,542,421
509,489,471,536,432
498,498,478,521,469
496,509,495,509,515
500,523,517,499,556
500,530,536,491,595
504,523,540,486,597
506,521,539,484,599
502,513,538,481,603
507,514,540,483,592
507,507,535,491,575
513,496,527,501,540
527,497,520,515,497
533,493,510,532,452
529,491,499,542,427
530,494,493,549,415
520,489,477,541,413
514,491,476,542,420
500,494,472,531,447
492,502,482,515,492
492,513,501,503,537
498,525,523,494,576
500,526,536,488,599
508,523,541,488,595
510,520,542,485,593
504,512,537,483,594
512,514,540,488,584
515,506,533,494,556
516,499,523,507,524
526,497,516,521,484
529,492,505,538,442
525,496,496,546,426
524,495,490,551,415
512,491,476,542,421
508,491,474,539,420
499,495,471,526,457
497,507,487,511,499
500,519,508,499,550
504,531,532,491,588
506,524,537,483,600
508,519,541,488,594
504,516,541,486,595
507,515,540,485,592
511,511,539,491,573
512,504,534,500,547
518,497,522,512,514
522,493,512,529,474
527,491,502,544,437
526,497,495,548,418
521,493,483,545,413
507,488,473,541,422
503,489,469,534,434
497,500,478,520,477
500,513,495,508,521
507,525,519,498,561
514,531,534,488,591
515,522,538,486,596
509,519,542,486,598
498,515,540,482,595
498,514,544,489,581
503,506,538,493,560
514,501,530,505,528
521,494,519,519,493
530,489,507,533,450
527,493,499,544,430
524,494,489,544,420
521,490,480,543,419
519,489,474,541,432
500,491,470,529,461
490,502,484,516,500
491,513,502,505,548
495,525,524,492,583
502,526,537,488,593
511,520,540,494,589
510,518,540,486,586
508,513,539,489,588
516,511,537,489,574
515,505,535,494,550
515,499,528,506,528
519,491,514,520,489
523,489,504,532,443
520,490,496,546,419
520,491,488,546,401
512,488,476,543,411
520,491,475,540,418
508,495,476,525,457
506,506,488,513,501
498,519,511,502,546
502,530,532,490,584
501,523,538,488,597
516,520,537,485,592
515,516,540,485,595
511,510,539,485,591
512,507,540,492,578
513,501,533,500,547
517,500,525,513,511
526,495,512,529,468
530,493,503,543,430
531,493,494,545,411
525,493,484,546,406
515,486,473,540,415
519,492,472,533,426
503,499,477,519,478
495,511,497,507,531
499,526,518,498,569
505,533,538,491,599
505,523,543,489,597
509,520,543,488,589
504,514,541,483,591
507,514,540,485,588
509,506,536,491,569
516,502,529,504,534
522,497,520,514,496
530,491,508,535,451
527,493,497,542,426
531,495,493,549,412
516,489,480,546,412
508,488,473,538,417
500,491,468,530,445
500,506,484,518,486
502,517,505,507,531
497,528,526,492,576
503,527,539,485,598
508,522,542,488,592
510,518,542,485,592
501,515,541,482,594
506,512,542,488,583
508,504,535,495,559
514,496,525,508,517
528,494,515,522,480
533,492,503,538,441
532,493,493,544,420
531,494,490,548,408
521,489,478,543,411
515,491,473,541,416
498,493,475,527,449
498,508,488,511,507
496,519,509,501,561
503,531,533,490,593
506,525,539,486,602
508,521,539,486,598
504,517,541,486,599
502,511,540,485,601
510,510,539,489,586
516,503,534,500,551
519,496,522,512,499
524,495,511,529,464
527,491,500,542,435
529,493,494,548,420
524,493,484,546,413
514,489,473,541,417
506,490,470,532,432
497,499,481,522,478
490,514,497,508,525
493,522,518,501,568
503,530,536,489,595
506,523,541,487,600
510,518,539,485,597
504,514,541,484,591
507,513,540,483,583
510,505,536,489,562
516,501,530,505,530
520,495,520,518,494
527,491,507,532,459
525,490,499,544,433
525,494,492,548,423
511,492,484,546,437
501,489,471,541,439
492,487,470,528,460
492,501,484,515,484
502,514,503,505,516
504,528,524,493,551
514,527,538,490,581
519,521,539,483,582
519,519,542,484,585
510,511,539,483,596
512,514,541,486,586
515,506,535,494,556
517,499,524,507,520
525,495,518,524,481
530,490,502,538,439
531,491,496,542,422
529,491,488,548,414
519,487,478,543,416
515,489,474,540,417
503,495,474,523,453
498,506,488,512,497
503,517,509,500,547
502,531,529,490,588
500,525,540,487,593
502,522,541,488,589
505,518,544,485,592
499,510,540,487,597
506,510,539,488,578
521,505,531,501,542
522,498,521,512,512
528,491,512,526,470
528,490,502,545,438
531,495,496,547,414
525,494,488,547,412
513,488,473,541,420
502,488,473,535,437
488,497,477,521,470
496,512,495,510,513
498,524,518,498,556
502,531,534,486,593
510,525,540,487,594
507,518,543,487,594
497,514,539,483,597
504,512,542,486,591
509,507,538,491,569
515,501,531,504,536
522,496,519,518,499
535,490,508,537,455
534,493,500,543,429
530,493,495,550,415
516,489,480,544,413
507,489,473,542,410
499,492,471,530,435
503,503,482,516,482
508,512,501,501,531
506,524,523,489,575
506,525,534,483,601
513,522,542,489,596
508,517,543,490,598
505,512,540,483,597
514,509,540,488,586
512,502,533,496,555
516,497,527,507,519
529,496,519,524,481
533,493,504,539,443
525,490,495,549,428
526,493,487,547,409
516,489,475,543,417
510,491,474,541,428
496,493,472,524,462
492,507,493,514,507
493,520,512,502,548
500,531,533,493,588
504,523,538,487,598
508,520,542,487,591
512,516,543,484,597
502,511,540,482,598
505,506,536,490,578
516,502,533,502,543
519,496,524,512,507
528,494,513,529,465
533,489,501,542,433
526,492,496,552,419
524,490,484,549,410
510,490,473,542,419
503,487,468,533,434
495,496,477,521,474
493,512,495,507,520
497,525,517,497,563
504,531,540,490,597
509,520,536,486,594
514,519,541,486,591
507,513,540,483,593
510,514,539,486,587
510,507,536,493,562
517,500,530,504,531
524,497,519,519,494
530,491,506,534,450
528,490,498,545,430
528,493,492,550,417
519,493,482,548,413
505,488,475,541,415
498,491,471,526,436
494,501,483,517,487
495,520,505,505,538
500,527,527,494,569
507,527,536,486,586
506,522,539,488,604
508,519,544,487,604
507,510,538,483,619
513,510,540,486,604
514,503,534,496,573
523,498,525,511,535
530,496,515,525,485
530,489,503,539,435
527,490,495,544,410
524,493,488,550,401
512,485,477,541,406
499,489,477,541,408
492,494,473,527,450
499,504,490,516,497
497,518,511,499,548
503,531,534,491,591
503,527,540,488,600
505,520,542,486,596
507,519,543,488,596
506,514,537,482,595
514,510,541,493,574
518,502,533,503,538
525,495,523,513,494
528,491,512,530,458
526,492,501,543,427
525,497,495,547,413
519,493,483,547,425
519,490,476,540,426
508,490,471,534,439
497,498,476,523,475
503,513,497,507,526
508,526,518,495,573
504,529,536,489,599
500,521,540,486,586
503,520,546,488,595
506,516,541,483,594
511,516,544,485,587
511,508,535,494,566
518,504,529,506,530
525,495,520,517,496
528,493,510,534,453
523,492,498,545,429
514,492,492,550,418
507,490,481,546,414
491,489,472,540,422
490,491,470,529,448
493,501,482,514,492
516,517,504,506,534
522,530,528,493,574
517,530,540,491,601
511,521,541,491,601
512,520,542,486,595
507,513,541,486,599
512,512,542,488,585
517,504,534,494,553
518,500,526,509,522
525,494,517,526,477
528,486,500,538,438
530,494,496,544,417
523,491,488,549,406
518,490,478,544,411
511,491,472,539,427
500,495,475,524,466
497,507,486,512,507
499,523,511,500,554
503,530,533,491,591
509,526,540,486,597
508,521,540,489,595
510,519,542,487,590
505,511,540,484,596
508,508,541,488,583
513,503,533,501,552
519,496,521,510,516
525,491,512,527,471
529,489,500,542,435
526,494,492,548,426
522,493,484,549,412
511,488,474,543,409
506,489,471,534,430
498,497,479,517,474
492,510,497,507,526
497,524,520,495,565
501,530,539,490,595
504,521,537,485,596
509,521,542,488,595
508,513,541,481,593
510,511,542,488,588
518,501,538,497,559
520,496,529,507,530
527,499,523,520,497
524,494,511,535,450
523,493,501,543,426
525,496,494,544,415
518,493,484,547,416
510,489,476,541,418
499,492,472,530,446
495,504,484,513,489
493,520,507,505,539
496,527,527,492,587
505,526,541,488,603
504,520,540,484,595
509,517,542,485,589
509,508,539,484,596
516,509,542,488,583
517,505,536,497,553
514,495,525,508,521
529,494,519,524,479
530,489,502,539,441
527,493,495,543,426
525,496,490,547,416
519,490,477,541,414
510,489,472,539,424
497,491,472,521,455
493,509,492,517,500
499,524,514,502,543
501,531,534,491,591
501,524,538,483,601
509,521,542,485,599
510,516,544,487,598
506,510,542,482,596
511,511,542,494,584
512,504,535,500,549
519,498,524,511,512
523,491,512,529,469
529,492,502,543,433
530,497,497,549,414
527,494,488,545,411
515,489,475,542,414
506,486,471,535,433
501,497,477,524,470
493,511,499,508,521
492,527,521,497,569
505,532,538,491,590
512,522,541,491,590
507,515,542,485,591
503,509,539,482,592
498,514,540,481,594
507,510,538,490,571
516,500,528,503,534
518,492,522,516,499
525,490,506,534,456
531,498,502,544,431
529,494,494,548,412
516,492,484,545,409
505,488,476,541,417
496,486,472,529,445
493,502,488,516,488
495,516,505,504,536
495,526,526,497,591
503,526,536,485,607
512,522,542,478,599
514,523,546,482,596
508,518,544,484,597
503,510,545,491,587
510,503,537,500,557
519,501,527,509,521
523,497,518,524,480
531,492,506,538,436
528,495,497,545,417
528,495,493,547,410
517,490,480,547,411
511,490,474,541,417
503,497,479,527,455
494,505,492,512,507
496,519,514,501,553
504,527,533,490,592
508,525,540,486,596
509,519,541,486,593
513,516,543,488,590
506,507,540,483,591
505,504,538,495,575
502,496,534,510,543
515,499,523,508,508
534,502,513,524,458
535,495,501,536,427
531,496,496,546,415
521,489,486,544,412
510,487,477,541,422
510,490,475,535,431
499,498,480,520,472
497,512,500,507,521
503,526,523,498,561
509,533,540,494,590
505,525,540,488,598
503,517,542,484,594
509,519,545,484,596
508,515,541,483,591
511,508,538,495,566
521,497,533,509,526
530,499,527,529,480
539,499,513,542,436
536,494,501,547,415
527,491,492,554,407
515,493,482,542,417
506,488,472,534,421
503,492,471,527,445
494,503,484,514,491
494,519,508,505,533
495,528,528,495,573
494,523,539,485,604
504,520,542,483,598
513,518,544,485,592
498,513,549,481,599
505,513,551,486,593
509,500,542,497,559
516,490,532,511,524
532,486,515,522,476
532,489,492,538,434
528,501,498,550,414
525,495,488,554,403
517,493,478,544,411
522,498,476,541,408
493,498,479,528,453
498,510,489,515,502
497,520,514,499,551
499,523,537,490,601
513,513,537,483,594
526,510,545,494,582
526,517,549,494,571
500,512,545,491,577
505,503,538,490,567
525,485,532,500,538
520,470,516,507,507
515,469,508,527,466
525,483,507,542,432
522,486,495,546,430
521,500,479,545,414
515,504,471,545,412
501,508,475,537,440
495,523,492,522,480
493,519,507,511,531
501,525,525,495,569
507,517,542,492,592
515,502,539,495,583
506,498,539,500,584
491,497,538,488,602
506,513,541,478,599
509,497,535,486,569
515,490,534,494,529
521,475,519,503,489
527,470,507,532,447
529,476,495,552,423
524,476,475,554,414
507,510,463,553,414
499,541,490,549,420
504,550,496,521,452
502,507,490,505,496
510,514,508,501,530
512,520,531,488,575
504,509,530,478,600
514,513,538,477,593
515,531,547,480,588
516,532,551,475,590
506,525,545,476,593
505,515,534,497,574
514,504,516,527,534
521,495,507,522,482
523,505,513,534,441
517,505,514,557,413
521,512,514,560,404
519,500,502,552,408
513,482,483,543,418
491,477,478,525,458
495,478,484,498,496
497,480,503,492,553
495,485,534,488,612
503,491,552,490,606
509,520,557,489,608
518,531,561,492,599
516,528,566,500,592
517,506,570,508,570
505,496,560,517,542
503,520,550,526,501
529,522,505,527,460
546,512,475,547,406
544,514,494,558,384
540,519,484,565,375
510,505,478,555,394
478,485,472,545,434
490,494,485,524,479
495,510,504,494,527
506,517,524,482,574
503,523,547,480,612
511,527,558,480,608
510,519,563,482,602
513,508,557,478,598
508,508,557,503,593
515,514,560,512,565
514,514,546,509,532
514,520,529,511,502
516,514,505,532,449
512,515,505,544,427
529,526,499,518,407
525,512,473,538,405
516,501,471,542,408
512,497,462,546,427
496,492,479,537,486
498,493,498,512,544
501,501,522,483,592
509,504,538,465,604
522,496,546,472,594
502,498,542,475,604
502,508,547,480,604
511,511,549,489,596
513,484,541,501,549
511,484,534,526,503
517,495,505,533,462
518,484,491,545,436
526,467,488,542,427
524,476,494,553,401
511,507,499,550,414
511,510,487,539,422
498,494,488,522,464
493,482,498,500,516
488,507,521,487,563
500,545,550,480,610
504,522,560,488,609
506,505,566,503,606
504,518,572,494,601
500,537,604,490,601
515,535,596,485,600
533,511,553,491,539
545,505,538,535,480
530,498,504,554,449
502,490,505,556,436
517,508,516,554,407
521,509,495,553,410
522,501,481,548,399
501,496,488,531,418
483,473,490,532,458
491,468,521,505,516
492,477,512,490,582
492,477,478,472,616
478,476,502,452,630
511,532,545,469,606
521,561,568,483,609
513,557,567,490,604
517,534,547,493,572
518,511,541,512,532
527,492,529,526,492
539,483,519,522,435
531,486,490,538,407
519,501,475,563,408
511,528,469,546,417
519,539,491,541,406
516,519,496,540,425
506,515,512,529,472
489,516,521,525,543
514,522,538,498,590
516,503,564,490,606
501,472,592,494,608
495,473,593,478,611
497,468,578,476,604
505,468,561,474,594
502,474,528,490,569
542,514,508,521,505
533,540,478,543,442
526,555,491,547,393
522,525,486,538,408
518,502,489,567,400
512,492,491,549,400
494,491,471,537,414
484,499,489,520,465
493,508,516,502,514
515,513,527,485,553
531,515,550,502,585
497,527,527,491,609
489,531,524,487,611
496,522,535,474,624
498,530,549,478,617
495,522,550,490,599
509,506,545,518,545
543,505,537,539,483
528,498,540,546,451
521,489,511,543,429
533,482,501,550,400
520,487,459,547,398
504,507,460,538,405
506,521,487,543,419
492,510,505,538,458
482,514,522,526,517
495,515,537,485,574
492,495,566,473,608
494,486,585,511,613
510,477,578,507,609
507,465,527,483,599
507,492,507,485,595
512,500,520,487,568
509,493,519,511,533
511,484,489,498,496
538,520,481,489,439
526,532,502,526,418
525,513,521,575,395
547,487,509,600,374
515,499,492,587,388
490,512,460,555,424
476,525,471,509,495
503,520,481,473,529
491,504,526,446,614
509,510,557,489,624
490,500,548,526,622
502,500,568,490,617
503,519,563,455,624
507,494,555,458,605
516,458,538,494,570
511,469,530,527,520
523,459,513,540,466
527,471,481,527,418
538,540,511,550,388
557,588,517,571,364
516,539,498,549,381
496,521,483,549,403
490,516,475,524,455
502,519,501,506,498
496,515,532,490,556
494,532,564,477,620
499,525,541,462,622
499,505,529,466,632
504,485,537,493,615
500,488,569,506,611
513,497,596,510,589
512,477,591,574,536
528,523,592,576,475
520,525,538,539,454
498,486,478,523,454
502,472,398,477,433
528,488,477,561,381
518,483,525,606,396
499,488,485,554,402
492,499,446,524,467
490,484,451,525,541
518,510,521,499,569
508,528,558,450,595
500,511,567,409,610
500,508,591,425,611
501,459,558,410,612
512,428,516,432,609
532,473,492,506,572
520,486,485,552,536
540,522,508,565,472
551,499,469,538,413
533,476,419,522,403
508,429,449,531,399
505,474,485,520,400
511,508,477,577,401
486,470,439,548,442
479,516,494,525,491
491,584,549,518,559
507,583,564,512,593
505,566,571,492,600
516,553,553,478,600
496,525,520,483,600
481,506,519,508,619
508,487,532,491,608
529,487,556,510,564
528,466,540,532,513
516,448,441,536,464
526,487,461,553,410
544,557,502,578,380
548,566,545,596,370
546,551,571,605,366
518,488,529,580,394
505,449,467,562,432
479,418,459,550,514
480,436,569,376,580
483,493,662,346,625
498,565,665,443,607
504,556,529,445,612
492,540,444,446,631
496,520,494,506,624
505,527,500,505,599
524,512,501,516,538
508,470,461,537,502
512,453,444,556,456
536,454,450,565,417
527,536,472,558,390
518,550,465,532,379
509,499,455,564,390
504,515,472,555,411
511,557,500,538,449
491,534,483,497,537
495,545,508,469,592
503,540,520,477,622
499,532,527,493,619
510,531,532,490,608
508,521,518,485,610
504,513,537,510,601
504,503,535,507,571
522,502,510,505,540
527,508,497,517,498
549,495,468,531,426
524,486,480,555,397
515,504,503,549,391
514,498,482,556,397
508,476,465,545,399
499,490,467,533,434
492,509,470,517,483
487,501,490,491,544
491,504,536,486,596
475,501,550,526,634
504,504,544,465,624
491,486,529,483,629
504,521,560,489,613
524,554,547,482,589
523,523,525,469,560
519,500,516,514,511
518,499,506,557,457
524,500,499,559,412
554,503,490,556,370
533,492,475,555,375
510,500,463,532,392
513,502,463,535,396
497,502,466,523,452
498,509,499,515,507
504,507,545,534,555
502,484,588,537,614
501,474,570,503,622
503,439,566,502,618
504,495,554,431,611
516,526,508,441,598
522,500,526,516,578
518,480,495,501,540
499,470,518,494,522
511,510,504,509,463
523,494,505,526,415
526,458,433,553,388
526,452,478,550,379
522,493,475,570,388
518,508,488,509,410
492,486,555,467,474
492,487,612,530,523
491,527,557,520,589
504,549,574,444,624
509,501,571,444,612
519,524,522,447,610
508,523,434,432,621
504,566,559,494,624
517,536,548,519,586
535,485,498,528,526
529,442,426,516,475
520,440,394,537,427
523,506,464,560,404
538,552,481,549,378
532,514,496,587,376
524,483,526,590,378
496,492,534,544,423
491,560,569,519,484
497,584,534,513,550
502,537,451,506,593
503,533,496,432,614
502,508,531,450,614
500,481,513,489,625
494,418,497,471,618
495,448,535,501,603
503,484,532,507,567
523,520,541,509,518
550,518,534,545,452
543,506,534,548,393
513,431,477,539,405
530,492,430,548,386
520,544,454,550,378
498,526,472,533,411
495,516,470,522,463
501,534,499,529,488
501,540,538,503,551
489,549,545,512,633
501,516,508,480,635
527,529,527,472,608
511,499,522,483,616
496,504,505,465,619
509,561,557,466,585
520,552,598,505,542
531,518,567,563,487
517,503,543,581,451
520,506,515,557,420
519,490,476,579,392
506,488,485,556,390
503,503,484,510,414
506,488,488,508,430
496,490,499,523,455
489,495,503,519,538
508,491,510,484,589
497,496,502,449,621
517,553,534,458,623
513,537,559,494,610
521,533,551,514,609
508,508,530,481,618
513,492,529,486,572
519,451,499,500,530
529,481,480,498,481
524,467,537,554,427
530,490,563,621,392
531,459,510,624,383
508,490,446,573,369
510,493,437,518,389
497,477,504,496,459
494,497,518,491,481
502,543,505,501,541
497,509,537,474,619
509,478,521,492,620
502,468,509,477,617
500,502,516,470,625
514,545,541,481,611
517,540,543,482,603
519,513,562,487,554
521,536,569,488,515
532,552,555,515,451
517,515,520,572,441
533,489,524,589,395
532,465,505,552,392
524,480,489,517,396
508,500,475,481,404
487,508,422,538,451
489,552,478,532,507
493,541,517,505,559
494,526,531,485,617
496,523,531,481,631
515,507,552,481,612
527,498,585,511,600
508,443,566,505,609
489,435,532,476,594
511,467,535,489,557
534,512,634,521,495
529,575,675,535,448
525,561,602,465,423
525,500,475,471,412
523,475,345,552,398
526,470,389,571,385
514,516,440,618,401
503,516,461,566,454
490,515,532,540,523
503,513,528,493,584
503,475,457,445,624
509,500,545,498,615
512,512,550,492,617
498,524,554,464,615
511,583,569,519,594
527,544,630,499,581
520,479,671,482,528
512,480,695,490,493
507,463,483,482,449
523,469,448,563,412
527,459,509,504,411
518,432,539,553,395
505,410,514,590,396
505,476,397,588,423
492,487,479,532,465
511,501,513,488,537
507,559,461,486,593
505,524,440,482,614
508,527,475,491,601
494,554,518,488,624
516,577,554,495,590
523,524,541,493,577
507,492,517,506,572
506,491,526,492,540
514,467,513,487,470
525,490,494,462,430
527,491,491,502,396
529,502,461,543,380
532,513,422,597,359
520,445,421,625,371
493,418,447,601,432
487,461,470,553,512
489,475,470,467,581
504,553,489,404,621
519,592,552,460,616
515,588,585,511,592
497,567,548,475,614
504,536,541,449,619
502,526,575,484,600
517,531,522,523,561
520,507,502,546,512
533,497,512,561,447
529,485,518,532,412
521,500,514,513,400
517,491,503,511,390
521,499,489,536,388
505,498,441,559,424
483,439,442,533,469
503,498,500,516,513
494,458,543,488,587
482,492,548,456,637
521,631,497,499,603
522,599,542,499,600
519,540,554,498,599
500,518,548,488,616
501,478,529,484,588
515,484,529,511,534
515,455,547,546,496
527,480,589,581,432
526,514,574,555,403
530,530,508,518,383
518,528,460,537,380
515,506,487,560,391
512,464,480,509,437
502,442,439,498,498
492,477,505,513,539
495,545,526,469,602
500,568,517,438,626
514,534,536,484,608
502,528,507,523,611
504,540,529,516,612
501,514,547,508,594
499,487,535,510,564
529,486,532,516,508
539,511,593,540,451
529,498,588,526,421
521,502,519,542,413
523,492,407,547,386
523,495,407,531,380
500,471,483,463,421
497,474,537,468,462
496,508,515,526,521
515,572,529,540,550
520,529,498,502,592
497,492,483,482,614
506,511,547,487,617
517,531,596,489,608
508,535,586,501,611
511,490,485,471,586
515,458,488,501,545
510,439,505,523,511
521,492,498,568,462
530,485,483,573,397
521,471,507,556,389
515,431,487,505,393
510,488,516,497,395
514,588,472,534,411
507,562,479,532,470
495,521,474,505,537
499,509,534,516,588
512,531,577,513,612
504,522,592,501,626
493,484,546,477,633
498,498,474,455,620
506,499,521,395,616
522,516,536,478,575
531,478,529,528,529
525,430,530,534,499
514,420,536,564,427
514,529,548,572,404
522,551,591,486,382
513,560,617,558,384
524,537,539,550,394
504,516,331,524,432
503,521,412,535,475
502,523,462,493,537
502,521,482,460,600
509,539,523,491,610
516,538,566,521,597
504,505,533,534,606
503,506,507,491,608
515,509,555,427,595
509,493,577,459,577
514,493,554,509,521
517,482,501,527,462
528,478,434,573,416
522,469,453,551,410
536,531,519,543,390
531,514,556,570,382
518,522,544,561,384
507,528,504,556,431
488,468,414,512,509
495,478,454,488,542
503,528,514,481,619
500,519,556,483,629
506,527,570,488,616
510,540,512,468,615
497,525,566,479,618
501,514,624,511,603
508,497,566,485,562
513,452,507,524,515
520,452,476,585,454
522,446,508,519,415
535,543,494,518,390
537,534,473,543,387
510,507,446,543,390
513,521,478,510,405
520,529,488,564,451
501,510,447,512,525
495,489,485,463,583
491,435,491,477,619
498,405,476,487,609
494,446,498,457,615
517,568,599,468,610
510,590,590,513,605
505,541,596,534,586
519,484,538,527,539
522,452,491,524,489
537,514,493,505,432
526,514,508,514,409
524,550,534,555,389
520,542,571,561,388
524,519,502,533,395
507,484,423,505,436
502,489,507,498,488
520,540,581,520,503
513,571,602,514,593
488,546,481,445,632
487,487,521,473,628
495,440,498,508,612
512,471,505,504,609
516,499,544,479,609
513,521,504,501,564
503,487,499,507,532
522,514,499,518,468
524,511,450,547,429
528,504,458,536,400
532,529,507,582,388
534,472,491,580,376
512,479,479,553,401
495,520,483,506,455
485,519,495,516,529
491,552,547,491,583
501,565,646,487,603
503,524,590,482,620
511,503,586,479,621
506,479,505,517,606
500,502,517,476,611
525,582,532,453,586
527,527,487,498,548
523,495,478,523,505
522,488,501,502,457
522,503,527,543,423
532,525,543,587,402
520,483,466,606,388
506,449,451,572,385
497,438,475,537,419
484,404,486,523,468
470,450,461,484,543
499,553,532,456,601
526,574,520,468,617
522,532,488,462,611
523,508,516,462,604
508,500,525,487,596
513,523,539,499,592
520,572,553,508,567
522,529,537,512,530
513,497,518,517,489
537,507,524,538,421
532,478,527,539,413
514,445,531,501,407
509,502,479,526,409
512,517,478,554,400
511,507,501,565,425
505,490,542,525,489
487,486,537,488,543
505,563,553,447,590
512,568,535,467,617
514,505,499,497,596
502,470,508,504,613
494,480,511,503,613
505,559,549,493,603
515,536,585,509,577
526,525,551,517,525
536,523,499,538,466
536,495,518,553,415
526,467,519,565,390
523,467,473,530,394
509,451,461,530,410
502,475,534,567,408
493,501,659,563,448
484,497,606,588,511
489,479,468,465,580
490,418,418,440,624
501,428,490,468,616
515,458,561,459,606
522,529,477,492,596
526,585,501,499,590
532,580,548,479,553
499,516,563,479,546
517,565,558,488,513
526,564,526,550,472
526,526,510,551,428
533,520,516,561,396
516,496,497,568,393
516,493,453,559,398
523,479,467,548,418
515,478,516,552,452
499,506,545,497,517
486,528,533,432,600
499,552,524,430,618
502,571,531,448,629
506,520,539,499,612
504,504,657,518,618
495,473,744,514,602
506,532,731,532,584
514,523,467,486,541
529,522,409,491,493
534,499,416,537,441
553,511,471,562,389
532,504,482,558,370
511,499,491,524,395
513,511,506,504,411
490,494,470,495,445
493,504,425,537,489
488,497,470,514,552
496,505,511,489,591
500,508,531,488,608
507,522,547,490,612
499,535,549,500,611
500,515,521,469,617
513,499,537,473,594
526,452,528,495,555
513,406,507,517,527
500,420,498,517,481
527,577,525,528,429
531,537,505,551,406
531,501,502,583,382
518,487,502,576,388
506,469,465,518,400
513,560,497,514,428
499,513,507,505,501
494,513,539,497,571
494,512,535,507,610
509,560,570,515,618
515,517,558,496,617
505,473,491,456,626
514,519,527,465,615
511,496,555,476,593
522,530,567,532,530
531,512,601,518,478
532,490,606,583,418
505,458,466,528,401
512,489,454,524,394
519,511,429,576,387
508,511,466,564,414
506,494,463,527,441
499,485,473,501,487
492,472,531,484,541
491,502,510,477,592
507,572,522,502,613
519,564,540,484,610
523,520,546,493,610
520,487,553,482,603
497,466,496,474,608
489,468,483,455,595
515,567,547,495,538
540,572,552,538,480
535,495,525,564,432
529,495,542,607,409
522,497,498,582,396
525,513,449,502,393
523,521,468,499,399
521,510,490,539,417
500,499,517,536,464
515,515,568,521,524
506,531,553,484,602
491,547,501,465,623
502,529,545,472,616
508,475,532,487,607
509,431,520,470,600
499,379,527,478,602
497,429,544,508,560
522,548,555,517,511
533,534,498,528,459
541,561,543,567,410
533,534,545,567,415
523,527,484,542,398
508,522,469,535,400
506,492,456,499,408
500,488,492,511,457
490,496,509,523,525
510,505,509,495,557
507,517,522,485,615
479,464,535,479,612
490,563,570,466,607
504,545,560,478,612
511,514,497,474,608
506,507,556,474,602
517,533,556,489,552
530,516,532,526,503
528,501,521,548,452
524,497,519,547,413
519,483,479,538,403
523,501,508,561,400
516,506,515,567,405
507,479,490,562,419
510,483,473,518,465
495,492,529,512,523
491,468,518,489,579
504,527,507,493,619
486,477,552,498,614
491,541,605,492,623
516,539,532,466,619
512,518,477,460,605
526,526,498,477,572
524,514,518,514,525
516,502,568,541,481
496,483,525,570,451
526,513,421,485,433
548,543,487,537,391
526,510,501,607,387
519,498,472,579,399
504,490,412,515,430
497,509,482,500,480
494,526,510,505,535
495,501,496,465,602
502,482,522,471,607
504,475,564,485,610
496,447,550,479,622
512,560,517,475,622
518,543,542,465,605
513,532,553,495,567
521,517,544,521,522
533,504,518,539,454
526,486,500,552,412
523,497,495,552,397
524,496,483,551,388
515,497,480,555,387
512,502,484,557,397
508,489,468,524,446
510,491,480,492,510
498,533,512,495,579
497,534,532,488,612
502,511,537,478,617
506,522,547,474,621
504,534,551,483,617
512,527,548,486,595
518,523,561,494,586
522,516,553,516,551
523,500,503,515,511
527,486,484,526,457
533,477,497,538,413
521,442,470,551,400
520,451,464,541,390
514,413,468,553,387
498,435,454,548,415
490,494,470,522,465
507,565,497,480,521
511,604,537,481,567
497,584,556,486,608
496,540,542,477,621
513,530,546,470,619
513,530,542,501,616
513,516,539,485,615
511,500,533,495,576
520,480,531,512,526
523,475,515,527,479
530,495,509,560,430
529,510,547,563,410
530,499,552,555,407
506,470,431,528,411
517,507,486,550,405
502,487,473,557,434
492,501,443,492,492
494,524,489,498,548
493,544,522,488,612
504,546,553,466,613
504,523,536,483,609
515,532,540,477,598
518,510,532,483,598
510,471,517,480,599
510,447,517,497,568
511,448,549,505,527
520,481,557,531,469
521,555,499,550,430
526,538,507,553,410
531,509,471,561,385
525,497,470,560,387
512,481,485,552,409
509,518,537,537,448
491,515,530,517,513
490,534,539,480,580
504,535,493,476,607
501,506,494,472,624
497,503,551,478,616
510,498,575,469,609
509,538,545,476,609
503,532,483,493,602
516,511,500,497,544
525,493,510,525,493
525,495,512,555,441
528,498,490,544,421
535,493,494,559,398
524,482,495,549,383
517,493,471,551,397
498,500,470,541,428
497,507,483,516,476
484,510,495,493,528
495,527,520,485,588
507,522,530,472,612
512,513,532,480,606
502,481,532,478,607
507,517,543,481,606
519,548,549,487,594
509,513,537,496,574
505,492,529,514,526
515,493,520,521,497
535,479,497,529,438
530,485,498,546,406
528,506,498,555,387
516,484,482,555,396
510,497,472,549,402
508,499,461,534,432
497,498,472,505,487
490,508,491,471,563
497,547,537,495,609
504,531,545,482,611
515,524,548,490,599
505,518,549,490,608
506,515,546,487,608
510,507,545,493,592
507,513,539,501,570
517,503,528,512,522
527,498,517,543,465
525,495,506,548,434
528,499,499,544,403
525,497,488,548,405
519,496,480,544,397
507,493,472,539,412
498,495,476,522,455
497,509,495,507,513
494,525,517,495,570
501,530,536,477,614
505,523,538,479,610
509,519,541,481,610
508,515,543,481,607
510,512,544,486,602
504,507,535,487,586
513,502,529,500,542
523,501,525,519,493
527,494,515,541,438
531,495,502,545,418
522,490,493,553,406
516,491,488,557,396
509,487,479,553,401
501,495,474,532,427
501,505,486,519,472
497,516,503,503,530
494,526,526,488,593
497,528,538,479,618
512,522,541,482,610
516,521,545,480,609
516,517,544,483,612
508,510,542,484,608
509,506,537,493,578
516,489,529,509,534
523,480,518,528,480
535,479,502,543,430
523,496,502,553,417
525,507,497,556,393
516,505,490,556,398
513,495,478,545,403
492,490,477,537,443
496,505,486,514,492
500,518,505,496,550
496,525,528,486,596
497,518,535,476,621
498,509,538,482,609
512,517,548,480,607
509,513,546,484,613
514,513,544,486,599
521,507,535,496,561
523,506,527,509,523
527,495,518,532,463
530,491,510,544,421
527,481,501,552,410
522,477,491,552,398
512,466,473,546,400
514,502,476,543,409
502,506,487,524,454
495,490,500,511,505
501,537,524,496,556
509,541,538,484,607
502,504,534,476,617
505,508,538,478,614
506,533,547,484,615
509,524,548,484,607
505,507,544,494,586
505,511,538,504,551
513,514,531,517,504
521,502,524,547,448
515,497,507,548,423
530,504,502,544,398
521,499,490,548,395
515,498,485,549,399
509,491,475,530,429
496,504,488,523,469
495,516,504,505,523
487,522,527,489,580
486,524,542,483,613
497,520,543,481,611
503,523,549,480,606
506,514,545,473,611
510,510,542,480,611
537,506,539,491,572
547,497,531,508,532
534,496,521,523,491
517,493,509,543,441
500,490,502,554,432
504,496,496,554,410
495,491,486,551,404
492,491,481,543,404
484,489,475,528,442
479,502,491,512,496
489,517,512,498,553
533,538,535,488,593
535,528,542,482,610
521,521,544,481,610
500,516,549,480,621
497,517,546,481,624
498,511,541,485,612
493,504,542,500,578
491,494,528,509,534
517,493,517,531,468
534,495,509,551,409
537,497,500,557,390
535,493,492,556,377
540,487,477,546,380
530,491,472,535,400
511,497,480,518,446
498,510,497,509,512
484,518,516,494,561
453,523,535,483,592
449,518,537,478,600
431,513,542,484,605
418,509,541,483,616
425,506,540,481,601
430,500,537,487,587
477,498,532,500,542
566,497,521,516,493
609,494,509,539,414
618,504,505,554,393
615,506,502,556,392
579,500,489,551,407
555,496,479,548,403
541,490,476,535,411
542,503,482,520,454
534,516,500,504,533
530,524,524,492,593
533,526,537,484,614
539,523,537,477,615
534,525,541,479,621
526,516,542,484,630
512,511,543,486,630
513,503,534,492,611
521,500,525,506,562
528,498,517,522,509
530,492,508,545,450
526,493,499,548,419
524,491,489,555,398
518,487,477,548,396
516,492,476,543,400
506,496,475,529,437
497,505,485,512,491
509,521,509,499,544
508,528,526,486,593
513,522,534,481,609
523,519,539,483,609
520,517,539,479,608
509,513,539,482,610
509,504,536,483,593
525,500,530,496,542
531,498,521,511,502
525,492,513,530,452
524,491,503,547,410
524,493,498,552,396
533,497,481,550,386
523,497,475,557,394
505,491,469,539,431
493,496,472,513,467
489,510,492,507,522
490,526,515,496,573
494,533,535,484,611
498,521,535,480,604
501,520,539,479,603
507,515,538,478,610
504,513,535,480,625
509,507,534,489,598
516,502,528,502,558
520,497,520,518,533
523,490,509,537,488
527,494,499,549,446
528,494,490,555,413
515,492,481,556,400
499,490,474,545,411
491,488,467,531,427
495,500,476,515,442
496,511,496,506,482
503,523,516,490,540
498,525,530,481,588
502,519,534,481,598
506,516,538,483,603
516,512,532,478,603
528,511,535,480,586
527,503,530,491,560
531,497,521,507,532
534,496,513,519,487
532,493,500,541,436
534,495,491,545,411
532,494,487,552,387
523,492,474,550,390
512,495,473,547,416
495,494,466,527,453
483,502,481,514,500
497,520,502,498,540
500,529,525,487,598
498,520,532,482,619
504,515,533,481,617
501,513,535,481,620
503,512,534,478,619
502,510,536,484,599
503,502,529,496,565
506,497,522,512,521
515,491,508,524,462
529,491,497,542,408
529,494,490,550,408
531,494,484,553,397
516,493,475,549,404
493,490,467,538,438
481,498,476,524,471
492,510,491,512,505
509,519,507,492,555
514,528,530,478,597
518,521,532,480,603
520,520,534,478,612
525,517,537,479,613
513,516,539,482,614
510,506,530,486,596
509,499,525,504,553
506,495,515,516,513
510,489,503,531,453
507,489,493,547,427
524,498,489,555,409
540,496,482,557,402
529,495,474,548,408
507,491,463,531,424
496,501,476,517,488
486,510,491,501,519
496,524,518,493,541
495,530,531,484,596
495,521,534,481,602
494,518,536,478,605
499,514,539,482,589
532,519,538,486,598
545,505,529,495,570
547,492,518,499,537
560,492,508,518,482
556,487,497,538,425
542,490,491,548,403
533,493,486,554,401
525,493,477,549,410
518,491,471,546,413
503,493,468,528,456
499,506,484,515,499
505,519,501,496,541
510,528,524,493,572
514,524,529,481,594
520,521,535,479,598
519,519,539,481,598
513,514,537,479,600
510,504,531,483,599
509,499,528,496,549
525,497,519,513,496
534,498,510,531,447
530,490,496,549,397
523,493,486,552,402
520,497,482,551,428
513,493,472,548,418
506,491,467,542,416
492,500,474,519,476
494,510,487,504,530
498,519,507,493,594
516,530,528,480,628
505,518,528,476,631
500,520,533,482,630
498,517,536,485,629
502,517,536,485,621
496,509,532,491,597
497,505,528,502,548
507,498,515,518,511
519,489,503,533,457
514,491,494,544,442
515,493,485,549,421
520,488,473,548,397
520,489,467,545,384
506,489,462,533,392
491,499,473,521,437
493,516,495,509,481
503,531,520,496,547
502,524,531,486,600
503,518,531,481,638
522,517,532,477,641
529,516,532,479,626
522,509,532,481,588
518,504,529,493,553
530,499,520,500,507
554,495,510,524,433
559,487,496,539,412
544,491,488,547,413
538,492,479,550,398
519,489,470,549,401
507,490,465,542,402
490,490,467,531,447
491,504,482,517,503
490,513,500,500,547
507,531,522,490,570
513,525,530,482,614
516,516,529,479,618
521,514,532,478,600
517,514,535,478,595
517,511,532,483,579
524,506,527,499,541
526,499,514,513,497
532,493,505,530,455
523,494,494,544,435
514,494,486,551,439
509,493,483,556,441
499,490,468,545,442
493,489,462,537,454
482,496,469,522,477
482,506,485,507,518
485,518,505,493,570
502,526,523,481,595
506,520,529,478,605
506,516,530,479,614
519,514,532,477,596
526,514,532,483,595
519,511,530,492,570
523,503,525,505,539
520,499,515,521,502
525,489,500,536,459
537,490,490,546,415
533,494,483,552,406
525,494,475,552,408
516,492,468,547,407
495,489,461,536,432
488,499,473,521,485
491,515,494,502,523
508,525,513,490,573
520,528,529,481,601
524,523,531,481,600
513,518,532,483,612
512,519,536,482,585
512,514,534,484,577
513,506,524,491,564
521,499,515,510,514
535,492,503,521,471
534,488,492,538,449
527,491,487,547,442
521,491,480,550,402
513,492,473,551,400
497,494,471,545,405
479,498,473,533,468
484,507,481,511,520
485,518,501,500,554
491,522,515,482,603
512,519,525,481,598
516,516,530,481,603
520,518,532,482,599
513,514,531,482,581
521,511,529,483,573
522,503,524,498,567
517,499,516,512,530
528,495,507,530,472
538,490,492,543,425
541,492,484,548,404
527,491,473,549,396
510,490,468,549,400
507,490,464,541,419
497,496,472,525,468
494,511,489,508,516
496,522,509,496,567
499,527,526,484,603
495,519,530,480,605
499,519,535,482,605
497,518,537,483,604
506,515,534,481,599
503,504,529,489,584
516,500,522,499,545
519,494,511,512,508
523,492,502,536,469
511,494,493,543,441
504,496,488,553,403
502,494,476,551,385
502,492,469,548,380
489,489,464,534,425
489,501,474,520,488
483,513,496,503,543
477,525,515,493,578
484,524,527,483,607
499,510,525,475,582
525,512,533,485,580
565,515,534,485,545
568,514,535,486,536
549,509,527,496,523
536,498,518,509,503
531,493,508,523,483
527,487,492,534,452
531,487,480,537,451
536,491,478,546,406
526,487,469,544,394
522,490,467,545,397
517,495,468,529,444
519,505,483,514,498
506,519,504,499,536
510,529,525,492,583
506,524,529,484,614
515,519,534,485,596
514,517,535,485,598
507,510,532,481,613
511,508,529,485,570
514,503,525,505,531
523,494,515,514,499
530,494,504,533,453
533,489,492,545,440
538,493,485,549,444
525,493,477,547,427
523,492,467,542,429
511,486,463,537,425
502,497,469,524,471
496,506,486,502,525
491,519,508,495,563
496,530,530,485,598
491,518,530,483,604
498,515,533,482,596
497,517,534,482,595
499,511,532,480,588
499,503,527,489,565
505,500,522,504,536
506,492,512,516,508
523,492,501,533,468
534,495,493,544,441
534,495,484,550,430
517,492,474,550,424
508,495,472,547,420
491,494,465,532,454
479,498,475,519,489
495,514,494,502,522
512,522,513,487,567
511,521,527,483,598
513,518,532,482,588
518,520,536,486,590
512,516,538,486,598
510,512,534,485,591
510,502,525,494,569
511,497,519,506,541
519,494,508,518,492
525,489,497,539,437
529,490,488,543,406
524,494,480,548,411
515,491,472,545,421
517,490,466,541,431
508,493,467,526,487
502,503,481,508,507
501,514,502,498,512
499,524,524,492,558
504,523,531,483,598
504,520,532,480,631
503,522,538,479,647
506,514,536,476,635
509,508,533,484,595
515,496,519,494,511
528,494,514,516,464
530,494,507,534,441
518,489,497,543,407
513,490,483,547,398
509,493,479,553,398
510,492,473,552,424
515,491,466,539,444
518,499,473,526,454
528,513,487,509,491
524,520,508,495,556
501,527,529,487,579
489,515,531,483,589
500,518,538,486,558
518,516,537,482,546
503,508,533,483,600
507,502,524,487,582
517,500,525,504,538
522,496,512,518,499
529,492,498,534,456
537,495,492,547,429
529,490,480,545,426
522,491,472,543,416
507,490,469,545,423
495,490,462,531,442
481,497,473,517,490
486,513,495,504,531
488,524,519,491,580
500,522,530,484,600
504,519,529,482,604
505,518,536,485,601
511,517,536,481,601
522,515,536,484,593
513,506,529,495,563
514,499,515,504,520
526,497,509,523,481
538,493,495,540,441
534,492,486,546,425
535,493,480,550,402
526,489,470,550,398
516,492,466,545,416
502,493,468,530,449
496,505,482,514,492
499,518,501,502,542
503,528,525,489,586
505,522,534,484,600
503,514,532,481,605
505,516,536,482,601
509,511,534,483,593
519,509,536,492,563
509,502,527,504,537
514,501,515,511,513
523,491,501,527,470
520,490,494,544,447
519,494,486,546,426
521,496,477,550,416
525,489,466,544,410
520,486,462,539,426
507,499,470,525,465
490,510,491,511,512
479,523,513,494,564
494,531,531,482,600
501,519,533,482,598
508,518,537,485,596
503,514,537,483,602
506,510,535,482,604
512,506,530,486,582
521,497,524,503,536
535,496,514,517,480
530,490,502,534,457
528,491,487,543,439
527,488,481,547,423
515,490,473,545,406
507,492,470,545,423
494,490,465,532,455
496,502,476,514,490
497,513,496,504,520
504,522,519,490,576
501,525,534,483,616
498,519,535,483,606
498,519,539,485,583
500,512,539,489,575
517,510,538,488,547
523,502,532,495,528
521,498,521,507,505
525,493,511,529,461
535,492,499,544,434
530,493,489,547,463
520,491,480,548,448
511,489,470,544,427
508,492,470,543,450
494,496,470,527,483
490,507,487,518,510
491,521,505,498,551
503,526,527,488,581
508,520,533,478,587
502,515,535,483,597
514,513,537,483,610
511,512,538,485,621
514,504,531,487,601
525,502,528,497,531
529,497,517,506,493
535,491,502,527,444
535,490,494,545,414
528,491,486,551,409
516,492,479,548,396
511,492,473,546,399
504,489,464,534,420
499,498,473,517,466
499,509,492,506,520
506,524,516,493,568
511,530,535,486,603
513,521,536,486,583
512,518,539,483,591
494,513,536,483,595
501,515,541,490,573
508,506,538,497,549
518,500,528,509,510
525,494,515,520,484
526,488,502,536,450
530,492,492,545,437
523,492,482,545,430
516,492,476,547,416
507,490,468,541,418
490,490,464,528,452
484,500,479,514,493
490,514,502,501,534
501,527,524,491,574
506,528,537,486,593
505,519,539,486,591
508,517,538,484,587
508,514,540,485,592
507,510,539,486,579
509,505,534,496,556
514,499,525,512,527
527,495,510,524,484
535,489,501,540,444
534,493,488,545,423
529,494,482,549,413
531,493,474,545,416
517,491,468,541,425
501,491,468,524,464
497,504,486,510,509
499,519,507,498,555
504,531,531,489,596
507,527,539,486,601
510,517,538,486,599
511,516,539,483,596
509,515,543,488,588
507,507,538,489,581
520,500,531,503,550
526,497,521,517,515
530,492,506,531,474
531,491,498,544,441
524,492,491,546,418
512,492,481,549,405
510,491,471,543,417
505,489,469,538,435
492,495,475,519,474
491,507,492,504,521
493,521,517,491,560
499,529,536,484,592
500,522,538,486,595
505,519,540,484,591
517,518,540,486,588
513,513,541,488,592
514,507,537,492,570
514,501,529,509,535
519,498,519,521,494
522,492,506,538,451
522,495,498,546,433
522,493,489,549,422
512,490,478,547,417
519,489,473,544,426
503,487,468,530,444
494,500,478,513,484
498,518,506,507,533
510,530,529,496,565
514,528,541,485,605
503,518,539,480,616
507,516,540,484,606
507,515,542,486,597
506,510,540,487,588
520,502,537,495,559
523,497,521,506,529
524,492,515,525,503
525,489,502,545,456
521,495,495,549,434
527,491,485,552,415
518,491,476,549,376
519,492,472,540,411
497,497,473,525,480
492,507,488,512,513
490,519,507,498,550
498,528,531,486,587
509,522,534,484,589
512,517,539,485,603
515,513,541,486,597
513,513,543,491,565
510,506,535,489,542
514,500,528,505,537
524,497,521,514,504
523,491,508,529,466
527,493,499,543,443
532,496,492,547,427
527,499,483,548,404
517,491,471,543,407
510,489,468,537,425
497,496,475,524,465
507,512,498,511,508
504,524,519,497,582
507,530,538,486,617
503,520,537,482,620
504,518,540,482,612
505,514,543,483,581
506,515,544,486,570
510,508,536,492,567
516,501,528,503,538
521,497,519,517,497
528,494,506,536,452
525,491,498,547,437
518,492,484,546,425
519,489,480,547,411
517,492,477,541,419
503,490,471,528,452
504,503,484,513,491
500,514,503,501,540
500,527,525,492,579
504,528,539,487,603
512,519,538,484,600
514,521,544,486,596
517,515,542,488,575
515,513,540,489,577
508,502,534,494,559
507,494,523,509,521
523,495,519,528,478
532,492,506,543,442
532,495,495,548,425
525,493,485,548,415
516,491,481,547,418
508,492,473,542,419
493,491,472,524,459
491,506,489,515,505
495,522,514,499,550
499,531,533,488,590
505,525,540,488,593
507,519,540,485,588
504,516,543,486,588
507,514,543,489,586
504,508,538,491,573
512,503,530,503,541
527,498,522,513,508
526,489,509,528,471
520,486,499,548,440
527,494,493,548,423
529,492,484,549,415
520,492,477,544,420
507,489,468,533,439
494,496,478,517,479
495,512,499,508,518
498,522,516,496,562
501,531,536,488,596
508,523,539,485,596
506,515,538,487,593
505,516,542,487,590
506,510,540,491,592
508,505,536,498,567
518,498,528,509,527
520,493,518,524,487
526,490,505,538,446
529,490,498,546,430
521,493,488,544,422
516,491,483,547,424
513,491,476,538,426
503,491,470,525,458
494,505,482,512,512
495,515,503,499,560
505,528,521,491,592
506,525,536,487,591
513,518,536,484,557
511,517,541,488,585
518,513,537,487,594
518,510,539,486,580
516,504,532,498,546
502,500,526,514,512
498,495,516,525,479
502,490,502,539,449
522,491,493,541,421
523,493,485,543,411
511,493,477,542,414
505,492,472,536,413
495,495,473,522,454
522,508,486,510,504
521,518,508,498,545
514,528,532,490,603
509,523,537,485,612
508,518,539,485,611
512,518,541,488,593
516,513,537,488,578
516,507,538,494,579
518,501,531,504,544
524,499,522,517,506
533,497,510,531,445
533,495,498,542,416
532,498,490,545,409
524,496,485,545,408
515,496,477,539,425
504,492,469,529,438
496,499,481,516,473
500,510,496,504,528
501,520,516,498,572
503,524,536,486,598
505,518,539,487,595
508,518,539,488,589
506,515,541,489,592
508,512,539,491,589
509,505,535,497,573
513,500,526,507,534
523,496,517,521,492
530,495,506,535,448
530,494,496,542,423
525,498,490,547,414
519,494,480,543,421
510,498,476,540,430
502,494,472,525,453
494,502,484,511,492
498,513,503,501,539
507,527,526,493,584
506,522,537,490,600
509,517,536,485,600
510,516,540,488,596
505,511,540,488,591
509,512,539,493,577
509,505,533,500,553
514,501,523,512,518
524,498,516,526,475
526,494,503,538,435
526,495,495,545,423
525,495,486,546,413
515,494,482,545,417
510,494,475,538,422
496,495,474,520,461
490,505,490,508,504
494,519,512,498,554
495,526,529,490,591
502,520,537,487,596
514,519,539,487,596
511,515,543,489,596
514,513,541,487,589
515,508,537,491,577
517,501,530,502,547
527,499,522,514,514
530,492,511,535,464
529,492,502,542,427
525,494,495,546,420
516,492,485,547,422
504,489,475,541,432
494,484,471,536,415
491,500,479,522,472
493,514,498,507,526
508,525,520,499,557
507,531,536,488,585
507,524,537,485,589
503,516,536,484,593
511,518,538,484,587
514,510,536,484,589
513,504,533,494,568
513,499,525,502,533
520,494,520,520,499
522,489,509,536,459
528,491,497,542,430
532,495,490,549,416
527,491,483,547,418
521,490,473,539,426
500,489,468,521,465
482,500,480,514,508
492,517,504,504,537
497,528,520,490,584
508,533,538,490,579
509,521,540,490,578
505,516,536,483,581
504,512,537,485,586
509,508,538,488,584
505,503,535,494,572
515,498,524,507,529
516,497,515,526,482
523,492,501,540,437
525,495,496,547,414
517,489,485,545,413
518,488,477,545,410
511,490,474,539,428
500,494,475,524,465
493,506,487,508,515
498,519,509,496,556
523,534,531,486,582
518,527,536,484,591
513,518,538,487,593
511,518,540,483,589
515,512,540,485,589
513,509,537,489,582
520,504,533,501,555
521,496,520,512,521
527,493,511,533,469
530,490,501,543,428
530,494,497,549,414
523,492,486,546,414
515,490,477,542,422
501,490,469,531,448
495,499,479,518,475
498,513,499,505,520
498,524,519,494,561
505,530,533,485,588
508,520,537,485,586
510,517,537,485,579
506,516,540,486,584
500,515,542,489,585
504,505,537,499,560
517,501,528,506,527
523,494,518,521,490
529,489,507,536,448
530,490,499,547,425
527,491,490,547,411
523,495,484,548,413
517,490,477,542,418
503,491,472,526,441
496,500,484,515,482
497,513,506,503,531
499,528,527,492,580
502,527,540,487,600
504,520,535,482,596
508,515,540,486,600
509,514,540,484,592
511,511,539,489,571
518,502,532,498,541
519,501,525,511,507
524,492,512,525,472
526,491,502,538,448
521,491,494,546,441
517,489,486,546,433
511,490,481,543,426
512,494,475,539,432
504,496,475,523,471
506,507,491,507,517
505,519,510,497,553
502,529,530,488,592
504,525,538,484,599
504,517,536,485,596
505,512,540,487,590
512,513,540,487,584
512,510,538,491,571
518,501,531,503,540
516,496,523,515,509
521,494,515,533,467
523,488,501,542,436
519,494,495,547,419
509,489,484,546,415
507,490,476,542,420
499,486,471,532,447
503,499,480,523,487
509,514,497,506,531
509,526,517,496,554
504,529,536,489,579
507,521,536,485,585
504,518,541,486,591
504,516,542,483,587
507,513,541,491,586
514,506,537,496,565
519,499,528,505,539
528,497,521,517,501
534,490,507,535,453
529,491,500,547,433
526,493,492,546,431
520,490,480,545,423
517,492,478,542,423
504,493,474,527,459
497,503,483,513,499
492,516,503,501,541
495,525,528,491,564
501,526,539,485,578
513,521,541,486,585
507,518,539,487,585
503,516,540,486,591
504,511,540,487,583
504,500,531,495,552
514,497,525,510,514
534,496,517,527,481
536,491,505,539,443
532,492,492,543,430
526,489,484,545,414
523,493,481,545,412
513,491,477,540,417
498,496,474,524,465
499,508,491,511,507
502,520,514,501,547
504,528,530,489,585
497,524,539,487,589
499,520,539,486,581
497,519,541,485,584
499,513,542,485,584
504,511,538,492,572
507,502,531,505,552
530,498,524,513,515
535,493,512,530,463
533,489,500,542,430
526,491,492,546,422
531,492,484,548,417
522,489,477,542,442
503,488,468,531,462
500,503,481,523,475
499,512,498,509,503
496,524,516,498,542
506,531,533,489,569
509,524,537,487,586
510,518,539,483,591
506,514,540,485,590
510,515,541,486,583
512,507,536,491,556
523,502,529,504,525
524,497,521,516,490
526,490,508,536,454
527,492,501,543,433
523,490,491,550,421
516,491,481,546,416
506,486,473,539,422
501,493,469,526,446
495,502,485,512,493
494,519,503,502,540
503,534,527,492,577
509,528,538,485,597
511,521,538,486,586
513,520,540,485,577
511,515,546,487,586
510,511,540,487,587
513,504,534,495,553
516,497,528,509,523
526,493,516,525,486
534,489,504,540,448
530,492,497,547,431
525,492,487,548,417
518,489,481,548,419
513,491,478,539,425
494,495,474,525,454
486,505,490,510,500
496,521,512,496,548
502,530,531,485,585
503,524,538,486,592
505,513,536,483,587
511,518,542,484,587
509,515,539,485,584
516,508,539,490,567
521,500,531,501,535
525,496,522,514,503
529,491,513,531,461
529,490,503,540,431
522,491,496,552,424
517,490,485,547,418
513,487,478,544,419
498,489,473,535,445
493,500,481,521,485
493,512,495,506,531
500,524,519,498,559
513,530,535,488,579
512,519,534,484,586
505,517,536,484,598
504,516,542,484,601
506,512,542,481,605
509,504,533,494,557
519,501,529,506,532
520,495,518,519,494
528,490,508,535,442
530,491,498,546,425
528,493,491,549,409
519,491,484,548,415
518,490,477,543,420
502,491,473,526,446
495,501,485,515,494
497,518,506,506,535
500,529,527,493,572
504,525,538,487,590
509,521,537,486,585
506,516,541,485,593
508,514,540,483,589
507,510,542,491,584
507,503,531,498,555
513,495,525,511,519
521,495,516,528,471
528,491,505,540,428
525,494,498,545,417
522,490,487,544,417
517,489,480,546,428
516,491,476,541,434
502,493,475,525,471
498,508,493,513,510
493,520,511,495,550
497,529,534,488,593
507,525,535,485,593
510,522,542,487,591
506,517,539,487,583
508,517,542,488,586
510,511,538,490,576
514,502,532,505,542
518,498,522,516,505
523,492,512,529,465
525,488,500,544,436
526,494,495,546,423
513,491,484,543,418
521,489,478,542,416
504,488,472,535,433
496,496,478,519,471
496,513,497,505,523
503,526,518,497,571
516,531,535,487,600
515,518,538,487,594
511,519,536,484,593
513,517,541,488,591
505,512,540,484,579
504,505,535,493,563
508,496,525,504,531
525,498,521,522,490
525,492,513,539,467
528,494,501,546,433
535,492,489,549,412
534,491,481,546,409
526,492,478,547,414
509,492,475,531,453
496,502,483,514,502
492,516,502,497,540
499,528,525,491,579
501,522,534,485,595
501,522,536,487,590
497,514,539,484,598
503,514,540,483,596
507,511,539,488,584
514,503,533,495,557
524,498,524,510,518
528,494,515,526,481
529,494,504,539,449
528,491,497,546,432
518,490,485,547,432
513,492,481,546,429
512,493,477,541,429
498,494,478,526,464
498,508,490,510,498
504,520,509,499,540
506,531,531,487,588
507,523,536,488,599
505,518,536,482,597
507,513,538,485,585
509,511,540,484,577
511,508,538,491,557
517,504,533,506,535
518,495,518,516,503
526,492,509,531,464
529,490,501,545,431
529,494,495,549,415
518,488,482,545,416
516,492,481,544,419
507,489,471,534,438
497,499,479,524,476
496,513,498,509,517
496,526,519,497,562
503,530,536,485,589
505,523,538,486,595
502,517,537,481,609
503,515,539,483,595
506,515,542,487,588
511,508,536,494,560
518,500,527,506,527
529,496,521,522,495
534,490,509,537,456
536,493,500,545,435
529,491,489,547,422
520,492,483,548,420
512,489,477,542,417
500,492,471,526,444
497,504,485,514,493
498,515,505,505,542
502,526,527,492,585
499,524,535,482,599
500,520,540,487,569
504,515,535,481,584
509,514,540,485,587
510,508,540,489,579
515,504,535,497,552
515,499,522,508,519
524,494,518,526,473
528,487,505,541,435
529,490,496,546,422
521,490,486,548,419
508,491,479,542,425
503,492,477,540,429
487,494,476,525,465
485,505,488,508,509
504,523,513,497,537
504,527,530,488,591
507,525,536,486,592
506,516,537,484,582
510,516,540,486,590
507,513,543,486,591
509,509,538,489,573
509,502,531,505,542
516,498,522,517,505
526,493,512,533,462
524,495,501,544,435
524,494,495,547,417
513,490,482,547,419
521,493,482,544,419
513,490,472,533,438
505,499,477,522,475
509,512,496,507,521
507,524,518,496,568
506,529,532,484,595
505,522,538,485,589
508,515,535,483,591
514,516,541,488,590
514,515,540,487,587
513,505,535,493,562
523,499,527,507,524
521,494,519,520,495
527,489,504,535,449
532,492,499,546,427
526,493,491,545,422
523,493,483,548,420
516,491,479,542,424
500,493,473,529,451
492,502,482,514,495
497,517,504,503,539
501,526,525,491,573
503,523,535,488,594
503,520,540,485,592
496,512,538,486,596
501,514,541,486,589
501,510,538,488,578
515,502,533,499,547
519,495,524,512,518
532,493,515,526,484
536,492,504,541,445
530,492,498,548,430
523,491,488,546,420
513,496,482,547,417
507,495,475,541,424
497,497,476,522,462
505,509,491,510,504
501,519,510,495,551
508,531,530,488,590
506,522,536,486,598
512,517,537,483,593
509,517,542,485,590
509,515,540,485,588
507,508,536,490,574
513,501,531,501,541
518,493,520,514,509
527,491,511,530,466
525,492,501,542,439
522,495,495,550,422
509,488,483,543,420
508,490,478,545,420
502,488,473,532,440
495,502,479,519,478
492,512,496,502,529
502,525,519,492,572
506,531,536,488,600
502,520,537,488,594
501,518,537,486,593
502,516,542,491,584
520,515,540,486,566
521,505,532,492,554
520,499,527,507,528
529,491,517,517,486
534,488,504,534,452
529,491,497,544,427
529,492,490,549,417
519,489,481,546,417
517,493,478,546,422
503,493,473,527,458
495,502,485,514,497
496,516,504,505,538
501,528,528,493,574
505,527,535,485,589
509,524,540,487,580
507,515,537,480,587
510,519,542,486,594
511,512,539,486,589
513,504,534,494,563
518,496,523,508,525
522,493,515,523,474
526,490,505,540,438
526,492,497,550,419
521,492,486,546,415
515,492,481,546,416
510,492,475,539,424
497,498,477,525,461
496,510,489,512,501
494,522,511,499,550
496,531,531,486,590
501,525,540,484,588
509,519,539,488,589
512,519,540,485,583
508,510,539,485,583
517,508,537,489,575
514,500,531,503,540
519,496,522,515,501
524,491,511,531,466
524,491,505,544,432
526,493,496,546,414
524,494,483,546,424
524,493,478,543,420
509,487,471,532,438
501,499,479,519,476
498,512,498,506,520
500,525,518,492,563
507,529,535,486,587
508,525,539,486,587
507,518,538,484,590
510,516,541,486,589
509,513,542,487,593
515,506,535,491,568
517,499,530,506,533
521,496,519,520,499
526,488,508,537,451
526,491,499,547,429
530,491,492,547,418
517,491,482,547,422
516,493,479,542,426
500,494,475,531,457
494,504,486,516,500
491,517,503,502,546
498,529,524,491,581
501,525,536,485,598
505,519,540,488,591
506,517,537,485,592
509,514,539,485,591
514,508,539,488,581
515,505,533,496,551
516,497,523,505,515
521,492,516,526,479
525,488,505,542,442
523,492,498,550,428
523,491,488,550,418
519,491,480,546,423
513,491,476,538,425
502,497,478,525,458
498,510,492,510,504
496,519,512,496,548
500,529,529,488,588
508,524,537,484,608
505,519,538,484,612
503,516,538,482,604
514,517,543,488,569
513,508,538,491,566
519,503,530,502,538
523,494,520,514,502
530,492,513,531,458
530,490,504,547,429
528,494,496,553,413
510,488,483,551,418
510,492,479,544,420
503,490,469,533,445
496,500,477,518,482
491,515,497,506,532
493,526,519,497,578
500,527,536,487,598
505,521,537,485,593
505,513,538,485,596
510,516,540,485,591
512,514,542,486,573
509,504,536,491,553
512,499,526,506,524
519,496,517,520,490
523,491,506,537,446
525,493,499,547,426
528,494,493,552,421
523,489,482,548,420
516,491,476,542,427
500,491,470,525,458
495,501,484,513,499
496,518,502,502,541
497,528,526,488,585
511,526,537,486,597
515,522,538,486,590
506,516,542,484,589
505,515,540,486,573
505,508,539,486,582
504,505,532,496,558
510,499,525,507,524
517,494,515,527,485
530,490,504,539,446
534,495,497,546,428
523,490,487,550,422
523,491,479,543,415
512,488,473,540,429
501,496,475,522,449
495,508,493,510,504
499,524,513,500,546
502,532,531,488,582
505,523,537,485,593
510,518,539,485,592
505,516,539,480,587
510,515,541,486,588
512,508,536,486,578
521,504,531,501,547
530,499,520,513,509
534,493,512,530,464
534,491,500,544,433
528,489,493,550,419
522,489,483,549,416
517,490,477,543,419
501,489,471,531,440
503,501,482,524,477
501,516,500,510,517
498,524,519,499,565
504,530,536,489,591
501,521,536,484,592
504,516,538,484,593
503,515,541,485,591
506,514,540,487,584
512,506,535,490,560
522,496,527,505,532
527,496,521,520,496
532,492,508,537,449
532,491,499,545,429
530,494,492,550,420
521,487,478,544,420
520,494,478,545,423
505,494,475,529,455
496,503,487,516,497
494,517,504,501,536
496,527,524,492,582
504,527,536,486,596
508,520,539,484,591
508,517,539,483,591
508,514,541,485,588
508,514,539,488,579
510,508,534,498,549
522,497,524,509,515
522,494,516,527,482
525,492,503,540,446
526,494,498,549,432
523,493,487,550,418
515,490,476,544,416
510,489,475,542,423
499,496,475,523,458
496,509,490,510,508
499,522,509,497,562
499,530,531,490,599
505,524,533,483,599
506,520,539,485,597
506,515,539,484,598
504,514,538,485,594
506,509,541,491,579
510,503,531,500,540
512,494,520,514,502
521,491,510,531,464
520,493,501,546,430
520,496,495,549,422
516,491,487,548,424
515,494,478,546,415
505,490,469,535,429
502,499,480,522,477
502,513,494,505,530
501,524,518,495,562
503,529,531,485,600
508,522,537,485,601
516,519,539,484,600
517,515,542,485,597
513,512,541,486,576
513,503,533,491,559
516,496,525,504,528
525,493,519,522,498
520,488,507,538,455
523,492,503,548,432
526,495,490,550,413
518,487,479,544,416
516,492,476,541,425
502,492,469,525,459
496,503,487,513,503
499,520,507,503,540
497,532,526,494,572
503,528,540,490,587
507,522,543,488,587
503,516,538,484,591
509,514,546,488,586
516,513,542,487,585
518,504,534,499,548
523,499,524,509,512
527,492,515,526,481
526,489,503,540,442
526,494,499,549,420
522,492,486,548,413
516,492,480,546,418
512,491,472,539,428
498,494,477,527,473
495,509,490,513,517
497,521,512,500,555
498,530,531,491,594
504,524,539,487,602
509,519,540,488,597
510,515,537,483,599
518,511,540,487,586
512,508,538,491,574
511,500,529,501,542
525,496,522,513,503
525,489,509,529,456
525,489,499,542,433
524,493,496,548,417
516,488,484,546,416
508,489,479,546,419
497,488,471,534,442
493,498,480,520,479
494,512,498,505,523
499,526,517,495,565
499,530,537,487,596
516,524,535,486,589
516,520,541,485,592
507,514,539,484,591
511,515,542,487,588
512,509,536,493,563
519,500,527,507,525
524,494,519,518,493
528,490,506,535,455
529,492,498,545,433
525,494,493,547,421
508,488,480,545,417
508,490,475,543,420
498,491,472,528,444
493,504,490,517,491
503,521,508,507,538
503,529,527,493,577
505,525,538,489,596
512,520,539,486,589
506,516,536,483,591
511,513,541,486,587
510,512,539,487,576
514,506,534,495,550
518,498,524,506,522
522,495,516,526,490
525,493,502,539,456
526,494,498,548,426
520,493,484,548,418
512,490,477,543,421
508,490,476,543,427
496,496,475,522,467
496,508,490,509,511
503,521,512,499,548
501,530,531,490,578
497,521,537,486,586
507,519,539,485,584
511,512,538,486,592
516,513,541,486,586
512,505,535,488,577
518,502,530,500,544
522,500,525,512,509
528,495,513,532,469
533,496,505,543,437
531,494,496,551,416
520,485,479,545,419
514,492,478,544,417
500,490,472,534,441
495,501,482,522,476
497,514,498,508,523
505,529,519,496,562
511,532,535,488,592
512,523,538,486,590
510,517,537,481,591
511,515,538,483,589
509,512,541,489,583
513,506,536,493,559
518,498,529,502,527
521,497,518,521,496
523,489,507,535,457
528,495,501,546,432
526,494,491,547,416
516,489,480,545,416
514,491,476,543,419
503,490,474,530,452
494,506,487,516,493
493,517,506,501,538
494,527,524,491,585
498,524,535,486,597
505,521,539,485,587
506,515,540,484,589
514,514,540,483,573
515,507,538,488,576
511,501,530,496,561
517,499,524,507,521
523,493,515,526,484
532,491,503,541,446
533,493,496,548,419
529,493,489,550,411
517,492,480,547,420
513,495,477,541,427
496,495,472,521,472
491,506,488,505,525
492,518,508,496,551
497,532,534,491,583
502,523,538,489,590
506,518,540,489,587
504,512,538,482,596
511,514,541,486,587
506,509,536,491,570
515,502,529,497,536
516,496,524,514,504
524,491,508,529,459
526,492,501,542,432
523,493,494,548,423
514,489,481,541,426
514,492,478,540,422
502,489,471,531,442
494,498,480,519,482
497,513,497,507,526
500,523,518,492,565
505,530,535,488,586
503,520,538,486,588
507,518,539,486,590
507,514,539,482,591
507,512,541,487,591
509,509,534,493,571
517,500,526,501,530
520,495,518,518,491
523,490,507,533,444
523,491,498,545,425
524,494,493,545,412
516,489,476,543,416
511,489,477,544,426
507,491,472,528,461
501,505,482,513,501
506,519,506,503,544
513,531,528,494,580
513,524,535,488,594
512,520,538,486,588
501,516,536,485,581
498,515,542,486,584
502,513,538,489,580
507,504,533,496,552
505,497,523,510,518
513,493,516,525,475
510,487,502,538,437
529,492,497,546,423
533,494,485,548,419
525,491,480,545,416
515,492,475,538,424
501,496,475,524,464
498,509,493,513,505
497,521,513,504,554
501,531,538,491,590
503,522,538,488,594
511,521,540,488,593
508,512,538,480,599
511,512,541,488,588
519,508,537,491,561
523,504,531,503,534
524,501,521,515,494
532,496,513,532,460
535,493,502,543,430
532,495,493,547,415
518,492,483,541,419
513,492,478,545,417
506,489,471,533,436
495,499,480,521,479
493,517,498,508,528
500,526,521,497,570
504,529,533,487,595
508,522,539,487,593
508,517,538,485,588
507,515,541,483,589
506,514,543,490,583
513,506,537,496,559
524,500,529,506,526
520,494,519,520,486
527,495,511,538,446
528,493,498,546,429
530,494,493,550,418
518,489,478,543,420
511,493,475,541,424
500,495,474,528,454
498,505,484,515,491
497,518,507,502,536
499,527,524,493,576
506,528,538,488,592
511,517,539,488,588
503,512,536,481,594
503,512,539,483,589
505,508,537,487,578
521,503,530,497,544
524,494,523,508,521
525,494,515,522,479
523,494,503,538,445
532,497,497,545,430
525,494,487,550,420
514,491,480,542,420
512,494,477,540,424
503,496,477,526,458
498,510,493,512,509
493,518,513,498,560
494,529,532,488,603
505,521,539,486,596
508,517,542,489,585
503,510,540,486,586
512,513,542,490,577
512,506,538,490,573
510,500,529,498,547
514,498,524,509,517
525,494,510,528,472
528,497,502,543,441
525,498,496,546,425
517,495,484,546,421
513,497,481,546,418
504,494,474,533,444
496,501,479,516,484
491,509,497,504,528
498,521,521,496,568
503,528,538,488,596
503,521,540,485,593
499,511,538,483,599
505,511,539,481,598
512,512,542,484,585
512,505,537,492,560
515,503,529,505,532
523,497,519,518,496
526,495,509,534,453
526,497,498,544,432
526,496,493,549,417
516,491,480,545,422
514,493,479,542,421
499,494,475,528,454
497,504,488,515,499
503,515,507,503,541
502,526,529,491,580
505,524,540,487,597
508,519,541,488,595
509,515,540,484,595
506,511,543,488,593
514,510,542,492,579
515,507,536,498,554
519,498,526,510,516
524,495,518,529,475
534,494,507,541,442
527,497,499,545,426
519,495,488,546,414
513,491,477,542,418
513,495,478,537,424
495,494,477,525,466
496,506,497,511,513
497,520,515,497,553
504,528,536,491,592
503,518,538,487,595
511,518,543,487,588
504,511,541,487,596
508,513,543,482,587
510,504,538,490,573
516,498,530,501,538
522,497,522,513,501
527,497,513,531,463
533,496,505,543,429
531,501,500,549,412
521,498,484,548,416
515,494,481,541,421
506,492,473,532,434
497,496,481,521,471
494,511,500,510,528
498,519,522,500,570
506,525,538,490,590
505,524,544,490,588
508,519,543,483,588
502,509,536,480,594
507,510,540,484,592
512,504,537,491,566
527,503,531,509,528
547,499,526,531,478
538,499,513,548,434
513,501,502,547,422
519,499,492,547,413
516,492,478,541,416
507,494,474,535,428
500,495,473,525,451
495,502,484,510,495
503,514,509,502,540
507,522,532,495,577
500,521,537,488,588
512,517,543,493,586
506,513,543,488,590
500,504,537,478,600
516,502,537,486,586
522,505,536,500,552
528,504,529,512,516
524,501,517,528,473
530,503,507,539,437
524,503,495,543,424
519,501,487,546,409
505,492,478,542,421
512,498,475,540,422
500,498,478,523,465
488,504,494,505,515
499,510,516,499,552
508,517,535,488,583
501,517,545,486,590
507,514,539,487,585
508,511,540,483,587
518,507,543,493,575
514,508,541,496,567
519,503,536,505,535
521,503,527,514,500
517,505,517,534,464
529,502,507,541,433
526,503,499,549,418
524,502,482,547,419
511,496,475,544,419
505,492,475,530,444
501,497,490,510,481
499,506,509,500,524
492,513,523,493,569
499,515,541,484,601
499,507,528,482,599
502,511,530,487,598
505,514,537,485,600
506,514,542,488,591
509,505,535,494,567
519,499,530,506,527
519,485,512,520,488
529,487,498,539,446
533,493,492,550,421
531,489,482,553,406
519,467,464,548,404
520,486,467,533,405
495,511,473,509,450
493,516,493,495,493
490,499,516,485,551
496,486,529,473,592
505,488,546,465,603
506,493,578,492,600
503,483,588,517,599
505,486,592,523,591
521,498,570,526,567
517,517,510,512,540
507,532,459,493,515
525,543,511,503,477
531,519,490,515,436
521,511,500,530,422
520,503,491,542,412
525,503,482,545,402
519,506,483,548,411
502,510,488,533,451
495,519,502,510,511
491,520,521,497,565
503,507,537,491,600
510,499,534,489,597
512,502,532,490,586
512,484,527,482,580
513,479,519,475,572
512,484,513,477,569
531,507,515,495,532
529,518,532,517,502
512,513,516,533,463
517,518,490,534,431
516,517,498,524,424
505,519,492,550,433
510,516,472,558,420
499,505,481,545,430
487,494,496,525,477
498,505,511,507,521
503,526,532,497,560
513,535,550,490,594
521,519,540,498,592
512,513,552,495,591
514,516,556,496,598
506,526,564,502,587
519,520,556,508,550
529,510,512,517,527
542,501,496,533,479
545,490,510,546,423
546,500,534,554,416
528,517,533,560,413
492,501,493,545,417
501,510,449,524,414
496,504,440,497,453
488,509,487,512,487
486,512,521,504,541
500,518,532,488,583
533,513,545,502,577
534,511,548,500,569
493,516,548,489,596
496,527,548,472,605
505,516,535,476,601
507,506,524,481,578
528,510,529,501,523
528,516,540,511,475
523,508,529,517,442
520,500,518,526,425
511,499,481,534,418
513,497,467,548,419
512,503,487,545,427
500,498,508,538,465
512,497,535,530,496
506,498,522,495,553
510,507,529,494,580
500,496,518,485,595
516,499,526,490,587
485,492,525,464,610
490,499,522,452,605
498,519,540,467,587
508,516,545,489,549
508,514,527,502,525
506,509,524,542,464
509,503,507,552,440
519,511,499,551,429
525,509,491,558,404
517,498,496,565,405
502,496,497,563,420
502,495,508,545,467
501,503,528,512,519
502,515,529,488,571
503,511,537,501,609
504,499,564,504,593
504,494,575,501,591
507,492,571,465,592
516,479,565,443,591
511,474,539,476,558
504,485,523,520,538
529,510,525,570,479
513,495,509,580,430
516,504,492,529,419
523,501,492,532,408
501,505,490,558,422
490,488,485,535,423
497,496,486,516,451
507,512,496,505,489
496,516,513,498,535
514,533,535,492,582
524,537,555,499,586
513,529,567,508,591
508,520,553,497,605
517,516,544,484,595
522,506,590,480,576
512,475,568,489,550
512,483,527,510,508
513,502,486,499,478
518,482,486,521,441
515,468,493,540,422
524,469,505,543,401
520,470,507,561,403
504,462,490,597,419
494,480,469,608,452
493,543,527,610,495
495,562,556,550,552
500,573,550,489,590
497,521,517,411,615
489,508,515,423,619
508,509,565,479,602
525,509,600,512,593
505,475,600,484,596
510,463,576,488,550
507,483,547,503,521
532,518,486,528,445
533,534,505,510,415
520,539,479,504,395
502,533,476,527,415
516,517,480,544,412
531,499,473,552,397
502,500,486,556,448
504,506,501,524,511
497,514,511,501,584
495,527,527,503,609
514,523,521,485,593
515,506,501,464,603
511,510,526,441,608
528,530,549,462,582
523,515,513,450,572
510,491,485,464,540
524,481,578,543,483
497,474,627,607,449
494,474,634,546,444
507,485,585,532,421
531,518,526,530,394
515,547,507,528,410
492,545,408,543,444
489,508,416,565,487
514,492,419,512,526
513,479,416,482,568
498,511,461,488,597
494,522,522,487,622
496,519,511,465,641
498,508,503,457,616
522,487,514,474,576
509,478,506,507,555
509,483,521,511,533
523,464,529,537,454
529,484,532,548,408
509,519,512,546,415
511,496,486,551,406
510,469,455,555,395
508,489,437,550,416
514,537,484,607,430
503,557,533,575,496
509,530,570,480,539
510,511,565,450,607
496,460,543,453,627
509,436,488,482,622
481,397,562,522,616
477,468,629,524,624
506,588,679,490,589
504,576,608,479,567
508,549,527,522,525
512,514,421,494,469
520,525,391,524,438
523,522,420,583,407
535,514,438,581,377
506,507,456,562,383
500,497,449,548,415
501,499,431,523,468
502,503,467,499,518
502,521,494,496,560
499,528,538,481,605
510,529,568,468,614
514,526,574,464,603
500,510,560,450,615
510,506,554,475,606
501,487,533,491,582
523,474,485,501,528
535,493,463,543,472
530,505,475,561,421
511,495,481,581,421
512,506,475,580,399
530,490,481,573,385
519,462,481,570,386
492,453,475,555,430
504,452,464,496,487
498,467,471,478,541
498,480,549,491,576
490,475,557,495,615
504,497,554,428,603
497,505,609,478,615
499,517,541,495,625
506,529,565,472,614
509,499,513,542,575
527,495,467,560,505
538,507,473,501,446
549,512,443,489,419
520,507,433,518,424
521,484,448,512,389
525,522,481,543,370
515,558,494,628,398
492,546,471,579,465
487,523,472,547,510
494,502,516,518,558
505,503,548,490,599
517,511,553,471,592
529,482,525,468,582
502,496,512,453,596
499,470,528,490,577
514,533,633,495,586
514,473,596,444,562
507,412,459,416,510
505,419,424,420,458
508,478,405,532,453
513,451,440,595,403
513,418,427,627,401
504,461,447,603,415
512,428,528,571,419
508,446,587,562,471
521,547,659,612,499
508,510,627,607,554
514,487,575,396,589
533,535,550,409,569
492,530,626,323,601
478,578,623,315,628
493,601,551,482,594
519,587,442,575,570
519,550,418,611,523
518,569,411,578,478
516,492,425,562,432
524,471,460,566,417
533,469,479,549,395
522,432,451,543,402
503,473,416,508,420
494,567,410,473,444
491,589,426,517,494
495,597,532,545,562
505,552,493,502,587
496,514,466,459,615
528,515,552,499,601
529,516,641,526,587
507,496,650,524,597
506,515,568,488,592
511,557,455,492,551
510,518,478,530,517
511,472,476,521,490
527,480,467,543,428
510,451,434,532,416
512,479,486,547,417
511,480,452,519,421
514,494,449,533,414
500,483,447,528,449
489,510,500,508,514
479,507,521,506,572
502,536,524,462,608
508,550,509,430,613
515,509,513,434,596
509,481,526,464,594
489,424,516,478,595
496,461,514,517,585
533,533,530,529,524
519,537,520,525,501
527,567,511,530,458
531,557,531,552,422
535,529,521,562,400
522,495,482,568,399
507,470,446,563,424
508,499,474,532,421
498,489,449,485,475
501,540,482,516,527
495,561,517,519,586
501,533,532,503,604
506,518,541,477,598
516,516,538,466,594
519,512,529,493,595
523,520,529,486,584
525,509,533,494,544
508,479,521,519,524
502,452,559,537,486
505,434,564,562,455
528,486,537,590,408
516,464,475,558,405
496,453,489,533,421
503,488,524,492,409
508,564,548,519,443
501,549,554,518,495
501,545,525,489,545
503,527,526,536,583
497,520,553,460,614
506,523,440,410,634
506,514,457,446,618
508,526,571,483,600
518,523,487,486,585
522,484,438,485,548
534,479,525,509,502
529,450,501,535,458
515,485,464,553,432
529,485,496,551,409
523,457,535,580,395
509,473,504,617,409
505,449,457,603,413
502,499,487,561,456
496,504,493,499,503
495,507,491,474,542
515,524,535,456,583
519,523,508,459,591
509,482,490,480,615
502,432,532,469,598
490,446,552,460,610
512,573,553,475,581
519,551,543,510,555
512,478,562,570,497
519,454,546,589,459
513,448,475,523,432
525,511,520,531,387
526,495,530,575,387
530,505,437,537,392
509,488,482,560,407
500,527,464,520,471
508,539,503,512,511
490,547,604,488,585
491,537,667,442,626
504,515,589,393,625
507,564,493,425,633
501,508,436,516,626
521,502,483,473,591
519,476,477,483,567
520,475,490,499,524
517,506,515,558,479
529,541,517,573,441
534,566,638,599,413
530,525,711,621,395
502,462,486,550,416
488,433,452,497,426
514,508,411,531,422
506,556,442,515,476
489,541,483,516,542
506,542,506,520,584
511,563,523,508,603
500,531,474,437,619
508,516,519,440,607
501,498,507,431,630
496,495,502,456,626
517,504,530,491,556
529,482,521,515,511
517,422,505,542,463
521,449,488,521,424
543,530,498,558,390
537,503,500,591,377
522,518,475,559,393
507,503,473,549,401
494,490,493,556,442
494,529,538,547,502
482,517,542,537,558
488,527,576,546,623
495,498,638,496,637
506,496,610,423,618
504,525,607,397,625
512,551,625,375,617
504,534,530,422,598
521,516,475,513,542
535,527,491,581,496
540,532,498,563,442
529,500,482,556,412
543,497,473,579,374
522,493,447,576,385
516,500,462,556,393
499,503,470,531,434
498,509,467,516,473
483,516,486,513,540
485,514,519,505,579
499,485,534,473,617
509,445,530,471,607
498,379,516,463,618
492,446,527,454,621
520,595,564,480,593
536,588,561,496,557
527,550,537,501,534
530,504,533,523,490
539,509,575,568,432
522,514,573,594,411
521,501,524,565,396
513,497,489,557,394
498,447,526,597,396
502,422,501,507,437
495,437,454,505,500
494,477,500,486,546
517,549,607,493,589
503,525,645,438,620
513,530,554,415,599
509,504,445,458,613
491,477,448,508,627
500,530,519,539,604
505,547,522,412,571
513,528,547,491,527
526,489,532,502,472
525,433,491,511,432
522,476,477,553,408
526,536,470,647,374
516,490,487,606,386
509,474,452,537,404
495,444,442,498,459
488,548,516,498,512
501,537,545,519,549
507,548,502,489,606
519,554,617,480,604
526,546,675,523,592
504,512,654,487,611
494,482,568,457,618
511,516,503,457,588
515,484,511,471,562
521,469,526,480,500
530,446,492,499,443
525,436,423,536,410
530,515,482,617,390
513,506,475,600,405
512,516,468,578,411
510,530,471,545,416
503,551,502,557,445
493,532,579,578,510
476,536,618,521,596
487,559,539,412,657
516,555,463,397,626
515,543,524,461,617
512,522,532,505,602
505,497,536,470,603
507,498,567,462,595
532,513,567,506,529
511,487,515,545,483
519,491,488,539,438
530,502,466,512,407
534,519,500,534,386
524,519,513,604,395
523,487,432,602,387
500,440,415,540,437
490,428,472,498,491
485,449,484,467,557
496,540,532,412,595
496,538,565,478,617
519,543,560,506,600
527,519,509,515,587
525,483,540,505,589
515,474,547,485,576
499,471,498,503,559
517,510,571,511,538
520,528,639,539,471
517,500,630,486,431
522,530,544,504,427
528,530,397,535,402
518,525,422,526,413
517,517,450,597,409
502,512,438,569,449
483,502,452,520,517
503,526,498,498,561
496,514,519,484,606
501,516,532,484,612
508,516,549,482,606
515,496,577,474,599
524,503,582,484,585
529,526,536,500,561
521,490,463,491,539
518,469,537,521,501
517,469,558,548,462
514,483,524,556,425
523,503,526,551,411
521,522,462,559,405
518,512,444,564,405
506,476,475,543,424
495,476,499,539,476
491,484,486,504,532
500,552,596,488,571
522,563,683,525,590
514,526,539,516,601
502,450,480,431,615
484,396,578,490,620
498,480,567,508,602
509,489,568,404,584
501,497,480,424,557
529,575,443,527,484
530,547,470,548,435
535,556,492,559,409
528,532,468,564,391
520,511,470,557,385
508,493,467,556,410
505,480,469,558,425
505,500,504,566,492
498,485,518,514,548
503,526,498,429,590
500,543,592,462,622
513,502,587,451,610
497,476,493,441,616
502,441,451,455,618
523,512,534,463,578
524,537,562,444,542
528,484,533,510,513
531,501,523,547,473
535,528,561,621,406
529,542,575,593,401
518,486,519,571,416
527,487,430,568,396
517,484,474,565,403
488,495,459,532,454
488,506,515,475,514
483,514,533,457,581
493,528,550,484,617
516,549,611,513,605
511,566,593,475,606
506,517,468,468,607
492,496,523,483,605
502,489,460,468,586
520,489,506,489,539
513,476,505,523,505
520,472,506,542,452
538,513,535,598,417
