CH1,CH2,CH3,CH4,CH5
501.0,494.0,498.0,498.0,522.0
502.0,493.0,498.0,493.0,518.0
510.0,496.0,505.0,497.0,511.0
511.0,500.0,511.0,500.0,512.0
511.0,501.0,513.0,500.0,521.0
510.0,503.0,519.0,508.0,512.0
514.0,508.0,526.0,519.0,508.0
521.0,515.0,531.0,530.0,514.0
535.0,523.0,533.0,532.0,510.0
545.0,522.0,535.0,538.0,510.0
541.0,521.0,531.0,537.0,509.0
531.0,516.0,523.0,527.0,508.0
521.0,512.0,521.0,528.0,512.0
500.0,502.0,504.0,512.0,515.0
486.0,499.0,498.0,505.0,515.0
481.0,496.0,497.0,501.0,514.0
487.0,495.0,497.0,498.0,513.0
492.0,496.0,501.0,492.0,517.0
498.0,495.0,502.0,496.0,524.0
503.0,499.0,509.0,500.0,529.0
502.0,497.0,513.0,503.0,529.0
505.0,500.0,515.0,506.0,530.0
512.0,504.0,521.0,512.0,517.0
522.0,508.0,524.0,518.0,500.0
532.0,513.0,528.0,526.0,500.0
536.0,519.0,534.0,533.0,502.0
541.0,520.0,535.0,538.0,502.0
536.0,521.0,528.0,535.0,498.0
527.0,517.0,522.0,529.0,506.0
519.0,513.0,517.0,525.0,507.0
499.0,501.0,500.0,509.0,519.0
493.0,497.0,497.0,503.0,514.0
493.0,496.0,498.0,499.0,513.0
493.0,496.0,500.0,499.0,517.0
493.0,495.0,501.0,496.0,520.0
501.0,496.0,505.0,498.0,510.0
504.0,500.0,511.0,501.0,524.0
506.0,501.0,517.0,502.0,519.0
513.0,501.0,516.0,502.0,518.0
520.0,504.0,520.0,511.0,494.0
527.0,510.0,525.0,523.0,486.0
537.0,515.0,530.0,530.0,484.0
540.0,519.0,533.0,534.0,485.0
539.0,520.0,531.0,537.0,487.0
531.0,518.0,526.0,534.0,515.0
525.0,514.0,518.0,527.0,524.0
513.0,507.0,510.0,522.0,530.0
498.0,498.0,498.0,505.0,537.0
496.0,495.0,495.0,500.0,527.0
493.0,494.0,496.0,498.0,519.0
496.0,493.0,498.0,496.0,515.0
495.0,494.0,501.0,497.0,519.0
502.0,498.0,509.0,503.0,516.0
503.0,498.0,511.0,503.0,515.0
509.0,501.0,515.0,507.0,515.0
517.0,503.0,519.0,512.0,512.0
524.0,509.0,525.0,519.0,514.0
531.0,514.0,529.0,527.0,510.0
537.0,520.0,534.0,534.0,508.0
539.0,521.0,538.0,542.0,505.0
538.0,522.0,532.0,538.0,507.0
529.0,517.0,524.0,531.0,519.0
518.0,511.0,515.0,524.0,522.0
501.0,501.0,502.0,511.0,533.0
493.0,494.0,494.0,500.0,542.0
490.0,494.0,495.0,499.0,543.0
492.0,494.0,497.0,499.0,526.0
500.0,495.0,501.0,501.0,502.0
503.0,495.0,503.0,500.0,495.0
505.0,498.0,508.0,504.0,493.0
508.0,499.0,512.0,508.0,507.0
513.0,501.0,515.0,507.0,505.0
517.0,506.0,522.0,516.0,510.0
528.0,510.0,526.0,522.0,507.0
532.0,518.0,529.0,529.0,499.0
536.0,519.0,533.0,536.0,499.0
539.0,521.0,532.0,538.0,504.0
537.0,522.0,529.0,538.0,507.0
532.0,516.0,522.0,531.0,509.0
518.0,514.0,519.0,525.0,520.0
494.0,498.0,501.0,512.0,528.0
490.0,497.0,497.0,503.0,526.0
493.0,493.0,496.0,496.0,526.0
491.0,496.0,499.0,497.0,521.0
496.0,495.0,500.0,497.0,514.0
502.0,496.0,505.0,500.0,502.0
510.0,499.0,511.0,504.0,499.0
509.0,497.0,509.0,503.0,497.0
511.0,501.0,518.0,511.0,499.0
519.0,506.0,523.0,518.0,497.0
529.0,510.0,530.0,527.0,509.0
531.0,515.0,531.0,530.0,506.0
539.0,521.0,534.0,536.0,507.0
537.0,521.0,531.0,536.0,510.0
530.0,518.0,525.0,533.0,509.0
522.0,516.0,516.0,526.0,513.0
511.0,505.0,507.0,516.0,524.0
502.0,500.0,499.0,506.0,531.0
496.0,497.0,496.0,500.0,528.0
499.0,495.0,495.0,496.0,527.0
499.0,494.0,496.0,495.0,519.0
497.0,496.0,501.0,497.0,524.0
498.0,496.0,505.0,500.0,514.0
502.0,501.0,513.0,506.0,509.0
502.0,501.0,513.0,506.0,508.0
515.0,506.0,521.0,514.0,506.0
524.0,511.0,525.0,521.0,504.0
531.0,515.0,529.0,526.0,503.0
537.0,521.0,534.0,533.0,495.0
540.0,524.0,533.0,537.0,497.0
541.0,521.0,530.0,537.0,505.0
528.0,515.0,522.0,535.0,511.0
521.0,518.0,518.0,527.0,511.0
507.0,501.0,504.0,512.0,527.0
492.0,499.0,499.0,503.0,552.0
488.0,494.0,494.0,497.0,539.0
493.0,494.0,496.0,493.0,520.0
493.0,492.0,497.0,493.0,513.0
497.0,493.0,501.0,496.0,514.0
504.0,498.0,509.0,502.0,513.0
507.0,496.0,511.0,506.0,522.0
509.0,502.0,516.0,505.0,524.0
516.0,505.0,521.0,511.0,518.0
522.0,508.0,523.0,517.0,514.0
532.0,514.0,533.0,528.0,507.0
536.0,520.0,532.0,533.0,509.0
537.0,521.0,531.0,535.0,514.0
541.0,520.0,528.0,537.0,510.0
528.0,515.0,521.0,528.0,520.0
521.0,512.0,516.0,524.0,521.0
505.0,500.0,502.0,508.0,527.0
494.0,495.0,493.0,498.0,526.0
494.0,493.0,494.0,493.0,524.0
496.0,494.0,493.0,494.0,518.0
493.0,494.0,499.0,495.0,510.0
499.0,498.0,506.0,499.0,511.0
505.0,499.0,510.0,503.0,510.0
507.0,502.0,510.0,504.0,507.0
514.0,504.0,519.0,510.0,511.0
522.0,509.0,525.0,519.0,513.0
529.0,510.0,525.0,522.0,507.0
535.0,518.0,531.0,530.0,503.0
530.0,523.0,533.0,536.0,498.0
527.0,520.0,531.0,534.0,502.0
524.0,518.0,525.0,532.0,503.0
519.0,518.0,520.0,530.0,506.0
507.0,508.0,506.0,519.0,511.0
497.0,502.0,502.0,507.0,518.0
495.0,496.0,495.0,498.0,518.0
493.0,494.0,495.0,494.0,514.0
494.0,494.0,497.0,495.0,513.0
496.0,493.0,498.0,493.0,518.0
501.0,498.0,507.0,500.0,514.0
512.0,499.0,511.0,503.0,513.0
510.0,500.0,514.0,505.0,511.0
517.0,504.0,519.0,512.0,513.0
523.0,509.0,525.0,519.0,507.0
530.0,513.0,530.0,527.0,504.0
534.0,516.0,530.0,530.0,501.0
536.0,521.0,534.0,536.0,501.0
536.0,523.0,531.0,537.0,502.0
526.0,515.0,520.0,531.0,510.0
518.0,512.0,517.0,524.0,518.0
504.0,502.0,503.0,510.0,529.0
495.0,498.0,497.0,502.0,535.0
490.0,495.0,496.0,497.0,535.0
490.0,494.0,496.0,495.0,528.0
495.0,495.0,498.0,494.0,520.0
503.0,500.0,506.0,499.0,521.0
505.0,499.0,508.0,499.0,513.0
504.0,500.0,511.0,499.0,514.0
509.0,502.0,520.0,506.0,514.0
517.0,503.0,519.0,512.0,516.0
530.0,511.0,528.0,525.0,519.0
533.0,516.0,530.0,529.0,498.0
537.0,519.0,533.0,534.0,487.0
538.0,518.0,531.0,534.0,492.0
536.0,520.0,530.0,535.0,492.0
526.0,515.0,521.0,528.0,499.0
519.0,510.0,516.0,526.0,505.0
500.0,500.0,501.0,507.0,516.0
497.0,496.0,497.0,501.0,520.0
495.0,496.0,498.0,498.0,518.0
496.0,495.0,498.0,496.0,514.0
502.0,494.0,500.0,493.0,514.0
505.0,498.0,507.0,498.0,513.0
507.0,503.0,515.0,499.0,526.0
506.0,499.0,512.0,500.0,525.0
517.0,503.0,519.0,508.0,526.0
521.0,506.0,522.0,513.0,517.0
528.0,513.0,529.0,525.0,491.0
535.0,518.0,532.0,530.0,493.0
541.0,522.0,536.0,536.0,497.0
537.0,520.0,530.0,534.0,496.0
531.0,514.0,525.0,529.0,513.0
525.0,518.0,519.0,526.0,513.0
512.0,505.0,507.0,515.0,514.0
498.0,499.0,500.0,505.0,514.0
492.0,499.0,500.0,501.0,515.0
488.0,493.0,496.0,495.0,517.0
493.0,495.0,499.0,496.0,513.0
496.0,494.0,499.0,491.0,517.0
504.0,499.0,508.0,496.0,517.0
501.0,498.0,510.0,501.0,504.0
510.0,501.0,515.0,504.0,502.0
511.0,505.0,521.0,511.0,505.0
522.0,509.0,529.0,523.0,505.0
529.0,514.0,529.0,526.0,512.0
536.0,518.0,533.0,531.0,509.0
542.0,523.0,534.0,536.0,507.0
539.0,522.0,531.0,536.0,508.0
529.0,516.0,522.0,530.0,515.0
518.0,509.0,518.0,525.0,520.0
498.0,501.0,502.0,510.0,527.0
490.0,497.0,497.0,505.0,518.0
491.0,498.0,497.0,501.0,516.0
492.0,495.0,498.0,498.0,516.0
497.0,495.0,500.0,495.0,517.0
499.0,497.0,503.0,500.0,513.0
504.0,499.0,509.0,502.0,512.0
508.0,502.0,512.0,506.0,516.0
509.0,501.0,515.0,506.0,515.0
517.0,505.0,520.0,513.0,514.0
526.0,508.0,524.0,520.0,508.0
531.0,516.0,530.0,529.0,504.0
536.0,519.0,532.0,534.0,501.0
536.0,520.0,531.0,536.0,501.0
536.0,522.0,529.0,536.0,506.0
524.0,516.0,520.0,528.0,513.0
515.0,516.0,517.0,524.0,520.0
498.0,500.0,501.0,509.0,527.0
493.0,495.0,493.0,500.0,528.0
496.0,496.0,494.0,495.0,527.0
497.0,495.0,496.0,494.0,518.0
497.0,495.0,500.0,496.0,512.0
502.0,498.0,506.0,500.0,508.0
508.0,501.0,510.0,503.0,510.0
508.0,499.0,508.0,506.0,519.0
514.0,503.0,518.0,511.0,514.0
527.0,507.0,523.0,517.0,519.0
526.0,511.0,527.0,523.0,520.0
532.0,518.0,533.0,532.0,515.0
541.0,522.0,536.0,541.0,506.0
532.0,520.0,531.0,536.0,506.0
527.0,517.0,525.0,531.0,514.0
515.0,513.0,518.0,525.0,528.0
502.0,504.0,507.0,515.0,537.0
492.0,497.0,500.0,507.0,537.0
489.0,495.0,496.0,500.0,526.0
498.0,498.0,497.0,498.0,509.0
499.0,493.0,498.0,497.0,498.0
499.0,492.0,499.0,499.0,504.0
503.0,495.0,507.0,500.0,503.0
505.0,497.0,513.0,503.0,501.0
507.0,501.0,513.0,509.0,515.0
513.0,500.0,517.0,511.0,510.0
521.0,506.0,523.0,517.0,505.0
529.0,512.0,528.0,524.0,491.0
540.0,519.0,533.0,533.0,493.0
542.0,518.0,532.0,539.0,501.0
533.0,517.0,527.0,534.0,500.0
526.0,512.0,520.0,527.0,504.0
519.0,509.0,515.0,524.0,514.0
505.0,502.0,504.0,512.0,525.0
500.0,494.0,496.0,501.0,526.0
493.0,492.0,493.0,497.0,522.0
498.0,492.0,495.0,494.0,525.0
497.0,490.0,499.0,500.0,513.0
501.0,494.0,502.0,497.0,500.0
508.0,499.0,510.0,503.0,513.0
510.0,498.0,511.0,504.0,514.0
515.0,500.0,517.0,509.0,517.0
518.0,503.0,520.0,513.0,515.0
524.0,512.0,530.0,520.0,516.0
534.0,516.0,532.0,530.0,502.0
539.0,517.0,532.0,533.0,496.0
539.0,518.0,530.0,536.0,495.0
536.0,519.0,528.0,535.0,497.0
527.0,513.0,519.0,528.0,504.0
519.0,512.0,516.0,522.0,511.0
504.0,499.0,501.0,508.0,529.0
495.0,495.0,499.0,500.0,527.0
494.0,494.0,496.0,498.0,520.0
496.0,499.0,504.0,498.0,518.0
494.0,492.0,499.0,500.0,513.0
501.0,497.0,507.0,500.0,514.0
504.0,499.0,512.0,501.0,527.0
507.0,499.0,517.0,504.0,508.0
517.0,502.0,519.0,511.0,504.0
522.0,508.0,526.0,519.0,509.0
528.0,510.0,530.0,527.0,509.0
533.0,517.0,532.0,531.0,511.0
538.0,520.0,534.0,534.0,522.0
536.0,518.0,530.0,534.0,514.0
532.0,517.0,526.0,533.0,514.0
528.0,511.0,519.0,527.0,511.0
510.0,500.0,503.0,510.0,526.0
500.0,496.0,497.0,503.0,526.0
499.0,499.0,501.0,505.0,495.0
496.0,493.0,495.0,493.0,503.0
494.0,491.0,495.0,492.0,508.0
496.0,493.0,501.0,494.0,513.0
503.0,496.0,507.0,501.0,495.0
507.0,499.0,513.0,504.0,510.0
509.0,499.0,514.0,504.0,533.0
512.0,503.0,520.0,510.0,548.0
522.0,510.0,527.0,520.0,543.0
526.0,513.0,529.0,525.0,522.0
534.0,520.0,532.0,531.0,487.0
541.0,519.0,533.0,536.0,490.0
535.0,524.0,530.0,540.0,503.0
525.0,515.0,524.0,530.0,500.0
518.0,512.0,518.0,525.0,520.0
501.0,502.0,504.0,511.0,538.0
494.0,496.0,498.0,502.0,530.0
493.0,495.0,497.0,499.0,531.0
494.0,495.0,499.0,497.0,526.0
496.0,493.0,499.0,495.0,518.0
500.0,493.0,502.0,496.0,512.0
505.0,496.0,507.0,503.0,510.0
507.0,498.0,515.0,504.0,512.0
511.0,503.0,521.0,507.0,501.0
520.0,505.0,523.0,514.0,508.0
529.0,508.0,525.0,520.0,513.0
532.0,514.0,532.0,527.0,512.0
539.0,521.0,537.0,535.0,507.0
535.0,520.0,534.0,536.0,512.0
534.0,519.0,529.0,534.0,516.0
522.0,514.0,521.0,527.0,516.0
514.0,511.0,519.0,524.0,518.0
496.0,497.0,500.0,506.0,523.0
488.0,494.0,494.0,499.0,521.0
493.0,494.0,496.0,496.0,517.0
494.0,495.0,500.0,496.0,519.0
494.0,494.0,501.0,494.0,522.0
503.0,495.0,505.0,497.0,519.0
501.0,499.0,512.0,503.0,521.0
507.0,499.0,513.0,502.0,512.0
515.0,502.0,519.0,508.0,505.0
520.0,506.0,524.0,517.0,494.0
526.0,513.0,531.0,529.0,499.0
532.0,516.0,531.0,531.0,492.0
540.0,522.0,535.0,538.0,504.0
534.0,519.0,529.0,535.0,504.0
536.0,519.0,527.0,533.0,507.0
526.0,519.0,525.0,527.0,514.0
509.0,504.0,506.0,514.0,525.0
496.0,496.0,497.0,504.0,526.0
492.0,494.0,496.0,498.0,526.0
491.0,492.0,498.0,494.0,523.0
494.0,495.0,498.0,496.0,517.0
499.0,494.0,502.0,497.0,518.0
503.0,500.0,511.0,499.0,518.0
510.0,500.0,512.0,503.0,516.0
510.0,501.0,513.0,504.0,505.0
523.0,504.0,520.0,513.0,506.0
522.0,513.0,518.0,525.0,514.0
513.0,509.0,510.0,522.0,525.0
501.0,501.0,500.0,506.0,533.0
493.0,496.0,496.0,501.0,523.0
499.0,497.0,498.0,503.0,520.0
498.0,497.0,500.0,500.0,520.0
499.0,496.0,501.0,499.0,516.0
506.0,502.0,509.0,505.0,515.0
506.0,501.0,513.0,506.0,516.0
508.0,502.0,513.0,510.0,522.0
511.0,503.0,519.0,511.0,516.0
519.0,508.0,524.0,518.0,512.0
525.0,511.0,527.0,524.0,508.0
533.0,516.0,530.0,529.0,500.0
539.0,522.0,533.0,535.0,497.0
533.0,519.0,529.0,533.0,503.0
528.0,516.0,522.0,529.0,508.0
520.0,514.0,518.0,525.0,513.0
508.0,505.0,512.0,516.0,520.0
496.0,498.0,499.0,503.0,526.0
493.0,497.0,497.0,502.0,526.0
495.0,497.0,499.0,501.0,526.0
504.0,497.0,501.0,500.0,524.0
501.0,498.0,504.0,501.0,525.0
508.0,501.0,510.0,505.0,524.0
507.0,501.0,513.0,507.0,513.0
509.0,502.0,515.0,507.0,518.0
515.0,503.0,519.0,511.0,509.0
524.0,510.0,524.0,518.0,497.0
531.0,514.0,528.0,523.0,498.0
536.0,516.0,529.0,528.0,499.0
537.0,521.0,530.0,532.0,502.0
534.0,520.0,529.0,535.0,500.0
526.0,515.0,521.0,529.0,505.0
513.0,510.0,515.0,523.0,516.0
500.0,501.0,504.0,514.0,525.0
499.0,497.0,497.0,505.0,525.0
489.0,495.0,499.0,500.0,523.0
494.0,496.0,498.0,500.0,516.0
498.0,497.0,500.0,496.0,514.0
503.0,497.0,504.0,499.0,514.0
506.0,502.0,513.0,504.0,513.0
509.0,502.0,514.0,506.0,514.0
509.0,501.0,515.0,507.0,525.0
516.0,505.0,520.0,512.0,506.0
524.0,509.0,524.0,519.0,507.0
534.0,516.0,529.0,526.0,511.0
535.0,519.0,532.0,532.0,507.0
531.0,518.0,528.0,531.0,508.0
529.0,521.0,525.0,532.0,504.0
520.0,515.0,520.0,525.0,515.0
512.0,512.0,515.0,520.0,512.0
497.0,502.0,501.0,508.0,515.0
500.0,497.0,496.0,503.0,519.0
494.0,497.0,496.0,499.0,520.0
499.0,496.0,498.0,498.0,518.0
503.0,499.0,502.0,499.0,522.0
505.0,497.0,508.0,505.0,511.0
510.0,503.0,514.0,507.0,509.0
510.0,503.0,514.0,506.0,509.0
510.0,504.0,518.0,510.0,507.0
517.0,505.0,521.0,515.0,509.0
521.0,511.0,526.0,522.0,519.0
528.0,515.0,528.0,525.0,521.0
533.0,523.0,533.0,532.0,512.0
531.0,520.0,531.0,537.0,504.0
529.0,521.0,528.0,536.0,504.0
523.0,513.0,517.0,523.0,509.0
511.0,505.0,508.0,517.0,510.0
502.0,504.0,499.0,508.0,504.0
495.0,496.0,495.0,503.0,508.0
494.0,499.0,499.0,500.0,516.0
499.0,500.0,501.0,500.0,515.0
501.0,497.0,503.0,500.0,520.0
507.0,503.0,508.0,508.0,518.0
509.0,502.0,514.0,506.0,515.0
511.0,501.0,512.0,506.0,513.0
515.0,504.0,519.0,512.0,512.0
525.0,510.0,526.0,519.0,513.0
528.0,510.0,526.0,526.0,506.0
532.0,516.0,530.0,529.0,505.0
534.0,524.0,535.0,533.0,507.0
538.0,520.0,529.0,533.0,508.0
524.0,514.0,520.0,525.0,521.0
520.0,512.0,517.0,524.0,512.0
503.0,501.0,502.0,512.0,521.0
495.0,500.0,500.0,503.0,525.0
494.0,495.0,495.0,499.0,526.0
496.0,496.0,497.0,499.0,523.0
500.0,498.0,502.0,500.0,523.0
503.0,498.0,504.0,500.0,520.0
510.0,502.0,512.0,505.0,520.0
509.0,502.0,513.0,506.0,518.0
510.0,502.0,516.0,509.0,513.0
516.0,505.0,520.0,514.0,514.0
529.0,511.0,525.0,520.0,510.0
532.0,515.0,528.0,526.0,508.0
534.0,517.0,530.0,531.0,503.0
536.0,519.0,530.0,532.0,509.0
529.0,522.0,531.0,535.0,509.0
518.0,515.0,523.0,525.0,509.0
510.0,507.0,511.0,516.0,515.0
496.0,500.0,500.0,506.0,527.0
491.0,499.0,497.0,500.0,527.0
496.0,497.0,497.0,499.0,523.0
500.0,496.0,498.0,498.0,512.0
499.0,501.0,501.0,499.0,516.0
505.0,499.0,507.0,503.0,507.0
513.0,502.0,513.0,505.0,506.0
516.0,503.0,515.0,506.0,510.0
513.0,503.0,518.0,509.0,509.0
521.0,508.0,524.0,517.0,508.0
524.0,513.0,530.0,525.0,506.0
531.0,516.0,530.0,529.0,504.0
533.0,518.0,531.0,531.0,503.0
533.0,519.0,527.0,533.0,508.0
529.0,521.0,524.0,532.0,513.0
523.0,512.0,517.0,524.0,513.0
509.0,506.0,508.0,515.0,519.0
500.0,499.0,499.0,506.0,526.0
495.0,497.0,494.0,497.0,526.0
497.0,498.0,498.0,498.0,526.0
499.0,498.0,500.0,499.0,524.0
502.0,498.0,503.0,499.0,526.0
513.0,502.0,510.0,503.0,524.0
508.0,500.0,512.0,503.0,527.0
509.0,502.0,515.0,507.0,516.0
510.0,504.0,519.0,511.0,506.0
519.0,509.0,524.0,517.0,512.0
524.0,512.0,526.0,524.0,507.0
530.0,517.0,530.0,529.0,505.0
530.0,519.0,531.0,534.0,500.0
529.0,519.0,530.0,535.0,495.0
524.0,517.0,523.0,530.0,497.0
517.0,516.0,518.0,523.0,503.0
505.0,503.0,504.0,512.0,519.0
494.0,496.0,497.0,503.0,522.0
492.0,496.0,497.0,501.0,524.0
494.0,497.0,500.0,499.0,518.0
498.0,496.0,500.0,497.0,522.0
503.0,498.0,506.0,501.0,521.0
506.0,500.0,511.0,503.0,520.0
509.0,502.0,515.0,505.0,526.0
507.0,501.0,514.0,506.0,523.0
513.0,504.0,520.0,510.0,503.0
524.0,508.0,523.0,521.0,494.0
532.0,513.0,529.0,527.0,495.0
539.0,519.0,533.0,535.0,488.0
534.0,517.0,532.0,534.0,484.0
530.0,517.0,527.0,533.0,494.0
523.0,513.0,519.0,525.0,503.0
514.0,510.0,514.0,521.0,515.0
496.0,498.0,500.0,508.0,519.0
492.0,495.0,496.0,501.0,527.0
489.0,494.0,495.0,504.0,520.0
497.0,497.0,501.0,500.0,515.0
499.0,498.0,502.0,499.0,515.0
508.0,502.0,510.0,504.0,510.0
511.0,507.0,519.0,508.0,500.0
507.0,501.0,515.0,508.0,500.0
512.0,501.0,517.0,509.0,520.0
519.0,507.0,523.0,517.0,517.0
526.0,509.0,525.0,522.0,510.0
532.0,515.0,530.0,527.0,507.0
536.0,515.0,531.0,531.0,505.0
535.0,518.0,532.0,537.0,511.0
530.0,518.0,526.0,533.0,509.0
521.0,511.0,516.0,531.0,513.0
509.0,505.0,508.0,519.0,512.0
503.0,499.0,503.0,505.0,528.0
499.0,497.0,496.0,498.0,529.0
493.0,494.0,495.0,496.0,522.0
497.0,497.0,500.0,499.0,517.0
500.0,496.0,503.0,500.0,517.0
504.0,503.0,512.0,503.0,517.0
506.0,506.0,518.0,507.0,521.0
512.0,501.0,513.0,505.0,522.0
514.0,502.0,517.0,509.0,522.0
521.0,508.0,523.0,517.0,513.0
525.0,514.0,529.0,525.0,503.0
537.0,517.0,530.0,530.0,488.0
538.0,520.0,537.0,535.0,489.0
536.0,519.0,528.0,533.0,496.0
530.0,515.0,520.0,525.0,505.0
520.0,510.0,514.0,520.0,518.0
502.0,501.0,502.0,509.0,534.0
491.0,498.0,498.0,504.0,529.0
493.0,496.0,496.0,500.0,520.0
494.0,494.0,496.0,497.0,515.0
497.0,496.0,499.0,498.0,517.0
502.0,500.0,507.0,501.0,513.0
508.0,501.0,510.0,503.0,515.0
511.0,502.0,514.0,505.0,516.0
508.0,500.0,514.0,506.0,519.0
517.0,506.0,521.0,513.0,517.0
526.0,509.0,524.0,520.0,507.0
532.0,515.0,530.0,527.0,501.0
534.0,516.0,529.0,531.0,500.0
536.0,520.0,530.0,533.0,511.0
532.0,519.0,527.0,530.0,511.0
521.0,512.0,516.0,523.0,519.0
516.0,509.0,512.0,519.0,526.0
500.0,498.0,499.0,510.0,527.0
491.0,496.0,495.0,501.0,518.0
493.0,496.0,497.0,501.0,513.0
500.0,498.0,499.0,501.0,513.0
499.0,497.0,502.0,501.0,511.0
503.0,501.0,508.0,504.0,511.0
509.0,503.0,513.0,506.0,517.0
509.0,501.0,513.0,504.0,517.0
509.0,504.0,518.0,510.0,520.0
517.0,510.0,522.0,516.0,511.0
526.0,510.0,525.0,521.0,503.0
532.0,517.0,530.0,529.0,499.0
534.0,519.0,531.0,533.0,496.0
535.0,518.0,527.0,532.0,497.0
531.0,518.0,524.0,531.0,500.0
523.0,515.0,519.0,526.0,506.0
510.0,507.0,512.0,516.0,511.0
497.0,500.0,500.0,507.0,521.0
490.0,495.0,495.0,500.0,520.0
492.0,497.0,497.0,499.0,517.0
495.0,497.0,500.0,499.0,521.0
498.0,496.0,501.0,498.0,518.0
507.0,502.0,510.0,505.0,518.0
507.0,503.0,512.0,510.0,517.0
515.0,503.0,516.0,508.0,521.0
517.0,504.0,520.0,512.0,516.0
521.0,511.0,521.0,522.0,507.0
530.0,511.0,526.0,523.0,503.0
533.0,516.0,530.0,528.0,507.0
541.0,521.0,533.0,534.0,511.0
533.0,520.0,529.0,534.0,511.0
526.0,518.0,524.0,529.0,523.0
517.0,512.0,516.0,521.0,529.0
503.0,502.0,503.0,508.0,542.0
497.0,497.0,495.0,501.0,529.0
491.0,491.0,493.0,502.0,514.0
496.0,497.0,500.0,502.0,515.0
496.0,497.0,500.0,500.0,516.0
499.0,498.0,505.0,502.0,525.0
503.0,501.0,511.0,506.0,510.0
506.0,502.0,514.0,509.0,484.0
503.0,501.0,515.0,510.0,504.0
515.0,501.0,517.0,518.0,505.0
521.0,509.0,524.0,518.0,492.0
531.0,514.0,528.0,526.0,483.0
534.0,519.0,532.0,531.0,506.0
532.0,518.0,529.0,533.0,510.0
535.0,518.0,526.0,532.0,501.0
526.0,514.0,519.0,527.0,505.0
517.0,510.0,514.0,521.0,506.0
505.0,502.0,503.0,509.0,509.0
497.0,496.0,495.0,503.0,518.0
497.0,497.0,498.0,500.0,529.0
502.0,498.0,500.0,496.0,536.0
500.0,498.0,502.0,498.0,528.0
509.0,500.0,507.0,501.0,516.0
512.0,506.0,516.0,509.0,516.0
513.0,501.0,514.0,504.0,514.0
520.0,502.0,517.0,510.0,507.0
523.0,507.0,523.0,516.0,500.0
528.0,511.0,526.0,522.0,500.0
533.0,516.0,529.0,528.0,499.0
536.0,523.0,536.0,536.0,501.0
530.0,522.0,530.0,533.0,507.0
521.0,517.0,524.0,529.0,512.0
516.0,514.0,520.0,525.0,505.0
508.0,507.0,510.0,517.0,516.0
498.0,499.0,499.0,506.0,530.0
496.0,496.0,497.0,500.0,530.0
494.0,494.0,497.0,499.0,537.0
498.0,497.0,503.0,497.0,537.0
497.0,498.0,502.0,497.0,522.0
504.0,502.0,511.0,505.0,511.0
507.0,501.0,514.0,506.0,507.0
508.0,501.0,514.0,507.0,504.0
516.0,504.0,520.0,513.0,503.0
524.0,509.0,525.0,518.0,507.0
527.0,513.0,528.0,523.0,510.0
532.0,521.0,535.0,535.0,504.0
535.0,519.0,532.0,534.0,494.0
533.0,520.0,531.0,535.0,497.0
524.0,520.0,526.0,533.0,503.0
516.0,515.0,522.0,524.0,509.0
503.0,502.0,505.0,511.0,520.0
497.0,501.0,503.0,504.0,523.0
493.0,494.0,497.0,499.0,519.0
497.0,495.0,497.0,500.0,518.0
498.0,496.0,501.0,499.0,513.0
502.0,498.0,504.0,500.0,514.0
506.0,501.0,510.0,504.0,519.0
510.0,500.0,514.0,505.0,523.0
505.0,501.0,516.0,506.0,524.0
514.0,506.0,523.0,515.0,519.0
521.0,511.0,527.0,521.0,517.0
528.0,516.0,530.0,526.0,514.0
530.0,516.0,531.0,530.0,508.0
532.0,518.0,529.0,532.0,499.0
534.0,519.0,528.0,533.0,493.0
525.0,517.0,519.0,525.0,508.0
517.0,509.0,513.0,519.0,509.0
503.0,500.0,501.0,508.0,518.0
498.0,495.0,494.0,500.0,525.0
492.0,496.0,496.0,499.0,521.0
496.0,496.0,501.0,500.0,523.0
495.0,495.0,500.0,497.0,517.0
503.0,501.0,509.0,505.0,513.0
505.0,502.0,512.0,506.0,515.0
514.0,505.0,515.0,507.0,518.0
513.0,503.0,517.0,509.0,521.0
524.0,508.0,524.0,517.0,519.0
525.0,509.0,525.0,521.0,516.0
531.0,516.0,530.0,527.0,509.0
533.0,518.0,531.0,532.0,493.0
535.0,517.0,528.0,533.0,498.0
533.0,518.0,526.0,533.0,506.0
520.0,516.0,518.0,527.0,496.0
508.0,506.0,510.0,520.0,517.0
500.0,499.0,500.0,509.0,527.0
491.0,496.0,498.0,502.0,524.0
493.0,494.0,496.0,496.0,521.0
497.0,496.0,500.0,499.0,521.0
496.0,501.0,508.0,504.0,515.0
504.0,501.0,506.0,503.0,502.0
510.0,502.0,513.0,507.0,505.0
510.0,502.0,515.0,508.0,509.0
513.0,507.0,522.0,510.0,504.0
520.0,507.0,521.0,515.0,508.0
523.0,510.0,528.0,522.0,515.0
534.0,516.0,533.0,532.0,502.0
535.0,520.0,532.0,534.0,495.0
533.0,520.0,529.0,533.0,499.0
527.0,515.0,527.0,530.0,504.0
519.0,511.0,514.0,524.0,521.0
507.0,501.0,502.0,511.0,529.0
496.0,497.0,495.0,501.0,537.0
496.0,494.0,494.0,495.0,535.0
496.0,496.0,496.0,495.0,521.0
500.0,497.0,500.0,497.0,516.0
503.0,497.0,503.0,499.0,512.0
505.0,502.0,511.0,505.0,506.0
506.0,501.0,513.0,506.0,506.0
509.0,502.0,514.0,507.0,514.0
515.0,505.0,519.0,513.0,510.0
524.0,509.0,524.0,519.0,506.0
530.0,513.0,527.0,525.0,503.0
534.0,516.0,529.0,530.0,499.0
535.0,519.0,531.0,533.0,503.0
530.0,518.0,526.0,533.0,499.0
523.0,515.0,520.0,527.0,507.0
518.0,510.0,514.0,521.0,513.0
499.0,499.0,500.0,508.0,523.0
497.0,496.0,496.0,503.0,522.0
496.0,495.0,496.0,500.0,525.0
495.0,497.0,498.0,499.0,528.0
499.0,498.0,502.0,499.0,527.0
504.0,499.0,507.0,503.0,514.0
509.0,503.0,513.0,504.0,528.0
509.0,504.0,515.0,504.0,522.0
511.0,504.0,518.0,509.0,523.0
517.0,506.0,520.0,514.0,507.0
522.0,509.0,524.0,520.0,510.0
530.0,515.0,529.0,528.0,506.0
533.0,518.0,531.0,533.0,496.0
532.0,519.0,529.0,534.0,493.0
527.0,518.0,525.0,532.0,486.0
519.0,514.0,519.0,527.0,503.0
511.0,510.0,508.0,520.0,515.0
499.0,502.0,498.0,510.0,527.0
493.0,495.0,493.0,505.0,523.0
496.0,495.0,496.0,498.0,523.0
500.0,498.0,500.0,499.0,523.0
500.0,496.0,501.0,498.0,517.0
506.0,502.0,508.0,505.0,515.0
511.0,503.0,513.0,508.0,514.0
509.0,502.0,514.0,508.0,512.0
516.0,503.0,518.0,512.0,506.0
521.0,507.0,521.0,518.0,500.0
526.0,510.0,524.0,523.0,497.0
530.0,514.0,526.0,527.0,497.0
532.0,518.0,531.0,534.0,497.0
533.0,519.0,528.0,533.0,502.0
527.0,517.0,523.0,530.0,509.0
519.0,512.0,516.0,523.0,523.0
504.0,503.0,503.0,509.0,541.0
499.0,498.0,498.0,505.0,531.0
493.0,497.0,496.0,500.0,527.0
497.0,497.0,498.0,499.0,526.0
499.0,496.0,498.0,499.0,518.0
504.0,499.0,505.0,500.0,520.0
509.0,502.0,511.0,505.0,519.0
509.0,501.0,513.0,503.0,518.0
509.0,505.0,514.0,506.0,519.0
514.0,502.0,518.0,513.0,516.0
522.0,513.0,527.0,525.0,506.0
529.0,514.0,530.0,530.0,499.0
534.0,519.0,532.0,531.0,500.0
534.0,518.0,528.0,534.0,498.0
532.0,518.0,524.0,530.0,498.0
526.0,514.0,519.0,525.0,505.0
519.0,511.0,514.0,520.0,512.0
505.0,503.0,504.0,512.0,524.0
496.0,494.0,492.0,499.0,522.0
492.0,495.0,495.0,499.0,529.0
497.0,498.0,499.0,500.0,524.0
499.0,496.0,500.0,499.0,513.0
504.0,500.0,507.0,503.0,516.0
505.0,502.0,511.0,504.0,520.0
508.0,501.0,512.0,505.0,505.0
510.0,506.0,519.0,512.0,515.0
514.0,505.0,520.0,513.0,511.0
520.0,510.0,525.0,521.0,506.0
527.0,515.0,530.0,527.0,499.0
533.0,517.0,531.0,530.0,495.0
530.0,516.0,528.0,531.0,503.0
531.0,518.0,525.0,531.0,506.0
518.0,512.0,518.0,525.0,494.0
517.0,508.0,511.0,520.0,506.0
499.0,497.0,499.0,506.0,526.0
496.0,497.0,497.0,500.0,532.0
496.0,496.0,497.0,498.0,525.0
497.0,497.0,499.0,498.0,521.0
500.0,497.0,502.0,496.0,523.0
505.0,501.0,508.0,502.0,520.0
509.0,501.0,513.0,504.0,517.0
511.0,505.0,517.0,507.0,522.0
515.0,504.0,519.0,510.0,520.0
520.0,507.0,524.0,516.0,513.0
524.0,511.0,526.0,525.0,506.0
530.0,515.0,529.0,527.0,505.0
535.0,518.0,531.0,531.0,490.0
534.0,519.0,529.0,534.0,490.0
527.0,519.0,523.0,529.0,503.0
519.0,512.0,517.0,523.0,510.0
507.0,506.0,505.0,513.0,520.0
499.0,502.0,502.0,507.0,525.0
497.0,496.0,498.0,499.0,533.0
493.0,496.0,497.0,497.0,527.0
498.0,496.0,501.0,499.0,520.0
504.0,496.0,503.0,499.0,514.0
506.0,501.0,510.0,506.0,512.0
509.0,502.0,513.0,510.0,501.0
513.0,502.0,517.0,509.0,509.0
513.0,504.0,518.0,513.0,513.0
518.0,509.0,526.0,522.0,508.0
526.0,516.0,528.0,529.0,508.0
536.0,518.0,530.0,530.0,506.0
538.0,517.0,529.0,530.0,509.0
533.0,518.0,526.0,530.0,507.0
524.0,514.0,520.0,525.0,516.0
518.0,511.0,516.0,521.0,522.0
498.0,502.0,501.0,507.0,528.0
491.0,496.0,497.0,503.0,525.0
493.0,495.0,497.0,501.0,529.0
495.0,495.0,499.0,500.0,519.0
504.0,498.0,503.0,501.0,516.0
502.0,502.0,508.0,501.0,505.0
508.0,502.0,512.0,506.0,501.0
511.0,502.0,512.0,512.0,505.0
513.0,503.0,518.0,511.0,500.0
516.0,504.0,520.0,514.0,497.0
518.0,509.0,524.0,520.0,499.0
524.0,515.0,529.0,526.0,500.0
536.0,519.0,531.0,529.0,505.0
538.0,517.0,527.0,529.0,506.0
530.0,514.0,526.0,534.0,507.0
520.0,513.0,518.0,524.0,507.0
510.0,509.0,513.0,518.0,528.0
499.0,500.0,502.0,506.0,537.0
493.0,493.0,493.0,498.0,517.0
496.0,496.0,498.0,500.0,519.0
497.0,497.0,501.0,499.0,529.0
497.0,498.0,505.0,499.0,532.0
508.0,502.0,510.0,502.0,521.0
507.0,498.0,511.0,507.0,515.0
508.0,501.0,511.0,505.0,514.0
511.0,502.0,518.0,509.0,509.0
520.0,508.0,525.0,518.0,504.0
524.0,509.0,525.0,522.0,504.0
531.0,517.0,532.0,527.0,506.0
536.0,519.0,533.0,534.0,494.0
532.0,519.0,529.0,535.0,493.0
528.0,516.0,523.0,529.0,506.0
520.0,513.0,518.0,525.0,513.0
503.0,502.0,503.0,517.0,532.0
493.0,496.0,497.0,503.0,525.0
496.0,495.0,496.0,499.0,522.0
493.0,500.0,497.0,499.0,511.0
496.0,496.0,500.0,499.0,508.0
499.0,497.0,503.0,498.0,513.0
510.0,502.0,510.0,504.0,511.0
509.0,505.0,512.0,506.0,509.0
505.0,499.0,511.0,511.0,511.0
511.0,504.0,519.0,513.0,507.0
519.0,509.0,524.0,520.0,505.0
524.0,513.0,527.0,525.0,501.0
534.0,518.0,530.0,531.0,496.0
536.0,520.0,530.0,534.0,497.0
535.0,518.0,527.0,533.0,495.0
527.0,515.0,521.0,529.0,500.0
519.0,511.0,514.0,523.0,508.0
502.0,497.0,500.0,510.0,522.0
495.0,496.0,494.0,500.0,528.0
493.0,497.0,498.0,502.0,528.0
500.0,498.0,499.0,500.0,517.0
497.0,498.0,501.0,500.0,515.0
502.0,500.0,506.0,502.0,517.0
507.0,501.0,512.0,504.0,516.0
507.0,499.0,511.0,504.0,511.0
511.0,501.0,514.0,506.0,522.0
516.0,505.0,521.0,514.0,519.0
521.0,509.0,525.0,520.0,513.0
530.0,516.0,530.0,527.0,512.0
534.0,522.0,535.0,535.0,509.0
535.0,518.0,528.0,530.0,514.0
530.0,517.0,524.0,529.0,514.0
522.0,515.0,520.0,525.0,520.0
512.0,508.0,509.0,524.0,527.0
495.0,497.0,498.0,504.0,529.0
490.0,498.0,499.0,505.0,527.0
491.0,495.0,496.0,498.0,521.0
498.0,497.0,499.0,499.0,513.0
503.0,495.0,500.0,499.0,518.0
509.0,499.0,508.0,500.0,516.0
509.0,500.0,511.0,505.0,515.0
509.0,500.0,513.0,505.0,518.0
512.0,504.0,518.0,510.0,520.0
520.0,507.0,523.0,522.0,503.0
528.0,511.0,525.0,522.0,501.0
531.0,518.0,533.0,532.0,500.0
537.0,523.0,530.0,533.0,499.0
533.0,518.0,526.0,530.0,505.0
527.0,515.0,523.0,530.0,520.0
521.0,513.0,517.0,524.0,518.0
504.0,503.0,505.0,512.0,519.0
499.0,496.0,497.0,503.0,516.0
493.0,495.0,494.0,504.0,514.0
498.0,495.0,497.0,498.0,521.0
498.0,497.0,500.0,498.0,527.0
500.0,497.0,503.0,498.0,525.0
506.0,500.0,508.0,501.0,521.0
508.0,502.0,512.0,504.0,521.0
510.0,501.0,517.0,507.0,516.0
517.0,508.0,521.0,514.0,504.0
522.0,512.0,527.0,517.0,489.0
526.0,516.0,531.0,527.0,489.0
534.0,518.0,532.0,534.0,491.0
536.0,518.0,530.0,538.0,506.0
535.0,520.0,529.0,533.0,506.0
525.0,513.0,520.0,525.0,508.0
518.0,513.0,521.0,522.0,514.0
503.0,501.0,502.0,508.0,519.0
496.0,497.0,496.0,502.0,518.0
498.0,495.0,496.0,498.0,516.0
499.0,497.0,499.0,499.0,519.0
502.0,498.0,503.0,500.0,525.0
506.0,499.0,506.0,505.0,525.0
511.0,504.0,514.0,507.0,515.0
514.0,500.0,517.0,507.0,520.0
516.0,502.0,516.0,507.0,519.0
522.0,505.0,519.0,512.0,506.0
527.0,511.0,525.0,520.0,501.0
528.0,515.0,531.0,526.0,506.0
534.0,517.0,531.0,531.0,508.0
529.0,518.0,529.0,532.0,505.0
526.0,517.0,523.0,530.0,510.0
518.0,513.0,518.0,525.0,505.0
512.0,508.0,512.0,521.0,511.0
496.0,499.0,498.0,514.0,521.0
491.0,501.0,501.0,503.0,527.0
486.0,494.0,495.0,499.0,524.0
497.0,497.0,500.0,499.0,519.0
498.0,498.0,503.0,498.0,525.0
508.0,502.0,510.0,503.0,518.0
511.0,501.0,512.0,504.0,509.0
512.0,502.0,514.0,506.0,508.0
519.0,503.0,518.0,510.0,510.0
524.0,511.0,525.0,518.0,508.0
526.0,511.0,525.0,521.0,505.0
533.0,517.0,530.0,528.0,506.0
537.0,520.0,532.0,534.0,505.0
529.0,517.0,525.0,531.0,511.0
522.0,515.0,522.0,528.0,507.0
518.0,514.0,518.0,523.0,515.0
511.0,505.0,507.0,515.0,524.0
495.0,499.0,499.0,504.0,529.0
492.0,496.0,496.0,499.0,526.0
494.0,497.0,498.0,498.0,525.0
497.0,498.0,501.0,499.0,524.0
498.0,497.0,503.0,501.0,518.0
503.0,501.0,510.0,504.0,511.0
505.0,502.0,513.0,507.0,501.0
511.0,501.0,514.0,507.0,497.0
520.0,504.0,518.0,512.0,509.0
529.0,509.0,524.0,519.0,509.0
531.0,513.0,527.0,524.0,506.0
537.0,517.0,530.0,530.0,504.0
535.0,518.0,529.0,531.0,511.0
530.0,516.0,525.0,530.0,501.0
521.0,516.0,521.0,528.0,512.0
515.0,512.0,514.0,525.0,514.0
502.0,499.0,500.0,506.0,523.0
493.0,494.0,492.0,499.0,528.0
493.0,497.0,498.0,500.0,528.0
492.0,495.0,497.0,497.0,525.0
498.0,502.0,501.0,498.0,516.0
501.0,499.0,505.0,505.0,509.0
500.0,501.0,510.0,502.0,513.0
508.0,500.0,512.0,510.0,518.0
514.0,501.0,515.0,507.0,509.0
526.0,508.0,522.0,515.0,504.0
528.0,508.0,525.0,516.0,509.0
532.0,516.0,530.0,527.0,503.0
536.0,520.0,533.0,532.0,499.0
535.0,519.0,530.0,533.0,504.0
529.0,520.0,530.0,530.0,504.0
520.0,517.0,520.0,525.0,511.0
513.0,510.0,513.0,522.0,513.0
500.0,504.0,504.0,507.0,521.0
497.0,497.0,498.0,502.0,516.0
497.0,501.0,497.0,499.0,506.0
499.0,498.0,500.0,497.0,506.0
501.0,498.0,501.0,501.0,501.0
507.0,501.0,508.0,503.0,503.0
507.0,505.0,511.0,503.0,515.0
505.0,503.0,510.0,505.0,514.0
505.0,503.0,517.0,511.0,520.0
510.0,508.0,522.0,516.0,521.0
523.0,511.0,525.0,522.0,518.0
526.0,513.0,528.0,527.0,501.0
525.0,518.0,530.0,533.0,506.0
526.0,519.0,529.0,533.0,510.0
529.0,517.0,522.0,529.0,517.0
512.0,512.0,516.0,523.0,530.0
499.0,503.0,505.0,515.0,524.0
481.0,500.0,497.0,506.0,531.0
476.0,494.0,494.0,498.0,535.0
480.0,495.0,496.0,498.0,533.0
488.0,495.0,497.0,497.0,523.0
497.0,496.0,502.0,497.0,523.0
513.0,502.0,509.0,502.0,521.0
521.0,504.0,514.0,508.0,518.0
526.0,507.0,518.0,511.0,507.0
534.0,507.0,516.0,515.0,484.0
536.0,510.0,522.0,520.0,501.0
534.0,515.0,524.0,524.0,505.0
536.0,518.0,526.0,528.0,506.0
538.0,520.0,525.0,533.0,500.0
537.0,521.0,524.0,534.0,506.0
533.0,519.0,519.0,526.0,508.0
525.0,511.0,512.0,521.0,508.0
508.0,499.0,500.0,507.0,521.0
492.0,494.0,496.0,501.0,523.0
491.0,495.0,497.0,495.0,529.0
493.0,497.0,501.0,499.0,526.0
498.0,498.0,505.0,502.0,517.0
501.0,501.0,510.0,503.0,517.0
505.0,503.0,515.0,505.0,520.0
505.0,502.0,512.0,511.0,521.0
508.0,507.0,515.0,508.0,523.0
525.0,507.0,518.0,513.0,519.0
530.0,512.0,519.0,524.0,509.0
535.0,516.0,523.0,526.0,498.0
538.0,521.0,523.0,533.0,498.0
536.0,523.0,517.0,532.0,502.0
532.0,522.0,512.0,530.0,500.0
522.0,521.0,506.0,525.0,506.0
515.0,509.0,506.0,519.0,510.0
504.0,503.0,492.0,505.0,518.0
494.0,500.0,491.0,500.0,518.0
498.0,501.0,496.0,500.0,517.0
497.0,497.0,492.0,499.0,524.0
492.0,494.0,502.0,497.0,518.0
493.0,496.0,507.0,501.0,515.0
495.0,501.0,506.0,505.0,517.0
500.0,502.0,504.0,508.0,512.0
510.0,507.0,505.0,511.0,503.0
513.0,511.0,502.0,517.0,504.0
512.0,514.0,496.0,521.0,513.0
522.0,519.0,492.0,530.0,508.0
539.0,523.0,493.0,534.0,507.0
535.0,521.0,489.0,533.0,509.0
523.0,514.0,485.0,525.0,507.0
510.0,506.0,485.0,519.0,514.0
507.0,498.0,479.0,508.0,521.0
491.0,492.0,476.0,498.0,524.0
496.0,492.0,484.0,492.0,525.0
509.0,494.0,495.0,494.0,521.0
505.0,494.0,511.0,498.0,524.0
504.0,495.0,523.0,503.0,530.0
509.0,501.0,533.0,503.0,520.0
514.0,504.0,548.0,507.0,503.0
514.0,504.0,550.0,511.0,498.0
512.0,503.0,552.0,515.0,509.0
523.0,511.0,561.0,523.0,517.0
532.0,515.0,562.0,530.0,502.0
534.0,518.0,562.0,535.0,521.0
538.0,520.0,559.0,535.0,496.0
536.0,522.0,556.0,540.0,489.0
528.0,517.0,546.0,532.0,503.0
517.0,513.0,541.0,522.0,523.0
499.0,501.0,525.0,511.0,526.0
489.0,496.0,519.0,506.0,518.0
496.0,496.0,516.0,502.0,516.0
498.0,496.0,507.0,499.0,514.0
498.0,495.0,510.0,499.0,517.0
499.0,496.0,516.0,501.0,520.0
501.0,499.0,519.0,502.0,521.0
500.0,502.0,527.0,506.0,514.0
502.0,503.0,526.0,511.0,516.0
512.0,508.0,534.0,517.0,512.0
511.0,509.0,536.0,523.0,506.0
510.0,513.0,535.0,528.0,496.0
519.0,519.0,534.0,533.0,499.0
526.0,518.0,518.0,531.0,498.0
522.0,518.0,531.0,530.0,500.0
514.0,514.0,523.0,529.0,517.0
507.0,510.0,512.0,520.0,528.0
503.0,499.0,494.0,508.0,541.0
517.0,499.0,500.0,500.0,523.0
520.0,503.0,499.0,501.0,515.0
516.0,498.0,504.0,501.0,507.0
509.0,498.0,510.0,503.0,496.0
509.0,501.0,515.0,506.0,496.0
513.0,502.0,516.0,507.0,499.0
514.0,504.0,514.0,508.0,498.0
513.0,506.0,522.0,514.0,505.0
514.0,507.0,524.0,518.0,505.0
513.0,508.0,524.0,520.0,510.0
522.0,515.0,529.0,526.0,521.0
522.0,522.0,528.0,531.0,547.0
507.0,516.0,524.0,529.0,543.0
496.0,515.0,519.0,527.0,534.0
498.0,513.0,516.0,527.0,528.0
505.0,506.0,506.0,521.0,513.0
476.0,497.0,495.0,507.0,510.0
455.0,493.0,499.0,503.0,503.0
470.0,494.0,497.0,496.0,512.0
496.0,498.0,502.0,498.0,506.0
498.0,497.0,503.0,502.0,505.0
494.0,501.0,509.0,503.0,498.0
487.0,504.0,517.0,502.0,511.0
504.0,503.0,516.0,504.0,522.0
532.0,506.0,522.0,508.0,508.0
537.0,508.0,524.0,518.0,495.0
527.0,509.0,524.0,524.0,504.0
529.0,512.0,522.0,528.0,508.0
530.0,516.0,528.0,531.0,513.0
516.0,517.0,523.0,533.0,508.0
508.0,512.0,515.0,525.0,526.0
512.0,520.0,516.0,525.0,533.0
519.0,512.0,508.0,521.0,525.0
493.0,505.0,496.0,503.0,533.0
492.0,497.0,490.0,493.0,522.0
510.0,499.0,496.0,499.0,503.0
506.0,498.0,501.0,498.0,511.0
502.0,499.0,511.0,497.0,520.0
522.0,506.0,521.0,498.0,518.0
528.0,505.0,515.0,501.0,516.0
516.0,502.0,509.0,504.0,514.0
511.0,506.0,517.0,515.0,508.0
520.0,510.0,527.0,521.0,505.0
542.0,518.0,544.0,528.0,497.0
551.0,524.0,548.0,534.0,507.0
554.0,522.0,533.0,532.0,509.0
544.0,525.0,494.0,527.0,515.0
542.0,519.0,461.0,517.0,533.0
525.0,518.0,442.0,511.0,520.0
504.0,512.0,427.0,493.0,522.0
487.0,506.0,425.0,487.0,511.0
485.0,513.0,420.0,492.0,532.0
478.0,510.0,418.0,491.0,552.0
500.0,518.0,432.0,499.0,525.0
523.0,519.0,442.0,495.0,490.0
518.0,505.0,438.0,490.0,489.0
522.0,499.0,443.0,490.0,496.0
535.0,506.0,445.0,498.0,506.0
530.0,507.0,470.0,508.0,506.0
532.0,516.0,499.0,517.0,519.0
538.0,519.0,523.0,523.0,519.0
543.0,526.0,522.0,534.0,502.0
532.0,524.0,499.0,535.0,513.0
522.0,525.0,482.0,532.0,523.0
516.0,518.0,469.0,521.0,519.0
514.0,517.0,423.0,510.0,520.0
502.0,522.0,391.0,508.0,540.0
504.0,517.0,388.0,500.0,525.0
499.0,516.0,393.0,493.0,506.0
498.0,516.0,419.0,491.0,518.0
508.0,508.0,424.0,489.0,537.0
502.0,501.0,443.0,488.0,524.0
497.0,490.0,449.0,486.0,521.0
497.0,487.0,443.0,489.0,530.0
507.0,508.0,422.0,503.0,509.0
520.0,527.0,429.0,517.0,467.0
537.0,539.0,415.0,530.0,473.0
539.0,548.0,419.0,537.0,493.0
526.0,551.0,416.0,540.0,501.0
518.0,541.0,413.0,535.0,504.0
491.0,520.0,436.0,521.0,552.0
470.0,499.0,488.0,508.0,567.0
447.0,476.0,529.0,483.0,584.0
456.0,457.0,565.0,477.0,553.0
488.0,456.0,606.0,488.0,525.0
495.0,469.0,646.0,499.0,510.0
506.0,484.0,660.0,511.0,476.0
539.0,496.0,673.0,527.0,465.0
542.0,502.0,666.0,533.0,459.0
539.0,499.0,633.0,521.0,453.0
533.0,497.0,646.0,532.0,490.0
531.0,508.0,664.0,543.0,523.0
525.0,505.0,667.0,545.0,535.0
540.0,507.0,665.0,554.0,485.0
540.0,498.0,643.0,549.0,469.0
539.0,499.0,649.0,537.0,478.0
530.0,506.0,656.0,533.0,491.0
518.0,503.0,652.0,533.0,506.0
509.0,505.0,650.0,536.0,503.0
499.0,493.0,631.0,526.0,506.0
489.0,487.0,592.0,514.0,498.0
483.0,484.0,579.0,513.0,529.0
488.0,488.0,558.0,505.0,527.0
509.0,490.0,550.0,499.0,539.0
524.0,497.0,556.0,510.0,520.0
529.0,498.0,554.0,514.0,525.0
514.0,495.0,553.0,514.0,528.0
522.0,501.0,545.0,510.0,513.0
526.0,506.0,540.0,518.0,500.0
527.0,504.0,529.0,521.0,512.0
534.0,512.0,537.0,530.0,528.0
547.0,512.0,530.0,540.0,496.0
550.0,510.0,524.0,541.0,442.0
543.0,501.0,516.0,534.0,465.0
524.0,500.0,516.0,524.0,490.0
510.0,501.0,511.0,508.0,490.0
499.0,512.0,477.0,502.0,520.0
490.0,504.0,473.0,491.0,556.0
497.0,494.0,481.0,478.0,575.0
492.0,489.0,491.0,467.0,568.0
502.0,483.0,478.0,472.0,481.0
512.0,480.0,474.0,486.0,452.0
517.0,495.0,468.0,498.0,463.0
516.0,496.0,478.0,512.0,487.0
504.0,487.0,487.0,511.0,539.0
510.0,498.0,507.0,517.0,570.0
524.0,512.0,535.0,541.0,546.0
527.0,524.0,555.0,549.0,526.0
537.0,539.0,552.0,546.0,512.0
529.0,531.0,539.0,546.0,481.0
528.0,527.0,529.0,547.0,468.0
515.0,516.0,490.0,538.0,502.0
500.0,503.0,485.0,510.0,516.0
494.0,498.0,487.0,519.0,527.0
484.0,496.0,494.0,516.0,531.0
497.0,502.0,502.0,492.0,514.0
491.0,501.0,499.0,494.0,547.0
499.0,503.0,489.0,496.0,581.0
506.0,513.0,504.0,505.0,550.0
506.0,504.0,491.0,503.0,535.0
515.0,504.0,479.0,506.0,516.0
523.0,512.0,500.0,515.0,468.0
523.0,514.0,497.0,515.0,478.0
516.0,508.0,479.0,521.0,489.0
519.0,517.0,503.0,524.0,525.0
520.0,524.0,486.0,509.0,573.0
519.0,536.0,449.0,515.0,606.0
491.0,525.0,382.0,505.0,619.0
489.0,528.0,301.0,501.0,551.0
479.0,504.0,256.0,474.0,547.0
462.0,496.0,268.0,474.0,537.0
449.0,493.0,318.0,477.0,538.0
446.0,480.0,358.0,471.0,553.0
472.0,474.0,440.0,467.0,543.0
502.0,492.0,526.0,485.0,529.0
510.0,498.0,543.0,508.0,519.0
503.0,509.0,577.0,522.0,498.0
501.0,525.0,573.0,533.0,481.0
502.0,539.0,541.0,540.0,483.0
509.0,550.0,516.0,544.0,476.0
506.0,541.0,467.0,541.0,480.0
494.0,528.0,465.0,532.0,486.0
519.0,491.0,450.0,511.0,513.0
564.0,498.0,472.0,499.0,523.0
530.0,509.0,480.0,499.0,540.0
517.0,515.0,451.0,510.0,506.0
513.0,523.0,401.0,514.0,494.0
514.0,517.0,352.0,508.0,486.0
530.0,501.0,337.0,496.0,480.0
534.0,500.0,341.0,497.0,472.0
501.0,471.0,371.0,484.0,546.0
474.0,450.0,399.0,471.0,583.0
482.0,464.0,462.0,478.0,562.0
492.0,495.0,511.0,490.0,522.0
545.0,514.0,617.0,527.0,498.0
551.0,501.0,631.0,520.0,499.0
541.0,520.0,653.0,534.0,511.0
538.0,531.0,685.0,555.0,526.0
535.0,507.0,717.0,563.0,511.0
524.0,503.0,708.0,563.0,496.0
506.0,509.0,701.0,549.0,502.0
505.0,513.0,721.0,548.0,490.0
497.0,508.0,711.0,541.0,485.0
515.0,511.0,723.0,543.0,444.0
510.0,505.0,692.0,539.0,455.0
498.0,503.0,662.0,525.0,454.0
505.0,506.0,653.0,528.0,434.0
522.0,506.0,634.0,524.0,484.0
509.0,505.0,613.0,514.0,612.0
501.0,504.0,601.0,516.0,644.0
508.0,506.0,585.0,514.0,554.0
521.0,504.0,568.0,516.0,501.0
524.0,504.0,561.0,525.0,495.0
491.0,510.0,557.0,529.0,489.0
466.0,509.0,550.0,538.0,441.0
450.0,513.0,545.0,542.0,462.0
464.0,515.0,535.0,537.0,507.0
464.0,510.0,526.0,535.0,521.0
427.0,504.0,513.0,519.0,507.0
422.0,494.0,498.0,509.0,564.0
422.0,493.0,489.0,495.0,616.0
502.0,496.0,483.0,487.0,561.0
505.0,501.0,489.0,494.0,526.0
462.0,495.0,493.0,499.0,503.0
479.0,500.0,499.0,501.0,500.0
516.0,504.0,500.0,498.0,492.0
535.0,503.0,501.0,503.0,519.0
548.0,503.0,508.0,516.0,542.0
594.0,510.0,512.0,525.0,490.0
594.0,519.0,513.0,519.0,456.0
590.0,522.0,523.0,534.0,467.0
589.0,529.0,535.0,547.0,453.0
567.0,525.0,534.0,542.0,496.0
550.0,522.0,524.0,545.0,528.0
539.0,515.0,509.0,522.0,536.0
522.0,506.0,489.0,505.0,493.0
510.0,499.0,476.0,503.0,545.0
493.0,496.0,479.0,495.0,552.0
489.0,495.0,474.0,472.0,553.0
480.0,493.0,475.0,486.0,570.0
483.0,495.0,461.0,477.0,620.0
510.0,503.0,474.0,490.0,602.0
518.0,498.0,503.0,500.0,587.0
529.0,506.0,503.0,502.0,543.0
542.0,515.0,484.0,499.0,509.0
570.0,530.0,498.0,528.0,471.0
569.0,519.0,487.0,525.0,466.0
576.0,522.0,495.0,525.0,444.0
567.0,522.0,517.0,531.0,444.0
546.0,514.0,509.0,528.0,449.0
518.0,514.0,518.0,533.0,497.0
510.0,520.0,513.0,527.0,527.0
501.0,507.0,483.0,511.0,531.0
490.0,507.0,454.0,504.0,537.0
490.0,513.0,451.0,494.0,527.0
489.0,498.0,451.0,495.0,499.0
497.0,505.0,469.0,501.0,489.0
528.0,512.0,478.0,495.0,519.0
529.0,511.0,454.0,498.0,511.0
522.0,510.0,423.0,493.0,478.0
527.0,517.0,426.0,505.0,506.0
526.0,523.0,429.0,519.0,605.0
506.0,496.0,420.0,502.0,655.0
513.0,491.0,464.0,496.0,564.0
527.0,492.0,491.0,510.0,496.0
551.0,513.0,527.0,539.0,468.0
540.0,506.0,534.0,532.0,455.0
529.0,513.0,500.0,525.0,473.0
530.0,523.0,457.0,524.0,481.0
513.0,514.0,422.0,516.0,533.0
485.0,506.0,432.0,494.0,587.0
493.0,512.0,442.0,493.0,563.0
492.0,499.0,442.0,484.0,556.0
486.0,464.0,471.0,477.0,535.0
487.0,462.0,536.0,504.0,523.0
499.0,478.0,578.0,492.0,503.0
513.0,503.0,637.0,511.0,491.0
517.0,510.0,623.0,525.0,506.0
509.0,510.0,624.0,534.0,544.0
519.0,527.0,633.0,543.0,538.0
535.0,541.0,633.0,552.0,501.0
542.0,537.0,599.0,556.0,489.0
536.0,529.0,540.0,540.0,490.0
521.0,522.0,471.0,536.0,497.0
515.0,517.0,443.0,526.0,522.0
514.0,515.0,442.0,516.0,511.0
503.0,498.0,456.0,505.0,523.0
494.0,478.0,484.0,486.0,496.0
489.0,481.0,509.0,489.0,518.0
486.0,486.0,556.0,498.0,540.0
490.0,489.0,599.0,505.0,527.0
508.0,508.0,615.0,525.0,491.0
518.0,509.0,603.0,529.0,483.0
525.0,513.0,562.0,527.0,456.0
527.0,518.0,534.0,530.0,434.0
530.0,525.0,501.0,530.0,438.0
522.0,524.0,521.0,539.0,452.0
536.0,516.0,543.0,538.0,478.0
545.0,521.0,528.0,528.0,474.0
527.0,515.0,532.0,515.0,577.0
507.0,505.0,543.0,510.0,611.0
513.0,516.0,570.0,523.0,562.0
505.0,501.0,564.0,521.0,550.0
491.0,492.0,559.0,513.0,547.0
483.0,491.0,553.0,507.0,558.0
485.0,492.0,547.0,507.0,572.0
489.0,495.0,550.0,505.0,535.0
489.0,496.0,549.0,503.0,512.0
501.0,502.0,551.0,508.0,504.0
494.0,500.0,546.0,511.0,516.0
495.0,503.0,544.0,513.0,502.0
504.0,504.0,533.0,519.0,496.0
513.0,508.0,532.0,527.0,484.0
513.0,508.0,515.0,532.0,492.0
498.0,508.0,509.0,533.0,536.0
499.0,515.0,520.0,536.0,535.0
517.0,518.0,522.0,518.0,496.0
495.0,507.0,509.0,514.0,473.0
479.0,509.0,514.0,518.0,507.0
454.0,498.0,507.0,503.0,546.0
483.0,503.0,510.0,497.0,541.0
506.0,502.0,514.0,502.0,479.0
479.0,498.0,507.0,499.0,502.0
483.0,499.0,506.0,501.0,542.0
502.0,508.0,521.0,519.0,487.0
500.0,502.0,520.0,506.0,497.0
523.0,504.0,516.0,506.0,462.0
563.0,506.0,512.0,510.0,479.0
545.0,514.0,523.0,521.0,537.0
508.0,512.0,524.0,526.0,520.0
499.0,526.0,536.0,530.0,547.0
487.0,512.0,526.0,520.0,564.0
504.0,513.0,525.0,526.0,539.0
530.0,517.0,523.0,532.0,527.0
520.0,511.0,503.0,515.0,537.0
559.0,508.0,493.0,511.0,527.0
560.0,504.0,490.0,505.0,544.0
544.0,506.0,496.0,505.0,547.0
517.0,499.0,489.0,496.0,528.0
522.0,498.0,489.0,496.0,513.0
522.0,507.0,506.0,503.0,532.0
517.0,506.0,503.0,498.0,534.0
524.0,507.0,511.0,498.0,515.0
524.0,508.0,505.0,505.0,503.0
528.0,509.0,514.0,522.0,509.0
534.0,512.0,514.0,521.0,494.0
547.0,512.0,527.0,518.0,486.0
555.0,524.0,523.0,530.0,488.0
553.0,533.0,503.0,533.0,501.0
546.0,534.0,490.0,540.0,507.0
525.0,522.0,459.0,527.0,526.0
509.0,512.0,423.0,510.0,533.0
500.0,506.0,412.0,496.0,481.0
476.0,486.0,411.0,488.0,502.0
472.0,480.0,413.0,479.0,498.0
496.0,484.0,422.0,484.0,536.0
499.0,496.0,485.0,489.0,556.0
500.0,498.0,483.0,497.0,504.0
516.0,501.0,467.0,504.0,484.0
508.0,501.0,452.0,503.0,513.0
503.0,503.0,436.0,499.0,567.0
507.0,514.0,448.0,505.0,586.0
517.0,515.0,479.0,522.0,548.0
535.0,516.0,463.0,517.0,520.0
538.0,507.0,442.0,517.0,520.0
523.0,509.0,470.0,532.0,533.0
539.0,524.0,492.0,527.0,507.0
531.0,517.0,517.0,523.0,505.0
532.0,520.0,533.0,522.0,514.0
520.0,504.0,557.0,507.0,512.0
501.0,482.0,556.0,503.0,517.0
506.0,492.0,579.0,519.0,519.0
512.0,503.0,599.0,520.0,526.0
510.0,503.0,590.0,526.0,534.0
507.0,511.0,571.0,530.0,532.0
519.0,537.0,514.0,491.0,483.0
524.0,544.0,521.0,505.0,470.0
525.0,530.0,517.0,510.0,487.0
525.0,519.0,511.0,510.0,499.0
530.0,495.0,542.0,535.0,501.0
522.0,482.0,552.0,537.0,515.0
523.0,502.0,563.0,529.0,521.0
536.0,520.0,594.0,545.0,488.0
539.0,522.0,619.0,557.0,445.0
530.0,514.0,628.0,550.0,468.0
521.0,501.0,593.0,536.0,460.0
499.0,492.0,563.0,514.0,507.0
490.0,488.0,548.0,497.0,532.0
496.0,499.0,566.0,499.0,533.0
496.0,496.0,561.0,505.0,523.0
485.0,496.0,562.0,505.0,560.0
499.0,500.0,561.0,513.0,564.0
503.0,502.0,555.0,513.0,519.0
496.0,500.0,545.0,509.0,538.0
508.0,503.0,545.0,512.0,515.0
516.0,504.0,540.0,519.0,521.0
519.0,510.0,538.0,524.0,504.0
526.0,518.0,542.0,529.0,492.0
523.0,519.0,545.0,532.0,485.0
530.0,520.0,535.0,531.0,503.0
524.0,518.0,528.0,533.0,499.0
512.0,516.0,521.0,534.0,498.0
486.0,503.0,501.0,511.0,514.0
476.0,494.0,494.0,501.0,515.0
481.0,493.0,492.0,499.0,528.0
472.0,491.0,492.0,494.0,543.0
475.0,493.0,495.0,503.0,525.0
467.0,494.0,495.0,502.0,516.0
507.0,499.0,499.0,500.0,461.0
539.0,506.0,509.0,510.0,460.0
526.0,510.0,514.0,513.0,504.0
505.0,507.0,513.0,508.0,546.0
522.0,510.0,518.0,518.0,517.0
533.0,515.0,522.0,529.0,532.0
547.0,521.0,527.0,530.0,532.0
562.0,522.0,527.0,535.0,563.0
559.0,524.0,527.0,526.0,613.0
542.0,516.0,513.0,519.0,521.0
527.0,513.0,510.0,522.0,492.0
511.0,500.0,488.0,507.0,471.0
500.0,495.0,487.0,497.0,496.0
500.0,494.0,488.0,491.0,573.0
499.0,492.0,489.0,493.0,523.0
499.0,494.0,491.0,496.0,509.0
503.0,497.0,494.0,493.0,530.0
518.0,510.0,505.0,502.0,497.0
506.0,505.0,512.0,503.0,506.0
501.0,502.0,522.0,510.0,505.0
504.0,506.0,522.0,518.0,502.0
502.0,508.0,495.0,518.0,508.0
506.0,516.0,495.0,524.0,481.0
495.0,519.0,490.0,542.0,480.0
521.0,519.0,477.0,536.0,540.0
534.0,514.0,447.0,511.0,548.0
507.0,499.0,438.0,500.0,559.0
481.0,494.0,442.0,499.0,516.0
476.0,495.0,442.0,490.0,517.0
492.0,496.0,454.0,495.0,516.0
515.0,498.0,461.0,495.0,521.0
512.0,500.0,468.0,483.0,532.0
504.0,506.0,479.0,493.0,524.0
516.0,516.0,514.0,506.0,500.0
498.0,503.0,498.0,513.0,517.0
499.0,501.0,472.0,495.0,533.0
517.0,514.0,480.0,501.0,521.0
526.0,510.0,492.0,507.0,526.0
562.0,524.0,525.0,524.0,525.0
581.0,520.0,519.0,538.0,496.0
553.0,503.0,499.0,538.0,514.0
538.0,501.0,500.0,526.0,520.0
536.0,516.0,520.0,526.0,503.0
536.0,515.0,524.0,523.0,482.0
524.0,511.0,541.0,521.0,483.0
522.0,506.0,559.0,520.0,460.0
525.0,507.0,563.0,517.0,453.0
513.0,497.0,539.0,509.0,481.0
509.0,503.0,514.0,500.0,513.0
503.0,500.0,514.0,500.0,561.0
506.0,501.0,520.0,503.0,605.0
510.0,509.0,552.0,511.0,549.0
515.0,503.0,542.0,513.0,530.0
516.0,499.0,556.0,515.0,523.0
521.0,509.0,575.0,518.0,495.0
534.0,519.0,599.0,533.0,495.0
540.0,525.0,601.0,542.0,497.0
540.0,532.0,557.0,536.0,505.0
538.0,529.0,481.0,533.0,504.0
532.0,527.0,424.0,527.0,507.0
518.0,515.0,404.0,519.0,520.0
499.0,492.0,383.0,504.0,538.0
490.0,476.0,408.0,491.0,547.0
474.0,461.0,437.0,476.0,562.0
477.0,474.0,481.0,480.0,543.0
492.0,493.0,563.0,498.0,521.0
496.0,497.0,587.0,513.0,513.0
508.0,507.0,608.0,522.0,497.0
516.0,514.0,643.0,526.0,489.0
523.0,514.0,630.0,531.0,502.0
524.0,514.0,609.0,529.0,463.0
527.0,517.0,603.0,538.0,445.0
527.0,513.0,582.0,530.0,478.0
533.0,520.0,582.0,539.0,509.0
534.0,524.0,580.0,561.0,514.0
526.0,525.0,566.0,542.0,542.0
512.0,509.0,546.0,519.0,537.0
505.0,509.0,537.0,521.0,539.0
500.0,499.0,516.0,508.0,511.0
484.0,493.0,511.0,506.0,519.0
492.0,497.0,504.0,495.0,564.0
500.0,496.0,499.0,488.0,508.0
487.0,499.0,510.0,498.0,478.0
480.0,500.0,511.0,502.0,470.0
482.0,501.0,513.0,512.0,454.0
483.0,501.0,514.0,518.0,482.0
485.0,506.0,521.0,510.0,557.0
495.0,512.0,526.0,519.0,583.0
527.0,510.0,526.0,526.0,536.0
562.0,522.0,528.0,532.0,470.0
582.0,522.0,533.0,537.0,440.0
561.0,518.0,524.0,534.0,463.0
541.0,520.0,521.0,528.0,525.0
519.0,511.0,503.0,526.0,514.0
499.0,498.0,498.0,513.0,509.0
492.0,499.0,501.0,512.0,541.0
499.0,500.0,487.0,502.0,513.0
504.0,500.0,493.0,501.0,487.0
499.0,497.0,487.0,499.0,514.0
501.0,498.0,491.0,494.0,559.0
513.0,501.0,498.0,495.0,558.0
499.0,505.0,507.0,498.0,571.0
489.0,496.0,510.0,500.0,556.0
507.0,500.0,512.0,512.0,511.0
502.0,504.0,521.0,517.0,542.0
517.0,512.0,531.0,529.0,535.0
520.0,517.0,518.0,528.0,526.0
544.0,525.0,522.0,531.0,457.0
537.0,517.0,508.0,534.0,463.0
515.0,513.0,498.0,530.0,489.0
518.0,510.0,478.0,522.0,476.0
527.0,502.0,459.0,509.0,456.0
510.0,500.0,449.0,499.0,502.0
490.0,493.0,431.0,482.0,549.0
483.0,494.0,452.0,492.0,558.0
477.0,493.0,472.0,493.0,538.0
482.0,498.0,485.0,490.0,505.0
488.0,511.0,502.0,500.0,507.0
497.0,508.0,496.0,497.0,524.0
513.0,506.0,489.0,489.0,550.0
544.0,509.0,498.0,499.0,546.0
546.0,510.0,532.0,518.0,554.0
546.0,527.0,567.0,538.0,519.0
548.0,534.0,571.0,547.0,513.0
540.0,533.0,567.0,550.0,492.0
537.0,525.0,500.0,536.0,478.0
521.0,516.0,483.0,523.0,504.0
506.0,498.0,483.0,514.0,534.0
503.0,493.0,478.0,497.0,540.0
502.0,490.0,478.0,492.0,532.0
508.0,486.0,475.0,492.0,529.0
506.0,492.0,488.0,496.0,526.0
506.0,499.0,506.0,507.0,534.0
507.0,498.0,532.0,497.0,515.0
515.0,492.0,555.0,505.0,506.0
526.0,505.0,572.0,513.0,491.0
536.0,511.0,575.0,529.0,471.0
528.0,507.0,575.0,524.0,491.0
529.0,510.0,563.0,523.0,488.0
539.0,519.0,556.0,534.0,486.0
534.0,526.0,563.0,547.0,495.0
530.0,521.0,529.0,546.0,491.0
524.0,515.0,512.0,535.0,507.0
514.0,506.0,498.0,519.0,519.0
510.0,503.0,498.0,515.0,533.0
499.0,495.0,497.0,496.0,527.0
496.0,496.0,491.0,491.0,516.0
495.0,496.0,492.0,491.0,524.0
498.0,502.0,489.0,496.0,524.0
500.0,499.0,476.0,497.0,520.0
504.0,503.0,487.0,500.0,550.0
504.0,508.0,512.0,508.0,534.0
501.0,502.0,526.0,517.0,520.0
511.0,509.0,536.0,512.0,506.0
514.0,513.0,555.0,531.0,520.0
526.0,517.0,558.0,534.0,508.0
537.0,526.0,576.0,534.0,501.0
544.0,526.0,575.0,529.0,492.0
540.0,526.0,571.0,533.0,513.0
524.0,517.0,550.0,526.0,533.0
512.0,510.0,531.0,522.0,508.0
506.0,504.0,517.0,514.0,500.0
495.0,500.0,510.0,507.0,486.0
494.0,497.0,512.0,498.0,498.0
496.0,497.0,512.0,501.0,489.0
498.0,500.0,510.0,495.0,497.0
503.0,502.0,515.0,497.0,505.0
503.0,500.0,515.0,505.0,520.0
500.0,497.0,511.0,505.0,503.0
499.0,494.0,508.0,514.0,501.0
506.0,502.0,505.0,519.0,495.0
515.0,512.0,517.0,528.0,476.0
536.0,514.0,524.0,530.0,525.0
542.0,516.0,532.0,532.0,500.0
554.0,521.0,539.0,537.0,443.0
542.0,525.0,534.0,533.0,487.0
511.0,516.0,528.0,518.0,576.0
511.0,515.0,527.0,522.0,539.0
498.0,503.0,513.0,514.0,522.0
487.0,496.0,503.0,504.0,537.0
497.0,498.0,501.0,496.0,536.0
497.0,505.0,505.0,500.0,524.0
487.0,496.0,495.0,489.0,563.0
488.0,497.0,502.0,495.0,561.0
494.0,504.0,514.0,507.0,556.0
491.0,503.0,518.0,507.0,532.0
490.0,500.0,517.0,507.0,500.0
503.0,503.0,520.0,517.0,498.0
518.0,510.0,525.0,520.0,515.0
534.0,518.0,528.0,529.0,516.0
548.0,519.0,525.0,541.0,494.0
546.0,517.0,503.0,538.0,496.0
529.0,516.0,506.0,520.0,495.0
529.0,514.0,496.0,524.0,469.0
525.0,512.0,495.0,516.0,505.0
495.0,504.0,482.0,502.0,508.0
497.0,502.0,462.0,497.0,520.0
520.0,499.0,458.0,489.0,508.0
512.0,499.0,468.0,495.0,538.0
506.0,498.0,468.0,496.0,531.0
505.0,497.0,471.0,495.0,503.0
506.0,497.0,466.0,498.0,487.0
516.0,496.0,466.0,502.0,483.0
528.0,501.0,484.0,512.0,476.0
530.0,507.0,490.0,518.0,506.0
539.0,522.0,503.0,521.0,561.0
511.0,514.0,498.0,513.0,683.0
514.0,517.0,507.0,515.0,571.0
535.0,528.0,535.0,517.0,502.0
527.0,513.0,528.0,520.0,508.0
500.0,497.0,518.0,516.0,519.0
503.0,492.0,512.0,505.0,517.0
503.0,494.0,521.0,504.0,521.0
502.0,504.0,533.0,502.0,526.0
499.0,511.0,566.0,496.0,534.0
503.0,507.0,553.0,478.0,521.0
505.0,505.0,524.0,509.0,513.0
513.0,510.0,514.0,531.0,511.0
516.0,513.0,511.0,518.0,508.0
520.0,517.0,523.0,522.0,507.0
517.0,503.0,514.0,520.0,520.0
524.0,501.0,526.0,507.0,510.0
522.0,501.0,551.0,528.0,505.0
531.0,513.0,568.0,542.0,498.0
538.0,523.0,577.0,546.0,486.0
533.0,523.0,558.0,542.0,483.0
519.0,513.0,550.0,537.0,492.0
516.0,511.0,525.0,533.0,508.0
500.0,497.0,491.0,516.0,510.0
491.0,491.0,472.0,505.0,519.0
486.0,494.0,474.0,500.0,537.0
498.0,498.0,494.0,506.0,527.0
492.0,497.0,507.0,515.0,529.0
504.0,498.0,513.0,503.0,516.0
508.0,493.0,520.0,504.0,510.0
507.0,497.0,531.0,501.0,506.0
512.0,506.0,546.0,503.0,510.0
525.0,511.0,560.0,519.0,516.0
529.0,518.0,559.0,528.0,523.0
528.0,514.0,546.0,535.0,521.0
521.0,510.0,542.0,552.0,508.0
539.0,521.0,540.0,519.0,472.0
532.0,518.0,532.0,526.0,488.0
523.0,519.0,525.0,524.0,505.0
510.0,505.0,511.0,512.0,519.0
497.0,498.0,501.0,500.0,522.0
494.0,497.0,501.0,501.0,514.0
498.0,497.0,502.0,505.0,507.0
497.0,497.0,501.0,500.0,530.0
500.0,499.0,505.0,496.0,537.0
506.0,503.0,511.0,500.0,528.0
507.0,503.0,511.0,503.0,506.0
506.0,502.0,510.0,501.0,529.0
511.0,504.0,515.0,509.0,531.0
518.0,509.0,525.0,522.0,516.0
525.0,512.0,529.0,528.0,507.0
535.0,520.0,536.0,531.0,499.0
533.0,520.0,537.0,537.0,497.0
530.0,521.0,531.0,535.0,510.0
527.0,515.0,523.0,530.0,501.0
511.0,510.0,517.0,528.0,493.0
497.0,498.0,495.0,506.0,523.0
487.0,496.0,491.0,505.0,540.0
485.0,496.0,494.0,497.0,498.0
484.0,493.0,495.0,496.0,489.0
476.0,495.0,501.0,498.0,520.0
485.0,496.0,507.0,509.0,520.0
503.0,501.0,512.0,509.0,507.0
520.0,503.0,511.0,492.0,505.0
518.0,510.0,520.0,507.0,544.0
520.0,507.0,520.0,515.0,514.0
531.0,511.0,525.0,521.0,499.0
533.0,516.0,529.0,526.0,485.0
537.0,520.0,537.0,540.0,480.0
536.0,520.0,532.0,535.0,495.0
534.0,520.0,526.0,529.0,513.0
524.0,514.0,518.0,523.0,540.0
519.0,514.0,516.0,520.0,534.0
504.0,501.0,496.0,502.0,556.0
486.0,496.0,495.0,496.0,550.0
489.0,499.0,499.0,501.0,532.0
494.0,498.0,501.0,505.0,519.0
492.0,498.0,501.0,496.0,539.0
500.0,500.0,508.0,496.0,554.0
523.0,504.0,513.0,498.0,524.0
527.0,504.0,513.0,503.0,512.0
521.0,504.0,518.0,510.0,529.0
521.0,508.0,526.0,518.0,509.0
521.0,510.0,524.0,522.0,509.0
522.0,514.0,527.0,528.0,496.0
526.0,518.0,533.0,535.0,499.0
519.0,515.0,532.0,533.0,506.0
508.0,515.0,525.0,534.0,519.0
505.0,512.0,519.0,532.0,508.0
510.0,504.0,504.0,512.0,490.0
500.0,499.0,496.0,497.0,511.0
516.0,499.0,494.0,501.0,501.0
518.0,499.0,498.0,503.0,528.0
508.0,499.0,502.0,500.0,527.0
503.0,501.0,503.0,497.0,553.0
506.0,502.0,511.0,500.0,561.0
516.0,502.0,516.0,504.0,574.0
519.0,502.0,518.0,505.0,557.0
520.0,499.0,520.0,511.0,512.0
530.0,503.0,524.0,522.0,445.0
535.0,510.0,526.0,525.0,452.0
536.0,515.0,533.0,539.0,471.0
529.0,516.0,535.0,546.0,473.0
544.0,525.0,525.0,525.0,481.0
531.0,522.0,520.0,522.0,508.0
520.0,516.0,516.0,521.0,525.0
504.0,504.0,503.0,508.0,530.0
497.0,503.0,503.0,502.0,533.0
497.0,497.0,496.0,497.0,529.0
494.0,498.0,498.0,497.0,530.0
496.0,498.0,503.0,498.0,524.0
499.0,498.0,506.0,499.0,504.0
511.0,503.0,511.0,503.0,502.0
511.0,508.0,510.0,512.0,510.0
513.0,505.0,513.0,519.0,515.0
519.0,508.0,515.0,513.0,502.0
528.0,510.0,513.0,517.0,502.0
532.0,514.0,515.0,508.0,499.0
539.0,519.0,529.0,516.0,494.0
536.0,517.0,537.0,520.0,500.0
530.0,514.0,526.0,520.0,505.0
519.0,507.0,517.0,525.0,507.0
517.0,510.0,529.0,540.0,517.0
496.0,498.0,504.0,508.0,525.0
493.0,492.0,492.0,502.0,528.0
494.0,494.0,492.0,501.0,512.0
497.0,500.0,498.0,501.0,498.0
497.0,507.0,506.0,504.0,506.0
506.0,504.0,514.0,504.0,505.0
507.0,502.0,519.0,509.0,517.0
509.0,502.0,516.0,516.0,505.0
516.0,505.0,518.0,515.0,494.0
524.0,508.0,524.0,518.0,496.0
519.0,506.0,531.0,525.0,504.0
529.0,514.0,535.0,529.0,498.0
538.0,520.0,536.0,534.0,515.0
531.0,518.0,530.0,532.0,532.0
526.0,517.0,521.0,530.0,512.0
523.0,513.0,525.0,530.0,513.0
511.0,503.0,512.0,518.0,516.0
497.0,496.0,497.0,500.0,528.0
494.0,495.0,496.0,497.0,521.0
494.0,496.0,502.0,500.0,531.0
492.0,496.0,501.0,498.0,544.0
499.0,499.0,503.0,495.0,536.0
504.0,503.0,512.0,502.0,520.0
508.0,502.0,513.0,505.0,522.0
507.0,504.0,518.0,509.0,519.0
514.0,508.0,520.0,511.0,517.0
522.0,510.0,528.0,520.0,516.0
527.0,513.0,534.0,531.0,515.0
532.0,521.0,540.0,533.0,512.0
540.0,518.0,534.0,531.0,497.0
534.0,518.0,531.0,533.0,502.0
526.0,515.0,523.0,529.0,503.0
520.0,510.0,519.0,524.0,508.0
505.0,499.0,506.0,513.0,514.0
500.0,496.0,500.0,503.0,513.0
496.0,494.0,499.0,497.0,508.0
495.0,498.0,504.0,497.0,511.0
500.0,498.0,507.0,499.0,529.0
502.0,502.0,506.0,501.0,532.0
506.0,501.0,511.0,505.0,526.0
502.0,500.0,514.0,505.0,533.0
504.0,506.0,520.0,511.0,536.0
506.0,503.0,521.0,511.0,537.0
512.0,510.0,528.0,521.0,530.0
523.0,514.0,533.0,529.0,512.0
528.0,518.0,535.0,534.0,508.0
528.0,518.0,531.0,534.0,512.0
525.0,518.0,527.0,532.0,513.0
519.0,511.0,516.0,527.0,502.0
519.0,509.0,515.0,520.0,498.0
505.0,499.0,506.0,507.0,511.0
498.0,493.0,497.0,498.0,516.0
496.0,492.0,498.0,499.0,513.0
498.0,491.0,503.0,497.0,509.0
503.0,494.0,497.0,495.0,508.0
511.0,498.0,505.0,502.0,504.0
513.0,500.0,510.0,506.0,501.0
512.0,501.0,513.0,508.0,502.0
516.0,504.0,519.0,518.0,501.0
516.0,506.0,522.0,516.0,508.0
521.0,509.0,528.0,518.0,512.0
526.0,517.0,539.0,527.0,515.0
537.0,521.0,539.0,532.0,502.0
540.0,521.0,536.0,537.0,507.0
539.0,519.0,528.0,534.0,518.0
536.0,514.0,520.0,525.0,508.0
532.0,514.0,519.0,517.0,513.0
514.0,501.0,502.0,500.0,532.0
509.0,498.0,498.0,496.0,552.0
509.0,497.0,494.0,494.0,541.0
504.0,498.0,498.0,486.0,529.0
492.0,500.0,506.0,495.0,542.0
481.0,502.0,516.0,504.0,528.0
492.0,505.0,521.0,512.0,506.0
499.0,504.0,520.0,513.0,506.0
489.0,501.0,519.0,514.0,521.0
501.0,507.0,525.0,526.0,516.0
515.0,507.0,527.0,533.0,526.0
531.0,511.0,526.0,537.0,518.0
534.0,516.0,528.0,541.0,509.0
528.0,514.0,524.0,533.0,504.0
520.0,511.0,520.0,514.0,496.0
522.0,509.0,521.0,516.0,489.0
508.0,503.0,511.0,507.0,501.0
499.0,496.0,501.0,502.0,513.0
495.0,495.0,499.0,499.0,514.0
502.0,494.0,498.0,497.0,506.0
500.0,494.0,501.0,495.0,498.0
505.0,499.0,508.0,497.0,490.0
512.0,500.0,511.0,502.0,493.0
510.0,500.0,515.0,504.0,501.0
514.0,504.0,520.0,511.0,495.0
524.0,506.0,523.0,516.0,501.0
524.0,509.0,520.0,519.0,514.0
529.0,516.0,527.0,524.0,527.0
537.0,520.0,526.0,527.0,527.0
536.0,523.0,523.0,530.0,526.0
531.0,517.0,526.0,528.0,527.0
525.0,513.0,526.0,525.0,520.0
522.0,512.0,528.0,523.0,511.0
521.0,501.0,519.0,519.0,497.0
513.0,498.0,517.0,516.0,510.0
515.0,496.0,513.0,519.0,478.0
508.0,492.0,489.0,505.0,458.0
502.0,489.0,482.0,486.0,468.0
503.0,495.0,502.0,490.0,497.0
506.0,503.0,518.0,491.0,525.0
497.0,500.0,519.0,498.0,568.0
498.0,503.0,520.0,498.0,566.0
513.0,505.0,521.0,521.0,533.0
514.0,509.0,525.0,529.0,513.0
516.0,515.0,532.0,531.0,494.0
523.0,519.0,536.0,537.0,485.0
522.0,516.0,528.0,534.0,508.0
518.0,517.0,522.0,540.0,514.0
518.0,514.0,520.0,527.0,526.0
508.0,510.0,508.0,517.0,533.0
495.0,503.0,499.0,504.0,531.0
487.0,494.0,495.0,503.0,530.0
493.0,497.0,501.0,495.0,519.0
501.0,497.0,500.0,495.0,515.0
503.0,497.0,504.0,497.0,511.0
507.0,500.0,506.0,501.0,523.0
503.0,503.0,511.0,506.0,532.0
509.0,504.0,511.0,508.0,533.0
519.0,511.0,517.0,514.0,526.0
525.0,510.0,520.0,517.0,518.0
528.0,515.0,531.0,524.0,522.0
533.0,516.0,535.0,529.0,511.0
528.0,517.0,535.0,524.0,527.0
532.0,516.0,532.0,527.0,507.0
529.0,506.0,522.0,524.0,487.0
520.0,499.0,511.0,521.0,486.0
514.0,497.0,504.0,511.0,469.0
504.0,497.0,493.0,497.0,504.0
498.0,497.0,491.0,493.0,533.0
505.0,495.0,493.0,499.0,525.0
506.0,494.0,497.0,508.0,517.0
510.0,504.0,509.0,511.0,510.0
518.0,506.0,514.0,516.0,507.0
520.0,505.0,513.0,512.0,503.0
525.0,504.0,518.0,509.0,526.0
526.0,508.0,524.0,515.0,531.0
518.0,510.0,526.0,521.0,533.0
515.0,514.0,531.0,530.0,524.0
521.0,521.0,535.0,544.0,520.0
522.0,517.0,532.0,546.0,511.0
511.0,513.0,524.0,540.0,499.0
516.0,514.0,516.0,529.0,484.0
514.0,508.0,509.0,511.0,468.0
501.0,500.0,499.0,499.0,490.0
489.0,499.0,496.0,496.0,518.0
484.0,495.0,493.0,496.0,543.0
485.0,496.0,496.0,496.0,536.0
495.0,494.0,501.0,497.0,509.0
509.0,501.0,514.0,498.0,511.0
515.0,503.0,520.0,506.0,518.0
512.0,501.0,516.0,505.0,522.0
519.0,502.0,518.0,508.0,521.0
527.0,505.0,524.0,517.0,505.0
535.0,508.0,524.0,519.0,501.0
534.0,514.0,530.0,527.0,482.0
536.0,518.0,532.0,533.0,470.0
540.0,517.0,530.0,533.0,484.0
535.0,515.0,522.0,527.0,493.0
528.0,514.0,519.0,525.0,503.0
516.0,511.0,514.0,516.0,509.0
501.0,499.0,499.0,504.0,522.0
500.0,497.0,497.0,505.0,524.0
501.0,497.0,499.0,499.0,520.0
501.0,497.0,500.0,497.0,520.0
496.0,495.0,501.0,497.0,516.0
501.0,499.0,508.0,504.0,501.0
513.0,502.0,513.0,505.0,493.0
510.0,501.0,515.0,506.0,501.0
513.0,506.0,525.0,516.0,501.0
518.0,511.0,527.0,521.0,503.0
516.0,513.0,528.0,523.0,540.0
525.0,518.0,533.0,530.0,527.0
535.0,522.0,534.0,534.0,517.0
535.0,519.0,528.0,532.0,507.0
525.0,515.0,520.0,525.0,518.0
517.0,512.0,517.0,526.0,502.0
507.0,501.0,502.0,510.0,514.0
494.0,495.0,494.0,500.0,520.0
502.0,494.0,494.0,498.0,517.0
503.0,495.0,497.0,498.0,518.0
507.0,497.0,500.0,498.0,509.0
510.0,497.0,505.0,499.0,503.0
518.0,502.0,512.0,505.0,501.0
514.0,507.0,514.0,506.0,521.0
508.0,503.0,519.0,506.0,533.0
510.0,507.0,525.0,515.0,531.0
513.0,508.0,530.0,518.0,521.0
533.0,515.0,533.0,532.0,490.0
543.0,520.0,531.0,535.0,486.0
543.0,524.0,533.0,538.0,484.0
539.0,519.0,525.0,530.0,473.0
532.0,513.0,516.0,523.0,494.0
528.0,508.0,510.0,516.0,489.0
503.0,497.0,495.0,500.0,523.0
485.0,491.0,490.0,492.0,553.0
481.0,495.0,498.0,500.0,543.0
498.0,497.0,500.0,499.0,535.0
500.0,496.0,501.0,497.0,539.0
499.0,502.0,511.0,504.0,536.0
498.0,501.0,512.0,504.0,527.0
499.0,500.0,512.0,505.0,520.0
504.0,504.0,517.0,510.0,503.0
513.0,507.0,524.0,517.0,480.0
512.0,510.0,526.0,523.0,472.0
529.0,516.0,533.0,531.0,479.0
533.0,519.0,533.0,533.0,512.0
520.0,514.0,524.0,529.0,525.0
522.0,514.0,523.0,528.0,526.0
524.0,513.0,518.0,525.0,526.0
512.0,505.0,506.0,513.0,530.0
501.0,498.0,497.0,505.0,519.0
493.0,500.0,498.0,499.0,532.0
493.0,495.0,494.0,495.0,536.0
500.0,498.0,499.0,501.0,503.0
498.0,496.0,503.0,500.0,499.0
503.0,498.0,508.0,502.0,508.0
517.0,502.0,513.0,506.0,513.0
511.0,503.0,514.0,504.0,521.0
515.0,505.0,516.0,509.0,511.0
522.0,509.0,524.0,515.0,514.0
526.0,507.0,522.0,524.0,504.0
538.0,518.0,530.0,530.0,485.0
539.0,517.0,529.0,534.0,461.0
537.0,516.0,524.0,531.0,456.0
527.0,513.0,518.0,524.0,492.0
521.0,513.0,518.0,524.0,526.0
508.0,501.0,502.0,516.0,522.0
499.0,497.0,495.0,502.0,527.0
497.0,496.0,494.0,497.0,529.0
504.0,496.0,496.0,496.0,514.0
504.0,501.0,500.0,499.0,495.0
504.0,497.0,507.0,501.0,491.0
510.0,504.0,512.0,507.0,495.0
512.0,504.0,515.0,506.0,503.0
510.0,504.0,517.0,513.0,523.0
510.0,506.0,520.0,514.0,516.0
513.0,509.0,524.0,518.0,508.0
524.0,514.0,527.0,525.0,514.0
536.0,524.0,535.0,535.0,511.0
539.0,521.0,532.0,535.0,504.0
533.0,519.0,525.0,532.0,498.0
526.0,516.0,519.0,527.0,513.0
516.0,509.0,513.0,521.0,508.0
493.0,500.0,501.0,507.0,520.0
495.0,499.0,500.0,504.0,522.0
497.0,497.0,500.0,500.0,516.0
503.0,496.0,500.0,498.0,497.0
507.0,494.0,495.0,495.0,486.0
510.0,497.0,501.0,500.0,498.0
509.0,502.0,508.0,511.0,500.0
502.0,503.0,513.0,508.0,532.0
510.0,503.0,519.0,510.0,522.0
520.0,507.0,523.0,515.0,497.0
517.0,509.0,525.0,520.0,507.0
524.0,514.0,527.0,526.0,508.0
527.0,516.0,524.0,528.0,504.0
529.0,517.0,523.0,529.0,509.0
530.0,518.0,524.0,532.0,514.0
517.0,512.0,515.0,523.0,518.0
508.0,508.0,510.0,519.0,510.0
496.0,503.0,503.0,511.0,528.0
493.0,497.0,495.0,501.0,533.0
492.0,498.0,499.0,499.0,538.0
495.0,497.0,499.0,497.0,543.0
495.0,496.0,501.0,498.0,515.0
511.0,501.0,509.0,504.0,489.0
509.0,505.0,514.0,504.0,503.0
513.0,503.0,514.0,508.0,503.0
521.0,506.0,519.0,512.0,509.0
520.0,509.0,523.0,516.0,511.0
525.0,512.0,527.0,526.0,513.0
531.0,520.0,533.0,535.0,507.0
534.0,520.0,531.0,535.0,494.0
534.0,517.0,524.0,530.0,498.0
527.0,518.0,523.0,525.0,510.0
522.0,515.0,514.0,522.0,510.0
508.0,502.0,502.0,509.0,509.0
499.0,497.0,496.0,502.0,519.0
491.0,494.0,494.0,499.0,512.0
491.0,494.0,495.0,498.0,506.0
496.0,496.0,499.0,499.0,520.0
496.0,497.0,504.0,498.0,521.0
506.0,500.0,509.0,501.0,523.0
512.0,503.0,514.0,503.0,526.0
512.0,503.0,516.0,511.0,526.0
518.0,505.0,520.0,510.0,525.0
525.0,510.0,525.0,519.0,497.0
531.0,515.0,529.0,525.0,499.0
534.0,520.0,534.0,532.0,514.0
527.0,518.0,530.0,534.0,513.0
522.0,517.0,525.0,534.0,495.0
523.0,514.0,520.0,527.0,505.0
518.0,512.0,516.0,525.0,508.0
501.0,498.0,498.0,506.0,512.0
497.0,493.0,493.0,497.0,516.0
499.0,494.0,496.0,496.0,520.0
506.0,496.0,500.0,499.0,519.0
508.0,496.0,502.0,498.0,518.0
506.0,498.0,507.0,499.0,519.0
511.0,501.0,513.0,502.0,511.0
510.0,501.0,515.0,507.0,490.0
518.0,503.0,518.0,510.0,483.0
516.0,503.0,519.0,512.0,509.0
523.0,506.0,522.0,519.0,524.0
533.0,514.0,529.0,528.0,518.0
539.0,519.0,536.0,534.0,511.0
534.0,518.0,528.0,534.0,501.0
532.0,517.0,524.0,534.0,476.0
524.0,510.0,515.0,525.0,499.0
516.0,507.0,509.0,516.0,520.0
502.0,500.0,500.0,506.0,533.0
497.0,500.0,496.0,501.0,531.0
494.0,495.0,496.0,504.0,528.0
489.0,496.0,500.0,500.0,524.0
487.0,496.0,499.0,506.0,508.0
496.0,501.0,510.0,504.0,495.0
510.0,501.0,510.0,507.0,494.0
514.0,501.0,514.0,507.0,506.0
517.0,499.0,521.0,508.0,509.0
523.0,507.0,522.0,513.0,523.0
532.0,511.0,526.0,521.0,518.0
535.0,515.0,528.0,529.0,499.0
531.0,518.0,529.0,533.0,506.0
520.0,518.0,526.0,534.0,508.0
517.0,518.0,527.0,531.0,517.0
515.0,511.0,515.0,528.0,522.0
503.0,502.0,503.0,511.0,533.0
495.0,495.0,494.0,500.0,516.0
493.0,496.0,495.0,500.0,507.0
496.0,495.0,496.0,497.0,507.0
506.0,501.0,506.0,503.0,472.0
504.0,498.0,506.0,501.0,520.0
506.0,504.0,516.0,504.0,546.0
507.0,502.0,514.0,504.0,546.0
516.0,505.0,517.0,510.0,540.0
512.0,502.0,518.0,511.0,519.0
520.0,507.0,524.0,520.0,481.0
527.0,512.0,527.0,525.0,490.0
529.0,515.0,530.0,528.0,493.0
527.0,520.0,529.0,533.0,492.0
525.0,518.0,526.0,532.0,496.0
517.0,512.0,517.0,526.0,507.0
511.0,511.0,514.0,522.0,516.0
497.0,499.0,500.0,507.0,521.0
494.0,496.0,495.0,499.0,529.0
493.0,494.0,497.0,498.0,521.0
498.0,497.0,499.0,498.0,519.0
498.0,496.0,500.0,498.0,526.0
504.0,499.0,505.0,498.0,526.0
508.0,502.0,513.0,504.0,528.0
510.0,503.0,516.0,506.0,523.0
516.0,503.0,517.0,508.0,506.0
524.0,507.0,522.0,515.0,500.0
525.0,508.0,527.0,518.0,489.0
531.0,514.0,527.0,526.0,481.0
536.0,522.0,534.0,537.0,485.0
533.0,520.0,529.0,533.0,498.0
527.0,519.0,526.0,532.0,532.0
518.0,515.0,519.0,525.0,542.0
511.0,509.0,511.0,515.0,534.0
499.0,496.0,504.0,504.0,526.0
501.0,498.0,498.0,500.0,525.0
496.0,495.0,496.0,498.0,515.0
498.0,496.0,499.0,497.0,515.0
501.0,497.0,499.0,504.0,513.0
501.0,499.0,507.0,505.0,510.0
504.0,500.0,511.0,505.0,503.0
506.0,503.0,516.0,505.0,508.0
516.0,502.0,518.0,511.0,502.0
520.0,508.0,523.0,517.0,517.0
524.0,511.0,525.0,520.0,510.0
536.0,515.0,529.0,527.0,508.0
538.0,519.0,531.0,533.0,509.0
529.0,518.0,525.0,530.0,499.0
522.0,514.0,520.0,527.0,498.0
516.0,513.0,516.0,525.0,490.0
508.0,502.0,502.0,511.0,503.0
496.0,497.0,495.0,502.0,508.0
496.0,497.0,497.0,499.0,508.0
495.0,496.0,497.0,498.0,510.0
495.0,497.0,501.0,498.0,526.0
500.0,498.0,504.0,498.0,530.0
507.0,501.0,511.0,504.0,519.0
511.0,501.0,512.0,504.0,520.0
516.0,506.0,519.0,509.0,525.0
518.0,504.0,520.0,513.0,521.0
521.0,510.0,525.0,520.0,515.0
527.0,514.0,529.0,527.0,507.0
535.0,519.0,532.0,533.0,478.0
535.0,519.0,529.0,533.0,493.0
533.0,518.0,525.0,531.0,507.0
527.0,514.0,519.0,526.0,515.0
516.0,509.0,512.0,519.0,534.0
498.0,499.0,499.0,507.0,530.0
490.0,493.0,492.0,498.0,520.0
494.0,492.0,499.0,502.0,515.0
498.0,501.0,501.0,499.0,520.0
498.0,496.0,500.0,496.0,519.0
504.0,501.0,506.0,501.0,509.0
508.0,502.0,511.0,510.0,508.0
512.0,502.0,516.0,514.0,499.0
517.0,503.0,518.0,510.0,508.0
524.0,505.0,519.0,513.0,513.0
533.0,509.0,523.0,519.0,513.0
544.0,516.0,529.0,525.0,497.0
549.0,519.0,531.0,529.0,498.0
545.0,522.0,530.0,534.0,509.0
536.0,518.0,526.0,530.0,516.0
507.0,510.0,515.0,524.0,517.0
496.0,510.0,514.0,522.0,516.0
478.0,499.0,500.0,506.0,538.0
481.0,494.0,494.0,497.0,537.0
486.0,497.0,499.0,498.0,500.0
498.0,495.0,500.0,497.0,510.0
493.0,496.0,503.0,498.0,513.0
502.0,500.0,509.0,502.0,502.0
510.0,501.0,513.0,506.0,511.0
505.0,501.0,514.0,507.0,505.0
515.0,502.0,518.0,513.0,482.0
523.0,509.0,525.0,515.0,489.0
529.0,511.0,524.0,519.0,499.0
527.0,513.0,527.0,526.0,492.0
532.0,522.0,529.0,534.0,486.0
533.0,522.0,528.0,535.0,503.0
532.0,516.0,521.0,526.0,508.0
520.0,512.0,515.0,521.0,506.0
506.0,503.0,503.0,509.0,521.0
494.0,499.0,500.0,503.0,529.0
489.0,497.0,500.0,499.0,518.0
489.0,497.0,498.0,500.0,516.0
490.0,497.0,501.0,499.0,518.0
499.0,499.0,502.0,499.0,510.0
508.0,501.0,512.0,505.0,505.0
512.0,501.0,514.0,506.0,511.0
515.0,503.0,517.0,508.0,503.0
521.0,505.0,520.0,512.0,502.0
522.0,509.0,524.0,518.0,509.0
529.0,515.0,529.0,526.0,510.0
534.0,519.0,533.0,533.0,505.0
534.0,522.0,533.0,534.0,507.0
533.0,522.0,530.0,537.0,504.0
527.0,516.0,520.0,529.0,504.0
521.0,506.0,514.0,523.0,506.0
504.0,499.0,501.0,506.0,515.0
494.0,495.0,494.0,498.0,526.0
491.0,491.0,495.0,499.0,533.0
499.0,496.0,499.0,497.0,531.0
496.0,497.0,501.0,497.0,535.0
496.0,497.0,504.0,498.0,516.0
503.0,501.0,510.0,504.0,510.0
506.0,504.0,518.0,506.0,503.0
511.0,505.0,516.0,513.0,505.0
520.0,508.0,522.0,518.0,504.0
526.0,508.0,522.0,517.0,508.0
529.0,514.0,527.0,523.0,510.0
538.0,520.0,531.0,532.0,506.0
538.0,524.0,528.0,535.0,514.0
532.0,519.0,525.0,530.0,521.0
517.0,513.0,516.0,521.0,525.0
510.0,509.0,512.0,521.0,509.0
498.0,500.0,500.0,509.0,513.0
493.0,495.0,498.0,500.0,519.0
494.0,500.0,500.0,502.0,515.0
493.0,496.0,499.0,497.0,523.0
497.0,495.0,505.0,500.0,519.0
505.0,504.0,512.0,502.0,514.0
511.0,502.0,513.0,505.0,512.0
511.0,506.0,518.0,507.0,512.0
515.0,508.0,523.0,513.0,513.0
520.0,504.0,521.0,520.0,509.0
525.0,511.0,526.0,524.0,507.0
533.0,517.0,531.0,531.0,505.0
537.0,520.0,531.0,535.0,508.0
531.0,517.0,526.0,531.0,523.0
525.0,516.0,522.0,528.0,534.0
513.0,512.0,516.0,523.0,532.0
501.0,505.0,507.0,515.0,517.0
490.0,498.0,498.0,503.0,531.0
489.0,497.0,497.0,499.0,526.0
491.0,495.0,497.0,497.0,516.0
500.0,497.0,501.0,499.0,510.0
505.0,498.0,503.0,503.0,504.0
508.0,499.0,505.0,506.0,501.0
507.0,495.0,512.0,504.0,503.0
512.0,502.0,514.0,509.0,500.0
517.0,503.0,518.0,515.0,504.0
520.0,512.0,525.0,520.0,506.0
533.0,514.0,530.0,529.0,485.0
537.0,519.0,532.0,532.0,496.0
535.0,519.0,530.0,532.0,502.0
531.0,518.0,525.0,531.0,502.0
519.0,515.0,520.0,526.0,535.0
514.0,511.0,514.0,524.0,535.0
498.0,506.0,500.0,509.0,518.0
496.0,497.0,495.0,501.0,519.0
496.0,495.0,495.0,498.0,514.0
498.0,496.0,498.0,497.0,511.0
495.0,496.0,500.0,497.0,509.0
500.0,499.0,505.0,499.0,503.0
512.0,502.0,511.0,503.0,502.0
511.0,502.0,513.0,504.0,507.0
514.0,508.0,521.0,508.0,516.0
513.0,507.0,523.0,516.0,527.0
521.0,509.0,525.0,520.0,528.0
527.0,518.0,532.0,527.0,502.0
537.0,517.0,530.0,532.0,496.0
534.0,517.0,526.0,533.0,498.0
531.0,516.0,524.0,531.0,502.0
526.0,513.0,517.0,525.0,512.0
520.0,506.0,514.0,520.0,527.0
499.0,499.0,498.0,505.0,536.0
496.0,501.0,499.0,501.0,534.0
498.0,496.0,496.0,499.0,524.0
503.0,495.0,499.0,500.0,503.0
497.0,496.0,499.0,502.0,510.0
501.0,503.0,507.0,501.0,517.0
506.0,501.0,515.0,503.0,519.0
509.0,506.0,521.0,506.0,526.0
512.0,502.0,518.0,512.0,532.0
521.0,507.0,522.0,517.0,509.0
523.0,512.0,527.0,524.0,501.0
535.0,516.0,531.0,532.0,482.0
538.0,519.0,532.0,536.0,478.0
533.0,515.0,526.0,536.0,496.0
527.0,515.0,521.0,530.0,496.0
515.0,509.0,515.0,523.0,502.0
500.0,500.0,503.0,512.0,521.0
492.0,497.0,497.0,504.0,548.0
490.0,497.0,498.0,499.0,532.0
496.0,495.0,498.0,499.0,520.0
498.0,498.0,502.0,500.0,518.0
500.0,498.0,503.0,500.0,518.0
505.0,500.0,510.0,507.0,516.0
510.0,504.0,515.0,507.0,520.0
511.0,504.0,517.0,508.0,523.0
514.0,504.0,519.0,510.0,524.0
524.0,511.0,530.0,522.0,503.0
530.0,515.0,530.0,529.0,495.0
539.0,518.0,532.0,533.0,501.0
543.0,520.0,532.0,535.0,513.0
536.0,519.0,526.0,530.0,517.0
531.0,516.0,521.0,527.0,518.0
521.0,510.0,514.0,521.0,518.0
503.0,499.0,499.0,505.0,535.0
496.0,497.0,497.0,505.0,540.0
487.0,493.0,495.0,500.0,530.0
486.0,496.0,499.0,500.0,512.0
492.0,498.0,502.0,502.0,510.0
503.0,499.0,506.0,502.0,499.0
506.0,503.0,511.0,503.0,509.0
510.0,503.0,515.0,508.0,516.0
514.0,505.0,519.0,513.0,512.0
516.0,508.0,525.0,515.0,514.0
519.0,508.0,521.0,517.0,510.0
531.0,516.0,527.0,530.0,512.0
538.0,518.0,530.0,533.0,505.0
532.0,518.0,528.0,533.0,511.0
528.0,520.0,527.0,532.0,505.0
519.0,513.0,517.0,524.0,496.0
518.0,510.0,511.0,518.0,498.0
497.0,499.0,498.0,508.0,515.0
494.0,494.0,494.0,500.0,522.0
492.0,495.0,496.0,500.0,517.0
497.0,495.0,498.0,497.0,522.0
497.0,493.0,498.0,499.0,518.0
502.0,499.0,508.0,502.0,498.0
508.0,502.0,513.0,507.0,500.0
512.0,503.0,515.0,507.0,520.0
514.0,504.0,518.0,512.0,524.0
523.0,508.0,522.0,521.0,529.0
529.0,513.0,526.0,522.0,522.0
538.0,518.0,530.0,532.0,490.0
536.0,525.0,535.0,538.0,505.0
536.0,519.0,528.0,532.0,524.0
533.0,518.0,524.0,531.0,517.0
521.0,516.0,517.0,523.0,525.0
507.0,504.0,505.0,512.0,522.0
500.0,501.0,503.0,507.0,499.0
495.0,496.0,495.0,499.0,522.0
494.0,495.0,496.0,497.0,526.0
496.0,496.0,499.0,498.0,513.0
501.0,498.0,503.0,499.0,510.0
509.0,501.0,510.0,502.0,509.0
509.0,501.0,514.0,506.0,512.0
506.0,502.0,517.0,510.0,512.0
504.0,505.0,524.0,516.0,512.0
510.0,507.0,524.0,519.0,518.0
525.0,513.0,527.0,527.0,516.0
531.0,518.0,530.0,532.0,514.0
532.0,520.0,530.0,534.0,505.0
528.0,517.0,524.0,531.0,505.0
518.0,514.0,520.0,528.0,514.0
511.0,511.0,512.0,525.0,523.0
500.0,501.0,502.0,511.0,519.0
485.0,495.0,494.0,501.0,528.0
492.0,496.0,497.0,501.0,510.0
499.0,497.0,499.0,503.0,484.0
500.0,498.0,501.0,503.0,502.0
502.0,500.0,509.0,505.0,507.0
508.0,503.0,511.0,510.0,508.0
508.0,502.0,513.0,504.0,516.0
512.0,502.0,517.0,508.0,525.0
516.0,505.0,520.0,512.0,534.0
525.0,510.0,525.0,522.0,513.0
533.0,517.0,530.0,530.0,505.0
536.0,521.0,533.0,535.0,487.0
534.0,517.0,528.0,533.0,487.0
528.0,517.0,524.0,531.0,498.0
519.0,512.0,516.0,525.0,513.0
507.0,508.0,511.0,520.0,510.0
498.0,498.0,498.0,505.0,515.0
497.0,497.0,496.0,500.0,524.0
496.0,496.0,496.0,496.0,526.0
497.0,498.0,500.0,499.0,520.0
502.0,497.0,503.0,499.0,525.0
504.0,499.0,507.0,502.0,532.0
505.0,501.0,510.0,504.0,534.0
509.0,505.0,517.0,507.0,528.0
514.0,506.0,519.0,510.0,513.0
523.0,511.0,526.0,518.0,511.0
522.0,511.0,525.0,525.0,514.0
527.0,517.0,530.0,530.0,504.0
535.0,522.0,534.0,537.0,508.0
531.0,519.0,528.0,532.0,519.0
528.0,515.0,521.0,526.0,522.0
516.0,512.0,517.0,522.0,529.0
509.0,503.0,505.0,514.0,500.0
497.0,497.0,497.0,501.0,516.0
491.0,495.0,494.0,497.0,516.0
493.0,495.0,496.0,496.0,512.0
497.0,496.0,500.0,500.0,516.0
500.0,498.0,504.0,500.0,512.0
508.0,501.0,510.0,503.0,507.0
510.0,501.0,513.0,504.0,509.0
514.0,503.0,515.0,506.0,508.0
519.0,506.0,521.0,513.0,510.0
523.0,510.0,524.0,518.0,504.0
528.0,513.0,527.0,525.0,501.0
539.0,518.0,532.0,533.0,508.0
533.0,520.0,532.0,534.0,503.0
530.0,518.0,526.0,531.0,504.0
525.0,515.0,521.0,528.0,509.0
516.0,511.0,514.0,521.0,512.0
502.0,505.0,505.0,511.0,529.0
493.0,496.0,495.0,499.0,537.0
493.0,495.0,495.0,497.0,530.0
501.0,497.0,498.0,499.0,520.0
502.0,496.0,501.0,498.0,514.0
504.0,495.0,505.0,505.0,512.0
508.0,501.0,510.0,507.0,511.0
508.0,502.0,513.0,506.0,513.0
511.0,504.0,518.0,509.0,509.0
516.0,507.0,522.0,516.0,506.0
522.0,514.0,528.0,520.0,505.0
528.0,516.0,530.0,529.0,500.0
540.0,520.0,533.0,535.0,497.0
533.0,519.0,529.0,534.0,499.0
527.0,517.0,524.0,531.0,506.0
519.0,514.0,517.0,525.0,515.0
512.0,509.0,511.0,518.0,520.0
499.0,500.0,500.0,507.0,534.0
492.0,497.0,496.0,499.0,534.0
492.0,496.0,497.0,497.0,531.0
501.0,498.0,500.0,498.0,523.0
497.0,497.0,502.0,498.0,515.0
501.0,498.0,505.0,500.0,515.0
508.0,501.0,513.0,503.0,518.0
506.0,503.0,516.0,509.0,515.0
512.0,505.0,520.0,512.0,514.0
519.0,507.0,523.0,518.0,511.0
526.0,513.0,527.0,524.0,508.0
528.0,517.0,529.0,529.0,504.0
536.0,521.0,533.0,536.0,499.0
531.0,522.0,531.0,533.0,500.0
530.0,517.0,523.0,531.0,505.0
516.0,511.0,514.0,523.0,510.0
504.0,504.0,506.0,514.0,523.0
494.0,497.0,496.0,502.0,526.0
492.0,496.0,495.0,499.0,527.0
496.0,500.0,499.0,501.0,527.0
497.0,498.0,500.0,497.0,526.0
506.0,499.0,504.0,498.0,529.0
506.0,501.0,509.0,502.0,527.0
508.0,502.0,513.0,505.0,516.0
509.0,503.0,514.0,505.0,515.0
514.0,502.0,522.0,516.0,508.0
522.0,508.0,524.0,518.0,499.0
528.0,514.0,527.0,526.0,494.0
531.0,518.0,530.0,531.0,489.0
533.0,521.0,526.0,537.0,494.0
526.0,517.0,524.0,529.0,506.0
520.0,514.0,519.0,522.0,521.0
525.0,513.0,516.0,523.0,523.0
504.0,499.0,499.0,507.0,532.0
495.0,498.0,497.0,502.0,518.0
493.0,496.0,497.0,501.0,505.0
496.0,493.0,496.0,502.0,497.0
498.0,497.0,501.0,498.0,504.0
500.0,497.0,507.0,503.0,517.0
510.0,508.0,518.0,507.0,530.0
513.0,504.0,515.0,506.0,540.0
507.0,504.0,519.0,509.0,552.0
512.0,506.0,521.0,511.0,532.0
521.0,509.0,523.0,519.0,495.0
528.0,515.0,528.0,526.0,502.0
536.0,517.0,529.0,531.0,502.0
534.0,518.0,527.0,530.0,484.0
536.0,515.0,523.0,529.0,473.0
528.0,517.0,521.0,527.0,488.0
517.0,510.0,514.0,522.0,517.0
499.0,503.0,499.0,507.0,522.0
490.0,496.0,496.0,500.0,531.0
490.0,500.0,501.0,498.0,538.0
497.0,498.0,502.0,498.0,524.0
500.0,500.0,506.0,497.0,508.0
504.0,499.0,508.0,500.0,501.0
508.0,504.0,512.0,504.0,505.0
508.0,500.0,514.0,511.0,512.0
514.0,506.0,523.0,512.0,506.0
522.0,508.0,525.0,516.0,506.0
528.0,513.0,528.0,523.0,511.0
533.0,516.0,528.0,523.0,497.0
536.0,518.0,531.0,532.0,502.0
528.0,517.0,526.0,529.0,512.0
525.0,515.0,521.0,526.0,505.0
520.0,512.0,518.0,528.0,508.0
510.0,505.0,508.0,515.0,521.0
498.0,497.0,497.0,504.0,520.0
494.0,497.0,497.0,503.0,522.0
490.0,496.0,498.0,498.0,522.0
492.0,496.0,500.0,498.0,507.0
498.0,501.0,508.0,500.0,502.0
506.0,500.0,513.0,505.0,497.0
505.0,501.0,513.0,504.0,502.0
509.0,503.0,517.0,508.0,498.0
514.0,504.0,520.0,513.0,500.0
516.0,510.0,527.0,523.0,527.0
529.0,516.0,530.0,527.0,527.0
538.0,519.0,532.0,532.0,519.0
541.0,521.0,530.0,538.0,516.0
540.0,520.0,527.0,532.0,519.0
535.0,517.0,521.0,526.0,518.0
525.0,515.0,517.0,523.0,513.0
502.0,502.0,501.0,510.0,515.0
489.0,495.0,495.0,503.0,513.0
480.0,493.0,495.0,506.0,520.0
488.0,499.0,499.0,500.0,516.0
492.0,496.0,501.0,497.0,519.0
498.0,499.0,508.0,499.0,508.0
507.0,500.0,509.0,504.0,505.0
513.0,501.0,513.0,506.0,507.0
515.0,507.0,519.0,508.0,503.0
524.0,508.0,522.0,517.0,504.0
525.0,512.0,526.0,523.0,500.0
527.0,514.0,528.0,527.0,501.0
530.0,518.0,532.0,533.0,502.0
531.0,518.0,528.0,532.0,504.0
527.0,517.0,523.0,532.0,508.0
519.0,515.0,519.0,528.0,514.0
510.0,509.0,513.0,521.0,518.0
496.0,499.0,498.0,505.0,534.0
492.0,496.0,494.0,498.0,534.0
497.0,496.0,495.0,501.0,524.0
500.0,502.0,505.0,498.0,520.0
503.0,497.0,501.0,497.0,518.0
506.0,499.0,502.0,500.0,515.0
508.0,502.0,511.0,502.0,510.0
508.0,503.0,514.0,505.0,514.0
512.0,506.0,520.0,511.0,520.0
517.0,508.0,521.0,514.0,526.0
517.0,510.0,523.0,519.0,524.0
525.0,515.0,532.0,527.0,515.0
536.0,520.0,532.0,533.0,511.0
532.0,519.0,528.0,534.0,489.0
528.0,517.0,523.0,531.0,483.0
521.0,512.0,516.0,525.0,494.0
509.0,504.0,504.0,513.0,506.0
499.0,499.0,499.0,502.0,518.0
489.0,495.0,495.0,496.0,536.0
490.0,494.0,496.0,496.0,544.0
498.0,498.0,501.0,498.0,514.0
501.0,497.0,504.0,499.0,509.0
506.0,505.0,509.0,504.0,505.0
510.0,502.0,513.0,505.0,505.0
516.0,504.0,516.0,507.0,503.0
524.0,505.0,519.0,511.0,500.0
524.0,508.0,524.0,518.0,501.0
531.0,515.0,529.0,526.0,505.0
535.0,518.0,530.0,530.0,509.0
536.0,518.0,530.0,530.0,516.0
529.0,516.0,524.0,528.0,516.0
521.0,516.0,521.0,525.0,522.0
517.0,511.0,514.0,522.0,514.0
501.0,504.0,500.0,509.0,521.0
494.0,497.0,496.0,502.0,525.0
494.0,497.0,496.0,499.0,516.0
497.0,497.0,498.0,496.0,514.0
502.0,498.0,502.0,497.0,516.0
501.0,498.0,505.0,500.0,513.0
505.0,501.0,511.0,501.0,513.0
511.0,501.0,513.0,506.0,501.0
512.0,503.0,516.0,509.0,507.0
519.0,506.0,523.0,514.0,517.0
525.0,510.0,525.0,520.0,522.0
531.0,519.0,530.0,525.0,520.0
535.0,523.0,536.0,536.0,516.0
532.0,518.0,528.0,530.0,520.0
526.0,516.0,524.0,530.0,504.0
521.0,515.0,520.0,528.0,495.0
515.0,510.0,515.0,522.0,497.0
497.0,499.0,498.0,506.0,524.0
493.0,496.0,495.0,499.0,515.0
494.0,497.0,497.0,495.0,517.0
498.0,497.0,500.0,500.0,513.0
496.0,497.0,502.0,500.0,513.0
500.0,501.0,512.0,502.0,517.0
503.0,502.0,513.0,505.0,526.0
512.0,503.0,516.0,506.0,530.0
514.0,504.0,523.0,513.0,522.0
520.0,507.0,523.0,516.0,509.0
525.0,511.0,526.0,521.0,509.0
532.0,515.0,528.0,528.0,493.0
536.0,518.0,531.0,532.0,494.0
534.0,517.0,527.0,532.0,502.0
526.0,516.0,522.0,528.0,508.0
517.0,513.0,517.0,521.0,526.0
508.0,507.0,509.0,513.0,533.0
497.0,499.0,499.0,505.0,519.0
489.0,494.0,494.0,499.0,514.0
492.0,495.0,496.0,499.0,510.0
499.0,499.0,502.0,501.0,512.0
503.0,498.0,503.0,500.0,512.0
505.0,498.0,507.0,499.0,512.0
510.0,502.0,511.0,503.0,504.0
515.0,507.0,518.0,508.0,509.0
520.0,506.0,522.0,511.0,518.0
529.0,511.0,527.0,518.0,530.0
529.0,514.0,529.0,523.0,539.0
533.0,521.0,529.0,531.0,513.0
533.0,522.0,530.0,535.0,483.0
535.0,518.0,526.0,533.0,494.0
528.0,516.0,523.0,531.0,513.0
518.0,510.0,513.0,520.0,520.0
503.0,501.0,501.0,508.0,540.0
497.0,498.0,497.0,502.0,544.0
493.0,497.0,496.0,500.0,534.0
493.0,497.0,499.0,499.0,516.0
496.0,497.0,501.0,500.0,493.0
501.0,499.0,506.0,500.0,504.0
504.0,500.0,510.0,502.0,516.0
511.0,502.0,513.0,504.0,517.0
514.0,504.0,518.0,508.0,520.0
521.0,506.0,521.0,514.0,495.0
529.0,510.0,524.0,522.0,487.0
537.0,518.0,528.0,527.0,496.0
539.0,520.0,532.0,533.0,496.0
535.0,523.0,533.0,535.0,505.0
527.0,512.0,527.0,532.0,512.0
517.0,514.0,518.0,525.0,516.0
510.0,511.0,515.0,522.0,512.0
493.0,499.0,500.0,507.0,519.0
492.0,498.0,498.0,501.0,513.0
492.0,495.0,496.0,499.0,513.0
497.0,497.0,499.0,499.0,511.0
505.0,498.0,503.0,500.0,517.0
503.0,498.0,506.0,499.0,517.0
508.0,503.0,513.0,506.0,520.0
512.0,502.0,515.0,506.0,524.0
515.0,508.0,523.0,511.0,533.0
519.0,507.0,522.0,514.0,527.0
515.0,507.0,523.0,522.0,498.0
524.0,514.0,528.0,529.0,480.0
534.0,518.0,531.0,532.0,495.0
536.0,519.0,527.0,533.0,495.0
526.0,517.0,522.0,529.0,497.0
520.0,514.0,519.0,527.0,504.0
509.0,506.0,507.0,516.0,515.0
496.0,497.0,496.0,502.0,524.0
494.0,497.0,495.0,499.0,520.0
496.0,496.0,500.0,503.0,515.0
498.0,499.0,501.0,500.0,516.0
499.0,495.0,503.0,499.0,517.0
505.0,500.0,507.0,500.0,528.0
509.0,504.0,514.0,505.0,528.0
510.0,504.0,516.0,508.0,515.0
518.0,506.0,522.0,512.0,501.0
525.0,511.0,525.0,519.0,514.0
530.0,515.0,527.0,522.0,511.0
536.0,519.0,530.0,533.0,509.0
538.0,523.0,539.0,537.0,507.0
532.0,518.0,529.0,531.0,508.0
524.0,514.0,523.0,528.0,503.0
516.0,512.0,518.0,524.0,502.0
495.0,499.0,494.0,507.0,514.0
488.0,495.0,490.0,504.0,511.0
490.0,501.0,494.0,500.0,522.0
492.0,497.0,496.0,499.0,518.0
495.0,497.0,499.0,500.0,512.0
499.0,502.0,504.0,506.0,492.0
506.0,501.0,509.0,507.0,502.0
510.0,503.0,513.0,505.0,518.0
514.0,505.0,517.0,508.0,519.0
518.0,507.0,519.0,509.0,535.0
525.0,509.0,522.0,512.0,517.0
534.0,515.0,528.0,526.0,490.0
534.0,519.0,530.0,531.0,494.0
531.0,520.0,529.0,533.0,505.0
528.0,517.0,524.0,530.0,525.0
516.0,513.0,519.0,526.0,532.0
508.0,511.0,511.0,521.0,529.0
495.0,502.0,504.0,510.0,532.0
493.0,497.0,496.0,500.0,506.0
489.0,496.0,497.0,499.0,511.0
496.0,499.0,503.0,498.0,522.0
499.0,496.0,500.0,496.0,513.0
504.0,498.0,505.0,500.0,505.0
510.0,500.0,511.0,504.0,507.0
510.0,503.0,516.0,505.0,527.0
513.0,503.0,518.0,511.0,512.0
518.0,506.0,522.0,517.0,508.0
520.0,508.0,522.0,525.0,507.0
530.0,515.0,529.0,527.0,507.0
535.0,519.0,532.0,533.0,505.0
533.0,518.0,528.0,532.0,506.0
529.0,515.0,522.0,528.0,509.0
521.0,514.0,518.0,525.0,515.0
509.0,506.0,508.0,515.0,523.0
497.0,496.0,500.0,506.0,526.0
497.0,497.0,498.0,501.0,526.0
496.0,494.0,496.0,497.0,522.0
498.0,497.0,501.0,497.0,531.0
501.0,498.0,504.0,500.0,527.0
503.0,500.0,506.0,502.0,526.0
510.0,501.0,513.0,504.0,523.0
513.0,504.0,516.0,509.0,517.0
514.0,504.0,518.0,512.0,510.0
525.0,509.0,527.0,523.0,501.0
528.0,511.0,527.0,524.0,500.0
536.0,517.0,531.0,531.0,499.0
537.0,521.0,533.0,536.0,499.0
533.0,519.0,527.0,533.0,503.0
524.0,517.0,525.0,528.0,505.0
514.0,511.0,515.0,523.0,509.0
500.0,500.0,502.0,510.0,520.0
494.0,497.0,497.0,503.0,523.0
494.0,497.0,498.0,501.0,522.0
494.0,493.0,496.0,498.0,521.0
498.0,497.0,502.0,502.0,522.0
502.0,498.0,506.0,500.0,515.0
507.0,501.0,511.0,503.0,511.0
508.0,501.0,513.0,505.0,510.0
511.0,501.0,516.0,510.0,509.0
518.0,509.0,525.0,514.0,508.0
521.0,509.0,525.0,521.0,508.0
529.0,519.0,528.0,530.0,505.0
533.0,519.0,532.0,534.0,499.0
533.0,519.0,530.0,533.0,501.0
527.0,516.0,523.0,531.0,509.0
518.0,513.0,519.0,526.0,522.0
513.0,511.0,514.0,521.0,518.0
496.0,500.0,502.0,508.0,529.0
492.0,494.0,494.0,499.0,519.0
495.0,496.0,496.0,498.0,522.0
495.0,497.0,500.0,497.0,524.0
502.0,497.0,501.0,497.0,523.0
505.0,499.0,510.0,500.0,513.0
510.0,502.0,513.0,506.0,501.0
515.0,502.0,515.0,507.0,513.0
515.0,504.0,520.0,509.0,519.0
524.0,507.0,523.0,516.0,507.0
527.0,511.0,525.0,520.0,505.0
532.0,516.0,530.0,528.0,501.0
536.0,518.0,531.0,531.0,508.0
534.0,518.0,531.0,534.0,490.0
526.0,517.0,520.0,527.0,511.0
516.0,513.0,518.0,525.0,525.0
505.0,509.0,512.0,515.0,522.0
495.0,499.0,500.0,505.0,522.0
492.0,497.0,495.0,506.0,520.0
494.0,496.0,496.0,495.0,520.0
502.0,498.0,501.0,499.0,514.0
502.0,500.0,505.0,498.0,514.0
508.0,500.0,508.0,502.0,512.0
512.0,503.0,514.0,507.0,513.0
509.0,503.0,516.0,508.0,520.0
515.0,503.0,519.0,512.0,510.0
522.0,509.0,525.0,520.0,502.0
528.0,513.0,528.0,524.0,500.0
531.0,516.0,529.0,528.0,500.0
531.0,520.0,529.0,532.0,499.0
530.0,518.0,526.0,532.0,502.0
525.0,513.0,517.0,528.0,507.0
520.0,515.0,520.0,524.0,514.0
503.0,498.0,501.0,509.0,533.0
500.0,498.0,498.0,502.0,544.0
495.0,497.0,496.0,498.0,543.0
495.0,497.0,496.0,502.0,542.0
494.0,497.0,500.0,497.0,528.0
502.0,499.0,506.0,502.0,508.0
508.0,502.0,510.0,504.0,489.0
513.0,503.0,514.0,508.0,474.0
516.0,503.0,515.0,510.0,478.0
521.0,505.0,520.0,515.0,498.0
517.0,509.0,524.0,520.0,537.0
524.0,515.0,529.0,528.0,524.0
528.0,518.0,530.0,530.0,518.0
532.0,519.0,529.0,533.0,493.0
528.0,517.0,523.0,531.0,496.0
524.0,514.0,517.0,525.0,511.0
516.0,511.0,511.0,524.0,519.0
500.0,502.0,503.0,507.0,513.0
489.0,495.0,494.0,501.0,513.0
490.0,495.0,493.0,501.0,513.0
495.0,501.0,499.0,499.0,515.0
496.0,497.0,502.0,500.0,526.0
500.0,496.0,506.0,500.0,525.0
502.0,501.0,511.0,502.0,532.0
511.0,503.0,514.0,505.0,532.0
513.0,502.0,518.0,507.0,526.0
517.0,506.0,520.0,515.0,510.0
524.0,514.0,526.0,528.0,498.0
531.0,515.0,529.0,527.0,497.0
535.0,521.0,532.0,535.0,490.0
533.0,520.0,529.0,535.0,495.0
531.0,516.0,522.0,531.0,496.0
517.0,511.0,515.0,525.0,498.0
507.0,502.0,507.0,516.0,508.0
497.0,499.0,498.0,502.0,525.0
496.0,497.0,497.0,499.0,531.0
493.0,494.0,492.0,501.0,524.0
497.0,498.0,500.0,499.0,528.0
499.0,497.0,503.0,498.0,520.0
502.0,498.0,505.0,499.0,523.0
509.0,502.0,513.0,504.0,512.0
513.0,504.0,513.0,509.0,507.0
515.0,505.0,519.0,511.0,510.0
517.0,508.0,523.0,519.0,502.0
525.0,513.0,530.0,525.0,499.0
530.0,518.0,533.0,534.0,501.0
535.0,520.0,530.0,533.0,499.0
532.0,518.0,526.0,532.0,500.0
525.0,516.0,521.0,528.0,502.0
521.0,511.0,515.0,523.0,507.0
507.0,501.0,502.0,510.0,518.0
496.0,498.0,497.0,504.0,527.0
493.0,496.0,496.0,499.0,523.0
495.0,497.0,498.0,499.0,522.0
494.0,496.0,500.0,498.0,522.0
500.0,497.0,503.0,499.0,517.0
505.0,505.0,510.0,503.0,518.0
507.0,502.0,511.0,510.0,517.0
513.0,503.0,516.0,509.0,505.0
518.0,505.0,519.0,512.0,497.0
523.0,509.0,524.0,520.0,502.0
531.0,515.0,529.0,531.0,513.0
536.0,519.0,531.0,532.0,518.0
539.0,519.0,530.0,535.0,526.0
529.0,517.0,524.0,531.0,525.0
524.0,515.0,520.0,530.0,516.0
515.0,510.0,512.0,519.0,520.0
498.0,498.0,496.0,503.0,532.0
492.0,496.0,494.0,497.0,531.0
493.0,496.0,495.0,497.0,524.0
493.0,496.0,498.0,497.0,519.0
497.0,497.0,501.0,499.0,493.0
504.0,499.0,504.0,506.0,495.0
510.0,501.0,510.0,505.0,500.0
516.0,503.0,514.0,506.0,503.0
518.0,503.0,517.0,509.0,506.0
523.0,506.0,520.0,513.0,506.0
527.0,510.0,524.0,519.0,506.0
532.0,516.0,529.0,527.0,508.0
533.0,520.0,532.0,532.0,510.0
532.0,520.0,530.0,533.0,511.0
525.0,518.0,524.0,530.0,517.0
513.0,512.0,514.0,523.0,519.0
506.0,507.0,509.0,516.0,517.0
492.0,498.0,498.0,505.0,507.0
493.0,497.0,496.0,502.0,510.0
495.0,497.0,498.0,499.0,514.0
496.0,499.0,501.0,500.0,516.0
500.0,497.0,502.0,495.0,521.0
501.0,501.0,507.0,501.0,513.0
508.0,503.0,513.0,506.0,510.0
509.0,503.0,516.0,508.0,511.0
518.0,504.0,518.0,510.0,508.0
524.0,509.0,523.0,516.0,503.0
527.0,512.0,524.0,522.0,500.0
532.0,520.0,531.0,532.0,495.0
537.0,519.0,530.0,533.0,494.0
534.0,517.0,525.0,532.0,497.0
528.0,516.0,521.0,528.0,510.0
521.0,513.0,515.0,522.0,537.0
508.0,501.0,501.0,507.0,539.0
498.0,498.0,497.0,503.0,522.0
498.0,495.0,496.0,497.0,529.0
494.0,496.0,497.0,498.0,525.0
498.0,498.0,502.0,498.0,518.0
496.0,499.0,505.0,501.0,509.0
502.0,499.0,508.0,502.0,495.0
499.0,499.0,509.0,502.0,508.0
506.0,501.0,515.0,510.0,507.0
514.0,507.0,522.0,518.0,513.0
525.0,510.0,524.0,519.0,512.0
530.0,515.0,533.0,525.0,504.0
532.0,518.0,531.0,531.0,498.0
532.0,519.0,528.0,532.0,499.0
524.0,517.0,524.0,530.0,509.0
517.0,515.0,519.0,525.0,515.0
512.0,515.0,516.0,520.0,514.0
505.0,502.0,502.0,509.0,522.0
495.0,496.0,495.0,499.0,524.0
491.0,495.0,495.0,497.0,521.0
497.0,501.0,500.0,501.0,521.0
494.0,497.0,501.0,497.0,527.0
496.0,499.0,510.0,501.0,527.0
507.0,502.0,513.0,504.0,518.0
509.0,502.0,514.0,506.0,511.0
515.0,504.0,518.0,510.0,511.0
518.0,506.0,522.0,516.0,512.0
522.0,510.0,525.0,521.0,512.0
532.0,515.0,528.0,526.0,508.0
533.0,522.0,534.0,536.0,511.0
530.0,519.0,528.0,533.0,513.0
523.0,516.0,522.0,529.0,514.0
518.0,513.0,517.0,526.0,507.0
512.0,508.0,511.0,518.0,510.0
497.0,500.0,499.0,505.0,537.0
496.0,497.0,497.0,501.0,530.0
497.0,499.0,497.0,500.0,534.0
497.0,496.0,499.0,496.0,525.0
508.0,499.0,505.0,501.0,520.0
502.0,497.0,507.0,499.0,514.0
512.0,501.0,514.0,503.0,516.0
511.0,503.0,515.0,505.0,519.0
518.0,503.0,519.0,513.0,514.0
526.0,507.0,523.0,520.0,490.0
529.0,512.0,527.0,525.0,490.0
538.0,517.0,530.0,530.0,493.0
541.0,521.0,532.0,535.0,493.0
535.0,518.0,525.0,531.0,498.0
523.0,515.0,520.0,528.0,507.0
520.0,517.0,516.0,525.0,517.0
504.0,505.0,502.0,511.0,523.0
496.0,498.0,496.0,503.0,524.0
494.0,496.0,498.0,501.0,521.0
489.0,495.0,496.0,498.0,516.0
499.0,498.0,502.0,501.0,516.0
502.0,497.0,503.0,501.0,515.0
502.0,500.0,509.0,502.0,521.0
506.0,503.0,514.0,505.0,523.0
509.0,506.0,517.0,509.0,522.0
512.0,504.0,519.0,516.0,507.0
524.0,510.0,525.0,521.0,517.0
527.0,514.0,528.0,527.0,514.0
531.0,518.0,531.0,534.0,497.0
533.0,517.0,528.0,533.0,495.0
529.0,516.0,523.0,529.0,508.0
520.0,516.0,522.0,525.0,517.0
515.0,510.0,513.0,520.0,515.0
502.0,500.0,499.0,507.0,525.0
494.0,496.0,494.0,500.0,530.0
492.0,496.0,495.0,498.0,524.0
499.0,497.0,499.0,499.0,505.0
498.0,497.0,501.0,498.0,513.0
507.0,499.0,506.0,501.0,523.0
503.0,500.0,511.0,502.0,531.0
511.0,504.0,516.0,507.0,521.0
514.0,504.0,518.0,509.0,521.0
517.0,507.0,522.0,514.0,521.0
524.0,511.0,524.0,521.0,512.0
528.0,518.0,530.0,528.0,491.0
537.0,519.0,532.0,536.0,466.0
537.0,519.0,529.0,536.0,465.0
528.0,515.0,521.0,530.0,479.0
522.0,514.0,518.0,527.0,489.0
512.0,509.0,510.0,520.0,510.0
497.0,500.0,499.0,507.0,527.0
494.0,496.0,494.0,504.0,533.0
493.0,495.0,495.0,502.0,524.0
499.0,496.0,499.0,498.0,521.0
500.0,500.0,504.0,500.0,519.0
504.0,499.0,506.0,501.0,511.0
508.0,503.0,514.0,506.0,511.0
511.0,502.0,515.0,506.0,512.0
516.0,504.0,519.0,511.0,516.0
522.0,509.0,524.0,518.0,514.0
524.0,512.0,527.0,524.0,504.0
531.0,515.0,529.0,529.0,493.0
536.0,519.0,530.0,534.0,492.0
530.0,517.0,525.0,533.0,503.0
526.0,513.0,519.0,526.0,513.0
519.0,513.0,516.0,519.0,519.0
505.0,503.0,504.0,512.0,527.0
495.0,495.0,499.0,505.0,528.0
494.0,496.0,495.0,499.0,524.0
494.0,495.0,497.0,497.0,522.0
499.0,497.0,503.0,503.0,522.0
500.0,498.0,504.0,500.0,519.0
502.0,499.0,508.0,502.0,504.0
511.0,504.0,516.0,508.0,484.0
511.0,503.0,512.0,507.0,495.0
518.0,507.0,522.0,513.0,494.0
529.0,512.0,527.0,523.0,511.0
531.0,516.0,531.0,527.0,534.0
537.0,518.0,533.0,532.0,522.0
537.0,518.0,530.0,533.0,512.0
530.0,515.0,523.0,530.0,513.0
523.0,514.0,520.0,528.0,501.0
510.0,511.0,515.0,522.0,514.0
489.0,499.0,501.0,506.0,539.0
488.0,496.0,495.0,500.0,541.0
488.0,499.0,497.0,499.0,537.0
499.0,498.0,499.0,499.0,529.0
505.0,496.0,501.0,498.0,515.0
504.0,499.0,506.0,500.0,518.0
512.0,506.0,514.0,510.0,513.0
517.0,501.0,514.0,505.0,512.0
519.0,504.0,519.0,512.0,512.0
520.0,509.0,524.0,518.0,524.0
525.0,508.0,526.0,521.0,517.0
530.0,515.0,529.0,527.0,507.0
535.0,519.0,532.0,533.0,504.0
533.0,518.0,529.0,533.0,504.0
524.0,516.0,522.0,529.0,504.0
521.0,513.0,518.0,525.0,507.0
515.0,509.0,511.0,519.0,518.0
496.0,499.0,499.0,506.0,533.0
490.0,500.0,502.0,505.0,528.0
492.0,497.0,498.0,499.0,524.0
497.0,499.0,501.0,499.0,524.0
501.0,498.0,504.0,502.0,497.0
505.0,499.0,507.0,502.0,498.0
507.0,502.0,512.0,505.0,505.0
511.0,504.0,515.0,504.0,512.0
514.0,504.0,518.0,510.0,507.0
520.0,508.0,523.0,517.0,506.0
521.0,512.0,526.0,523.0,507.0
534.0,518.0,535.0,532.0,520.0
534.0,520.0,532.0,531.0,520.0
529.0,518.0,526.0,528.0,525.0
522.0,513.0,519.0,523.0,518.0
513.0,509.0,513.0,523.0,484.0
503.0,501.0,501.0,512.0,489.0
498.0,497.0,497.0,505.0,513.0
494.0,496.0,496.0,501.0,514.0
495.0,496.0,498.0,499.0,519.0
498.0,496.0,500.0,499.0,516.0
502.0,498.0,504.0,500.0,518.0
501.0,499.0,508.0,502.0,516.0
509.0,504.0,513.0,505.0,516.0
506.0,502.0,516.0,508.0,517.0
514.0,505.0,521.0,514.0,514.0
521.0,509.0,524.0,519.0,506.0
529.0,515.0,529.0,526.0,499.0
537.0,520.0,533.0,532.0,496.0
534.0,516.0,528.0,530.0,505.0
531.0,521.0,528.0,534.0,512.0
521.0,514.0,518.0,527.0,514.0
518.0,510.0,514.0,522.0,517.0
499.0,500.0,501.0,509.0,532.0
496.0,497.0,497.0,504.0,526.0
495.0,496.0,498.0,500.0,516.0
496.0,497.0,499.0,499.0,509.0
499.0,500.0,500.0,499.0,501.0
506.0,500.0,506.0,500.0,501.0
512.0,501.0,512.0,504.0,491.0
514.0,503.0,516.0,508.0,499.0
515.0,506.0,521.0,511.0,501.0
521.0,507.0,523.0,515.0,504.0
524.0,510.0,526.0,520.0,511.0
529.0,515.0,528.0,524.0,511.0
532.0,518.0,532.0,531.0,513.0
530.0,518.0,527.0,532.0,511.0
525.0,513.0,520.0,525.0,525.0
519.0,512.0,516.0,521.0,532.0
512.0,508.0,510.0,522.0,535.0
499.0,500.0,499.0,506.0,540.0
488.0,495.0,495.0,500.0,523.0
493.0,495.0,496.0,500.0,507.0
498.0,497.0,499.0,499.0,508.0
499.0,497.0,503.0,500.0,497.0
504.0,499.0,507.0,500.0,512.0
507.0,502.0,512.0,504.0,510.0
512.0,503.0,514.0,505.0,507.0
515.0,505.0,519.0,512.0,511.0
519.0,510.0,525.0,519.0,504.0
525.0,513.0,527.0,525.0,509.0
531.0,518.0,530.0,529.0,512.0
534.0,519.0,531.0,533.0,514.0
529.0,521.0,530.0,534.0,512.0
523.0,515.0,519.0,527.0,499.0
514.0,512.0,515.0,523.0,510.0
504.0,499.0,507.0,512.0,524.0
495.0,498.0,497.0,504.0,524.0
494.0,497.0,497.0,499.0,522.0
496.0,497.0,498.0,499.0,520.0
499.0,498.0,498.0,500.0,514.0
502.0,502.0,504.0,503.0,501.0
507.0,499.0,508.0,503.0,499.0
511.0,501.0,512.0,502.0,502.0
520.0,504.0,516.0,506.0,510.0
514.0,503.0,517.0,508.0,520.0
517.0,507.0,522.0,517.0,511.0
525.0,515.0,529.0,526.0,501.0
533.0,518.0,531.0,531.0,500.0
534.0,520.0,531.0,533.0,505.0
527.0,516.0,524.0,529.0,509.0
519.0,516.0,520.0,526.0,512.0
519.0,512.0,515.0,522.0,514.0
501.0,499.0,499.0,505.0,528.0
493.0,496.0,496.0,500.0,535.0
491.0,497.0,498.0,498.0,535.0
492.0,498.0,501.0,498.0,533.0
494.0,496.0,500.0,496.0,526.0
500.0,499.0,506.0,500.0,510.0
508.0,501.0,510.0,504.0,497.0
517.0,505.0,516.0,507.0,506.0
515.0,504.0,518.0,507.0,521.0
521.0,507.0,522.0,513.0,526.0
525.0,509.0,524.0,519.0,522.0
532.0,516.0,530.0,528.0,512.0
534.0,520.0,532.0,534.0,499.0
535.0,518.0,528.0,533.0,504.0
523.0,516.0,526.0,529.0,509.0
513.0,508.0,517.0,524.0,506.0
516.0,509.0,513.0,520.0,499.0
500.0,503.0,501.0,506.0,517.0
494.0,497.0,496.0,499.0,530.0
492.0,495.0,497.0,498.0,520.0
500.0,499.0,503.0,502.0,514.0
496.0,496.0,504.0,502.0,511.0
502.0,499.0,507.0,502.0,514.0
513.0,504.0,515.0,506.0,514.0
511.0,503.0,516.0,506.0,493.0
517.0,506.0,520.0,514.0,494.0
526.0,511.0,526.0,518.0,493.0
530.0,513.0,528.0,525.0,495.0
533.0,517.0,531.0,530.0,505.0
533.0,517.0,529.0,533.0,509.0
530.0,516.0,525.0,531.0,507.0
524.0,519.0,523.0,528.0,517.0
518.0,511.0,516.0,524.0,517.0
505.0,504.0,506.0,512.0,522.0
494.0,497.0,497.0,504.0,517.0
493.0,497.0,497.0,499.0,521.0
493.0,495.0,497.0,497.0,519.0
497.0,501.0,506.0,500.0,520.0
501.0,499.0,505.0,501.0,506.0
505.0,500.0,510.0,505.0,499.0
507.0,500.0,514.0,506.0,507.0
509.0,502.0,516.0,505.0,507.0
516.0,505.0,520.0,510.0,519.0
523.0,511.0,526.0,520.0,519.0
530.0,515.0,529.0,527.0,506.0
534.0,517.0,529.0,532.0,499.0
537.0,521.0,528.0,534.0,504.0
530.0,518.0,526.0,534.0,512.0
523.0,517.0,523.0,529.0,518.0
519.0,512.0,516.0,524.0,515.0
502.0,501.0,502.0,509.0,538.0
494.0,497.0,497.0,501.0,544.0
494.0,497.0,498.0,498.0,529.0
495.0,494.0,501.0,497.0,512.0
499.0,496.0,500.0,494.0,510.0
505.0,502.0,509.0,498.0,508.0
507.0,499.0,508.0,504.0,508.0
511.0,502.0,516.0,507.0,498.0
515.0,503.0,518.0,509.0,505.0
518.0,506.0,519.0,510.0,523.0
523.0,509.0,525.0,519.0,514.0
526.0,514.0,528.0,527.0,504.0
536.0,521.0,532.0,532.0,501.0
533.0,518.0,530.0,533.0,498.0
522.0,514.0,521.0,526.0,504.0
519.0,516.0,521.0,524.0,508.0
513.0,512.0,516.0,520.0,507.0
499.0,501.0,501.0,507.0,521.0
491.0,496.0,497.0,500.0,526.0
492.0,493.0,495.0,494.0,531.0
496.0,495.0,499.0,496.0,533.0
499.0,497.0,503.0,498.0,529.0
509.0,499.0,508.0,500.0,527.0
514.0,501.0,512.0,502.0,522.0
516.0,504.0,517.0,506.0,522.0
513.0,504.0,519.0,509.0,518.0
518.0,507.0,523.0,517.0,511.0
526.0,507.0,523.0,522.0,510.0
531.0,514.0,527.0,527.0,505.0
533.0,520.0,533.0,536.0,496.0
530.0,518.0,527.0,533.0,497.0
522.0,514.0,520.0,528.0,503.0
520.0,512.0,517.0,524.0,510.0
505.0,504.0,506.0,511.0,520.0
493.0,498.0,497.0,503.0,530.0
493.0,497.0,496.0,499.0,527.0
494.0,492.0,498.0,501.0,519.0
502.0,497.0,500.0,498.0,515.0
505.0,501.0,505.0,499.0,515.0
509.0,503.0,510.0,500.0,517.0
518.0,504.0,514.0,508.0,514.0
515.0,503.0,517.0,505.0,516.0
520.0,506.0,521.0,514.0,516.0
523.0,509.0,524.0,518.0,508.0
528.0,514.0,529.0,526.0,508.0
530.0,518.0,532.0,533.0,504.0
529.0,519.0,531.0,534.0,503.0
523.0,517.0,526.0,532.0,504.0
518.0,514.0,519.0,527.0,506.0
512.0,513.0,516.0,524.0,514.0
501.0,500.0,500.0,509.0,525.0
494.0,498.0,497.0,502.0,525.0
491.0,495.0,496.0,497.0,521.0
494.0,497.0,499.0,498.0,521.0
501.0,497.0,499.0,499.0,517.0
504.0,498.0,503.0,503.0,515.0
505.0,500.0,510.0,505.0,512.0
509.0,502.0,514.0,507.0,504.0
509.0,503.0,516.0,509.0,505.0
516.0,507.0,523.0,516.0,507.0
525.0,511.0,526.0,524.0,507.0
534.0,518.0,529.0,528.0,513.0
538.0,519.0,531.0,531.0,513.0
534.0,518.0,527.0,531.0,510.0
521.0,515.0,523.0,528.0,529.0
519.0,513.0,518.0,526.0,509.0
514.0,513.0,513.0,522.0,505.0
498.0,500.0,499.0,505.0,528.0
495.0,498.0,498.0,500.0,531.0
492.0,493.0,499.0,503.0,533.0
492.0,496.0,499.0,497.0,523.0
503.0,498.0,504.0,500.0,517.0
505.0,500.0,507.0,501.0,508.0
513.0,500.0,512.0,504.0,508.0
512.0,502.0,515.0,508.0,514.0
515.0,505.0,520.0,513.0,524.0
522.0,509.0,525.0,519.0,528.0
525.0,514.0,529.0,527.0,528.0
531.0,515.0,530.0,527.0,514.0
537.0,521.0,533.0,538.0,471.0
534.0,522.0,529.0,532.0,491.0
525.0,513.0,520.0,524.0,508.0
520.0,511.0,516.0,522.0,519.0
508.0,504.0,505.0,511.0,532.0
495.0,495.0,494.0,503.0,521.0
499.0,496.0,498.0,503.0,527.0
498.0,496.0,497.0,499.0,517.0
499.0,497.0,501.0,499.0,505.0
504.0,498.0,504.0,501.0,499.0
502.0,499.0,508.0,501.0,508.0
510.0,506.0,514.0,506.0,497.0
513.0,504.0,518.0,510.0,503.0
516.0,503.0,518.0,511.0,504.0
522.0,508.0,524.0,520.0,502.0
528.0,513.0,531.0,530.0,511.0
534.0,517.0,530.0,529.0,510.0
535.0,518.0,528.0,531.0,500.0
532.0,519.0,528.0,534.0,498.0
527.0,513.0,518.0,526.0,497.0
519.0,510.0,514.0,523.0,494.0
504.0,501.0,501.0,510.0,504.0
498.0,496.0,496.0,504.0,506.0
492.0,494.0,493.0,499.0,515.0
497.0,502.0,504.0,500.0,526.0
500.0,496.0,501.0,497.0,530.0
503.0,499.0,505.0,499.0,528.0
504.0,499.0,510.0,503.0,520.0
502.0,499.0,512.0,505.0,500.0
509.0,503.0,519.0,513.0,485.0
520.0,506.0,523.0,517.0,498.0
526.0,514.0,530.0,523.0,505.0
533.0,515.0,530.0,528.0,507.0
543.0,520.0,533.0,532.0,510.0
537.0,520.0,531.0,534.0,505.0
529.0,516.0,524.0,530.0,518.0
520.0,514.0,520.0,524.0,524.0
510.0,508.0,513.0,518.0,522.0
497.0,504.0,506.0,508.0,534.0
492.0,498.0,498.0,501.0,537.0
494.0,498.0,498.0,497.0,526.0
496.0,499.0,501.0,498.0,522.0
498.0,498.0,505.0,501.0,520.0
502.0,500.0,507.0,500.0,519.0
506.0,500.0,512.0,504.0,508.0
514.0,502.0,515.0,506.0,509.0
517.0,509.0,523.0,515.0,510.0
526.0,509.0,524.0,518.0,505.0
531.0,517.0,529.0,526.0,503.0
535.0,517.0,531.0,530.0,491.0
539.0,519.0,532.0,533.0,493.0
534.0,520.0,529.0,532.0,510.0
526.0,515.0,522.0,527.0,520.0
518.0,514.0,516.0,522.0,528.0
505.0,503.0,504.0,509.0,541.0
497.0,503.0,502.0,507.0,520.0
491.0,495.0,495.0,500.0,515.0
489.0,494.0,497.0,496.0,524.0
496.0,500.0,506.0,498.0,515.0
500.0,498.0,504.0,499.0,519.0
506.0,500.0,507.0,501.0,519.0
517.0,503.0,514.0,507.0,513.0
514.0,503.0,517.0,510.0,512.0
519.0,503.0,523.0,515.0,509.0
523.0,508.0,523.0,517.0,502.0
529.0,512.0,527.0,520.0,504.0
534.0,518.0,532.0,529.0,511.0
531.0,519.0,528.0,530.0,502.0
526.0,517.0,524.0,529.0,504.0
519.0,513.0,519.0,525.0,508.0
516.0,511.0,515.0,521.0,514.0
502.0,504.0,504.0,508.0,526.0
495.0,500.0,499.0,502.0,528.0
495.0,496.0,496.0,498.0,530.0
497.0,498.0,500.0,498.0,523.0
497.0,496.0,501.0,499.0,514.0
497.0,499.0,506.0,500.0,513.0
500.0,499.0,507.0,500.0,519.0
507.0,503.0,517.0,509.0,510.0
510.0,504.0,518.0,510.0,508.0
516.0,506.0,522.0,515.0,515.0
523.0,510.0,525.0,521.0,515.0
530.0,516.0,528.0,526.0,504.0
539.0,519.0,537.0,538.0,494.0
534.0,520.0,530.0,534.0,495.0
528.0,521.0,521.0,532.0,500.0
522.0,514.0,518.0,525.0,496.0
513.0,511.0,516.0,519.0,519.0
493.0,498.0,501.0,506.0,519.0
489.0,496.0,494.0,501.0,519.0
494.0,497.0,496.0,500.0,513.0
501.0,498.0,501.0,501.0,507.0
501.0,497.0,500.0,497.0,521.0
507.0,500.0,507.0,502.0,525.0
509.0,500.0,510.0,501.0,530.0
518.0,504.0,515.0,504.0,525.0
512.0,503.0,516.0,510.0,520.0
514.0,507.0,522.0,516.0,513.0
519.0,511.0,525.0,524.0,495.0
527.0,520.0,533.0,529.0,492.0
532.0,520.0,533.0,539.0,496.0
530.0,519.0,529.0,534.0,501.0
522.0,514.0,520.0,526.0,517.0
515.0,512.0,515.0,524.0,535.0
500.0,503.0,504.0,512.0,533.0
492.0,495.0,496.0,501.0,537.0
490.0,496.0,496.0,503.0,527.0
494.0,496.0,497.0,498.0,515.0
498.0,499.0,503.0,498.0,525.0
505.0,500.0,505.0,498.0,526.0
507.0,501.0,508.0,501.0,521.0
507.0,502.0,513.0,510.0,503.0
508.0,502.0,515.0,514.0,496.0
515.0,505.0,520.0,521.0,482.0
521.0,508.0,523.0,521.0,497.0
527.0,512.0,525.0,523.0,499.0
534.0,516.0,528.0,529.0,502.0
535.0,520.0,531.0,534.0,502.0
530.0,515.0,526.0,537.0,506.0
524.0,515.0,520.0,527.0,515.0
516.0,511.0,514.0,520.0,520.0
502.0,505.0,504.0,509.0,530.0
495.0,497.0,496.0,498.0,536.0
494.0,495.0,495.0,498.0,526.0
497.0,496.0,498.0,500.0,513.0
501.0,498.0,502.0,499.0,512.0
503.0,499.0,506.0,501.0,507.0
507.0,499.0,509.0,502.0,520.0
512.0,508.0,519.0,507.0,517.0
515.0,505.0,518.0,510.0,515.0
520.0,506.0,521.0,515.0,514.0
526.0,515.0,526.0,519.0,514.0
534.0,515.0,529.0,526.0,504.0
537.0,519.0,530.0,531.0,494.0
534.0,519.0,527.0,533.0,498.0
526.0,515.0,525.0,529.0,511.0
517.0,512.0,518.0,528.0,522.0
510.0,509.0,512.0,521.0,515.0
497.0,501.0,501.0,510.0,529.0
495.0,495.0,500.0,504.0,531.0
490.0,496.0,497.0,499.0,527.0
496.0,498.0,500.0,501.0,513.0
499.0,497.0,501.0,499.0,514.0
505.0,501.0,508.0,504.0,511.0
506.0,501.0,512.0,507.0,506.0
509.0,503.0,515.0,508.0,507.0
518.0,506.0,520.0,514.0,511.0
521.0,508.0,522.0,520.0,505.0
523.0,511.0,524.0,525.0,502.0
529.0,515.0,528.0,530.0,497.0
537.0,520.0,533.0,537.0,498.0
534.0,519.0,527.0,536.0,499.0
525.0,514.0,519.0,527.0,512.0
521.0,514.0,517.0,526.0,516.0
508.0,504.0,503.0,514.0,523.0
499.0,500.0,499.0,506.0,532.0
495.0,496.0,496.0,500.0,533.0
493.0,496.0,497.0,498.0,527.0
495.0,494.0,498.0,499.0,513.0
499.0,498.0,503.0,503.0,510.0
505.0,500.0,509.0,506.0,514.0
511.0,503.0,514.0,511.0,514.0
510.0,503.0,515.0,510.0,515.0
515.0,507.0,523.0,512.0,522.0
522.0,509.0,522.0,518.0,513.0
526.0,513.0,526.0,524.0,506.0
531.0,516.0,529.0,531.0,499.0
534.0,518.0,529.0,534.0,500.0
530.0,515.0,524.0,533.0,506.0
525.0,512.0,517.0,526.0,509.0
519.0,513.0,517.0,524.0,513.0
501.0,500.0,500.0,510.0,518.0
497.0,496.0,495.0,501.0,525.0
497.0,497.0,495.0,499.0,525.0
502.0,502.0,503.0,499.0,519.0
504.0,496.0,500.0,499.0,515.0
502.0,497.0,504.0,506.0,519.0
504.0,504.0,513.0,503.0,518.0
508.0,502.0,514.0,507.0,512.0
516.0,503.0,518.0,509.0,511.0
515.0,506.0,522.0,515.0,515.0
521.0,510.0,524.0,520.0,520.0
529.0,516.0,530.0,528.0,520.0
534.0,519.0,533.0,533.0,516.0
533.0,518.0,528.0,530.0,509.0
529.0,516.0,524.0,530.0,485.0
522.0,515.0,516.0,529.0,491.0
520.0,511.0,514.0,522.0,516.0
504.0,499.0,500.0,507.0,517.0
497.0,496.0,496.0,500.0,521.0
491.0,495.0,496.0,497.0,526.0
491.0,496.0,499.0,496.0,521.0
498.0,499.0,505.0,501.0,517.0
502.0,503.0,511.0,505.0,517.0
508.0,505.0,512.0,505.0,510.0
512.0,504.0,517.0,511.0,509.0
515.0,504.0,520.0,512.0,502.0
523.0,512.0,525.0,522.0,491.0
532.0,511.0,526.0,524.0,486.0
535.0,517.0,531.0,531.0,500.0
538.0,519.0,531.0,534.0,496.0
527.0,518.0,529.0,535.0,524.0
522.0,512.0,519.0,526.0,523.0
519.0,512.0,517.0,524.0,508.0
506.0,505.0,506.0,514.0,510.0
494.0,498.0,498.0,505.0,511.0
494.0,497.0,496.0,500.0,510.0
495.0,495.0,496.0,495.0,528.0
493.0,495.0,498.0,495.0,539.0
498.0,498.0,502.0,498.0,535.0
503.0,499.0,507.0,500.0,526.0
507.0,502.0,513.0,508.0,500.0
511.0,505.0,517.0,512.0,501.0
517.0,505.0,519.0,513.0,506.0
523.0,510.0,525.0,520.0,510.0
529.0,514.0,528.0,526.0,505.0
531.0,517.0,530.0,532.0,515.0
537.0,520.0,531.0,536.0,519.0
529.0,518.0,527.0,533.0,520.0
520.0,514.0,520.0,528.0,525.0
515.0,511.0,514.0,523.0,503.0
501.0,503.0,503.0,509.0,517.0
497.0,496.0,496.0,500.0,527.0
496.0,498.0,498.0,499.0,526.0
500.0,496.0,498.0,496.0,522.0
499.0,498.0,502.0,499.0,524.0
504.0,498.0,507.0,499.0,519.0
508.0,498.0,509.0,500.0,508.0
508.0,502.0,514.0,506.0,507.0
514.0,505.0,519.0,510.0,510.0
517.0,510.0,526.0,520.0,517.0
525.0,509.0,525.0,521.0,516.0
529.0,514.0,528.0,528.0,506.0
539.0,519.0,532.0,535.0,502.0
535.0,519.0,529.0,534.0,505.0
526.0,516.0,522.0,527.0,502.0
522.0,513.0,519.0,528.0,501.0
517.0,510.0,513.0,520.0,500.0
501.0,504.0,504.0,507.0,515.0
493.0,496.0,496.0,501.0,517.0
495.0,495.0,496.0,500.0,520.0
493.0,497.0,500.0,500.0,514.0
498.0,498.0,502.0,500.0,508.0
503.0,503.0,507.0,504.0,507.0
508.0,503.0,513.0,506.0,522.0
509.0,502.0,514.0,502.0,533.0
515.0,505.0,519.0,509.0,520.0
524.0,509.0,524.0,518.0,498.0
526.0,511.0,525.0,521.0,505.0
535.0,516.0,531.0,529.0,494.0
534.0,518.0,532.0,533.0,487.0
533.0,519.0,528.0,533.0,488.0
526.0,514.0,520.0,526.0,500.0
516.0,513.0,518.0,525.0,498.0
507.0,504.0,506.0,514.0,513.0
500.0,499.0,498.0,505.0,518.0
492.0,494.0,494.0,499.0,518.0
492.0,495.0,497.0,503.0,518.0
499.0,497.0,500.0,497.0,513.0
502.0,498.0,505.0,501.0,513.0
504.0,499.0,507.0,501.0,515.0
510.0,501.0,512.0,504.0,515.0
511.0,505.0,517.0,508.0,517.0
514.0,504.0,519.0,511.0,512.0
522.0,509.0,525.0,519.0,511.0
526.0,512.0,527.0,524.0,505.0
530.0,516.0,531.0,529.0,502.0
534.0,519.0,531.0,534.0,500.0
532.0,519.0,527.0,533.0,500.0
525.0,514.0,520.0,526.0,510.0
524.0,512.0,515.0,526.0,518.0
505.0,501.0,501.0,508.0,526.0
503.0,499.0,497.0,503.0,526.0
499.0,497.0,497.0,500.0,523.0
501.0,499.0,503.0,499.0,520.0
499.0,496.0,500.0,498.0,521.0
500.0,501.0,507.0,502.0,522.0
498.0,497.0,506.0,505.0,512.0
506.0,503.0,514.0,506.0,500.0
510.0,504.0,517.0,509.0,500.0
516.0,510.0,521.0,515.0,506.0
521.0,510.0,523.0,519.0,511.0
528.0,516.0,530.0,526.0,514.0
533.0,520.0,533.0,533.0,498.0
535.0,518.0,531.0,535.0,492.0
529.0,518.0,525.0,532.0,501.0
522.0,513.0,518.0,526.0,507.0
517.0,509.0,512.0,519.0,512.0
498.0,501.0,501.0,508.0,527.0
491.0,495.0,495.0,498.0,523.0
493.0,497.0,498.0,501.0,517.0
495.0,494.0,500.0,499.0,512.0
503.0,497.0,502.0,499.0,509.0
509.0,500.0,508.0,503.0,520.0
504.0,499.0,513.0,505.0,525.0
508.0,502.0,514.0,507.0,519.0
513.0,504.0,522.0,510.0,518.0
519.0,508.0,524.0,515.0,522.0
527.0,511.0,526.0,523.0,511.0
531.0,515.0,529.0,530.0,494.0
535.0,518.0,530.0,533.0,479.0
538.0,525.0,531.0,535.0,480.0
528.0,515.0,521.0,528.0,501.0
522.0,512.0,517.0,525.0,514.0
506.0,505.0,507.0,513.0,534.0
492.0,499.0,499.0,504.0,557.0
491.0,496.0,496.0,499.0,533.0
495.0,496.0,498.0,504.0,522.0
499.0,497.0,500.0,497.0,516.0
502.0,497.0,501.0,501.0,523.0
508.0,498.0,505.0,499.0,512.0
513.0,503.0,512.0,501.0,514.0
513.0,508.0,517.0,508.0,513.0
515.0,501.0,518.0,511.0,512.0
518.0,508.0,524.0,519.0,510.0
524.0,513.0,528.0,525.0,508.0
530.0,518.0,531.0,531.0,502.0
531.0,520.0,531.0,535.0,496.0
532.0,520.0,528.0,535.0,502.0
522.0,514.0,520.0,529.0,514.0
511.0,511.0,515.0,523.0,516.0
499.0,502.0,499.0,511.0,522.0
494.0,496.0,495.0,502.0,518.0
495.0,495.0,496.0,504.0,520.0
496.0,496.0,499.0,498.0,514.0
498.0,501.0,506.0,498.0,516.0
503.0,498.0,506.0,500.0,506.0
509.0,500.0,509.0,503.0,503.0
513.0,502.0,511.0,505.0,516.0
516.0,505.0,518.0,509.0,506.0
519.0,506.0,521.0,514.0,506.0
525.0,514.0,528.0,519.0,512.0
531.0,513.0,528.0,522.0,516.0
534.0,517.0,530.0,526.0,519.0
536.0,520.0,530.0,530.0,521.0
526.0,516.0,523.0,534.0,506.0
523.0,512.0,522.0,531.0,513.0
517.0,510.0,513.0,522.0,510.0
500.0,501.0,499.0,513.0,518.0
495.0,494.0,496.0,504.0,523.0
494.0,495.0,496.0,498.0,524.0
496.0,497.0,500.0,500.0,530.0
503.0,498.0,505.0,499.0,533.0
511.0,500.0,507.0,501.0,513.0
514.0,501.0,512.0,502.0,517.0
514.0,499.0,514.0,504.0,516.0
520.0,504.0,518.0,508.0,506.0
519.0,507.0,523.0,517.0,492.0
519.0,511.0,525.0,522.0,498.0
519.0,517.0,528.0,530.0,505.0
527.0,520.0,532.0,534.0,506.0
529.0,521.0,531.0,536.0,500.0
522.0,516.0,523.0,528.0,511.0
514.0,512.0,517.0,522.0,510.0
504.0,504.0,506.0,514.0,519.0
491.0,496.0,495.0,502.0,524.0
490.0,495.0,495.0,499.0,524.0
496.0,498.0,499.0,499.0,524.0
497.0,497.0,500.0,496.0,533.0
500.0,494.0,504.0,500.0,515.0
502.0,498.0,505.0,496.0,515.0
515.0,504.0,516.0,507.0,507.0
513.0,500.0,517.0,508.0,509.0
520.0,505.0,520.0,513.0,513.0
518.0,506.0,522.0,519.0,505.0
525.0,512.0,527.0,525.0,505.0
534.0,517.0,529.0,529.0,504.0
536.0,520.0,533.0,536.0,510.0
531.0,524.0,527.0,534.0,513.0
525.0,514.0,519.0,527.0,511.0
517.0,513.0,516.0,522.0,520.0
504.0,501.0,501.0,508.0,530.0
499.0,499.0,498.0,505.0,520.0
493.0,492.0,493.0,497.0,506.0
495.0,494.0,494.0,504.0,499.0
503.0,496.0,500.0,499.0,499.0
504.0,499.0,506.0,502.0,502.0
507.0,499.0,507.0,503.0,504.0
510.0,506.0,517.0,507.0,501.0
516.0,502.0,516.0,508.0,507.0
519.0,507.0,522.0,516.0,512.0
525.0,511.0,525.0,521.0,508.0
531.0,519.0,532.0,528.0,507.0
535.0,519.0,532.0,532.0,508.0
534.0,517.0,529.0,531.0,506.0
530.0,517.0,525.0,531.0,507.0
524.0,512.0,519.0,525.0,511.0
515.0,509.0,514.0,518.0,513.0
497.0,501.0,502.0,506.0,531.0
494.0,496.0,497.0,500.0,533.0
496.0,495.0,497.0,498.0,524.0
493.0,495.0,500.0,497.0,519.0
501.0,497.0,503.0,498.0,525.0
507.0,500.0,508.0,500.0,523.0
504.0,500.0,509.0,502.0,522.0
512.0,502.0,511.0,510.0,499.0
521.0,504.0,519.0,509.0,509.0
519.0,506.0,524.0,517.0,507.0
527.0,511.0,526.0,523.0,508.0
537.0,518.0,530.0,529.0,506.0
534.0,519.0,532.0,533.0,506.0
532.0,518.0,528.0,533.0,508.0
524.0,513.0,520.0,528.0,516.0
517.0,510.0,518.0,524.0,518.0
509.0,506.0,509.0,518.0,515.0
499.0,499.0,499.0,507.0,519.0
496.0,496.0,496.0,503.0,516.0
497.0,501.0,498.0,500.0,524.0
498.0,497.0,499.0,496.0,531.0
501.0,497.0,502.0,497.0,516.0
508.0,498.0,508.0,499.0,518.0
507.0,500.0,511.0,509.0,509.0
509.0,504.0,517.0,509.0,508.0
513.0,502.0,519.0,512.0,506.0
518.0,511.0,526.0,521.0,501.0
525.0,513.0,528.0,526.0,501.0
529.0,517.0,531.0,530.0,504.0
532.0,519.0,530.0,532.0,506.0
534.0,519.0,529.0,531.0,508.0
521.0,513.0,518.0,522.0,516.0
519.0,513.0,516.0,522.0,507.0
506.0,506.0,506.0,510.0,519.0
496.0,498.0,497.0,502.0,525.0
501.0,498.0,498.0,500.0,516.0
497.0,498.0,499.0,499.0,514.0
501.0,500.0,504.0,497.0,505.0
509.0,500.0,507.0,502.0,501.0
508.0,501.0,510.0,502.0,518.0
509.0,504.0,512.0,509.0,519.0
512.0,502.0,519.0,508.0,508.0
519.0,507.0,521.0,515.0,514.0
526.0,511.0,525.0,521.0,508.0
531.0,516.0,530.0,527.0,510.0
533.0,518.0,530.0,531.0,511.0
531.0,518.0,528.0,530.0,515.0
527.0,518.0,525.0,529.0,513.0
521.0,513.0,517.0,524.0,507.0
520.0,511.0,513.0,521.0,501.0
502.0,501.0,500.0,507.0,523.0
495.0,495.0,493.0,499.0,520.0
491.0,496.0,497.0,499.0,523.0
493.0,497.0,498.0,498.0,510.0
496.0,497.0,501.0,501.0,518.0
502.0,506.0,512.0,503.0,511.0
507.0,500.0,510.0,503.0,510.0
513.0,502.0,513.0,504.0,520.0
515.0,504.0,518.0,510.0,525.0
518.0,507.0,521.0,515.0,522.0
526.0,512.0,524.0,522.0,518.0
533.0,518.0,530.0,529.0,514.0
536.0,519.0,531.0,533.0,510.0
533.0,519.0,527.0,530.0,518.0
523.0,519.0,520.0,530.0,529.0
514.0,513.0,518.0,523.0,506.0
510.0,507.0,509.0,519.0,508.0
498.0,499.0,499.0,509.0,501.0
497.0,496.0,496.0,501.0,512.0
493.0,496.0,496.0,498.0,524.0
495.0,499.0,500.0,499.0,522.0
499.0,498.0,503.0,500.0,513.0
505.0,499.0,506.0,502.0,509.0
507.0,501.0,512.0,504.0,508.0
510.0,506.0,514.0,508.0,507.0
514.0,506.0,519.0,513.0,510.0
524.0,513.0,524.0,518.0,509.0
528.0,512.0,526.0,522.0,513.0
533.0,523.0,534.0,535.0,512.0
535.0,520.0,532.0,534.0,507.0
531.0,519.0,528.0,534.0,493.0
521.0,511.0,516.0,526.0,500.0
519.0,514.0,516.0,525.0,500.0
502.0,501.0,501.0,510.0,516.0
495.0,497.0,496.0,502.0,525.0
495.0,498.0,497.0,502.0,521.0
496.0,495.0,497.0,498.0,508.0
502.0,498.0,502.0,500.0,508.0
504.0,504.0,507.0,502.0,509.0
505.0,499.0,508.0,498.0,513.0
513.0,502.0,514.0,505.0,507.0
516.0,504.0,518.0,510.0,508.0
516.0,505.0,522.0,513.0,508.0
522.0,510.0,524.0,519.0,504.0
530.0,518.0,529.0,527.0,508.0
535.0,517.0,531.0,531.0,501.0
535.0,522.0,533.0,535.0,500.0
531.0,516.0,525.0,531.0,505.0
527.0,512.0,517.0,525.0,516.0
521.0,511.0,514.0,521.0,526.0
505.0,500.0,500.0,508.0,537.0
495.0,495.0,494.0,498.0,536.0
494.0,496.0,496.0,499.0,525.0
495.0,497.0,499.0,497.0,525.0
497.0,497.0,502.0,500.0,512.0
503.0,499.0,506.0,502.0,502.0
507.0,498.0,509.0,502.0,509.0
513.0,503.0,516.0,505.0,512.0
514.0,504.0,520.0,510.0,509.0
514.0,504.0,526.0,517.0,506.0
515.0,510.0,526.0,523.0,509.0
522.0,516.0,531.0,530.0,504.0
529.0,518.0,532.0,534.0,501.0
526.0,520.0,530.0,535.0,503.0
521.0,515.0,520.0,527.0,510.0
516.0,513.0,517.0,524.0,514.0
509.0,507.0,509.0,516.0,517.0
500.0,500.0,499.0,506.0,521.0
491.0,498.0,500.0,504.0,518.0
492.0,495.0,496.0,499.0,521.0
498.0,499.0,502.0,500.0,526.0
500.0,500.0,508.0,498.0,519.0
506.0,500.0,508.0,500.0,516.0
509.0,504.0,514.0,504.0,521.0
513.0,505.0,516.0,508.0,515.0
515.0,505.0,520.0,512.0,511.0
519.0,509.0,524.0,519.0,503.0
525.0,513.0,528.0,523.0,510.0
531.0,515.0,530.0,529.0,511.0
538.0,520.0,536.0,536.0,512.0
531.0,521.0,530.0,535.0,508.0
520.0,513.0,518.0,525.0,520.0
516.0,512.0,515.0,522.0,517.0
502.0,502.0,503.0,509.0,524.0
495.0,497.0,498.0,502.0,525.0
494.0,497.0,497.0,500.0,527.0
492.0,496.0,498.0,497.0,519.0
497.0,499.0,502.0,497.0,515.0
499.0,499.0,506.0,500.0,518.0
506.0,505.0,514.0,506.0,542.0
509.0,503.0,515.0,504.0,544.0
514.0,505.0,519.0,508.0,536.0
516.0,511.0,523.0,523.0,498.0
524.0,508.0,524.0,519.0,495.0
531.0,513.0,530.0,529.0,480.0
537.0,517.0,531.0,533.0,476.0
537.0,520.0,530.0,536.0,489.0
529.0,518.0,525.0,532.0,500.0
521.0,516.0,521.0,530.0,508.0
516.0,511.0,512.0,525.0,511.0
499.0,500.0,505.0,508.0,526.0
492.0,496.0,496.0,499.0,529.0
497.0,498.0,499.0,502.0,529.0
497.0,497.0,500.0,500.0,523.0
498.0,496.0,501.0,498.0,523.0
509.0,502.0,508.0,501.0,521.0
510.0,502.0,511.0,502.0,519.0
513.0,502.0,513.0,505.0,515.0
513.0,504.0,522.0,513.0,498.0
520.0,506.0,522.0,514.0,498.0
526.0,511.0,525.0,522.0,492.0
532.0,515.0,528.0,527.0,482.0
536.0,521.0,536.0,533.0,488.0
533.0,519.0,529.0,533.0,493.0
526.0,518.0,519.0,531.0,513.0
517.0,511.0,515.0,522.0,517.0
513.0,510.0,508.0,517.0,516.0
506.0,500.0,500.0,507.0,522.0
499.0,496.0,495.0,501.0,515.0
498.0,498.0,500.0,504.0,511.0
496.0,496.0,500.0,499.0,515.0
497.0,497.0,502.0,500.0,512.0
495.0,496.0,508.0,500.0,518.0
498.0,500.0,510.0,503.0,528.0
510.0,503.0,515.0,505.0,513.0
509.0,505.0,518.0,513.0,513.0
521.0,509.0,526.0,520.0,514.0
526.0,514.0,527.0,524.0,510.0
530.0,517.0,531.0,530.0,505.0
534.0,520.0,532.0,534.0,505.0
536.0,521.0,529.0,534.0,511.0
528.0,514.0,520.0,526.0,521.0
522.0,513.0,517.0,524.0,519.0
503.0,502.0,502.0,508.0,518.0
498.0,503.0,499.0,502.0,523.0
493.0,495.0,496.0,497.0,522.0
494.0,497.0,498.0,496.0,520.0
497.0,493.0,503.0,503.0,510.0
509.0,501.0,507.0,502.0,501.0
508.0,501.0,510.0,502.0,508.0
512.0,505.0,516.0,504.0,503.0
519.0,505.0,518.0,510.0,493.0
519.0,505.0,520.0,512.0,509.0
521.0,508.0,523.0,517.0,525.0
525.0,513.0,528.0,524.0,520.0
531.0,518.0,531.0,532.0,505.0
531.0,519.0,530.0,533.0,503.0
530.0,516.0,524.0,529.0,509.0
517.0,512.0,517.0,524.0,522.0
514.0,512.0,515.0,521.0,525.0
500.0,502.0,502.0,508.0,537.0
494.0,498.0,497.0,499.0,536.0
495.0,494.0,496.0,501.0,536.0
498.0,497.0,499.0,497.0,530.0
496.0,497.0,502.0,498.0,528.0
504.0,505.0,511.0,504.0,502.0
503.0,498.0,508.0,500.0,513.0
507.0,500.0,512.0,504.0,512.0
513.0,503.0,519.0,511.0,517.0
518.0,507.0,522.0,513.0,518.0
525.0,514.0,528.0,524.0,516.0
533.0,516.0,530.0,529.0,513.0
533.0,518.0,530.0,530.0,507.0
531.0,521.0,529.0,530.0,497.0
528.0,517.0,523.0,531.0,491.0
518.0,510.0,513.0,526.0,501.0
513.0,508.0,510.0,518.0,508.0
502.0,500.0,499.0,506.0,522.0
493.0,496.0,496.0,496.0,531.0
494.0,496.0,497.0,496.0,531.0
500.0,498.0,500.0,497.0,531.0
504.0,497.0,503.0,505.0,504.0
505.0,499.0,508.0,505.0,505.0
505.0,499.0,513.0,504.0,507.0
515.0,504.0,517.0,503.0,514.0
512.0,505.0,520.0,513.0,517.0
525.0,510.0,527.0,521.0,511.0
530.0,514.0,529.0,527.0,509.0
530.0,516.0,530.0,528.0,503.0
535.0,516.0,530.0,532.0,493.0
533.0,520.0,533.0,538.0,502.0
519.0,514.0,520.0,526.0,522.0
515.0,511.0,516.0,522.0,517.0
504.0,502.0,504.0,512.0,521.0
499.0,497.0,497.0,502.0,516.0
499.0,494.0,496.0,504.0,518.0
501.0,497.0,498.0,498.0,520.0
504.0,497.0,502.0,498.0,514.0
507.0,503.0,506.0,502.0,506.0
511.0,500.0,509.0,503.0,509.0
512.0,502.0,513.0,507.0,508.0
513.0,506.0,521.0,511.0,503.0
515.0,505.0,522.0,515.0,503.0
521.0,507.0,525.0,518.0,500.0
528.0,516.0,530.0,527.0,497.0
527.0,517.0,531.0,530.0,501.0
528.0,518.0,528.0,532.0,498.0
529.0,518.0,527.0,532.0,509.0
517.0,512.0,517.0,524.0,513.0
515.0,511.0,514.0,520.0,511.0
498.0,503.0,504.0,509.0,520.0
492.0,496.0,495.0,502.0,513.0
492.0,497.0,499.0,500.0,505.0
494.0,497.0,504.0,502.0,509.0
493.0,496.0,501.0,499.0,511.0
503.0,502.0,507.0,507.0,512.0
504.0,499.0,509.0,507.0,512.0
511.0,504.0,515.0,507.0,518.0
514.0,504.0,519.0,510.0,517.0
516.0,507.0,523.0,519.0,507.0
522.0,509.0,525.0,522.0,515.0
533.0,514.0,528.0,528.0,507.0
531.0,517.0,527.0,529.0,500.0
536.0,522.0,531.0,535.0,507.0
531.0,518.0,523.0,530.0,506.0
524.0,512.0,517.0,523.0,504.0
514.0,508.0,511.0,518.0,520.0
495.0,499.0,499.0,504.0,527.0
491.0,493.0,492.0,501.0,529.0
494.0,497.0,497.0,498.0,518.0
498.0,499.0,501.0,500.0,509.0
501.0,499.0,503.0,506.0,512.0
506.0,500.0,507.0,500.0,518.0
508.0,500.0,511.0,503.0,524.0
518.0,505.0,516.0,508.0,526.0
515.0,506.0,523.0,515.0,529.0
525.0,510.0,526.0,521.0,519.0
527.0,513.0,528.0,526.0,494.0
533.0,517.0,530.0,530.0,491.0
539.0,521.0,533.0,534.0,490.0
538.0,519.0,527.0,533.0,490.0
526.0,514.0,517.0,525.0,497.0
520.0,511.0,516.0,523.0,501.0
501.0,501.0,503.0,510.0,521.0
498.0,498.0,498.0,504.0,516.0
494.0,498.0,496.0,500.0,520.0
492.0,496.0,498.0,498.0,535.0
498.0,500.0,502.0,502.0,527.0
501.0,499.0,506.0,501.0,518.0
511.0,499.0,508.0,501.0,515.0
512.0,503.0,518.0,508.0,513.0
515.0,504.0,518.0,509.0,513.0
518.0,506.0,521.0,512.0,516.0
522.0,509.0,524.0,517.0,502.0
527.0,518.0,532.0,527.0,518.0
533.0,517.0,532.0,530.0,516.0
529.0,520.0,531.0,532.0,523.0
522.0,517.0,525.0,530.0,510.0
517.0,510.0,515.0,529.0,513.0
514.0,511.0,515.0,522.0,515.0
500.0,501.0,502.0,509.0,516.0
493.0,496.0,494.0,500.0,514.0
493.0,497.0,497.0,500.0,522.0
499.0,497.0,499.0,498.0,518.0
497.0,497.0,501.0,494.0,511.0
503.0,501.0,508.0,502.0,508.0
505.0,501.0,511.0,504.0,513.0
510.0,502.0,513.0,506.0,510.0
517.0,503.0,517.0,508.0,510.0
520.0,507.0,522.0,516.0,511.0
527.0,515.0,529.0,524.0,508.0
531.0,515.0,529.0,528.0,505.0
535.0,517.0,530.0,531.0,504.0
533.0,520.0,529.0,535.0,508.0
523.0,516.0,522.0,529.0,515.0
521.0,515.0,520.0,524.0,516.0
517.0,512.0,514.0,518.0,518.0
502.0,502.0,499.0,504.0,536.0
496.0,500.0,495.0,503.0,535.0
497.0,496.0,495.0,499.0,527.0
497.0,496.0,498.0,497.0,516.0
498.0,497.0,501.0,501.0,500.0
503.0,500.0,507.0,503.0,496.0
502.0,501.0,512.0,506.0,508.0
506.0,502.0,514.0,507.0,508.0
511.0,506.0,520.0,512.0,510.0
519.0,509.0,523.0,516.0,504.0
525.0,512.0,525.0,522.0,498.0
532.0,518.0,530.0,528.0,495.0
532.0,519.0,531.0,534.0,500.0
529.0,519.0,528.0,534.0,503.0
518.0,512.0,517.0,531.0,508.0
513.0,511.0,516.0,524.0,515.0
500.0,503.0,501.0,515.0,529.0
492.0,498.0,496.0,500.0,526.0
493.0,498.0,498.0,496.0,526.0
496.0,497.0,498.0,495.0,523.0
500.0,497.0,498.0,499.0,523.0
505.0,499.0,505.0,502.0,523.0
504.0,500.0,508.0,501.0,518.0
510.0,502.0,511.0,507.0,514.0
515.0,504.0,516.0,507.0,513.0
518.0,507.0,521.0,513.0,519.0
524.0,511.0,525.0,522.0,524.0
528.0,514.0,528.0,524.0,521.0
530.0,520.0,529.0,532.0,493.0
538.0,521.0,531.0,536.0,486.0
531.0,517.0,524.0,531.0,496.0
517.0,513.0,516.0,523.0,509.0
514.0,510.0,513.0,520.0,508.0
502.0,504.0,504.0,507.0,516.0
494.0,497.0,496.0,501.0,520.0
495.0,498.0,496.0,500.0,514.0
496.0,496.0,497.0,498.0,514.0
497.0,498.0,502.0,501.0,523.0
505.0,504.0,509.0,504.0,512.0
506.0,501.0,508.0,507.0,514.0
510.0,503.0,514.0,507.0,512.0
516.0,504.0,518.0,510.0,512.0
514.0,506.0,520.0,516.0,503.0
521.0,510.0,525.0,521.0,508.0
531.0,516.0,529.0,528.0,508.0
534.0,518.0,531.0,531.0,508.0
534.0,521.0,530.0,534.0,509.0
523.0,515.0,522.0,529.0,515.0
517.0,512.0,516.0,525.0,520.0
519.0,511.0,513.0,520.0,530.0
499.0,496.0,499.0,503.0,539.0
494.0,496.0,495.0,498.0,531.0
494.0,496.0,497.0,500.0,518.0
497.0,498.0,500.0,500.0,521.0
499.0,499.0,503.0,501.0,526.0
503.0,501.0,508.0,503.0,522.0
