CH1,CH2,CH3,CH4,CH5
504,507,480,491,510
506,506,485,488,510
507,506,487,485,510
511,503,500,490,512
518,503,513,497,505
527,505,529,511,501
532,510,543,522,493
538,511,554,536,491
529,507,552,540,496
529,510,551,544,506
526,508,542,543,511
502,501,519,531,524
496,502,503,521,532
492,504,491,513,530
489,507,484,507,527
485,505,477,497,526
488,506,477,491,522
504,508,483,489,518
505,505,484,486,517
509,504,494,486,512
528,502,506,492,506
531,504,518,500,504
537,511,533,515,496
539,508,547,527,487
541,513,555,537,489
532,509,554,542,496
524,507,546,542,501
515,505,536,539,508
499,505,516,526,523
491,501,500,519,530
487,503,487,510,538
492,506,481,501,538
498,507,478,499,532
506,508,479,489,529
502,510,482,486,525
510,504,485,482,519
513,504,497,486,510
515,508,512,494,499
523,505,522,504,495
535,509,539,519,494
539,515,552,532,488
542,511,553,539,494
537,509,552,543,497
526,508,545,548,505
506,502,528,534,524
492,500,509,524,529
488,503,495,519,533
487,505,484,508,533
490,507,479,501,529
496,506,477,494,521
504,507,480,490,517
501,505,483,483,520
502,503,488,482,516
514,503,500,488,507
530,505,516,499,496
531,507,529,511,490
542,512,545,525,489
548,511,555,535,491
537,510,553,539,492
528,510,551,543,502
519,508,543,542,509
504,502,520,528,527
493,502,500,521,533
495,506,491,513,534
496,508,484,505,530
495,507,477,497,529
497,507,478,488,523
498,507,480,488,519
498,504,485,484,521
501,504,493,485,518
513,503,505,491,503
522,504,519,501,498
532,508,535,514,489
540,512,551,530,486
534,509,554,537,487
529,509,552,541,493
527,506,545,541,500
517,506,536,538,512
501,500,516,527,529
493,502,497,516,538
499,511,486,508,535
495,508,482,506,529
495,506,477,495,524
499,506,478,486,519
505,507,483,486,518
508,506,488,484,522
518,506,496,487,513
520,504,511,494,496
525,504,523,505,493
532,507,537,519,485
535,511,553,534,485
527,507,556,536,502
528,510,554,543,514
520,508,544,541,511
516,506,525,532,519
498,502,510,526,531
492,505,497,517,534
488,506,485,513,533
491,508,480,501,532
499,507,479,493,528
510,507,480,490,525
510,506,484,489,518
507,505,487,482,518
517,504,501,489,513
522,503,515,498,505
528,506,530,510,496
535,509,544,525,488
540,510,551,535,486
537,510,554,543,487
527,507,548,541,496
525,510,543,543,506
505,504,520,531,522
492,498,499,517,533
488,503,492,511,532
486,506,486,506,525
487,505,477,497,527
493,506,475,490,526
497,506,480,487,522
497,504,484,483,524
511,502,494,484,517
519,503,507,493,510
525,504,519,501,501
541,509,538,516,490
537,511,549,528,486
531,510,555,536,487
532,509,554,540,497
525,509,547,542,504
513,507,537,540,508
499,501,516,528,522
492,505,500,520,530
490,504,486,511,529
494,505,480,502,526
496,506,477,495,528
499,505,478,490,525
504,504,482,486,520
503,503,485,487,523
514,503,502,487,515
518,504,511,495,506
523,506,525,502,501
527,506,539,518,491
531,510,554,534,487
525,507,554,539,492
527,513,552,542,495
525,506,544,542,499
509,501,526,532,515
493,500,508,521,527
490,503,494,516,530
503,507,483,508,534
497,505,477,498,530
496,504,475,491,527
501,505,479,486,522
511,511,483,485,517
512,504,488,485,517
516,504,501,489,503
527,506,517,500,500
532,512,531,512,496
540,511,549,526,484
538,509,555,536,494
532,509,554,541,497
524,507,548,541,502
515,506,541,541,510
498,500,520,533,526
489,505,502,521,535
488,504,492,514,535
496,506,482,506,527
500,507,478,500,523
501,510,477,493,520
504,505,480,489,517
503,503,484,484,524
506,502,493,486,521
515,504,507,493,510
520,505,520,502,499
528,508,533,516,489
535,510,554,530,486
536,511,556,538,487
537,510,554,546,495
522,507,549,541,503
514,504,535,536,513
497,498,513,525,529
490,503,497,517,537
495,507,488,510,538
502,511,480,503,532
500,506,475,494,527
499,507,479,494,518
502,504,483,488,517
508,504,488,485,517
508,503,499,489,509
517,504,512,497,511
521,505,525,507,497
530,507,541,521,488
535,511,554,535,484
529,510,553,539,486
525,509,552,544,499
526,508,546,543,500
522,502,526,534,518
504,502,507,524,535
499,505,497,517,531
500,508,485,511,530
494,507,479,501,527
496,505,476,492,522
497,504,481,488,524
501,506,484,488,519
507,506,492,487,520
511,501,500,489,515
521,505,517,500,508
528,506,530,511,495
537,514,548,527,490
536,511,553,535,485
536,509,554,541,492
528,509,549,545,502
520,508,545,541,510
503,503,521,532,528
497,502,502,522,534
491,504,492,517,533
492,506,483,510,529
494,507,481,499,532
501,507,479,493,529
500,507,481,489,526
501,504,483,485,519
505,503,493,486,514
519,503,506,495,507
525,505,521,504,496
530,508,537,518,491
537,513,551,531,487
537,509,554,538,485
537,507,552,541,496
524,507,547,542,506
513,508,537,540,518
496,498,515,531,528
490,502,497,519,534
487,504,487,510,534
494,506,483,501,526
495,507,473,495,523
498,507,477,489,523
502,506,482,487,519
505,505,487,485,517
517,502,496,487,512
525,504,515,495,504
528,505,524,505,498
538,507,537,520,491
541,510,554,533,490
532,506,553,539,493
527,510,553,545,495
518,508,546,544,501
503,505,526,534,520
493,502,510,526,531
496,503,494,517,529
494,506,484,508,530
494,508,478,501,532
497,508,477,494,528
499,505,478,488,526
504,507,485,487,522
505,503,488,484,518
513,504,503,491,512
520,504,515,499,506
528,507,532,511,495
535,509,546,526,486
534,510,555,537,482
538,509,554,542,487
529,507,548,544,498
521,507,541,541,513
503,501,518,528,530
497,500,502,520,536
491,504,492,515,543
485,508,484,508,537
482,507,479,500,530
485,508,479,494,524
491,506,485,491,519
496,503,484,485,512
506,503,497,489,510
506,501,506,492,503
522,504,521,503,499
557,511,537,520,486
556,511,552,529,490
539,510,555,538,490
535,511,554,542,498
522,508,548,542,504
514,506,537,538,516
504,502,516,528,532
506,503,499,521,534
497,504,486,508,534
496,507,480,503,532
495,508,478,496,529
499,508,479,492,524
500,506,483,488,516
499,503,490,485,513
509,502,498,488,515
523,506,512,498,510
526,504,525,504,502
527,508,540,521,498
534,513,555,534,487
542,511,557,542,487
528,508,551,541,495
519,510,544,543,507
507,503,526,534,520
493,498,506,523,528
492,504,498,514,533
493,507,481,507,536
504,509,479,500,533
505,509,478,495,532
503,507,479,489,531
506,505,484,486,526
508,505,489,486,521
521,504,503,493,510
521,504,515,501,499
527,509,533,514,495
540,511,547,527,487
543,512,557,539,482
535,508,560,541,488
527,508,550,544,498
520,507,543,542,510
501,501,520,529,528
493,500,500,519,533
490,502,491,514,531
492,506,481,505,528
493,506,477,498,527
496,506,478,492,523
500,509,481,489,518
504,505,486,487,515
505,506,495,486,519
515,502,506,493,512
527,508,520,504,502
531,507,537,517,496
536,509,551,531,491
534,510,557,540,492
524,509,552,545,505
521,511,548,543,511
516,506,536,539,520
498,506,515,526,529
497,503,499,521,535
489,504,485,509,533
489,506,479,507,531
496,506,476,496,524
500,507,479,491,523
502,508,484,488,518
507,506,488,486,523
512,502,498,487,518
519,506,515,499,509
525,505,524,510,498
535,509,541,521,489
541,511,554,534,486
540,512,558,543,487
529,507,551,541,500
522,506,546,546,513
505,502,527,535,525
496,501,508,525,531
495,503,492,512,534
491,507,485,507,534
493,508,479,501,531
498,508,478,495,526
500,507,480,489,525
507,507,485,487,524
511,508,492,487,520
513,507,500,489,510
523,504,517,498,507
532,510,534,513,495
535,509,547,526,489
534,510,556,539,485
530,509,557,543,495
521,507,549,546,503
520,508,547,542,509
507,504,522,532,527
493,502,503,521,533
490,502,489,512,534
492,505,481,503,531
496,507,477,497,532
501,507,478,493,526
501,505,481,488,521
503,505,485,486,512
512,505,495,485,511
517,504,508,495,506
520,505,521,505,496
528,506,537,516,494
537,512,553,532,492
533,511,557,543,493
527,508,553,542,501
519,507,547,542,508
514,505,536,538,517
498,500,511,526,527
493,502,499,519,530
491,502,484,506,532
487,506,480,503,532
486,504,475,494,530
500,507,478,491,522
502,506,482,487,521
503,504,486,484,521
521,502,497,489,516
530,503,512,496,503
530,506,525,512,498
541,509,541,522,494
539,511,554,533,488
536,510,556,541,490
521,505,549,540,502
523,510,546,542,507
504,502,525,532,520
497,504,509,524,529
491,504,494,515,534
492,508,484,508,534
490,509,479,500,532
495,509,479,495,528
506,508,479,489,526
510,510,484,488,520
508,503,489,485,513
511,501,501,489,508
516,505,521,504,503
524,508,530,511,496
544,511,548,529,490
546,509,555,537,489
544,509,555,541,494
535,507,549,545,501
525,506,542,541,505
509,502,519,530,527
496,506,500,520,537
495,503,489,512,536
498,505,482,502,530
495,507,474,495,524
501,508,479,493,519
502,505,480,487,518
508,506,487,487,515
508,502,493,487,507
518,506,508,496,503
527,505,522,503,497
534,507,536,521,492
536,509,549,530,487
537,510,556,541,489
528,506,550,541,497
524,512,548,544,507
514,505,536,536,518
498,503,515,527,532
492,503,499,519,537
495,508,487,511,538
497,507,481,504,530
499,507,476,495,526
498,509,477,489,520
500,505,481,486,515
504,504,487,486,510
507,503,502,490,506
516,504,512,497,508
532,509,527,515,501
535,511,542,523,488
537,511,553,535,493
535,510,555,542,501
528,508,549,542,503
525,508,544,542,502
502,500,522,530,518
490,501,505,521,528
494,504,494,515,534
495,507,483,507,531
497,509,479,500,530
499,509,478,496,522
503,507,479,491,515
507,505,483,487,506
510,503,490,486,511
515,502,502,493,518
523,504,516,499,509
532,509,534,513,501
536,511,548,527,492
537,512,555,538,491
533,510,552,541,493
527,509,548,543,503
520,508,542,543,505
506,503,519,529,522
493,501,500,519,534
491,504,490,512,539
492,511,481,506,533
494,507,477,498,530
500,508,478,495,527
501,505,481,488,524
506,504,486,486,524
510,503,494,486,517
518,505,511,498,512
525,504,521,504,508
534,508,542,518,499
541,512,550,530,489
539,511,556,541,484
528,508,552,546,494
524,509,547,544,502
512,508,534,537,513
502,504,512,529,527
494,503,497,517,531
496,503,485,507,538
496,504,479,500,537
497,507,476,493,533
505,507,478,489,530
510,505,482,485,525
505,503,487,483,521
506,503,500,489,516
513,504,516,498,502
523,506,529,512,488
535,511,541,524,488
533,510,556,540,490
530,511,558,546,493
522,507,550,544,505
524,507,546,542,494
507,499,523,533,513
494,501,508,525,517
486,503,497,520,525
487,504,483,507,528
494,506,478,500,533
494,508,478,495,524
493,508,478,489,524
515,506,484,487,520
517,508,491,486,520
518,503,503,489,514
526,505,520,502,507
539,508,532,513,498
540,507,546,526,494
547,512,555,535,494
543,511,556,542,494
528,507,548,542,501
515,507,542,542,506
507,502,518,529,525
500,503,502,521,534
504,506,490,512,533
494,505,480,502,528
487,504,476,496,532
493,506,478,492,524
492,503,479,486,517
501,503,485,485,512
511,501,495,488,512
517,504,506,492,514
527,504,522,504,516
544,512,540,520,496
548,515,553,532,492
542,512,559,540,498
534,508,551,541,494
527,506,545,541,496
515,502,533,539,514
499,500,512,527,528
513,504,495,521,536
507,506,485,508,545
504,507,479,501,542
504,508,478,497,523
495,506,480,492,510
495,506,481,487,503
505,503,487,485,504
512,502,501,489,518
519,504,513,500,504
527,506,528,510,490
530,509,543,522,481
537,511,555,537,482
535,514,558,544,497
520,505,548,539,514
507,506,542,541,520
489,503,524,532,542
477,502,508,523,540
490,507,495,516,551
485,508,487,513,556
479,508,481,501,550
497,508,480,497,543
505,506,478,483,532
494,498,483,481,503
507,497,488,487,473
530,499,501,495,476
526,503,521,505,487
533,509,534,520,501
523,511,548,527,536
534,510,554,536,512
522,510,554,538,510
519,511,548,540,505
550,516,547,545,517
526,509,523,533,549
506,507,507,525,553
500,508,494,515,530
484,507,485,509,513
487,507,479,499,498
491,507,479,495,475
496,501,475,483,479
506,502,482,484,494
520,501,491,486,514
545,501,505,494,493
547,502,518,501,488
540,507,534,517,483
551,512,550,537,487
543,512,557,543,483
538,509,552,543,486
533,509,548,544,495
528,506,535,538,507
515,504,512,530,520
493,503,498,522,554
498,510,490,513,572
500,511,483,504,553
499,510,481,499,541
490,507,481,492,523
484,499,478,487,466
492,502,487,488,503
504,503,498,484,536
520,505,514,496,495
532,507,529,511,478
538,511,542,523,502
540,512,556,538,494
537,512,555,547,491
525,509,549,548,491
522,508,544,548,514
501,501,523,537,551
493,504,506,526,562
492,504,491,515,548
499,503,479,507,486
505,506,475,502,492
504,504,474,499,516
494,503,472,488,500
499,502,480,488,489
509,505,489,490,480
517,505,501,496,473
532,508,515,507,468
545,511,530,520,489
547,511,544,536,487
543,507,548,540,490
530,510,556,546,516
520,509,552,543,533
519,513,548,546,533
498,504,520,530,556
496,504,501,521,562
501,508,492,512,551
496,514,487,502,574
485,512,482,496,544
478,510,481,494,532
489,510,483,486,579
502,507,489,485,601
513,509,504,499,558
525,513,519,507,497
544,512,529,504,510
527,502,534,520,452
493,500,544,529,463
522,509,558,546,497
519,502,544,535,511
523,507,544,541,504
484,504,534,544,530
457,501,515,541,516
442,503,499,533,568
438,502,487,522,583
472,506,478,508,601
502,510,473,493,600
513,503,474,493,505
492,494,469,484,521
472,495,479,486,521
424,496,496,496,493
408,501,516,509,482
434,502,530,510,504
508,509,545,525,489
631,520,555,535,426
633,518,558,537,445
540,507,548,537,453
499,507,542,529,517
508,505,523,519,552
475,505,510,521,538
499,511,497,518,526
504,505,476,507,555
508,503,474,504,589
506,510,481,507,505
494,504,483,509,418
490,500,483,492,439
527,502,487,487,471
542,504,501,489,548
541,505,518,498,576
556,513,539,516,504
555,509,551,525,484
541,506,553,536,500
529,503,551,536,545
508,499,544,534,601
473,506,546,549,555
473,502,526,552,488
441,492,499,539,476
426,491,482,529,463
501,506,478,516,477
522,513,481,504,526
540,507,474,488,566
527,501,470,474,517
551,503,480,485,448
566,513,498,496,440
574,511,513,495,471
566,516,526,506,483
582,517,541,515,518
586,512,545,511,576
500,501,555,519,567
488,508,560,543,575
536,509,553,549,536
499,487,527,532,478
440,485,506,528,434
461,494,495,519,506
469,496,478,507,497
487,498,469,506,431
489,505,472,507,456
543,522,488,517,468
528,517,486,492,566
521,511,491,492,595
550,504,493,480,592
536,498,504,488,564
548,502,524,509,546
470,498,544,532,559
422,497,554,540,467
419,508,567,555,544
449,509,561,555,633
446,501,546,548,606
449,489,520,546,538
536,482,486,501,464
538,498,484,481,478
523,511,486,510,419
475,507,476,499,456
482,512,476,492,491
483,512,479,499,543
481,507,481,495,552
486,499,482,485,527
498,480,478,465,551
540,498,509,487,504
619,516,542,515,544
629,518,562,532,548
566,518,571,545,581
492,508,565,535,575
468,505,566,551,449
457,501,557,555,397
364,481,520,527,424
349,481,484,493,479
352,498,485,512,569
285,490,473,509,577
286,490,470,519,542
358,484,458,487,642
579,496,458,483,500
517,483,456,457,464
425,480,473,457,489
412,489,498,481,514
380,492,523,505,540
371,504,550,541,493
501,528,575,540,432
570,532,582,531,468
540,518,571,511,480
629,528,570,508,614
598,516,556,515,596
645,508,525,526,586
527,484,491,517,600
403,480,477,507,536
354,481,461,503,420
236,473,452,501,497
92,473,453,498,730
86,477,456,510,730
149,471,453,502,435
267,482,475,498,376
583,499,501,474,506
716,530,541,509,368
801,528,561,530,260
798,522,568,492,406
696,516,571,512,528
625,516,576,537,461
598,526,581,551,462
543,520,557,545,506
476,512,527,519,582
446,508,501,499,602
395,491,471,482,662
475,491,458,491,586
562,495,455,491,533
615,487,451,491,503
555,489,462,481,607
547,495,478,493,578
430,491,501,516,550
398,516,540,520,619
369,520,567,544,615
370,484,543,525,435
614,504,551,529,267
834,543,579,563,261
747,519,552,530,405
649,514,544,520,480
589,523,543,528,447
605,520,511,503,569
609,503,482,492,601
626,498,468,492,497
571,495,467,491,529
567,499,468,491,519
514,489,463,485,578
509,485,470,494,522
577,493,480,480,514
626,508,509,503,426
565,515,532,518,498
472,519,557,546,518
367,519,572,544,535
457,534,579,541,601
489,527,573,539,579
467,498,541,532,441
459,487,515,525,555
443,489,505,530,722
460,498,488,517,546
459,487,474,491,409
664,520,487,529,310
635,516,481,531,474
484,486,464,491,606
458,487,468,466,517
496,496,484,490,507
495,495,496,481,517
432,500,516,496,476
439,498,526,497,471
449,494,535,518,542
494,512,557,522,626
494,524,567,544,597
410,492,542,548,574
498,503,536,537,419
604,521,535,553,292
469,511,510,512,488
367,501,487,495,585
378,497,479,497,523
422,491,470,486,525
566,494,474,492,430
611,501,475,482,593
619,517,496,514,486
580,507,503,517,528
439,488,504,496,525
372,492,517,504,553
474,511,540,518,471
477,529,562,538,523
596,525,562,555,431
554,505,549,535,425
499,511,541,511,527
543,517,538,512,682
428,503,525,548,673
374,473,487,536,576
383,465,469,517,368
602,537,500,544,225
639,547,506,511,524
602,510,478,466,718
476,475,462,467,560
436,486,481,473,497
490,507,512,507,490
468,508,519,498,481
465,509,522,498,454
553,522,542,514,466
570,516,545,522,464
512,502,539,525,449
457,491,533,549,432
520,497,544,586,381
602,511,537,564,538
548,511,513,525,639
627,530,506,516,635
520,503,484,501,513
611,510,486,513,551
592,516,490,513,576
607,518,492,505,578
650,501,477,473,473
561,502,486,459,648
391,488,495,490,570
331,482,512,502,499
434,500,525,511,540
634,532,552,541,456
702,538,559,540,507
548,508,538,521,399
503,508,541,541,396
508,512,535,535,495
505,502,514,519,578
488,499,506,540,648
437,501,496,536,553
353,499,487,548,394
356,495,481,517,403
481,494,471,487,478
528,489,463,457,516
705,525,487,475,538
648,512,491,487,578
623,506,503,505,494
436,478,494,502,504
292,473,514,482,553
416,511,549,524,577
448,514,551,553,576
565,518,548,566,473
610,523,538,516,443
595,518,536,520,499
448,500,517,522,596
536,494,499,521,493
636,511,488,509,484
552,517,488,509,495
497,515,492,514,493
478,522,500,511,520
527,504,484,488,570
625,508,491,507,502
691,516,502,503,406
586,511,510,500,397
500,497,514,491,529
489,504,534,522,594
451,495,538,523,624
536,517,562,571,375
515,517,554,561,379
597,515,539,527,522
650,514,520,531,488
529,489,497,520,611
326,479,485,506,552
381,507,492,513,590
517,518,495,523,614
536,504,478,497,532
472,497,482,511,378
432,490,481,498,472
483,495,486,487,607
462,497,496,488,549
437,504,517,501,418
381,526,549,520,483
355,505,540,518,524
592,513,547,553,450
561,509,542,559,423
445,488,531,536,477
711,527,537,519,560
769,525,521,521,534
576,503,498,521,517
483,492,483,507,549
501,499,480,510,570
602,510,480,494,613
541,507,482,500,518
518,504,479,505,524
558,516,495,492,521
527,514,502,498,490
543,513,507,472,487
574,512,523,496,496
553,508,533,511,501
520,509,546,525,469
496,506,545,537,459
491,505,539,542,476
498,502,536,540,509
524,509,535,542,586
460,497,510,528,575
511,501,492,508,556
536,502,491,519,438
562,514,488,515,438
587,513,481,496,471
556,510,484,499,479
503,496,482,491,511
529,505,491,497,465
479,503,501,487,563
460,502,515,509,579
495,499,520,517,554
570,504,529,513,574
474,505,543,531,522
403,495,542,547,500
367,486,527,548,498
443,505,530,541,532
507,520,529,552,482
440,495,500,513,522
298,491,495,516,510
315,494,490,513,565
553,517,486,503,468
714,522,479,497,455
633,518,481,481,499
598,503,481,481,518
557,496,485,492,501
559,496,497,511,496
529,501,518,528,469
580,513,530,506,538
547,513,538,509,510
517,514,553,537,480
430,510,551,542,536
430,499,534,528,574
524,513,538,539,524
588,508,512,526,492
616,517,508,519,570
559,504,489,510,612
497,498,481,503,618
524,506,481,513,463
587,516,480,498,441
560,502,477,479,505
496,501,491,511,505
472,503,500,505,553
479,514,511,492,536
486,510,524,497,561
558,514,535,515,498
603,524,549,533,423
652,527,555,548,425
608,518,552,552,382
485,497,529,528,583
422,503,532,543,533
451,494,512,529,553
487,495,497,525,519
472,503,491,516,486
461,492,475,504,456
474,497,474,490,518
500,505,482,482,595
521,517,495,495,639
440,509,497,503,630
473,497,492,489,520
355,488,510,502,454
411,492,519,502,451
523,509,535,522,447
517,512,549,545,484
599,519,553,558,460
586,518,542,545,503
521,508,534,531,540
476,505,522,531,509
503,502,509,529,567
475,502,500,515,572
444,507,493,516,509
574,504,477,491,547
580,499,472,506,485
567,500,479,514,414
577,505,488,499,404
631,510,496,483,431
561,499,495,469,560
518,500,510,486,553
559,510,527,505,525
569,522,546,529,492
559,517,554,538,533
532,515,555,554,508
480,506,543,549,517
539,521,541,545,493
569,512,523,534,525
536,494,497,521,591
422,504,492,509,571
439,496,483,502,501
470,484,472,497,542
481,504,482,500,571
525,515,487,490,479
526,503,487,486,492
532,505,499,497,478
538,508,512,498,538
550,507,518,502,482
550,509,535,515,464
563,512,540,527,485
534,514,552,538,534
523,513,552,548,519
476,500,535,549,490
435,500,531,551,522
389,498,514,536,536
478,507,506,532,491
567,510,491,510,565
516,510,484,505,569
487,505,481,491,552
496,506,478,493,516
495,497,483,492,517
492,500,492,487,559
488,496,496,484,567
503,490,506,505,505
549,504,524,507,437
561,509,539,522,505
559,521,558,554,494
557,520,553,540,489
613,522,546,535,412
588,512,539,549,489
474,505,525,548,478
450,496,505,525,560
410,500,488,492,665
511,506,483,504,616
460,506,487,516,554
415,491,477,491,561
446,508,488,495,400
568,508,486,480,486
495,492,483,470,526
471,490,491,480,502
518,507,514,501,449
568,517,533,527,407
587,511,544,534,472
604,522,556,547,525
565,529,561,552,533
529,525,556,578,456
515,507,542,569,457
513,497,513,529,565
487,502,502,501,502
493,504,492,513,468
504,493,478,498,560
511,497,474,485,575
522,504,481,497,507
537,503,479,489,506
525,498,480,466,592
499,498,490,468,609
475,508,513,503,487
483,498,517,509,480
515,514,536,519,483
558,519,550,524,482
551,517,552,543,503
568,523,557,553,511
557,523,550,554,494
579,512,539,547,476
497,490,507,526,499
415,488,494,513,539
446,500,486,505,570
531,503,479,496,558
521,490,473,496,546
472,491,474,493,466
481,495,481,489,479
554,514,494,487,538
610,523,510,505,543
536,508,519,513,496
500,500,521,502,558
491,506,542,519,527
469,503,544,536,435
467,503,545,528,485
539,515,547,543,472
569,518,544,547,482
432,501,528,539,508
413,502,517,529,525
506,515,511,530,524
586,509,488,511,571
556,508,480,501,569
554,518,489,506,528
534,510,486,503,513
448,486,475,482,529
432,480,479,470,524
492,503,500,485,428
534,507,518,510,458
554,521,536,527,499
543,513,543,523,537
523,513,552,528,523
471,518,558,553,450
445,513,549,549,461
523,517,541,543,501
600,508,520,531,504
607,494,492,514,539
525,505,491,511,526
466,496,480,500,578
411,490,471,486,618
488,505,487,500,522
540,510,494,492,520
549,506,493,487,473
534,499,497,499,478
545,511,507,487,539
558,512,524,500,542
559,517,537,513,527
552,521,552,533,512
502,510,554,549,524
553,513,549,569,444
560,505,538,555,477
518,500,530,556,531
413,496,511,503,509
407,494,493,512,514
404,492,482,516,539
484,507,493,526,506
528,508,485,497,558
515,496,479,478,550
563,505,484,471,486
562,508,494,481,518
551,508,505,485,534
559,506,516,504,496
524,502,523,503,545
549,515,540,523,487
547,512,547,534,436
545,516,553,548,502
524,514,546,549,523
495,502,536,541,488
486,500,520,531,509
493,507,510,526,522
517,511,499,520,500
466,506,494,521,479
419,496,485,513,552
420,501,486,496,601
564,518,494,486,542
517,495,481,484,545
541,494,486,475,542
448,492,500,495,476
511,503,515,491,495
629,523,538,522,438
624,521,543,522,483
552,517,551,532,493
512,515,555,552,477
535,516,551,548,494
538,510,535,541,496
542,502,513,526,500
535,504,498,521,524
493,499,490,512,565
466,502,484,507,533
495,507,480,501,505
499,509,487,499,529
488,513,490,490,552
421,498,493,486,563
432,490,491,482,544
496,495,503,490,528
559,512,521,506,500
577,515,534,517,472
604,525,552,535,480
571,518,553,541,527
540,509,552,554,489
497,503,540,555,496
441,497,530,562,479
354,484,507,546,496
441,503,497,512,583
562,521,493,496,532
587,519,489,493,513
551,504,483,492,512
504,497,480,490,518
521,496,482,485,547
533,500,487,478,526
533,504,501,484,541
522,498,508,494,483
553,511,526,505,476
559,516,540,522,463
549,515,555,539,487
565,522,558,548,512
528,518,552,552,526
529,512,537,543,448
524,499,516,528,460
477,497,507,536,574
452,501,499,530,525
465,499,486,513,507
525,504,478,495,508
533,500,478,488,531
487,497,481,482,543
515,507,486,485,505
587,509,496,484,547
557,501,504,488,516
494,498,517,497,527
483,513,534,518,498
497,516,545,531,510
507,512,551,545,477
555,520,550,539,445
546,514,541,538,486
539,510,535,549,470
504,500,513,536,499
475,496,496,519,576
484,502,490,515,536
485,507,488,514,533
491,508,485,502,525
505,509,490,501,517
512,514,496,494,534
510,508,492,490,521
472,499,498,500,523
519,496,500,481,529
529,501,514,500,522
555,512,534,514,498
550,514,548,531,489
546,514,551,543,469
549,511,547,537,510
535,507,537,543,492
507,504,529,544,525
496,500,511,526,545
475,501,500,519,557
511,506,495,514,527
477,506,488,508,516
482,499,479,497,525
504,504,483,498,540
513,498,483,495,483
522,502,492,484,498
534,504,504,484,542
514,506,513,493,563
525,513,529,503,553
514,514,542,523,521
503,513,549,532,422
532,515,551,541,444
528,508,545,546,478
543,506,535,543,479
543,504,522,538,519
523,509,514,527,549
528,513,505,523,550
487,503,491,509,510
492,498,482,494,560
491,501,481,495,494
527,506,485,493,478
502,497,482,482,512
525,501,492,486,493
516,499,504,489,513
524,506,517,498,528
538,511,533,517,504
544,516,547,531,481
550,516,554,544,463
529,517,553,551,469
535,514,545,549,482
531,509,536,540,522
541,501,516,532,523
510,497,500,525,521
477,495,488,512,566
470,499,485,503,592
483,501,478,491,564
501,506,488,503,491
503,506,492,494,516
505,503,492,489,536
498,503,497,488,513
503,508,517,499,542
501,504,525,498,503
545,511,535,514,491
543,512,547,533,490
526,512,552,546,480
526,518,554,554,475
513,509,542,550,487
535,507,531,535,490
539,501,509,524,535
491,497,494,514,545
485,497,485,509,538
487,503,485,503,526
488,501,482,498,534
520,507,486,492,512
509,503,487,487,514
496,496,487,479,520
505,501,502,489,511
531,506,516,503,502
539,508,527,509,490
556,512,540,526,484
551,514,551,537,485
554,517,554,549,484
542,512,547,549,493
523,508,535,540,512
504,498,521,533,531
499,498,505,525,536
495,500,495,519,528
484,498,483,508,534
493,504,482,499,529
502,506,483,491,534
520,509,488,494,532
510,502,490,479,534
502,500,495,483,531
499,502,506,493,498
523,504,519,503,491
526,510,534,517,489
537,515,545,529,486
561,517,553,541,477
557,516,555,547,498
538,506,542,544,508
518,506,536,546,507
496,498,513,531,521
492,499,500,522,531
492,501,493,513,520
485,499,486,505,518
487,500,486,497,545
502,506,486,494,535
509,504,488,490,523
507,498,486,483,521
511,502,499,484,516
518,505,512,496,507
525,505,521,504,501
533,512,538,524,492
543,515,547,534,488
550,517,554,546,484
539,514,552,551,495
522,508,540,542,504
515,505,530,538,514
494,500,510,527,528
479,499,497,519,534
471,500,488,512,535
481,502,483,503,535
493,503,481,496,533
511,507,487,495,524
500,503,489,487,525
508,501,491,484,523
530,504,503,490,509
529,506,519,503,505
537,508,529,509,500
541,514,542,525,488
546,520,553,539,490
556,517,556,548,490
538,515,546,553,491
527,506,536,543,513
512,500,520,537,531
493,499,505,524,540
490,499,493,516,520
497,504,487,508,529
495,504,482,499,538
501,504,485,500,527
503,504,485,492,517
505,499,487,485,523
512,502,495,487,513
523,505,507,494,506
525,504,519,502,498
538,510,532,516,491
545,514,547,531,484
546,515,554,543,486
542,515,553,550,489
528,510,544,547,503
520,507,536,544,510
505,501,517,533,532
493,500,501,523,543
494,502,492,517,528
496,503,485,509,520
495,504,483,499,536
499,506,486,496,547
506,506,488,491,534
508,502,491,490,504
515,504,497,492,498
527,508,512,500,502
528,507,521,508,495
538,512,538,526,487
545,516,551,538,479
542,514,554,547,485
538,514,552,553,492
527,508,541,550,499
520,503,529,543,512
504,499,511,532,526
489,500,496,522,534
494,502,489,517,528
497,503,484,512,528
497,504,481,499,522
500,506,487,498,518
506,505,489,493,521
508,498,491,488,527
518,503,503,494,510
532,508,518,506,501
536,509,529,518,495
540,513,542,532,487
542,515,553,551,487
539,516,557,553,489
533,512,548,551,490
530,509,539,553,501
518,502,522,545,515
501,499,507,530,527
491,499,493,523,529
492,503,487,519,524
490,504,482,508,528
494,506,485,502,530
498,507,489,501,523
505,502,488,490,520
522,504,496,492,516
523,504,508,505,511
530,506,519,509,499
540,510,535,525,492
543,514,544,539,482
544,514,550,551,484
542,514,552,558,487
534,509,544,556,502
525,508,534,558,510
506,502,515,546,525
497,501,500,532,531
495,503,492,527,533
496,505,487,517,533
496,507,483,507,530
505,509,488,505,523
507,504,489,500,513
511,503,491,495,516
519,504,505,497,511
525,505,513,505,502
533,510,524,517,497
539,512,536,531,489
545,515,549,546,485
543,519,552,556,486
536,513,547,557,491
527,507,539,557,503
519,504,527,552,513
507,501,510,539,524
495,500,495,534,528
495,503,488,521,530
498,506,484,514,529
498,504,482,507,525
506,508,489,507,519
510,505,490,497,518
510,502,492,495,523
516,503,503,503,513
527,507,516,510,504
534,510,528,527,489
542,513,539,536,480
544,514,549,555,481
541,514,551,557,488
535,512,545,559,497
522,506,534,555,505
506,500,515,545,518
497,501,502,535,527
495,501,493,527,532
495,504,486,519,530
498,506,484,515,531
501,506,486,511,525
506,507,488,505,516
509,503,489,500,518
512,504,496,499,510
525,509,508,507,507
530,507,520,518,503
539,514,534,531,492
543,513,545,545,486
546,513,548,554,483
544,513,547,559,487
530,509,540,558,499
521,508,530,553,509
506,499,512,544,522
499,499,498,534,530
497,501,489,525,527
500,507,487,521,525
501,508,485,511,525
499,509,485,508,520
506,508,489,502,518
508,504,492,496,519
516,505,501,500,508
523,508,514,511,504
529,508,524,522,499
536,512,536,535,492
547,515,551,551,483
544,513,551,560,484
539,514,549,566,492
523,507,537,555,505
514,503,524,552,520
499,500,507,541,527
498,504,494,531,528
493,505,488,520,532
494,506,483,513,529
497,507,483,507,527
505,510,489,505,520
508,506,491,501,514
511,504,493,497,512
514,506,508,504,509
526,509,517,512,500
532,510,528,524,495
540,514,542,538,489
542,512,547,550,486
538,515,549,559,489
533,510,543,560,498
522,505,533,556,507
504,503,515,546,526
500,500,502,540,526
496,502,493,528,524
499,506,487,523,521
502,507,484,513,522
501,513,489,507,521
498,513,490,497,524
499,505,489,490,525
505,505,497,493,517
519,507,510,502,509
524,509,521,513,505
533,512,533,525,496
539,515,545,541,489
546,515,549,554,487
536,518,548,562,493
524,509,539,557,501
512,505,530,552,509
496,501,512,542,522
485,501,498,528,533
488,505,491,521,534
494,508,488,513,533
506,509,483,504,529
524,515,488,503,519
519,511,492,497,515
515,506,492,491,515
522,509,501,495,509
524,507,512,504,500
529,510,525,519,498
534,512,535,530,494
540,515,547,542,492
537,515,547,554,493
532,513,546,558,496
523,506,533,554,503
517,503,522,545,514
501,502,506,536,526
495,505,496,525,532
484,505,489,517,532
488,507,487,510,530
491,509,486,501,527
493,509,487,496,524
503,508,491,493,519
522,507,494,490,514
530,507,504,496,507
532,510,518,508,509
536,513,530,521,495
542,517,540,535,484
544,517,548,548,486
539,516,548,560,489
532,512,540,554,499
522,507,531,550,509
510,502,516,540,522
500,501,501,530,530
493,504,491,520,531
493,507,487,513,529
496,507,484,503,528
500,510,487,498,523
499,508,489,491,519
503,507,492,490,520
508,504,496,488,513
520,507,509,499,508
523,507,517,507,501
530,512,531,522,493
537,515,544,539,491
535,514,545,547,488
535,514,546,555,493
526,508,537,553,502
517,506,528,550,513
502,500,513,536,523
495,502,496,525,531
498,506,492,518,531
498,506,486,510,529
497,507,481,499,523
505,513,489,499,516
510,513,493,493,518
502,506,491,485,524
509,510,499,488,518
519,509,514,501,515
524,509,524,512,509
533,512,537,530,500
542,515,546,543,488
536,513,548,554,486
537,511,542,556,486
526,504,532,550,494
512,498,519,544,510
501,502,506,535,526
492,504,492,521,533
490,504,484,512,530
495,508,484,504,528
499,509,485,499,523
502,507,488,494,518
503,508,491,491,520
506,505,494,488,521
515,506,505,494,510
529,513,517,506,508
530,510,527,515,507
533,512,538,532,496
537,513,546,546,487
537,514,548,556,488
531,509,539,555,495
526,505,533,551,502
508,499,513,540,515
494,499,499,526,531
496,503,492,519,533
499,505,488,514,529
495,502,484,500,525
499,509,486,494,524
507,509,490,493,522
505,505,491,486,517
509,508,496,485,518
519,506,512,498,507
524,509,517,504,501
532,511,532,521,494
539,513,544,537,490
541,514,545,547,491
532,510,544,552,497
524,507,538,554,505
515,503,527,546,513
502,499,509,534,526
496,502,497,523,533
492,499,487,512,535
493,507,485,502,530
501,507,483,494,528
501,508,491,492,519
505,509,492,488,519
504,503,493,482,517
513,506,502,488,513
519,511,514,498,505
525,507,522,507,500
533,510,535,523,492
540,513,547,540,489
535,511,549,547,489
531,511,545,552,499
526,507,537,547,506
511,501,522,540,520
498,498,504,528,530
492,500,494,516,532
495,503,488,508,534
494,506,487,498,533
499,506,484,491,529
501,507,488,487,523
503,506,493,484,522
508,504,495,482,521
517,503,504,487,511
526,507,518,499,501
531,510,530,513,496
535,513,540,528,491
540,512,547,541,493
539,513,546,548,492
530,512,541,554,502
522,505,536,545,508
506,497,516,535,520
500,500,500,522,530
497,502,493,513,531
495,502,486,502,530
500,505,484,494,529
501,508,488,493,527
501,509,489,486,526
499,502,490,479,522
498,500,500,484,519
505,504,511,492,511
511,504,521,502,506
517,510,534,516,503
539,512,544,530,494
547,514,550,544,488
545,514,553,552,485
526,509,541,548,497
509,503,530,541,509
493,500,512,530,528
490,502,499,519,536
492,503,491,512,537
499,507,486,499,527
502,509,486,492,527
516,511,490,488,521
520,509,494,485,517
515,505,496,480,514
517,506,503,483,510
526,509,517,495,512
527,511,525,504,510
538,513,538,522,496
540,512,549,537,486
535,515,552,547,494
527,512,545,548,489
514,504,535,541,501
498,501,521,531,521
494,501,507,524,531
501,502,496,513,532
501,505,489,503,534
511,508,488,496,531
507,506,486,487,526
508,508,490,485,519
508,507,495,482,518
505,502,494,481,515
514,505,508,486,510
519,506,519,496,504
528,510,530,509,500
538,512,542,525,490
539,514,549,538,490
538,513,550,548,491
531,510,543,546,502
527,506,536,542,508
511,499,520,533,520
495,503,500,518,530
494,500,493,514,535
494,504,487,500,532
492,504,485,492,530
498,507,488,487,524
505,509,493,485,519
508,504,493,478,516
512,505,501,482,521
516,503,510,488,513
527,507,523,501,505
533,510,535,517,495
538,512,545,531,486
536,512,551,543,487
533,512,546,548,485
523,506,538,545,502
512,501,527,537,513
502,500,511,528,526
494,500,498,518,536
492,502,490,506,533
494,506,487,499,531
495,507,485,492,529
500,510,489,487,525
504,507,492,483,521
505,504,493,478,521
512,507,504,484,516
521,505,517,493,504
528,508,526,506,498
531,511,537,522,490
537,513,548,536,491
536,512,549,544,492
530,509,545,551,498
522,508,538,547,507
508,501,521,538,521
498,498,505,525,528
496,501,495,513,536
497,504,489,505,535
495,507,487,497,534
498,507,486,489,532
502,512,490,486,524
504,505,492,481,521
503,501,496,476,519
515,505,507,487,515
524,505,518,498,504
529,513,528,511,494
539,512,543,527,495
539,513,549,540,487
537,514,551,549,493
527,509,542,548,501
519,504,533,544,510
503,500,516,538,524
494,499,500,520,534
495,503,493,512,536
496,505,487,502,533
492,506,483,496,531
495,507,487,490,526
501,506,490,485,522
503,504,494,481,521
507,504,499,482,515
517,506,516,491,510
520,506,521,500,505
536,511,534,517,495
543,514,546,532,489
538,510,547,541,490
538,512,549,547,494
525,507,539,548,502
516,505,529,542,513
503,501,511,530,529
493,497,495,517,533
494,500,489,509,533
496,506,489,503,529
494,507,487,495,525
500,510,490,487,520
507,509,494,486,519
501,504,494,479,527
509,505,503,482,515
525,507,514,494,509
527,508,526,505,503
530,512,538,520,498
535,511,545,534,491
537,513,550,546,498
532,509,544,548,503
524,506,537,546,508
509,500,520,539,525
495,498,505,526,526
490,500,495,515,532
495,505,490,507,531
495,506,485,497,527
496,506,485,489,528
502,509,490,488,523
505,505,492,482,518
501,498,494,478,516
510,506,505,486,509
526,506,518,495,501
533,509,531,514,493
533,512,543,528,490
534,512,548,540,487
532,511,548,547,487
517,510,541,547,498
506,502,531,543,510
507,501,516,533,525
495,500,501,522,534
486,503,492,511,537
490,510,487,502,536
493,505,484,491,534
508,509,487,489,528
512,506,490,486,525
508,506,494,482,522
516,506,500,487,521
522,507,511,495,518
522,505,521,501,509
533,511,536,518,498
539,512,543,532,480
534,512,548,546,481
531,511,546,550,483
517,507,539,548,496
507,503,529,543,508
490,498,513,531,522
485,496,493,515,530
510,505,490,509,534
512,504,485,498,529
506,506,485,490,528
507,509,491,489,521
507,507,491,483,518
506,504,492,479,518
514,509,502,484,510
521,504,513,495,500
532,508,527,505,496
534,514,536,524,490
539,513,547,538,486
541,513,548,547,488
536,513,542,549,499
523,507,535,547,506
508,500,519,538,522
501,498,505,524,528
493,500,494,515,533
493,503,488,505,535
493,505,484,496,532
494,504,483,489,528
500,504,489,486,521
503,505,492,482,519
505,503,495,480,520
511,501,505,486,510
523,507,519,499,504
534,510,531,513,495
536,513,542,529,493
536,511,547,540,490
536,511,549,547,489
527,508,541,547,504
518,509,531,545,509
501,498,515,534,521
492,499,500,520,533
491,502,491,511,535
491,509,486,502,534
495,507,486,494,531
498,507,488,490,524
504,506,491,484,517
504,506,494,482,518
509,505,500,482,518
518,503,508,490,505
524,505,521,503,501
530,512,536,520,498
534,514,545,533,492
534,512,548,544,496
528,511,546,547,495
520,506,537,546,505
511,504,524,541,514
505,500,509,529,526
496,501,499,520,532
492,502,491,508,531
493,505,485,499,531
496,506,484,491,529
504,512,486,488,524
507,509,492,484,524
504,501,491,478,520
508,504,503,484,517
520,507,520,498,508
529,506,529,506,499
529,511,535,521,490
537,513,549,539,490
534,512,548,546,497
529,511,544,551,504
522,507,537,547,506
509,504,520,537,516
497,499,506,527,529
489,502,492,514,527
491,503,487,503,532
496,506,484,494,530
497,507,485,489,530
507,508,490,487,525
505,506,493,483,519
505,504,496,481,520
516,503,507,488,510
524,508,520,499,505
528,508,529,512,497
535,512,541,529,491
537,512,547,541,489
536,510,548,554,492
526,511,540,549,500
516,505,533,545,514
502,498,514,532,526
494,498,499,520,532
495,503,492,511,535
495,503,486,502,532
493,503,483,491,531
497,508,488,489,523
505,510,490,486,523
505,504,495,482,516
509,505,501,483,515
519,504,514,491,505
524,506,522,504,502
530,512,533,519,497
534,516,544,533,491
537,510,547,543,493
534,511,546,548,499
524,507,539,546,508
514,502,527,541,516
502,496,509,528,524
497,503,496,517,531
497,502,489,511,534
497,503,485,498,529
495,503,482,488,527
504,508,489,487,521
508,508,494,485,517
508,504,495,480,518
508,504,503,484,519
513,504,515,494,509
528,508,526,507,497
526,511,536,522,496
536,515,549,538,493
534,511,549,545,493
533,510,544,549,502
525,509,536,547,510
515,501,519,536,527
502,499,505,524,530
495,499,495,512,534
495,505,489,504,534
498,507,487,497,529
502,507,487,489,525
506,509,488,486,519
508,508,494,483,520
507,503,496,479,518
516,505,507,486,510
524,505,520,500,504
532,507,530,513,492
537,511,542,531,490
538,511,547,539,490
541,514,549,548,495
526,507,540,547,502
518,506,531,544,510
501,500,514,532,526
492,500,500,522,532
488,502,496,512,533
488,503,486,503,530
489,503,484,494,526
492,504,484,493,521
504,508,492,488,516
513,507,495,481,520
523,507,500,481,514
521,510,511,491,507
525,507,527,507,498
531,511,536,521,492
533,511,543,535,493
535,510,545,539,497
524,507,544,547,501
523,506,536,547,505
513,503,525,541,514
500,500,508,529,529
497,500,497,518,536
501,503,486,509,534
500,505,485,501,533
503,508,486,490,528
502,508,489,488,525
506,507,492,486,517
512,504,498,483,515
509,501,501,487,509
515,505,515,499,516
525,507,524,502,502
534,511,541,521,491
533,512,547,535,489
528,516,547,547,494
523,510,543,549,498
515,507,535,547,507
502,498,518,536,520
510,499,506,526,529
505,502,494,515,531
498,504,488,505,533
498,507,486,498,530
502,506,486,494,522
504,507,488,490,516
504,506,495,489,509
502,501,494,479,512
517,505,505,485,506
529,508,521,500,503
530,513,530,515,505
533,512,542,531,503
537,512,550,535,494
535,513,549,548,500
525,508,541,547,510
518,505,532,544,512
503,500,513,531,522
495,498,499,520,533
494,503,493,513,536
493,504,487,502,537
495,505,483,495,529
500,508,487,490,525
503,506,491,484,521
505,506,494,482,520
509,505,503,485,517
518,505,512,492,507
525,507,523,504,503
533,510,535,519,498
539,511,542,533,488
535,510,547,543,495
528,507,543,547,496
522,506,539,550,506
514,504,530,544,516
499,499,510,530,527
491,500,496,518,534
496,507,490,508,533
497,505,490,501,531
498,505,484,492,531
502,509,489,488,521
507,508,493,486,521
506,504,494,481,525
512,504,504,487,514
519,507,521,500,507
526,507,525,508,500
529,510,537,524,493
535,517,548,539,493
535,509,547,550,486
529,508,544,551,498
517,508,537,548,510
504,500,519,536,529
502,500,504,525,533
497,502,494,516,536
495,504,491,506,535
493,505,484,499,528
497,507,485,491,523
506,509,493,489,518
504,505,491,486,515
507,504,496,482,518
516,504,507,488,509
527,508,520,502,505
530,510,530,515,498
536,514,543,529,491
536,512,547,540,490
533,515,548,549,493
525,507,540,547,504
515,505,532,544,509
502,499,513,532,522
494,500,500,521,532
494,501,491,512,532
498,506,487,504,528
500,506,484,494,532
507,507,487,490,523
504,506,489,484,519
505,505,494,488,521
506,505,500,485,516
516,507,513,492,507
524,506,521,503,502
531,509,533,518,492
541,513,546,538,486
537,514,549,552,487
534,515,547,553,487
525,507,537,549,500
512,502,526,540,519
493,496,506,522,534
488,498,493,513,539
490,502,487,504,534
493,507,488,499,529
494,506,484,491,531
496,506,487,487,522
498,505,491,484,518
502,502,495,482,518
519,504,504,486,507
527,504,518,498,501
529,506,524,507,497
533,510,537,523,491
548,514,549,538,484
544,509,549,547,487
535,507,544,551,493
523,507,537,547,506
508,501,520,535,523
493,497,502,522,531
492,501,494,512,534
493,505,488,504,534
494,504,484,495,530
497,503,485,488,525
504,507,490,485,522
511,505,493,486,518
506,504,496,482,513
512,504,508,488,508
520,505,519,500,505
527,505,530,513,493
534,509,539,527,493
538,513,549,540,493
533,514,549,548,493
527,508,542,548,503
519,506,536,544,509
503,498,513,530,525
490,499,499,520,536
489,503,492,510,535
487,506,489,503,533
487,506,485,494,532
493,505,488,493,523
495,505,490,484,516
499,504,493,482,518
503,504,501,483,518
529,506,511,491,505
536,508,522,503,500
535,509,533,517,492
540,513,547,535,489
540,514,548,542,490
532,512,547,550,495
524,507,538,547,503
520,503,527,541,514
504,502,509,530,528
494,498,496,515,533
495,502,489,507,533
498,505,486,500,532
496,503,482,490,528
502,507,488,487,522
506,507,492,484,521
504,503,495,477,518
507,504,504,485,517
515,506,516,496,502
521,507,526,507,495
528,510,539,525,490
541,513,549,540,489
538,514,549,548,491
529,509,543,548,499
521,510,539,546,505
505,498,517,533,519
494,503,501,524,529
494,501,493,513,533
488,502,486,504,533
484,505,484,493,529
485,504,482,490,527
490,506,489,486,523
491,504,491,481,522
497,503,497,482,522
508,506,506,486,511
536,506,520,500,501
543,511,533,515,491
539,512,543,533,493
541,513,549,538,489
541,515,549,551,489
531,507,538,546,499
527,505,532,545,507
509,499,512,531,521
502,503,498,522,531
496,501,489,510,531
494,503,485,500,531
496,504,483,493,531
506,507,493,488,524
509,507,495,487,520
505,503,494,480,518
511,505,502,485,514
519,502,512,493,503
528,508,524,505,500
531,511,534,519,499
538,512,545,534,490
537,511,548,545,485
533,510,546,549,490
523,506,538,548,499
511,501,525,540,511
500,502,508,529,527
498,501,495,518,533
490,502,486,506,531
492,505,485,498,529
498,506,484,492,529
503,509,491,488,522
507,510,490,483,518
509,505,496,485,515
513,503,503,487,510
523,509,519,501,503
525,507,530,511,496
529,508,536,524,490
538,513,548,538,490
534,511,547,545,491
530,510,543,547,501
521,506,536,546,511
507,497,517,535,525
496,498,504,525,530
489,504,493,515,532
490,504,487,505,530
495,506,486,497,530
489,507,485,489,528
502,509,491,487,523
511,504,493,482,520
506,501,493,480,519
517,505,509,490,511
522,508,520,500,504
529,511,533,515,499
532,512,543,530,491
534,513,550,544,492
531,512,548,549,494
529,509,541,548,505
517,506,533,544,512
500,500,514,532,529
497,498,496,517,532
492,501,487,509,533
494,504,487,502,530
497,506,484,494,528
499,507,487,490,523
501,506,491,485,520
501,504,494,483,518
510,503,501,484,512
517,502,511,494,505
520,505,522,504,504
535,511,535,518,493
541,513,545,533,486
542,515,549,545,490
533,510,547,548,494
520,507,536,545,506
511,502,526,540,516
501,500,509,528,529
492,498,494,515,532
491,502,488,506,533
493,506,485,499,533
493,505,483,490,531
500,506,488,488,523
502,505,491,483,518
506,505,495,484,517
511,503,503,485,512
520,505,516,497,504
527,510,526,511,499
537,511,541,525,492
540,517,548,540,489
535,511,550,545,490
527,512,545,547,502
518,507,537,549,506
504,500,517,535,523
491,502,507,522,531
489,499,492,512,531
489,502,486,503,530
491,505,484,495,530
498,506,485,489,528
501,505,488,485,520
503,505,492,482,519
506,505,496,482,520
515,503,507,489,509
523,503,519,499,504
529,508,531,513,497
535,510,543,530,490
536,511,548,541,489
534,510,548,553,495
524,507,545,546,504
514,505,533,545,510
495,502,513,531,525
492,499,498,519,531
495,502,493,513,532
498,503,485,500,529
493,504,483,491,531
498,507,486,489,518
503,506,491,485,517
504,504,495,482,517
508,508,500,484,513
519,505,514,490,504
523,506,522,504,503
531,510,537,519,494
539,512,546,534,488
536,512,549,543,487
530,511,548,550,496
518,506,539,547,505
506,501,526,539,518
493,499,508,527,529
486,498,496,516,534
490,501,489,506,532
489,509,485,498,531
498,505,484,490,529
513,507,489,487,521
512,506,491,485,515
511,505,497,482,516
520,505,505,485,505
523,505,517,496,503
532,508,531,509,496
538,510,539,524,490
542,515,548,539,489
535,512,550,547,491
531,508,546,549,499
526,507,537,546,504
511,502,516,535,523
497,497,502,521,532
491,500,493,512,535
488,501,486,501,536
493,506,486,497,530
495,509,487,492,529
498,506,490,486,522
498,504,492,481,520
502,502,497,483,517
513,504,507,488,510
519,507,519,499,504
531,508,535,513,493
542,511,547,530,491
541,512,550,541,488
537,512,551,551,492
524,507,541,547,500
518,506,534,546,506
511,500,514,532,524
493,497,498,520,539
486,500,489,509,536
489,502,485,500,531
489,502,483,494,532
492,503,485,491,530
501,505,490,484,522
519,506,499,478,514
523,505,501,481,514
523,505,512,492,506
529,507,525,505,501
539,510,539,522,489
537,510,546,535,485
535,512,549,544,492
531,509,545,547,497
522,505,538,545,506
508,502,525,538,516
494,497,508,525,530
498,501,497,524,531
495,501,487,504,529
494,504,484,500,533
492,505,483,487,532
500,507,489,486,524
502,506,494,484,523
504,503,495,481,518
515,504,508,488,513
523,505,517,497,502
527,507,528,509,499
532,508,538,522,491
546,513,546,538,489
534,510,549,547,493
523,508,543,546,502
516,507,537,546,507
500,499,519,535,522
492,498,508,525,531
485,501,493,513,534
497,504,485,504,531
500,505,485,495,530
499,508,486,490,527
502,509,496,489,524
504,509,493,482,516
515,507,500,485,510
518,505,510,491,506
521,505,520,500,504
536,510,534,513,496
535,512,542,528,489
539,513,548,540,490
535,512,548,548,494
526,510,542,548,504
519,506,534,545,508
504,502,514,531,527
494,500,498,520,533
492,503,491,510,529
493,506,489,502,530
495,506,484,493,533
503,512,489,491,525
500,506,489,484,518
502,504,493,482,517
508,505,502,485,515
518,507,513,494,504
529,508,527,505,499
532,510,540,520,494
538,513,546,535,490
541,512,553,546,490
532,512,550,547,495
520,513,540,548,511
513,506,529,541,522
497,500,509,526,533
486,502,494,515,536
493,503,489,507,533
499,508,487,501,526
499,505,484,495,518
503,507,487,487,509
506,507,494,485,516
509,508,495,483,519
509,503,501,486,510
526,508,518,498,499
530,509,534,510,492
536,512,540,525,488
538,511,548,538,486
537,512,550,547,490
529,510,543,551,500
523,508,538,546,507
510,503,519,536,523
497,498,503,523,529
494,500,493,515,533
492,503,488,504,530
496,507,485,495,531
498,507,489,489,526
504,507,490,487,517
504,505,494,483,519
507,505,503,483,516
514,503,509,489,508
521,505,520,500,500
529,508,534,516,494
535,511,544,534,488
535,511,550,542,487
532,511,549,549,494
520,507,541,548,502
519,505,534,547,506
505,500,515,534,523
487,499,498,522,531
494,502,492,513,530
489,505,487,501,533
487,509,482,491,531
496,509,488,489,525
513,506,490,485,517
514,504,492,480,518
522,505,501,482,515
523,505,515,497,506
529,506,523,503,500
540,509,535,518,493
545,514,549,536,489
543,512,549,546,492
537,510,547,548,496
529,506,536,546,501
517,501,523,538,513
501,500,512,530,524
493,501,495,518,532
494,502,487,508,524
491,507,486,501,530
493,506,483,488,534
502,509,489,488,527
505,508,492,483,522
504,506,494,481,518
507,504,507,488,513
515,506,518,498,505
521,511,528,511,501
528,510,541,526,494
530,510,548,540,487
536,513,551,548,492
539,510,542,546,497
528,507,536,548,507
506,499,517,532,523
494,499,503,519,531
496,502,497,512,532
497,505,488,505,532
496,505,485,494,532
504,505,485,489,524
505,506,489,486,518
507,505,494,481,517
513,507,499,484,512
518,504,512,493,507
520,503,519,503,501
527,510,533,515,494
535,512,546,530,491
534,511,549,540,490
531,512,550,550,495
522,508,540,546,503
513,504,532,548,508
499,499,511,532,523
499,499,498,520,530
497,503,492,512,532
495,504,487,504,530
494,504,484,494,531
499,505,488,489,521
501,506,490,484,518
504,505,495,484,518
509,503,501,484,514
518,506,515,496,506
516,505,524,505,498
524,508,536,520,496
530,509,546,535,492
529,511,549,546,495
527,508,544,546,497
529,511,538,548,505
524,506,524,541,516
503,497,506,526,526
495,500,496,516,530
494,502,489,507,530
493,505,486,497,529
498,504,486,492,526
501,506,487,487,519
507,505,491,485,515
510,504,496,486,511
512,501,505,487,508
520,505,517,497,505
526,506,526,508,496
536,509,542,525,490
540,514,547,538,487
536,513,556,544,496
527,507,543,546,504
518,511,535,546,511
503,499,517,533,524
491,495,500,521,528
490,500,492,517,531
489,503,487,504,531
488,504,484,494,531
489,504,483,489,527
506,507,490,488,520
514,506,493,483,522
514,503,497,482,516
517,500,508,489,508
523,507,523,501,502
532,510,535,516,493
536,512,544,531,484
538,512,550,542,490
535,510,547,547,490
529,513,542,548,503
518,508,534,543,513
502,503,510,530,529
491,497,496,516,530
491,502,491,508,532
495,506,487,501,531
495,505,485,494,529
495,507,488,490,523
502,505,490,484,520
502,509,494,482,517
509,509,506,484,512
518,505,513,493,506
525,505,522,505,503
530,511,538,520,498
536,515,546,535,490
534,511,550,545,492
528,511,547,550,496
522,507,539,547,502
508,500,524,539,516
492,498,506,526,531
496,500,495,516,532
494,504,487,507,535
497,505,485,499,534
494,504,482,489,532
503,511,486,487,523
504,507,491,483,521
509,507,497,483,518
513,505,503,486,509
523,507,518,499,502
529,507,528,512,496
533,514,539,530,491
537,513,549,539,489
534,513,552,546,493
525,508,543,547,501
521,506,535,545,505
503,501,518,535,523
489,500,501,523,535
493,502,490,511,531
500,505,488,506,529
499,506,484,499,532
500,505,483,487,530
501,506,487,484,523
505,506,493,482,521
512,506,499,483,517
517,505,510,493,505
525,508,522,502,502
529,511,537,519,496
534,512,546,534,485
535,513,552,544,491
525,510,548,546,500
516,507,540,545,507
520,507,533,544,511
500,501,512,529,530
496,499,496,517,532
499,503,491,509,534
490,505,489,501,532
492,504,484,498,529
502,507,487,489,522
505,508,492,486,520
514,505,493,482,516
525,506,503,485,512
525,511,513,495,505
528,508,525,505,499
539,511,536,524,493
544,514,552,537,492
537,511,549,545,497
530,510,545,547,502
522,507,538,546,509
513,499,525,536,519
504,500,509,526,529
499,500,495,516,532
498,504,488,507,530
499,507,485,500,530
501,505,485,488,531
503,508,488,485,521
505,507,493,484,522
508,504,495,483,517
515,504,505,488,513
522,506,517,497,506
534,510,531,510,495
536,512,540,526,488
540,513,547,540,489
534,513,550,546,493
528,510,544,553,501
521,508,539,546,508
506,499,515,534,521
495,500,502,523,532
494,502,494,515,532
493,505,486,504,529
496,507,483,496,528
498,507,485,491,527
501,506,489,485,526
504,504,492,481,520
509,507,500,485,516
514,503,506,489,510
514,505,522,505,505
527,510,532,516,493
537,513,546,530,491
541,512,548,541,491
538,512,548,550,496
526,508,540,547,504
518,506,532,545,510
502,503,512,532,527
498,498,498,516,530
494,503,491,510,532
494,504,485,501,530
499,505,482,493,529
502,505,486,491,522
500,505,489,487,516
499,506,493,481,522
512,506,502,484,513
520,507,514,494,505
525,509,526,507,501
531,511,537,527,492
539,514,546,536,490
534,512,548,543,497
528,511,548,550,497
521,508,538,547,506
513,503,524,539,520
499,500,510,527,530
490,503,492,514,529
493,508,489,506,529
490,505,488,498,532
494,503,483,492,527
499,503,487,485,527
502,506,491,483,523
504,505,496,483,518
512,504,506,488,514
518,505,518,499,502
527,508,530,513,497
533,516,541,527,491
537,510,547,539,489
539,512,549,548,491
526,508,543,548,502
519,506,534,546,508
507,498,515,531,522
495,498,500,522,532
496,501,495,515,533
492,503,483,504,530
493,505,483,495,529
498,507,484,490,527
501,506,489,487,526
502,503,491,482,517
508,505,498,484,513
514,506,508,491,507
524,507,521,501,503
533,511,534,517,495
538,513,544,532,486
538,511,549,543,491
533,511,547,548,494
523,508,541,547,503
515,507,533,548,514
498,500,512,529,529
493,500,502,517,534
488,500,489,508,534
491,504,484,499,532
492,505,483,491,531
494,510,486,488,527
500,507,490,484,520
508,505,495,481,515
514,506,503,486,514
518,506,514,493,508
533,508,528,504,500
539,509,537,521,492
540,513,548,540,488
535,511,548,544,493
528,510,545,548,502
521,508,539,548,505
507,501,524,540,520
490,498,509,525,533
491,501,499,514,532
485,501,486,504,536
490,505,483,496,532
499,506,484,490,530
510,510,490,489,525
506,506,492,483,521
504,504,495,481,517
511,504,504,487,516
530,506,517,497,499
532,508,528,514,494
539,509,544,527,484
540,513,548,541,485
538,517,548,546,495
535,508,543,548,500
527,509,538,549,503
507,501,517,535,521
491,497,499,521,532
485,500,491,510,532
483,502,485,501,533
487,505,484,492,530
486,508,484,487,526
493,508,491,488,521
509,507,494,484,520
526,507,500,483,512
537,510,509,490,503
541,504,520,499,497
535,508,533,516,497
541,513,544,532,491
540,511,549,542,494
536,511,547,548,496
526,506,538,545,503
519,506,531,545,509
504,499,511,530,522
497,499,498,523,531
493,503,491,509,534
494,505,485,501,531
494,503,482,490,528
500,506,484,488,526
505,512,489,486,520
511,505,494,485,514
516,504,502,489,505
517,506,516,500,507
522,507,523,504,506
530,509,535,520,496
535,511,547,538,490
532,510,548,544,494
530,508,545,546,501
521,509,538,548,509
507,500,521,539,525
497,499,505,526,530
499,501,495,517,531
493,503,488,510,534
492,506,486,500,533
499,505,484,491,529
502,505,488,488,528
500,505,490,483,517
504,505,496,483,511
512,502,505,488,510
518,505,517,498,503
524,508,530,513,497
531,511,544,528,490
544,517,549,546,486
541,514,548,546,491
525,511,544,548,501
519,507,538,546,506
504,500,516,535,522
494,497,500,522,531
492,502,492,514,531
495,505,487,502,531
495,506,484,495,530
496,507,485,490,528
502,507,489,486,521
503,501,492,482,517
509,505,500,485,514
514,503,508,489,507
527,506,523,504,502
533,514,535,519,496
537,513,545,533,490
535,510,548,542,493
533,512,548,548,499
525,509,540,547,505
518,507,532,545,511
502,500,511,531,524
492,498,496,518,531
489,500,487,509,529
491,504,485,501,530
497,506,485,493,528
497,506,485,488,526
499,506,493,483,521
506,503,492,479,515
511,503,503,486,513
519,505,514,494,504
528,510,525,508,499
534,512,538,523,493
535,513,546,535,486
535,513,550,545,493
530,509,543,546,498
520,507,541,545,509
509,500,523,537,518
493,498,506,525,527
490,500,495,516,532
494,503,490,507,532
493,507,486,499,531
503,505,487,491,526
505,506,487,484,522
504,505,491,482,517
511,505,497,482,517
515,502,504,485,510
525,506,519,500,504
533,508,532,515,496
539,515,541,528,493
536,510,548,539,490
531,507,547,546,494
529,510,543,548,501
519,507,536,546,507
501,503,515,531,523
499,497,499,520,530
502,500,492,512,529
496,505,488,505,532
493,504,484,496,531
495,510,483,488,527
500,507,488,485,520
505,505,493,483,518
509,506,504,486,518
515,505,511,491,509
521,505,522,502,505
528,509,536,521,494
541,512,545,532,489
535,511,549,542,493
539,510,547,548,490
527,511,540,548,506
519,506,536,543,513
501,498,509,527,525
493,500,497,517,531
491,501,491,510,533
490,504,487,503,532
493,504,483,492,529
496,504,484,484,525
499,505,492,484,520
509,506,496,483,519
511,503,502,485,513
518,504,514,494,507
529,506,525,510,504
545,511,539,523,496
550,512,546,536,489
541,513,550,545,493
532,509,542,548,494
526,506,539,553,502
512,501,521,539,522
496,497,504,523,529
490,500,494,515,531
492,504,487,509,532
492,505,487,499,524
490,504,484,491,525
494,505,487,485,522
509,506,492,483,517
513,505,497,483,518
515,503,504,486,514
524,506,518,498,505
530,509,530,515,498
534,512,542,526,490
536,512,550,541,490
532,509,546,545,495
521,509,543,548,505
517,509,536,549,510
505,502,516,533,525
495,500,502,522,534
499,502,492,512,533
499,504,488,501,530
501,505,484,496,529
501,505,485,489,527
505,507,493,486,523
505,506,494,483,521
510,505,500,487,518
517,504,510,492,505
524,506,522,506,503
530,512,534,519,496
538,510,544,531,490
540,511,549,543,491
530,510,553,547,498
524,508,540,547,504
517,506,531,543,515
501,498,511,530,526
493,498,497,518,532
493,501,489,510,536
494,506,486,501,533
495,507,485,493,530
500,507,487,490,526
503,508,490,485,524
505,505,496,483,518
510,502,502,485,518
518,505,514,495,505
524,506,526,506,504
534,511,536,522,494
536,510,548,537,489
532,510,549,545,493
530,509,545,548,502
522,506,539,551,507
508,500,522,536,522
496,498,506,525,527
493,502,495,515,531
494,503,487,507,535
494,504,484,498,529
492,504,484,490,527
497,507,489,488,524
506,507,497,489,518
512,505,497,484,515
515,503,506,488,511
521,504,521,497,506
532,508,531,514,495
543,513,544,531,490
539,511,549,542,490
536,511,550,546,497
528,508,543,546,501
518,504,533,544,508
499,499,516,532,526
493,499,501,522,533
491,501,492,513,535
493,503,486,503,531
492,504,482,492,530
500,505,485,489,527
503,506,491,487,522
504,504,493,483,517
511,506,502,488,516
511,506,510,491,508
521,506,523,503,507
531,510,540,517,499
539,513,547,534,489
538,511,549,549,489
534,511,549,549,493
518,506,540,548,501
518,506,532,545,510
499,498,509,527,524
495,500,497,519,533
488,500,490,509,532
494,504,489,499,528
499,506,485,493,526
503,506,487,488,524
503,505,490,484,518
506,505,495,484,517
511,503,502,485,511
519,506,516,500,505
523,506,526,508,498
533,510,539,523,492
537,513,549,543,487
538,511,550,546,493
532,509,545,548,500
524,507,538,548,506
509,499,521,537,522
496,498,505,525,533
495,501,496,516,536
495,503,489,506,532
489,505,485,498,526
491,505,484,490,527
498,507,490,488,523
504,506,495,487,521
507,505,497,483,516
518,507,509,489,507
533,505,519,498,498
538,509,535,516,495
537,510,543,529,489
536,509,548,541,490
537,511,548,547,492
526,509,543,546,499
516,507,535,545,508
507,501,516,532,527
501,501,498,521,530
497,503,494,514,533
492,506,488,506,531
492,505,484,493,532
495,504,485,487,530
501,505,489,483,524
508,505,493,482,519
516,503,504,484,513
520,504,512,492,505
527,505,523,503,501
534,511,536,519,495
534,512,545,531,492
539,512,550,543,496
532,509,547,548,496
524,508,540,547,505
515,505,531,547,513
500,501,510,529,524
495,500,497,519,532
496,501,488,508,534
494,503,487,499,528
491,504,482,492,527
496,506,487,485,523
509,507,492,486,519
505,507,493,483,512
511,507,505,487,509
517,507,516,495,509
521,507,525,504,502
530,510,538,523,495
534,510,547,537,492
536,512,549,544,494
526,508,544,547,496
519,506,537,545,503
508,500,520,536,517
502,500,506,526,529
495,500,494,515,530
495,503,488,507,530
498,508,485,498,529
495,505,484,489,531
499,505,487,486,524
503,504,496,483,518
508,504,497,483,516
516,508,508,490,512
522,505,519,499,503
529,509,531,514,496
532,512,544,529,494
534,509,545,539,490
526,510,547,546,499
518,508,542,547,504
511,508,533,545,510
495,498,514,530,525
498,502,500,520,531
496,500,490,510,530
497,505,488,503,529
498,505,486,494,528
499,504,484,488,524
505,505,488,484,519
516,507,493,484,517
518,506,501,485,514
531,507,512,493,503
534,508,522,504,499
534,512,536,518,497
542,512,543,533,484
542,513,551,545,487
534,510,546,549,492
526,508,540,549,503
512,505,530,542,521
499,504,511,531,529
489,499,496,516,533
484,504,490,508,532
495,508,486,504,530
498,507,485,493,526
499,504,485,485,521
507,507,487,480,521
514,506,494,483,516
514,507,501,485,507
523,507,516,496,504
526,507,525,506,501
530,511,539,523,496
538,513,548,538,492
534,510,553,543,503
527,509,544,547,509
518,507,537,546,512
502,501,520,537,524
498,500,505,526,532
495,505,494,515,532
494,502,489,504,528
484,504,484,496,526
489,505,482,490,522
501,507,487,486,519
512,509,492,483,510
514,505,496,483,512
519,504,508,491,505
521,508,516,500,499
531,510,532,517,497
538,513,543,531,491
541,512,549,542,486
536,511,548,552,493
526,509,541,547,503
517,506,533,546,509
502,499,514,534,524
492,500,500,522,535
492,503,492,510,542
491,505,486,502,537
492,504,481,492,533
493,504,483,488,527
495,506,488,485,518
501,506,493,484,516
503,503,497,482,503
513,506,511,493,502
517,505,518,504,500
534,510,534,521,489
546,514,546,534,488
542,510,546,542,486
536,510,548,548,493
525,508,538,547,503
518,505,528,543,509
503,499,508,532,527
495,505,495,518,532
492,501,487,511,535
494,505,485,500,534
496,505,483,492,532
500,506,485,486,529
506,508,491,485,521
505,506,491,481,517
517,505,505,489,514
523,506,516,500,511
524,508,526,508,506
529,512,539,525,505
531,514,550,542,493
526,510,548,547,492
521,510,544,548,502
523,507,536,547,502
514,499,517,534,522
503,498,502,522,527
496,501,493,513,532
500,504,485,504,529
501,507,484,495,529
495,506,485,489,524
499,505,489,488,515
500,503,490,490,509
501,505,497,485,509
504,502,505,487,509
518,503,517,498,506
536,508,530,511,493
555,513,543,532,488
551,511,554,541,483
542,510,546,549,490
534,507,540,548,497
526,505,532,547,510
509,500,512,530,525
496,498,499,520,536
492,507,491,513,545
493,503,485,503,531
495,504,483,496,519
501,506,486,492,515
500,504,488,485,513
502,504,496,481,511
507,508,499,484,511
512,504,509,491,509
518,507,522,504,504
525,510,537,519,498
534,513,546,534,495
535,511,546,543,492
530,508,542,549,500
533,509,539,549,506
522,507,530,544,511
502,500,509,529,527
492,501,494,516,534
489,501,487,505,538
499,506,486,502,524
495,506,481,494,535
501,507,488,488,529
508,506,488,484,519
506,504,493,482,512
508,503,505,485,509
521,506,515,496,502
529,509,527,509,496
532,514,538,525,491
536,510,547,539,489
534,511,551,544,497
523,508,542,545,511
519,505,535,546,516
504,498,518,537,527
499,500,503,526,527
498,501,493,520,521
497,508,485,507,515
500,505,484,497,522
495,504,483,488,531
494,502,484,482,527
500,504,491,483,513
511,504,497,487,508
515,503,506,488,506
518,503,517,497,506
523,507,530,513,502
533,513,543,529,494
535,516,548,542,493
530,510,546,547,493
530,508,540,547,498
525,506,534,547,509
504,496,513,531,528
503,500,499,524,536
501,502,491,512,537
496,505,486,503,531
496,505,483,494,526
501,506,486,491,523
503,505,491,483,517
511,504,492,481,507
515,505,501,485,509
520,504,512,494,501
527,506,522,506,492
536,510,534,519,486
543,513,548,538,484
535,511,548,543,492
532,511,547,549,499
526,508,539,549,501
513,504,527,540,515
498,498,506,525,528
493,500,495,517,530
490,502,490,507,527
493,504,486,500,522
493,505,484,492,525
496,506,487,484,533
499,505,490,482,529
504,504,493,481,529
515,505,502,489,520
519,505,515,496,510
525,507,525,509,496
532,508,535,523,491
535,514,549,540,492
524,509,546,545,500
523,510,543,547,506
529,510,537,548,519
508,502,519,537,536
498,500,504,526,538
503,503,496,519,526
501,506,493,511,522
500,504,482,497,515
514,508,483,494,514
505,506,483,484,542
503,507,490,483,519
506,505,496,485,500
511,502,505,491,501
516,506,519,502,515
519,509,532,517,517
530,512,546,531,504
532,512,550,544,497
535,508,546,551,493
534,508,541,551,502
522,507,534,550,514
498,501,513,533,538
484,500,498,518,552
490,503,492,510,539
492,504,486,502,501
493,505,481,494,483
488,504,483,489,521
499,506,488,481,535
500,506,496,481,533
509,503,500,486,520
528,507,517,503,495
537,508,522,507,475
547,513,536,522,470
547,515,549,541,480
528,513,550,546,520
504,507,544,548,541
497,507,539,549,522
487,502,528,544,523
482,496,508,528,549
499,497,493,514,546
517,506,486,506,529
529,506,483,498,502
537,508,482,492,499
533,507,485,487,499
523,503,489,484,501
524,502,493,485,506
513,503,504,493,497
524,508,519,509,495
534,511,528,515,484
536,512,540,526,485
529,512,549,540,495
528,513,550,545,517
512,509,543,548,514
503,507,537,551,517
488,500,520,537,528
478,498,505,526,533
480,501,494,518,536
504,502,486,515,522
520,506,484,506,517
512,508,483,493,516
505,506,485,485,526
503,511,492,482,528
502,506,499,485,515
512,506,508,490,509
524,506,521,498,493
542,508,530,516,471
561,513,542,534,475
553,517,550,544,521
537,510,544,546,516
516,510,543,546,538
503,512,542,547,550
485,506,522,534,581
467,500,503,522,593
474,504,495,515,545
501,505,487,507,485
511,506,482,496,494
530,512,487,495,528
515,505,488,485,536
508,498,485,486,492
518,497,494,486,479
519,500,508,492,472
526,504,522,503,489
523,508,535,515,511
528,513,547,536,502
521,512,552,548,497
499,505,543,548,503
506,505,536,549,514
521,506,527,544,526
505,500,508,527,564
497,503,496,518,574
509,505,489,505,559
504,508,492,507,519
497,503,484,495,483
503,503,484,489,481
503,502,489,483,492
513,503,492,480,480
513,499,498,481,519
547,508,518,500,511
539,505,527,513,498
555,511,541,530,492
568,518,554,546,492
568,519,556,555,474
558,514,548,554,475
548,510,541,549,473
509,506,526,538,537
444,499,509,532,591
434,507,503,529,559
445,509,497,517,535
455,514,496,505,561
480,511,492,491,576
493,498,478,481,553
501,495,480,475,533
536,498,489,475,542
563,503,503,484,485
561,507,518,503,491
532,506,529,518,516
520,511,548,534,468
506,509,549,546,450
521,507,547,550,477
538,509,537,540,483
562,505,530,535,524
541,502,509,528,531
506,501,500,526,559
491,508,495,518,577
493,509,490,502,563
486,506,486,491,514
491,507,484,491,486
501,505,484,479,528
524,502,490,482,513
533,503,502,493,473
515,501,510,495,517
519,503,522,494,604
519,508,539,515,588
501,514,555,548,494
534,520,560,558,478
537,511,548,550,462
516,508,539,555,445
498,499,527,554,440
479,494,506,530,586
464,496,493,512,552
474,506,491,506,532
501,506,481,492,503
514,498,471,472,500
506,500,478,476,518
472,496,481,482,456
465,494,486,496,478
502,496,494,490,538
506,497,505,494,540
541,507,523,513,470
502,507,537,519,534
522,514,551,528,567
500,514,556,546,529
456,505,546,555,488
408,497,536,570,433
422,503,524,557,512
475,512,512,531,642
499,508,497,503,676
490,508,492,498,632
523,501,480,495,535
560,501,478,498,476
537,494,472,476,470
557,491,475,476,406
624,502,491,476,436
594,503,502,475,522
548,511,524,492,618
511,527,555,545,572
497,522,565,562,472
478,491,541,549,434
465,475,519,528,406
487,486,519,510,552
488,502,531,544,461
472,499,513,505,601
446,506,505,499,664
400,518,508,515,583
371,507,490,506,532
370,500,482,493,477
459,507,485,489,414
589,504,483,485,419
641,506,481,462,494
558,494,487,475,516
467,495,505,486,684
363,482,511,506,556
412,501,542,538,481
426,495,543,545,534
479,487,530,515,487
555,507,539,519,457
591,515,541,528,501
536,495,521,509,537
400,497,508,517,468
341,493,500,499,503
402,504,499,492,585
495,499,483,489,583
533,499,477,483,557
504,505,484,474,535
463,498,490,492,393
501,491,482,487,315
471,480,477,457,507
460,480,495,463,641
492,499,518,497,538
522,511,539,527,523
451,511,550,524,547
541,529,569,543,556
547,533,572,542,714
401,503,550,551,638
306,495,530,541,621
382,502,519,531,451
457,489,484,486,477
480,474,451,456,373
548,487,456,468,413
616,505,477,501,381
647,499,472,475,503
624,511,484,464,533
597,524,496,447,564
606,527,514,467,475
666,536,540,493,458
692,537,558,522,463
616,525,566,541,619
463,492,552,543,751
349,484,544,526,549
455,488,538,525,305
476,485,524,499,394
534,485,504,480,531
484,484,491,499,576
449,486,477,499,542
469,505,486,511,477
477,510,487,500,428
523,521,496,492,498
488,506,488,497,543
433,500,494,472,623
447,494,492,472,541
428,490,505,503,452
480,495,514,487,579
598,513,538,501,393
585,513,553,516,346
505,500,553,519,373
408,483,535,496,549
392,493,534,496,602
422,506,534,508,593
463,507,518,514,566
471,505,498,497,590
544,507,483,489,564
491,495,471,485,487
556,507,478,479,507
649,521,494,501,547
526,507,494,497,567
446,498,490,489,517
416,491,492,463,592
454,504,526,512,596
473,504,529,524,565
472,503,534,527,378
518,517,553,489,585
483,528,569,508,505
491,514,561,524,534
456,509,559,564,466
361,472,514,529,406
340,478,505,516,398
357,489,491,487,496
419,492,476,485,465
524,486,465,470,585
562,488,465,463,615
626,513,479,479,527
756,529,489,478,586
696,523,504,493,536
617,519,515,495,503
628,528,526,487,371
660,523,540,505,439
677,530,562,522,548
553,516,563,523,549
393,507,564,537,525
455,518,563,542,307
393,497,536,523,424
422,482,511,551,530
544,495,508,549,550
641,502,489,497,547
585,491,463,453,529
578,500,472,473,516
587,518,490,487,570
545,510,487,475,611
483,498,486,482,552
469,496,489,472,518
456,486,499,472,542
376,489,514,490,447
405,502,532,506,498
363,499,546,532,504
491,515,555,531,623
647,524,559,531,597
609,519,555,535,473
582,519,546,569,300
456,495,512,558,376
404,511,510,533,543
415,507,505,503,536
392,490,473,477,478
440,471,450,456,558
609,508,474,464,667
584,520,493,476,507
642,509,493,465,508
669,506,500,479,538
582,503,514,511,506
605,511,529,531,455
576,502,527,504,374
588,519,555,517,495
531,520,564,539,447
474,517,558,522,520
421,501,542,541,578
425,494,513,502,578
448,500,508,511,536
418,497,496,515,530
467,515,496,513,483
463,531,501,495,562
548,521,493,497,635
656,505,473,472,729
567,487,474,484,521
541,483,477,460,479
487,489,498,490,383
501,498,516,502,339
518,512,540,517,472
530,515,550,523,503
588,522,558,525,487
474,502,547,530,464
355,499,544,537,479
364,507,544,557,463
215,474,506,548,532
376,505,502,519,512
520,522,494,476,635
647,519,490,498,515
557,492,475,492,493
488,488,470,484,575
498,490,470,472,559
633,517,498,480,414
647,518,503,463,483
606,500,503,487,528
589,502,513,498,518
526,514,535,503,572
513,514,550,518,546
513,510,547,520,514
540,512,547,540,439
544,514,547,542,521
495,501,532,536,408
454,492,507,527,441
486,499,496,506,531
461,510,495,503,662
496,515,494,518,576
535,502,481,487,600
507,491,480,489,543
474,492,482,469,630
543,507,489,472,483
643,530,517,519,449
602,495,505,491,528
472,483,509,480,477
539,523,551,525,477
566,536,559,530,490
517,515,554,538,454
535,511,546,544,445
547,511,540,559,339
524,500,517,538,228
559,508,504,509,431
556,518,500,504,632
543,504,482,496,625
454,486,468,483,571
438,490,468,470,577
483,495,473,471,599
469,487,476,465,578
479,504,496,483,508
457,509,514,486,593
510,513,532,505,599
414,507,541,519,653
348,499,543,539,555
432,511,547,535,484
603,523,552,531,444
660,523,544,539,488
594,508,534,523,467
537,498,515,526,385
520,508,501,504,484
602,517,493,501,533
607,510,481,500,537
494,490,472,498,501
468,496,479,488,473
530,500,481,479,505
455,491,487,489,495
463,495,497,485,437
524,511,519,508,423
487,493,515,508,624
509,500,528,506,676
474,516,556,531,427
453,520,558,538,509
523,506,542,530,525
581,510,537,532,557
527,503,520,513,479
452,500,504,512,480
465,508,503,522,502
547,514,499,509,533
522,491,474,495,530
482,503,485,507,523
498,509,488,498,537
572,518,497,505,468
509,499,495,489,532
456,496,498,472,606
563,518,523,500,475
584,518,539,536,345
539,492,529,524,457
433,491,534,510,462
451,498,539,520,568
501,516,544,526,580
610,526,547,544,544
607,503,515,528,429
558,496,493,505,488
537,503,489,509,554
538,509,490,512,538
555,507,485,501,564
573,508,485,489,540
507,499,475,487,598
423,501,491,495,496
371,506,502,491,478
431,507,505,479,530
623,519,523,502,472
600,515,534,510,486
536,521,551,526,493
513,513,551,529,480
354,494,546,540,471
527,512,548,543,531
571,496,527,540,480
478,488,503,510,639
391,485,498,520,473
367,481,484,531,522
480,503,484,530,613
578,511,481,512,534
632,529,501,517,424
647,516,480,457,602
594,494,476,451,544
502,496,490,475,505
474,499,505,490,444
491,508,525,518,454
590,522,542,526,449
705,541,564,544,438
599,525,562,536,490
495,499,537,525,525
429,489,529,545,520
474,499,527,536,489
530,505,513,525,449
534,504,496,506,501
539,508,489,505,565
517,508,485,495,699
477,505,484,493,673
434,496,478,473,676
466,492,478,483,539
522,498,486,491,426
493,500,500,488,493
520,519,522,503,508
573,525,539,524,425
584,505,532,515,404
504,487,531,508,509
451,494,543,534,486
477,515,556,554,509
392,491,531,532,496
454,484,509,523,519
559,506,507,521,545
608,520,499,525,463
564,516,488,507,452
537,501,478,502,523
537,510,482,495,561
529,503,486,489,530
518,499,483,479,563
515,506,495,480,524
483,504,509,494,536
426,496,512,497,496
544,520,541,525,438
550,520,557,547,522
551,504,548,550,484
476,500,543,543,493
395,514,548,528,662
527,518,539,523,502
551,497,514,532,384
574,503,501,524,473
527,510,498,521,518
532,517,501,510,556
488,507,485,496,562
518,507,486,501,511
530,493,474,490,467
575,496,486,493,433
517,492,495,485,550
536,511,515,495,500
571,526,531,503,543
591,530,549,521,618
584,515,553,533,532
548,505,547,543,488
421,485,530,534,409
364,479,528,538,453
361,476,514,511,616
403,492,500,502,612
470,507,503,519,479
578,515,492,516,485
529,508,488,506,610
543,510,488,503,541
536,503,473,485,464
499,499,481,492,467
517,505,495,497,497
536,500,503,485,517
543,497,508,485,485
539,510,529,509,515
571,515,547,520,526
563,521,556,534,588
601,534,566,547,573
575,518,544,529,501
564,506,544,558,443
361,487,524,552,468
314,493,512,544,493
362,502,501,520,487
413,501,488,502,553
478,496,476,487,650
525,495,481,495,591
574,500,473,475,558
537,495,478,474,416
548,507,487,474,484
553,504,500,479,526
561,512,520,498,471
573,517,538,513,469
551,515,543,520,500
553,519,555,538,516
595,530,560,545,545
627,527,551,547,548
582,515,539,541,544
503,506,520,539,462
490,496,494,508,554
493,494,483,514,510
473,493,473,497,508
457,496,472,493,514
466,499,479,494,509
489,501,482,484,518
487,501,490,486,597
524,498,497,492,511
511,500,516,509,395
447,497,522,523,460
475,513,543,529,479
561,528,559,522,494
510,520,560,552,403
487,512,546,541,419
442,505,532,527,599
518,502,526,528,620
511,505,510,524,521
495,500,496,528,504
568,513,490,518,523
599,517,486,496,501
544,507,487,494,607
500,504,488,489,548
569,510,483,479,537
598,502,482,474,490
572,503,496,481,492
541,500,508,482,537
525,505,526,504,544
527,514,546,527,503
507,517,558,552,476
455,507,551,553,438
437,506,546,543,539
488,526,555,551,587
517,519,536,548,473
536,512,514,537,510
480,491,481,507,490
546,505,480,503,452
569,504,471,480,589
528,498,473,488,541
455,487,474,484,524
490,493,484,499,485
521,497,494,478,533
520,501,504,486,537
513,507,524,502,505
524,508,534,511,512
534,516,551,530,437
525,515,556,537,471
548,527,560,547,493
513,524,555,545,518
547,518,548,545,474
452,490,516,524,532
442,489,498,519,540
434,495,489,513,593
458,489,469,490,587
524,495,467,481,521
501,501,482,494,477
507,499,480,489,496
606,511,489,489,501
555,513,507,492,522
489,499,513,498,514
580,508,524,505,478
626,521,543,520,457
595,516,547,524,522
520,513,554,538,533
524,513,552,540,559
529,504,542,546,522
475,497,529,544,463
499,501,514,531,467
439,498,501,524,460
381,492,494,519,482
403,492,478,497,539
490,502,474,488,508
469,501,483,484,534
538,499,481,475,576
615,516,495,479,602
633,517,509,487,551
563,501,512,496,465
531,510,533,527,447
513,507,542,528,478
546,513,548,534,461
548,517,553,529,503
524,513,550,543,465
477,513,544,547,505
423,499,524,543,542
427,490,502,523,532
430,494,489,497,524
517,506,485,500,562
521,513,489,502,569
558,516,493,501,569
537,506,487,484,514
516,497,484,483,473
490,506,502,492,520
505,511,518,504,524
572,518,527,500,441
504,501,528,512,472
453,494,530,519,517
509,511,550,538,536
480,513,553,557,476
574,513,539,530,526
591,518,542,542,508
547,514,523,531,590
494,507,509,522,626
483,500,496,512,564
497,499,482,507,477
513,500,482,505,441
488,498,478,488,520
468,500,478,476,525
474,503,487,479,494
549,502,496,482,508
543,505,511,494,534
552,511,523,514,574
584,515,538,514,521
577,519,555,522,467
521,517,560,540,527
483,509,546,537,562
485,514,547,550,455
528,514,542,571,413
521,500,515,549,446
475,484,489,524,447
485,496,480,495,545
477,497,472,480,528
499,505,476,489,483
521,505,480,487,515
534,499,481,488,532
508,498,488,481,538
518,503,503,479,577
551,515,526,510,520
637,532,546,526,510
633,535,555,522,493
574,514,550,528,444
520,506,549,533,502
453,513,552,543,528
524,519,551,554,527
501,496,518,546,472
495,485,493,521,501
465,495,493,512,606
455,507,492,506,543
443,503,482,494,522
523,505,481,485,483
496,495,479,484,550
516,505,490,487,564
525,514,503,492,543
542,501,505,488,541
544,502,518,497,526
525,506,527,500,452
535,512,544,529,418
554,516,552,539,435
556,521,551,545,457
525,510,541,541,490
536,509,539,540,509
505,504,511,527,541
509,500,495,515,544
506,501,486,508,543
471,503,483,506,504
439,498,483,501,552
512,508,490,507,511
482,501,488,494,596
479,502,493,486,590
522,514,509,495,482
555,506,514,497,443
537,503,520,499,483
533,512,535,512,497
532,512,547,527,501
532,509,551,547,456
504,514,547,546,494
478,512,543,541,497
505,508,534,536,528
502,502,514,534,537
493,496,492,523,495
539,503,486,508,567
519,507,484,492,561
532,503,477,488,537
513,498,477,484,520
516,502,483,480,501
501,499,490,479,525
521,502,504,489,526
548,512,520,496,531
564,517,533,515,496
557,515,546,526,500
505,519,555,542,499
568,527,566,557,487
573,515,546,547,462
557,508,535,537,440
485,492,507,518,570
474,489,491,513,523
469,500,497,517,502
471,496,482,506,521
470,499,479,497,544
491,502,479,495,525
502,501,483,488,546
506,498,487,484,523
493,498,495,484,512
493,503,510,495,483
513,512,529,509,490
548,517,541,521,487
568,521,553,535,482
545,517,554,536,500
533,515,551,538,505
528,505,537,541,500
535,509,534,536,479
497,501,513,527,518
487,496,496,516,536
495,504,490,516,535
498,506,489,510,549
513,505,481,492,547
487,499,479,482,562
492,497,483,486,525
521,504,489,485,477
518,500,499,488,504
516,503,513,498,488
515,508,527,505,509
530,516,542,523,490
570,521,555,537,453
553,520,560,546,497
541,514,551,546,516
515,508,541,540,517
501,506,526,536,524
492,502,509,525,540
486,495,494,519,565
497,498,483,507,543
498,498,475,483,509
478,494,474,486,525
476,499,482,488,530
500,501,484,482,537
497,509,499,488,529
509,508,505,490,508
518,504,515,495,515
550,512,532,511,516
579,521,554,538,438
583,521,555,540,480
567,519,556,545,478
517,502,538,537,516
533,510,540,543,489
520,502,518,532,510
492,497,504,522,531
457,496,491,515,525
485,502,487,514,518
512,509,482,503,517
499,504,483,490,535
508,504,488,487,525
509,501,489,484,517
526,504,499,489,506
525,512,511,494,521
520,504,522,503,508
529,510,537,519,498
543,511,548,532,486
559,518,551,539,488
542,516,549,542,527
513,505,537,544,497
531,509,535,534,521
507,501,515,527,504
484,498,497,518,516
481,502,489,510,524
489,503,482,501,524
500,502,479,494,552
519,506,486,499,536
510,503,484,492,509
502,503,489,481,497
511,505,502,486,502
520,506,513,495,511
540,508,525,506,491
549,516,542,521,485
547,520,554,537,486
540,519,553,548,488
535,514,547,542,499
522,509,544,545,501
507,502,522,530,523
503,500,509,522,520
495,501,495,516,535
491,501,489,504,544
499,504,483,499,547
504,505,483,497,513
504,504,486,492,525
504,502,486,485,519
507,501,495,487,497
505,503,505,494,505
507,507,519,503,524
518,515,534,514,506
537,516,547,528,490
545,516,552,539,475
540,515,552,546,485
547,508,543,539,500
531,514,538,544,497
503,503,518,531,518
495,503,500,521,531
491,500,490,511,542
506,501,484,505,534
499,504,478,496,533
503,502,483,496,526
505,501,483,487,521
509,498,488,482,519
516,503,496,486,514
526,505,513,493,506
528,509,520,502,498
539,512,537,521,492
545,518,549,531,483
543,516,554,542,483
536,514,552,547,488
527,507,541,543,509
514,506,533,543,512
496,500,513,524,521
485,499,498,518,532
499,503,490,510,536
494,503,485,504,538
495,501,481,496,536
503,504,484,494,524
504,500,485,491,520
517,503,491,486,517
519,503,501,486,515
534,507,518,498,508
536,512,529,512,497
542,515,544,525,487
536,514,551,537,478
537,517,553,545,485
531,513,548,546,494
529,509,541,544,508
516,503,524,537,520
500,497,506,528,533
493,500,495,518,535
492,501,485,510,534
494,501,481,502,530
498,503,481,498,526
508,503,486,494,523
508,501,486,488,522
517,503,494,490,514
521,504,504,495,512
527,506,517,503,497
533,511,533,524,490
542,515,545,531,488
542,516,553,544,490
539,517,554,550,490
530,513,545,550,495
522,510,540,550,504
502,501,522,537,524
492,497,501,524,536
488,500,490,518,551
485,506,484,510,545
486,501,481,505,510
497,506,485,504,517
512,505,487,495,522
518,503,490,493,521
512,503,498,497,511
522,506,511,506,503
531,507,523,513,511
543,513,536,528,498
549,517,550,541,486
550,517,553,550,477
545,515,550,555,485
531,507,539,551,496
519,507,532,554,510
504,503,513,535,522
494,499,496,525,529
491,500,487,519,533
491,504,483,513,530
496,504,482,507,526
509,510,485,505,521
501,501,486,497,524
520,504,492,494,541
528,508,505,500,552
534,509,517,514,520
529,508,525,528,464
546,515,543,543,472
553,517,553,550,466
547,517,553,558,471
536,513,546,559,484
526,507,538,555,499
514,504,523,549,514
504,499,506,539,524
498,500,493,529,526
495,501,487,522,527
496,505,484,517,528
505,508,486,512,520
511,507,487,506,510
516,504,489,500,509
519,503,496,503,505
526,504,507,504,507
525,504,517,512,498
534,511,532,530,491
540,518,548,546,487
538,515,552,556,491
539,517,556,562,491
536,513,541,563,500
524,509,536,559,512
508,501,515,546,529
496,500,500,535,537
495,501,493,528,536
497,505,488,521,536
503,505,486,511,534
502,506,487,508,525
511,507,491,509,522
508,503,490,499,521
515,506,502,501,517
523,504,511,509,508
531,507,521,520,501
542,512,540,536,492
542,516,547,550,486
542,515,553,560,485
537,516,547,564,489
528,508,538,560,504
521,506,529,555,513
505,500,511,546,527
498,503,497,533,536
496,501,487,523,531
496,505,484,517,530
500,505,484,509,529
505,509,488,506,523
508,506,490,500,523
513,506,496,501,519
519,509,501,502,509
529,508,518,514,501
534,511,527,527,496
541,516,544,538,491
547,517,550,553,485
543,515,550,561,489
538,512,543,561,492
524,508,534,559,505
516,506,519,550,519
501,499,503,538,527
500,501,493,528,531
493,502,485,519,533
498,505,484,513,530
499,508,487,509,525
508,508,490,505,521
505,505,491,498,524
514,506,498,499,518
520,506,508,502,507
527,510,521,516,501
537,513,533,528,490
544,517,545,543,487
545,516,550,554,487
540,516,548,561,491
529,509,538,556,502
523,508,533,556,506
507,500,513,543,522
497,498,498,532,531
494,501,493,523,530
497,505,487,516,530
497,510,484,507,530
506,508,490,506,524
511,505,491,497,518
505,502,490,493,520
517,505,501,497,512
523,507,512,505,507
528,507,524,515,502
538,512,536,530,492
544,515,549,545,488
542,513,549,555,489
536,514,547,558,494
525,510,535,559,503
526,505,527,551,509
502,500,508,536,524
491,499,495,526,531
493,500,489,516,530
496,505,484,509,531
500,506,485,503,530
509,508,489,502,526
508,505,490,494,519
512,504,494,494,517
518,503,503,502,505
531,509,518,508,500
533,513,529,520,500
539,517,540,533,492
542,515,547,546,492
541,513,552,554,492
532,509,541,556,495
525,507,534,554,501
507,499,520,542,521
499,497,502,531,530
499,502,496,521,531
494,505,489,514,534
497,508,486,505,531
497,511,485,500,523
505,512,491,496,520
510,504,492,490,521
512,505,499,491,517
513,506,505,497,510
529,507,520,515,498
535,512,534,526,490
540,516,544,539,488
540,515,547,550,487
537,516,550,555,492
525,509,538,553,503
521,510,531,552,509
505,502,512,540,522
494,500,498,529,533
492,500,489,515,532
495,506,488,509,530
494,512,485,500,529
502,514,491,499,524
505,507,491,491,518
513,506,498,489,517
512,507,502,490,512
521,511,513,500,504
527,509,523,509,498
534,512,534,525,492
542,517,545,544,487
537,514,548,550,488
536,514,543,557,494
523,507,532,551,507
516,506,523,547,515
502,500,504,534,530
496,500,494,522,530
493,504,489,514,532
493,511,485,505,536
497,507,485,496,527
505,510,492,494,524
505,507,491,487,520
508,506,496,487,517
516,505,505,492,510
524,512,517,504,503
531,512,531,516,497
539,516,539,533,491
541,513,545,546,486
541,514,546,554,490
534,512,540,555,499
524,508,531,553,507
507,499,514,543,522
496,499,502,529,527
495,505,495,520,533
495,505,487,509,532
503,508,490,504,528
499,508,488,496,530
502,509,491,495,521
506,506,493,484,524
511,507,499,487,514
519,509,513,497,509
525,509,520,506,500
534,513,532,523,495
538,513,539,536,487
541,515,544,549,489
538,514,545,557,493
528,510,535,554,501
516,508,529,553,508
504,503,510,539,525
495,498,496,525,532
494,500,489,516,531
496,508,488,512,532
494,507,486,497,529
501,512,491,493,523
505,513,495,490,522
505,506,494,484,519
513,508,504,490,515
521,507,515,499,506
528,509,523,510,498
539,513,535,528,491
540,517,545,544,489
532,514,544,551,489
533,512,543,554,496
520,507,533,550,507
512,503,521,546,515
499,501,505,532,527
494,502,496,522,533
492,504,485,510,532
500,510,487,503,529
500,507,486,493,524
502,511,492,490,523
505,509,494,484,522
507,505,496,483,519
514,507,507,490,509
527,510,518,505,500
528,514,526,514,494
538,514,538,530,497
537,515,545,544,491
536,515,546,555,496
531,509,535,552,500
519,504,527,548,509
511,498,513,540,522
499,500,506,528,531
491,507,491,515,533
495,505,487,505,530
495,504,485,500,529
497,506,489,487,522
502,509,492,486,521
504,507,499,481,522
511,508,500,483,514
519,510,510,493,511
527,506,524,508,502
532,512,532,521,495
537,513,540,536,489
538,514,546,547,489
533,512,543,553,493
525,506,535,550,508
516,504,526,546,511
503,501,509,532,524
496,501,497,520,533
492,500,489,509,532
495,508,488,501,531
496,507,487,494,531
501,510,491,491,524
505,509,494,488,520
504,505,495,489,521
512,508,505,490,514
520,507,514,500,504
526,511,522,512,499
534,512,535,527,492
537,515,544,539,488
539,517,547,549,492
532,513,542,551,495
521,507,532,544,506
511,502,520,537,520
499,499,504,523,528
494,502,498,512,534
491,504,488,503,532
495,507,488,500,533
500,506,487,492,528
503,509,493,492,521
507,506,497,487,523
509,505,498,487,518
515,506,507,494,509
524,509,520,504,505
526,510,528,515,497
535,515,535,530,489
540,517,547,543,491
535,514,545,548,492
527,508,537,545,499
518,505,530,541,509
506,501,514,531,523
497,500,500,519,528
496,503,494,511,533
490,505,487,501,532
494,506,486,494,531
498,511,490,492,525
505,507,494,491,521
507,506,495,486,521
508,507,502,489,519
511,507,511,497,509
522,508,522,506,505
530,509,533,522,492
537,510,540,535,492
537,513,544,544,488
533,514,545,549,491
521,509,536,547,505
515,506,526,542,511
505,501,513,528,524
494,500,497,516,530
493,502,492,510,536
492,507,489,498,531
495,508,489,493,530
500,508,491,491,522
506,510,496,489,522
504,504,494,481,523
511,506,504,489,517
518,512,514,498,508
524,507,523,509,500
533,513,533,524,494
538,514,544,540,489
534,513,546,547,490
528,509,539,546,496
519,503,530,541,506
510,501,519,534,519
499,498,504,523,527
493,500,495,511,531
492,504,490,502,534
494,507,489,495,531
498,508,490,491,529
503,509,493,490,523
505,509,495,483,523
504,504,496,479,518
518,509,510,487,511
520,507,519,500,501
526,509,528,513,499
533,511,538,528,491
536,513,546,543,490
534,514,547,551,488
527,508,537,550,497
514,504,529,545,507
506,499,514,535,524
496,500,501,524,530
494,501,494,513,531
491,502,489,501,531
495,506,488,490,531
497,508,490,482,525
504,509,494,480,521
503,504,494,474,521
505,505,505,479,515
516,506,512,488,508
523,513,523,500,502
531,511,533,516,494
534,513,543,533,490
536,514,546,550,489
534,511,541,553,492
523,507,534,550,501
515,504,527,547,511
501,501,510,535,528
493,500,497,518,532
493,503,491,508,536
494,506,488,497,529
495,506,488,486,531
501,509,494,483,525
503,507,494,477,519
506,505,495,473,520
514,508,506,480,516
518,506,514,490,506
524,505,524,503,500
538,512,539,522,491
538,512,545,542,486
538,515,548,551,490
529,510,542,553,497
519,505,532,550,505
511,501,521,542,517
500,499,504,528,524
497,500,497,517,531
491,502,488,501,533
491,505,488,493,530
495,507,489,486,528
499,507,493,480,525
501,505,495,476,523
503,504,498,474,523
510,505,509,482,513
518,510,519,494,505
530,509,530,510,495
540,512,539,527,490
539,512,547,544,493
539,513,546,553,488
531,507,539,553,498
522,502,529,549,504
504,498,513,537,518
490,499,499,523,532
489,500,493,511,531
489,506,490,500,531
490,506,488,490,531
493,506,489,481,526
502,508,494,477,521
510,508,495,472,520
510,505,500,476,516
516,504,511,485,510
520,508,522,499,502
528,512,534,517,496
537,514,542,534,489
546,513,548,545,486
539,514,544,553,490
529,509,537,552,502
516,502,526,546,510
498,499,509,532,525
490,500,498,518,534
483,501,492,506,538
490,504,488,494,530
490,505,487,485,528
492,507,492,481,525
501,508,496,476,522
500,505,497,474,523
538,510,511,480,510
537,508,516,489,504
533,509,526,503,498
539,514,534,521,491
541,515,547,539,491
538,513,547,551,488
531,511,543,554,495
522,506,534,550,505
510,505,518,540,518
499,499,506,529,531
494,500,496,515,529
493,504,493,506,530
493,504,487,491,529
496,507,487,480,529
504,511,496,481,522
507,512,497,477,522
504,503,498,473,520
515,504,508,482,509
521,506,521,496,505
524,509,533,509,494
536,514,538,527,488
536,514,547,543,489
531,511,544,550,489
522,507,542,551,498
512,503,528,547,508
498,500,514,535,523
491,499,501,522,530
489,501,494,509,532
492,508,489,499,531
499,505,486,492,527
505,509,492,484,524
503,509,496,482,517
505,506,497,475,519
509,507,508,479,514
514,506,512,486,508
520,507,521,497,504
532,509,535,513,495
543,511,544,535,487
535,513,547,547,489
521,513,544,551,498
517,507,534,548,503
510,503,526,545,513
499,500,509,530,528
496,500,497,516,532
498,504,491,504,534
493,504,488,494,531
493,506,487,482,529
501,508,493,484,526
502,512,496,477,521
502,504,495,471,519
511,505,508,481,514
518,506,517,491,505
526,508,530,505,498
532,512,538,525,493
537,514,547,541,487
533,512,547,550,487
528,510,542,552,499
524,505,533,550,506
507,498,518,539,520
499,499,505,526,529
492,503,497,513,532
491,501,489,505,532
494,505,489,492,531
500,505,488,483,529
498,506,492,479,521
504,505,496,476,520
506,504,499,475,520
512,503,507,480,511
522,507,521,497,504
529,509,531,512,496
535,513,541,531,491
537,512,547,543,488
539,514,548,554,492
527,508,539,553,498
516,504,530,548,508
504,500,514,536,522
495,497,499,521,529
492,500,493,510,533
497,503,492,499,531
495,506,488,489,531
498,508,491,484,524
503,508,495,479,519
507,505,497,475,523
508,503,502,476,515
517,506,513,487,509
521,506,521,498,501
529,511,532,516,498
537,513,544,538,487
537,510,546,548,488
534,510,546,555,493
523,508,538,553,506
515,506,528,548,513
501,499,510,532,525
494,499,497,516,531
493,502,492,508,535
492,505,491,495,531
495,504,487,487,527
500,509,492,484,521
505,508,500,479,522
504,504,497,473,523
511,504,505,479,514
520,506,517,492,505
524,508,527,507,500
532,513,539,525,493
534,512,547,539,488
535,513,548,555,490
525,508,541,552,497
522,505,538,549,506
504,498,515,538,520
496,498,505,528,529
503,501,499,517,531
497,501,490,506,534
494,504,488,493,530
496,506,491,482,527
504,509,494,482,522
507,509,499,478,522
504,503,498,474,523
514,505,510,484,510
524,508,522,498,502
529,510,531,514,495
541,514,543,535,485
540,511,546,548,487
539,510,546,552,489
521,509,543,550,502
520,504,534,547,511
503,495,511,533,522
496,498,501,523,530
494,502,495,511,534
499,505,492,500,531
495,504,488,489,531
498,506,491,483,525
503,507,495,480,521
505,505,497,476,523
511,503,503,478,514
517,505,513,488,507
520,507,522,500,509
526,509,534,517,496
538,513,546,536,489
536,510,546,546,487
533,512,545,557,493
522,505,537,554,501
516,501,526,547,513
506,501,510,533,528
496,498,497,518,534
493,502,492,507,534
496,507,490,498,533
496,506,489,488,528
500,509,493,483,523
500,506,495,480,521
501,503,501,475,520
506,504,505,479,513
520,509,519,494,505
529,508,525,506,496
539,517,537,526,493
539,513,545,540,487
536,514,548,552,490
530,510,541,554,496
519,506,533,549,504
509,501,518,541,518
504,501,504,528,529
491,499,495,514,531
491,503,487,502,531
493,507,488,491,532
494,507,489,484,528
503,508,495,483,523
505,506,495,477,519
504,504,498,475,520
514,509,509,485,510
523,507,520,498,502
531,511,533,517,495
533,514,540,533,488
536,513,542,543,487
533,510,549,553,491
522,508,538,553,499
514,503,529,548,510
497,498,511,535,525
498,499,504,523,531
498,500,493,510,532
494,503,488,498,530
494,502,486,489,531
501,509,492,485,525
505,508,496,483,521
502,505,496,473,520
511,506,504,478,516
519,505,511,489,504
525,508,524,503,502
530,508,535,524,496
536,513,545,538,489
536,511,547,549,486
538,511,545,556,490
525,507,535,551,498
516,501,524,547,512
501,498,508,531,527
497,500,498,519,533
497,503,490,506,530
498,503,489,498,529
499,506,489,491,526
502,508,493,487,526
501,504,492,475,522
503,501,493,471,518
513,506,509,481,513
518,507,521,494,504
526,507,526,507,496
529,509,538,523,494
535,515,543,544,491
534,511,547,548,489
528,509,541,556,498
522,507,533,551,508
507,498,517,539,521
498,495,502,525,529
495,498,494,514,532
496,503,490,504,534
498,504,487,494,532
499,504,488,485,526
502,506,494,483,520
509,505,500,479,519
503,502,501,473,519
512,505,509,484,509
521,507,520,501,509
528,508,530,516,495
535,510,540,530,491
537,511,545,544,489
532,511,544,554,493
523,507,538,552,500
514,506,527,548,510
502,499,512,536,525
490,495,498,520,533
489,500,492,510,534
496,504,491,499,533
499,505,487,493,534
503,505,490,484,524
505,506,494,481,522
507,505,498,477,522
511,504,502,478,517
520,505,513,489,509
528,511,522,503,505
530,512,533,519,502
536,513,544,536,492
536,511,546,548,493
531,515,543,553,497
524,508,536,552,505
515,503,525,546,515
502,499,511,532,525
496,496,496,517,529
495,501,490,506,534
497,504,487,496,529
496,504,485,485,526
502,509,492,483,520
506,508,496,479,521
505,503,495,474,520
514,505,506,481,512
522,508,518,494,505
527,508,526,508,498
533,510,536,524,493
543,512,544,542,487
538,516,545,557,489
530,510,541,554,497
519,505,531,553,505
507,498,516,538,520
499,498,504,528,530
495,499,494,513,532
494,504,490,502,533
495,506,487,492,532
498,507,488,485,528
505,510,496,483,523
506,508,497,475,520
504,507,495,474,518
518,506,509,485,514
522,506,521,498,504
527,509,530,513,494
536,513,543,533,491
540,511,545,544,487
535,511,546,556,487
525,505,537,554,499
514,500,529,546,511
507,495,511,536,519
498,497,499,523,531
496,503,494,510,537
492,507,490,499,538
489,507,488,489,535
492,508,491,484,530
502,507,495,481,525
513,506,499,478,521
512,503,503,479,518
517,506,514,489,511
523,506,521,502,507
539,513,533,519,493
543,512,544,537,490
540,509,546,546,487
532,510,543,554,496
522,506,536,552,503
513,501,524,545,516
499,494,507,532,531
491,500,493,516,531
487,499,490,505,534
493,505,489,498,532
500,505,487,486,530
500,507,493,483,522
503,511,492,477,522
513,505,497,480,524
516,504,504,482,512
528,507,518,495,505
530,507,526,511,498
537,512,538,527,493
540,511,543,541,485
541,513,547,553,488
531,511,542,557,498
524,508,535,555,504
507,499,516,542,527
494,496,500,522,530
494,500,493,513,533
493,503,489,503,535
498,505,488,491,532
496,504,486,483,528
498,507,489,482,521
497,507,495,479,521
500,507,497,477,522
504,504,508,483,512
516,507,521,499,506
522,510,531,515,496
529,517,540,533,490
542,514,547,548,485
551,514,547,556,489
538,507,538,552,499
520,502,528,547,511
505,500,512,535,524
495,495,497,520,530
503,503,497,512,533
499,505,488,500,530
498,505,487,488,528
507,508,493,486,523
506,506,494,480,523
506,502,496,474,523
514,506,504,480,515
518,504,512,488,507
526,508,524,502,502
533,512,537,521,496
539,512,545,538,489
541,511,546,549,493
537,511,545,555,493
530,508,537,555,502
513,501,525,545,513
496,496,507,530,526
491,497,496,517,532
489,499,489,503,531
494,505,488,495,531
495,507,486,486,529
502,509,493,484,525
503,505,495,478,520
504,504,497,476,519
510,504,506,486,513
517,504,517,494,505
525,506,526,508,501
534,516,540,526,493
535,514,547,542,489
544,516,549,553,491
533,510,542,555,495
523,507,534,553,505
506,499,515,543,519
495,499,503,526,530
495,505,494,516,534
491,501,488,501,532
494,504,488,493,532
497,506,488,484,528
503,506,495,487,524
503,505,495,477,520
507,504,499,477,519
516,506,510,491,513
520,506,520,499,506
532,512,534,517,495
537,513,543,533,490
538,512,545,545,494
534,512,546,555,493
524,506,538,554,502
518,504,530,553,510
501,499,512,535,525
493,498,498,524,535
491,501,492,511,530
494,505,488,500,527
496,505,487,491,528
500,509,491,486,526
505,508,493,479,522
505,506,497,474,520
509,505,504,482,515
516,506,513,487,506
526,509,523,504,502
534,511,536,519,493
537,514,544,538,488
537,511,544,549,488
533,511,544,555,493
524,507,535,553,502
509,505,523,543,516
501,498,507,531,525
491,500,495,517,530
494,503,490,506,534
501,505,488,501,530
495,504,486,486,527
494,504,489,489,528
493,504,492,481,531
508,509,496,470,514
514,505,507,483,509
524,507,519,495,500
528,509,528,514,498
532,512,539,531,491
537,513,547,544,489
530,511,546,558,492
521,509,540,553,499
519,506,533,550,502
506,500,517,539,520
496,497,502,528,530
492,499,492,512,535
500,503,489,500,533
501,505,488,493,530
495,504,487,485,527
501,507,492,482,519
504,506,496,479,521
513,505,499,477,517
516,509,508,488,507
522,511,521,497,502
526,510,530,514,493
534,515,541,534,489
539,512,546,544,487
536,514,549,553,492
524,508,536,551,499
515,504,527,548,505
502,500,511,535,523
497,499,502,520,532
489,500,492,510,533
495,503,487,499,527
494,504,485,488,527
503,508,491,485,520
502,509,493,480,521
507,505,497,478,519
514,504,501,479,512
519,506,513,490,506
523,507,525,503,502
530,509,535,526,494
535,513,544,539,488
534,510,546,550,490
528,509,544,555,494
520,508,535,552,502
509,502,524,546,512
496,498,506,531,527
492,498,495,517,532
496,501,489,505,533
495,505,488,497,533
499,505,488,489,528
506,506,493,487,522
510,509,495,484,520
511,502,495,473,521
515,504,506,482,511
522,506,519,499,506
526,507,526,509,497
539,511,540,528,493
538,513,546,544,488
536,513,546,555,490
527,508,540,554,498
519,505,534,551,503
504,499,515,539,520
497,498,503,527,532
493,500,497,518,533
489,500,487,501,532
491,503,488,492,529
494,506,487,489,527
500,508,494,483,523
511,508,495,481,520
508,503,498,479,522
519,505,511,488,507
524,506,521,498,500
530,508,531,515,493
535,513,542,538,490
537,511,545,546,489
539,511,547,553,494
528,508,539,555,497
516,507,529,550,504
501,499,513,540,519
491,496,497,521,531
489,500,489,507,535
488,507,486,498,536
496,503,486,488,529
500,505,489,482,521
512,507,495,481,522
516,505,497,482,520
512,505,504,482,513
516,505,514,490,509
526,508,525,504,505
533,512,536,523,495
535,513,546,542,490
541,513,546,551,493
531,509,543,554,496
520,508,538,552,500
511,499,521,543,509
501,497,507,527,521
490,498,495,517,528
489,502,489,506,532
493,507,488,495,536
493,506,488,487,527
500,507,493,482,525
504,504,493,478,517
514,505,498,477,515
523,505,507,483,512
525,512,518,496,502
530,508,527,510,500
536,513,539,528,492
537,510,544,542,487
537,510,546,553,489
526,506,540,554,496
518,506,533,553,504
509,500,515,538,519
501,501,503,526,530
492,498,492,512,531
497,503,489,503,531
500,505,487,494,532
498,504,487,484,527
503,508,493,481,523
507,507,497,478,521
508,504,498,477,517
518,506,512,489,510
523,505,520,499,501
530,512,534,514,493
535,513,542,533,489
538,513,551,545,489
533,512,549,552,495
529,508,540,553,501
518,505,530,550,509
503,499,512,536,526
491,496,497,521,531
488,499,491,509,530
490,504,490,501,532
488,505,486,491,534
502,508,491,486,522
505,509,495,482,521
503,506,497,477,519
512,506,504,482,512
530,505,514,490,502
531,508,524,505,500
534,510,535,521,493
539,514,545,540,488
533,509,545,553,491
532,512,544,552,493
526,507,535,550,504
515,501,522,544,515
504,500,508,533,526
494,499,495,518,530
488,502,490,503,532
490,503,487,494,533
494,504,487,486,529
500,509,494,485,524
502,511,495,480,523
508,504,501,478,516
514,505,506,483,514
523,506,517,495,505
530,509,528,511,498
535,512,537,528,489
539,513,546,545,487
534,511,547,554,492
530,510,541,553,503
518,506,534,555,507
503,498,514,539,525
499,501,500,522,529
493,501,494,513,530
495,505,490,504,532
496,506,488,494,531
497,507,490,489,527
503,508,493,483,521
505,505,496,479,520
505,505,501,479,520
514,502,510,486,514
521,509,521,501,506
531,512,534,520,496
537,515,544,536,489
536,513,547,548,493
530,512,546,552,494
520,508,537,552,503
511,505,530,550,510
495,498,515,538,523
488,495,496,518,530
487,500,490,508,532
497,504,489,500,526
493,504,489,488,525
509,508,490,485,517
513,508,491,481,514
519,507,499,479,517
514,505,505,482,525
522,505,516,490,511
528,508,525,505,503
538,509,539,523,492
539,509,544,539,484
536,515,549,549,492
529,512,543,553,497
523,508,534,552,506
516,501,525,544,516
497,498,502,529,528
490,504,495,517,533
495,503,490,506,535
498,504,489,493,532
495,503,485,485,525
501,508,492,484,521
503,508,496,484,522
506,505,498,481,521
519,505,507,484,508
525,508,520,498,505
528,508,528,511,499
534,513,539,533,493
535,513,546,543,490
532,513,546,556,492
526,511,539,552,502
521,508,532,551,506
509,499,515,539,521
499,497,500,525,527
496,500,493,513,532
493,505,490,502,535
494,506,489,490,533
499,506,489,485,530
506,510,491,482,520
505,505,496,479,519
503,505,505,479,517
515,506,511,487,508
522,509,521,499,504
528,511,532,515,496
537,514,544,536,490
537,513,547,548,486
535,513,547,556,492
525,506,537,552,501
519,505,530,551,505
504,499,514,535,527
492,502,498,518,534
491,500,490,507,533
494,504,488,497,531
496,505,485,488,530
503,509,492,486,526
503,510,493,481,522
505,505,497,478,517
511,506,506,484,514
519,507,513,490,506
524,507,524,504,506
538,512,535,524,494
545,513,546,542,487
540,512,548,554,491
528,510,547,555,498
520,507,535,552,505
510,501,520,540,522
495,496,503,526,532
486,499,492,514,531
490,500,487,501,531
491,505,487,494,530
492,505,487,484,532
496,505,492,482,523
499,506,492,478,521
513,506,499,479,516
514,506,510,483,512
520,509,518,497,506
524,508,527,510,502
531,510,537,527,492
543,513,546,545,487
540,513,547,554,490
528,507,538,555,495
518,505,532,551,505
499,497,512,535,522
492,499,501,525,531
493,501,493,514,534
500,502,487,501,532
502,505,486,489,532
504,506,489,484,529
508,507,494,482,525
510,506,497,478,520
511,505,503,480,512
517,506,515,491,509
525,506,520,500,503
533,510,534,517,493
538,511,542,534,488
538,512,546,547,491
533,509,545,552,492
526,507,537,552,502
518,504,528,548,508
501,498,510,534,525
496,500,498,519,534
492,499,491,506,534
495,503,488,498,531
499,503,487,489,528
505,504,491,485,520
505,510,496,482,520
504,508,499,479,517
511,507,506,482,511
516,506,515,491,508
523,507,525,504,503
531,513,536,524,492
536,512,545,541,490
534,513,546,551,488
530,512,543,555,497
521,507,535,551,506
509,500,521,542,520
497,497,503,527,528
493,500,495,515,533
493,503,490,505,536
494,505,488,494,535
498,504,484,484,529
500,512,491,482,523
507,507,496,478,521
506,506,498,476,521
513,506,508,484,513
520,505,518,497,502
524,512,528,510,497
533,511,539,530,491
538,515,545,548,489
534,513,546,554,492
533,508,543,555,500
520,507,532,551,512
507,502,513,536,524
496,498,499,522,528
495,501,493,512,529
497,507,487,501,532
501,505,486,495,528
497,507,488,484,525
502,508,493,481,516
507,508,499,477,519
511,506,501,482,520
517,506,511,488,510
524,508,524,503,503
527,513,531,516,497
541,518,544,536,486
535,512,548,545,484
532,513,544,553,490
524,509,535,550,499
518,506,529,550,508
505,500,508,538,524
494,498,496,523,528
492,501,491,509,530
495,505,488,498,531
497,506,486,489,530
501,508,495,485,523
506,506,492,478,517
509,506,498,479,518
515,507,503,481,507
518,507,515,497,504
524,507,522,507,496
528,509,534,521,491
533,513,543,543,491
536,512,545,550,491
532,512,540,555,500
521,508,535,552,505
507,500,520,543,519
496,496,503,526,527
493,500,494,515,532
490,503,489,504,535
490,503,487,494,530
497,502,484,484,526
500,507,492,483,519
502,507,498,479,517
501,504,498,477,516
508,508,507,482,513
525,507,522,496,503
529,507,528,512,496
541,514,544,531,488
542,511,545,541,484
538,512,545,552,489
531,510,536,550,499
517,508,529,549,505
503,498,513,536,524
494,498,500,524,533
487,500,491,510,541
488,502,486,499,532
491,506,487,490,532
500,508,490,485,527
511,508,494,482,516
511,506,496,478,515
512,505,502,478,518
520,506,512,487,507
525,507,523,500,502
532,510,532,518,493
540,514,544,536,488
537,511,544,546,489
533,511,544,554,494
522,506,536,552,500
518,504,529,547,507
504,499,509,532,523
497,498,496,519,533
490,501,490,508,533
489,507,488,496,533
491,503,486,484,529
499,507,492,483,524
503,508,497,480,523
504,504,498,480,524
509,505,505,481,513
525,507,517,493,510
532,508,525,507,500
537,513,537,525,494
537,511,544,541,487
538,513,547,551,496
528,509,540,552,499
520,506,538,553,507
508,501,524,541,520
500,498,505,532,529
491,497,495,514,531
492,501,489,503,530
493,509,487,493,528
495,505,489,485,528
501,507,494,484,523
505,505,495,477,517
513,507,501,478,515
517,505,510,487,512
522,507,520,497,504
528,510,531,512,499
533,511,539,529,492
536,512,545,544,494
536,512,545,550,491
528,508,539,556,499
521,505,532,551,506
504,499,513,536,519
497,498,499,522,528
493,501,494,512,533
493,503,490,499,534
494,505,486,493,530
497,505,489,484,525
504,507,494,481,519
507,506,497,478,518
510,506,501,483,518
517,505,512,488,507
521,506,525,506,502
530,511,534,518,497
537,514,544,537,490
532,510,543,545,488
532,512,544,555,492
523,506,538,552,500
516,504,529,548,508
504,500,509,533,524
494,500,499,522,531
490,501,490,507,532
494,503,485,495,531
490,507,486,486,528
499,509,491,482,525
501,508,495,479,521
509,507,499,477,522
513,504,505,481,515
521,506,516,492,508
526,509,526,507,502
532,510,535,524,494
537,513,545,541,489
534,513,545,552,491
529,511,542,555,492
519,506,534,552,501
507,501,518,543,518
498,497,502,526,529
492,502,495,515,534
497,503,489,504,532
494,505,487,493,529
496,504,486,486,526
502,508,493,479,520
504,507,495,479,517
508,506,501,480,518
515,505,508,485,513
523,507,520,499,502
535,510,530,512,498
535,512,540,530,490
537,512,546,546,492
535,511,545,554,494
527,509,538,554,504
520,505,532,552,508
503,498,512,538,524
498,498,500,524,531
493,501,493,511,535
493,503,487,498,530
496,504,487,490,529
499,505,489,486,522
505,508,496,483,520
508,505,496,477,522
507,503,501,477,517
513,504,511,487,511
524,509,523,502,505
536,514,534,521,496
536,512,543,536,490
533,511,544,549,493
531,511,543,553,496
523,505,534,552,503
514,504,527,549,512
500,497,511,529,526
492,498,496,519,533
495,502,490,511,533
498,505,489,497,533
496,504,488,488,530
502,509,497,484,525
502,506,493,479,525
506,505,495,475,517
515,506,506,482,512
519,506,516,494,504
527,510,527,508,500
536,513,537,525,495
541,514,544,539,486
536,513,546,551,493
530,508,537,552,496
520,505,530,549,503
507,499,516,539,522
498,501,504,528,527
498,504,495,514,533
492,502,487,501,533
496,504,487,490,530
495,506,486,484,527
501,508,493,481,522
508,507,499,477,519
508,509,501,479,518
516,504,512,483,509
524,506,520,497,503
532,511,532,514,499
535,513,541,530,490
541,513,547,546,488
538,514,545,555,491
527,509,538,553,499
517,506,530,550,506
497,499,510,535,522
493,497,497,517,534
489,501,492,508,535
489,504,490,500,536
487,505,483,489,535
498,508,490,484,528
517,509,495,480,520
514,507,497,477,515
517,506,504,480,513
520,505,511,487,506
525,505,521,501,501
530,510,533,519,494
533,512,543,536,490
533,512,545,548,491
530,512,544,555,494
516,506,535,550,505
519,505,527,547,511
507,500,509,532,526
495,498,496,517,533
492,501,489,505,534
493,504,488,495,532
492,504,487,486,531
500,507,492,483,526
507,508,496,478,525
505,506,500,477,521
513,503,509,480,513
520,507,518,495,508
527,509,526,512,502
545,515,537,525,492
542,512,547,538,485
536,511,545,551,489
526,508,539,553,493
519,505,533,553,506
507,498,517,544,518
497,496,503,528,528
491,498,493,514,532
497,507,488,503,533
504,507,490,494,532
501,507,489,486,530
506,509,493,483,524
505,507,492,475,519
509,505,499,477,518
515,505,509,488,512
523,506,518,497,501
527,511,528,514,497
537,513,541,534,490
539,511,546,547,486
535,513,546,554,492
524,511,537,551,500
519,505,531,551,507
503,497,511,536,520
492,494,498,520,533
493,501,493,510,535
494,503,488,499,532
494,502,486,489,530
500,506,490,484,524
504,507,494,482,521
506,507,496,479,519
508,504,503,480,519
514,506,509,488,508
521,506,524,501,504
531,509,535,520,496
537,513,544,537,489
534,510,545,552,492
531,510,543,554,494
520,506,534,551,503
514,504,528,549,516
502,499,506,531,525
491,497,493,521,531
492,501,490,507,533
499,504,490,498,528
502,503,489,492,524
502,506,493,492,521
505,508,496,480,523
507,504,497,474,522
511,503,505,481,517
517,508,520,492,511
522,506,524,504,501
536,511,539,525,492
536,512,544,542,488
535,511,545,551,492
528,507,538,552,497
521,508,534,551,507
506,499,517,540,522
495,497,502,530,529
492,500,494,515,534
491,505,487,502,534
496,505,488,495,532
500,509,488,487,531
502,508,494,484,526
503,505,495,477,521
508,506,500,479,516
517,506,510,488,511
524,506,521,501,502
528,510,530,515,497
533,512,539,533,487
536,512,547,547,490
532,512,544,555,490
527,508,540,553,500
518,506,531,555,506
501,497,511,536,523
491,497,498,520,532
490,500,491,510,534
493,504,490,501,533
493,508,487,491,532
496,505,488,484,527
505,507,492,481,520
509,506,498,479,521
510,504,503,480,516
516,506,513,490,509
522,507,527,504,502
536,516,535,523,493
536,513,543,536,485
535,512,545,549,492
533,511,543,556,494
525,508,536,554,502
521,505,527,547,510
503,500,508,533,526
492,505,495,519,532
491,501,488,505,532
491,505,488,496,530
495,505,486,486,530
505,508,494,484,523
508,510,495,480,520
506,502,497,477,515
516,508,506,484,512
521,505,516,495,501
529,510,530,508,500
532,511,536,527,491
534,510,544,542,487
537,510,547,550,490
526,509,539,553,495
520,506,532,552,503
505,499,514,538,521
499,499,501,526,529
497,501,497,515,533
494,502,486,501,531
496,506,487,493,527
502,507,493,485,523
503,509,494,488,519
504,505,495,477,521
505,505,500,478,517
517,510,509,488,510
523,506,519,499,500
528,510,531,516,495
531,511,539,531,490
533,513,547,547,494
530,512,545,554,497
522,508,538,554,505
514,506,530,551,509
500,500,511,533,521
505,501,504,524,527
494,500,491,509,527
496,504,490,501,528
497,505,486,490,525
494,505,487,486,525
509,508,494,481,519
514,507,497,480,519
515,504,502,485,511
519,503,512,491,506
525,508,522,504,500
533,511,534,521,493
540,513,543,538,488
536,512,545,548,490
529,510,541,553,496
523,505,535,556,502
515,504,525,548,513
496,497,505,531,524
486,498,494,518,532
483,502,492,508,534
488,505,488,497,533
493,506,488,489,528
496,505,491,485,521
497,505,495,480,520
500,503,495,475,520
514,507,506,485,515
534,511,517,496,506
545,511,526,512,495
548,516,537,527,493
544,515,544,542,487
539,512,544,552,494
534,510,538,553,499
524,512,531,553,506
511,500,519,544,519
498,497,503,525,527
498,499,494,516,530
499,504,489,504,531
493,505,488,493,531
501,509,487,487,526
503,506,492,481,522
507,506,496,477,521
509,506,502,479,518
517,505,508,484,508
523,508,521,499,505
528,510,532,516,496
538,512,541,532,488
538,513,546,547,489
529,509,546,553,491
525,507,538,554,501
522,511,532,553,506
500,497,509,535,521
490,496,496,519,531
492,500,492,509,534
492,507,487,498,530
496,503,485,489,528
497,506,487,483,526
502,507,494,479,521
506,506,497,481,521
513,505,504,481,511
520,507,515,492,506
522,504,523,503,501
528,509,533,519,494
536,510,537,535,486
534,511,544,550,489
534,509,540,553,493
521,505,534,551,503
513,503,521,545,513
500,498,505,529,529
493,500,494,517,538
494,499,488,502,533
493,504,488,495,532
495,504,486,486,529
502,508,493,484,525
504,507,495,479,520
506,504,497,476,522
514,505,506,483,516
520,506,517,495,506
525,509,527,510,500
532,513,538,528,494
533,512,543,542,486
535,513,545,553,489
527,508,543,550,495
518,507,531,550,502
505,499,515,539,519
502,497,502,526,528
497,500,494,514,530
495,504,489,502,533
496,506,487,492,531
495,505,486,483,529
500,506,493,483,522
507,507,498,479,521
509,505,500,479,516
520,506,514,488,509
521,504,519,498,499
528,509,533,516,492
535,514,541,532,489
537,510,545,547,486
535,513,549,553,492
524,510,536,553,499
519,505,531,550,506
502,502,508,534,521
493,497,497,521,530
494,502,492,515,535
495,504,490,500,532
495,505,487,489,530
496,507,488,482,524
503,508,495,482,520
506,507,498,479,520
510,505,504,481,515
519,506,514,491,505
524,509,524,504,504
533,512,536,523,494
536,512,544,535,485
537,512,545,551,488
535,508,540,554,492
523,506,535,558,501
514,504,525,552,515
500,498,505,530,529
495,500,496,518,532
497,501,489,507,530
494,504,488,497,529
489,504,487,487,530
492,504,487,481,526
500,504,494,479,520
502,503,498,479,518
513,505,505,482,508
524,510,520,494,505
526,510,527,513,501
536,512,540,530,491
535,512,546,542,487
535,511,544,552,493
532,510,542,555,498
525,507,533,553,505
508,500,516,539,519
496,497,501,525,529
492,501,494,514,534
498,503,488,505,532
493,503,486,494,528
496,507,486,483,527
503,506,493,481,522
506,506,498,479,517
505,503,499,477,515
510,505,510,485,516
517,505,520,498,506
531,512,533,517,497
536,512,541,533,489
536,513,547,546,489
532,511,545,555,494
526,510,539,555,505
517,507,530,553,514
498,498,510,538,531
491,498,497,521,538
490,501,491,508,536
492,505,489,499,533
494,505,487,491,532
501,509,491,484,524
508,505,495,481,513
508,506,498,480,513
508,506,505,481,509
514,506,513,489,507
520,507,523,501,500
533,512,535,521,495
536,513,544,538,487
538,511,543,549,492
528,510,542,555,493
520,508,535,550,502
508,504,524,544,516
503,501,507,531,526
495,499,494,516,530
492,502,490,504,534
497,506,489,497,532
495,510,486,486,533
500,507,491,482,524
505,507,493,479,517
510,508,500,480,517
518,505,506,481,509
523,508,519,496,504
526,508,525,507,496
534,511,537,527,491
539,514,546,546,487
533,510,544,551,491
529,511,540,556,497
523,508,533,552,503
507,499,517,537,518
496,498,501,525,532
493,501,494,513,535
493,505,489,502,537
498,506,489,492,533
496,506,489,483,530
502,510,490,479,521
507,507,496,478,518
509,504,501,479,520
515,506,510,486,512
522,511,521,499,505
530,508,531,515,499
537,512,542,533,489
537,513,545,545,487
529,509,541,552,490
522,508,536,555,499
514,505,529,550,507
498,499,510,534,523
493,500,498,521,533
490,500,491,509,534
491,504,487,504,530
503,506,492,490,528
507,505,490,484,526
507,507,493,482,519
509,507,498,479,518
512,505,503,480,512
522,508,515,492,507
527,508,523,504,500
533,511,535,522,495
538,514,545,542,490
533,511,543,548,494
529,511,541,556,498
524,508,536,553,505
514,504,524,546,516
497,498,504,530,526
492,498,494,517,532
493,501,490,510,532
500,505,489,497,530
498,507,489,485,530
500,506,491,484,528
505,509,493,477,520
509,506,499,482,522
512,505,507,484,511
523,508,520,497,505
526,509,525,509,498
530,510,537,525,491
536,514,545,543,492
535,510,543,550,492
528,508,539,553,497
518,504,532,552,504
501,497,512,537,520
493,498,502,528,529
488,505,495,513,530
487,502,488,501,530
502,507,488,491,531
502,507,490,485,530
504,507,493,481,524
507,505,496,478,521
506,507,500,477,518
521,505,510,486,510
532,508,522,500,503
533,511,533,518,496
546,517,543,535,488
545,513,546,552,488
539,511,545,556,490
524,508,537,551,503
518,505,528,548,511
501,498,511,534,528
493,496,495,518,531
492,501,491,508,534
497,508,488,500,533
494,504,486,489,531
497,504,488,482,525
508,509,496,486,518
506,507,502,480,520
510,503,503,480,515
515,510,512,489,506
519,509,524,504,505
527,509,535,522,496
534,513,547,540,488
543,512,544,550,492
539,511,542,552,499
524,507,534,552,506
511,503,523,546,518
500,497,507,530,527
500,500,496,521,535
494,499,488,504,532
495,505,488,496,533
503,507,488,488,531
505,510,490,481,526
507,506,494,482,519
511,506,500,479,518
511,506,506,483,511
521,508,520,497,508
524,506,526,509,505
532,512,538,528,494
536,512,545,548,492
532,511,544,552,497
527,508,538,554,496
525,506,529,552,499
510,499,515,540,519
499,499,498,524,527
495,502,494,514,532
496,502,487,500,531
499,506,489,492,530
499,507,491,486,527
501,505,490,480,521
508,506,497,481,518
509,504,500,479,512
516,506,512,489,509
521,506,521,500,499
532,511,533,516,497
535,512,542,534,490
535,511,546,547,493
530,509,542,552,497
523,507,536,551,504
516,507,530,550,511
502,499,510,535,527
493,498,495,519,530
493,503,492,509,534
497,505,494,498,531
492,504,487,486,529
498,506,490,482,527
504,509,497,482,523
504,506,497,476,518
515,507,507,483,513
518,503,513,493,505
525,507,525,505,500
530,515,533,522,496
544,513,545,538,489
534,510,545,549,491
530,510,542,553,497
524,508,535,553,504
509,500,521,542,521
497,498,506,531,523
495,500,496,517,532
492,501,488,503,532
494,505,488,494,530
496,507,488,485,528
499,507,492,482,527
501,507,495,477,520
512,509,502,483,518
515,504,508,483,510
521,506,523,499,503
526,506,527,512,494
533,513,540,528,494
540,518,546,550,492
533,512,544,551,497
526,509,540,553,501
522,507,532,553,504
505,500,515,539,523
495,497,500,523,530
493,500,493,513,529
494,503,493,504,530
492,505,486,490,532
495,504,487,481,529
503,510,492,481,520
510,508,498,481,518
509,509,502,481,514
512,508,508,484,509
523,505,522,499,505
528,509,532,521,495
532,511,542,535,490
535,513,546,546,493
529,509,541,551,498
523,507,537,553,502
514,509,531,549,508
504,498,510,536,526
488,498,496,519,533
490,502,493,508,537
490,503,487,497,531
493,505,487,488,530
502,509,490,482,526
508,507,495,480,521
508,506,499,481,520
509,505,505,482,516
516,509,516,493,509
523,507,524,506,501
532,511,536,525,495
536,511,543,539,481
534,510,548,550,491
532,512,545,551,498
525,507,534,552,505
516,504,523,545,518
499,498,505,528,529
496,500,501,515,535
492,501,489,504,534
494,504,488,494,530
497,506,488,490,526
499,506,492,481,524
504,506,494,477,517
504,505,499,477,518
508,503,506,483,511
523,511,519,499,505
530,511,529,510,496
533,512,538,528,489
538,514,546,544,489
532,511,543,551,493
528,512,537,553,499
523,506,531,551,506
506,499,514,538,523
498,499,501,526,531
492,499,491,515,532
493,502,488,501,533
498,506,489,493,531
503,505,488,484,523
506,507,493,481,521
510,506,496,478,522
511,505,502,479,514
514,508,508,486,507
526,507,523,501,502
535,510,534,521,493
537,513,543,536,489
537,509,544,546,486
530,510,543,553,499
523,509,538,554,502
518,506,529,551,509
502,500,507,533,523
495,499,496,520,530
491,503,492,509,534
492,503,487,497,531
493,504,487,487,528
499,507,489,484,525
504,508,495,482,522
505,504,496,477,517
514,504,505,483,514
517,506,515,493,505
530,509,524,508,501
534,514,536,525,497
538,513,544,540,490
534,511,543,551,491
533,514,541,557,498
523,509,535,555,504
513,501,520,545,520
500,497,503,528,526
494,501,495,517,531
493,504,487,503,530
499,505,491,496,530
501,505,487,486,529
499,505,488,479,524
504,507,495,479,519
510,506,498,479,514
517,507,509,487,510
520,505,516,496,503
528,505,526,513,495
536,506,540,529,489
539,512,545,549,486
534,517,545,554,498
526,509,538,554,503
520,506,531,552,509
504,499,512,538,527
497,499,502,521,532
492,506,491,511,532
494,502,488,506,530
494,504,485,490,525
498,507,488,485,524
503,509,494,483,520
505,506,495,478,517
509,507,501,479,515
516,506,510,487,507
529,508,522,507,503
534,510,534,523,493
546,513,542,538,485
535,512,544,547,490
532,510,541,552,495
528,503,534,555,498
521,504,529,553,505
500,502,510,534,529
490,499,494,517,532
498,503,494,511,535
494,505,487,499,531
495,505,486,487,531
504,507,490,482,523
504,508,494,481,526
509,505,497,475,519
511,506,506,483,515
519,504,514,493,506
527,506,524,507,501
536,507,535,526,490
536,512,546,543,487
532,514,544,551,487
526,509,540,554,498
517,509,535,550,505
508,501,519,543,516
500,500,505,530,529
494,499,496,516,528
496,504,489,505,532
495,504,486,494,528
497,506,487,485,527
500,507,490,480,524
505,506,495,479,521
508,505,496,478,513
516,507,509,486,510
525,507,518,496,500
532,510,533,513,496
536,513,539,531,488
541,510,546,550,485
533,510,543,553,492
526,509,537,551,500
520,506,531,552,506
508,500,514,539,524
499,498,499,520,532
494,502,494,514,534
498,502,487,500,533
495,505,487,491,532
500,507,490,485,528
502,505,492,480,523
505,505,496,478,518
509,504,502,480,512
517,506,512,490,503
522,506,521,501,494
532,511,533,519,487
537,513,543,536,483
541,511,547,547,493
536,510,543,551,495
525,507,535,553,501
520,507,529,551,509
502,501,507,533,521
496,500,498,521,531
495,501,490,506,529
496,505,489,499,530
495,507,487,487,529
499,504,488,481,525
504,508,494,480,521
511,506,498,483,519
512,509,505,482,512
520,505,515,493,504
527,509,526,507,501
534,512,538,526,493
537,514,545,541,489
534,516,544,555,490
528,509,540,554,498
522,508,534,554,504
506,499,518,542,516
497,499,504,529,528
491,500,495,517,531
491,502,489,504,532
492,505,487,498,531
491,503,486,486,528
500,506,491,481,524
512,511,496,480,520
511,507,500,479,515
523,507,510,492,511
525,508,520,499,501
528,509,530,517,498
535,512,540,531,488
534,514,547,545,493
528,510,544,551,493
524,508,537,553,498
517,506,530,551,505
506,499,512,537,522
504,498,500,524,530
499,500,492,511,533
498,505,492,502,531
501,505,484,490,526
503,507,489,485,527
502,505,491,479,523
