CH1,CH2,CH3,CH4
500.0,502.0,507.0,510.0
515.0,477.0,501.0,514.0
522.0,484.0,506.0,519.0
520.0,489.0,505.0,521.0
516.0,497.0,502.0,521.0
503.0,526.0,496.0,524.0
502.0,511.0,505.0,520.0
503.0,510.0,507.0,519.0
509.0,496.0,512.0,514.0
526.0,493.0,520.0,509.0
534.0,497.0,532.0,503.0
529.0,504.0,533.0,502.0
517.0,517.0,530.0,498.0
503.0,532.0,521.0,500.0
497.0,521.0,516.0,502.0
494.0,521.0,514.0,502.0
498.0,508.0,508.0,504.0
503.0,515.0,501.0,507.0
524.0,477.0,498.0,510.0
536.0,476.0,497.0,507.0
532.0,481.0,495.0,514.0
514.0,503.0,494.0,522.0
505.0,539.0,496.0,518.0
505.0,531.0,501.0,519.0
502.0,534.0,505.0,517.0
510.0,528.0,513.0,514.0
528.0,477.0,520.0,510.0
534.0,453.0,531.0,507.0
531.0,476.0,530.0,503.0
519.0,502.0,529.0,503.0
504.0,520.0,519.0,505.0
506.0,488.0,517.0,502.0
498.0,534.0,512.0,503.0
494.0,548.0,506.0,506.0
506.0,538.0,503.0,510.0
529.0,483.0,503.0,506.0
520.0,530.0,498.0,512.0
519.0,487.0,499.0,516.0
514.0,495.0,496.0,523.0
503.0,524.0,499.0,522.0
502.0,521.0,501.0,520.0
508.0,498.0,507.0,526.0
517.0,504.0,513.0,518.0
537.0,474.0,527.0,511.0
536.0,464.0,531.0,510.0
529.0,465.0,530.0,506.0
515.0,494.0,525.0,507.0
497.0,533.0,517.0,508.0
492.0,541.0,516.0,507.0
500.0,529.0,519.0,508.0
504.0,523.0,510.0,504.0
514.0,489.0,506.0,510.0
521.0,484.0,508.0,514.0
522.0,487.0,504.0,516.0
517.0,505.0,496.0,518.0
502.0,535.0,495.0,517.0
497.0,540.0,497.0,518.0
492.0,557.0,503.0,522.0
504.0,521.0,510.0,513.0
518.0,498.0,521.0,509.0
528.0,463.0,530.0,505.0
524.0,453.0,533.0,508.0
524.0,469.0,530.0,506.0
502.0,509.0,521.0,508.0
493.0,535.0,517.0,507.0
492.0,531.0,512.0,509.0
494.0,527.0,507.0,507.0
503.0,512.0,502.0,505.0
525.0,478.0,503.0,507.0
529.0,472.0,500.0,509.0
525.0,478.0,499.0,516.0
513.0,501.0,496.0,520.0
501.0,516.0,495.0,526.0
506.0,512.0,504.0,522.0
507.0,529.0,510.0,524.0
510.0,524.0,515.0,519.0
525.0,490.0,520.0,513.0
535.0,472.0,529.0,504.0
531.0,476.0,528.0,504.0
518.0,495.0,525.0,500.0
499.0,523.0,518.0,505.0
496.0,521.0,517.0,505.0
495.0,512.0,518.0,503.0
497.0,509.0,508.0,506.0
505.0,500.0,501.0,509.0
526.0,480.0,498.0,507.0
530.0,491.0,501.0,510.0
528.0,503.0,502.0,513.0
514.0,542.0,494.0,516.0
504.0,547.0,496.0,516.0
506.0,542.0,499.0,517.0
506.0,535.0,505.0,514.0
506.0,520.0,515.0,513.0
528.0,461.0,527.0,505.0
526.0,453.0,530.0,507.0
523.0,465.0,530.0,507.0
509.0,491.0,526.0,512.0
490.0,530.0,518.0,515.0
496.0,514.0,518.0,512.0
495.0,529.0,513.0,513.0
502.0,519.0,507.0,515.0
515.0,500.0,511.0,509.0
525.0,506.0,505.0,511.0
525.0,492.0,498.0,514.0
521.0,487.0,494.0,515.0
505.0,527.0,492.0,517.0
505.0,534.0,495.0,517.0
509.0,513.0,501.0,515.0
516.0,482.0,509.0,512.0
524.0,473.0,520.0,513.0
534.0,450.0,534.0,509.0
533.0,447.0,540.0,510.0
526.0,472.0,538.0,509.0
505.0,512.0,528.0,511.0
493.0,541.0,521.0,511.0
490.0,551.0,517.0,508.0
498.0,516.0,510.0,507.0
503.0,524.0,502.0,504.0
517.0,492.0,502.0,505.0
523.0,488.0,497.0,506.0
518.0,476.0,493.0,514.0
510.0,506.0,496.0,521.0
498.0,488.0,495.0,522.0
499.0,480.0,503.0,522.0
495.0,537.0,505.0,521.0
507.0,519.0,513.0,517.0
525.0,499.0,522.0,511.0
524.0,494.0,532.0,504.0
527.0,479.0,537.0,505.0
516.0,493.0,533.0,503.0
501.0,518.0,515.0,501.0
497.0,519.0,510.0,503.0
500.0,521.0,509.0,506.0
503.0,519.0,506.0,509.0
516.0,504.0,500.0,512.0
527.0,492.0,503.0,515.0
525.0,492.0,501.0,514.0
520.0,491.0,498.0,518.0
506.0,506.0,494.0,520.0
497.0,511.0,504.0,522.0
510.0,487.0,505.0,514.0
521.0,496.0,510.0,516.0
524.0,501.0,517.0,515.0
533.0,482.0,530.0,511.0
533.0,489.0,534.0,509.0
524.0,498.0,535.0,505.0
510.0,522.0,525.0,509.0
496.0,533.0,521.0,509.0
491.0,525.0,516.0,505.0
489.0,526.0,509.0,506.0
500.0,508.0,502.0,509.0
515.0,487.0,502.0,507.0
523.0,475.0,500.0,511.0
523.0,473.0,500.0,518.0
520.0,490.0,495.0,520.0
505.0,513.0,493.0,521.0
503.0,524.0,493.0,518.0
502.0,530.0,500.0,518.0
509.0,538.0,505.0,511.0
518.0,508.0,516.0,506.0
533.0,466.0,530.0,506.0
530.0,472.0,533.0,502.0
523.0,487.0,529.0,507.0
506.0,512.0,527.0,509.0
498.0,529.0,524.0,514.0
494.0,527.0,521.0,517.0
500.0,538.0,518.0,517.0
504.0,526.0,508.0,515.0
524.0,474.0,507.0,509.0
527.0,446.0,500.0,505.0
523.0,481.0,497.0,507.0
512.0,514.0,488.0,508.0
500.0,532.0,490.0,509.0
503.0,519.0,494.0,507.0
506.0,504.0,501.0,506.0
510.0,483.0,508.0,503.0
532.0,456.0,519.0,507.0
530.0,444.0,530.0,501.0
523.0,463.0,531.0,497.0
516.0,503.0,528.0,493.0
507.0,523.0,510.0,493.0
501.0,524.0,504.0,494.0
502.0,535.0,499.0,492.0
498.0,544.0,500.0,502.0
509.0,519.0,501.0,514.0
520.0,496.0,508.0,521.0
520.0,511.0,508.0,525.0
521.0,519.0,508.0,534.0
515.0,513.0,506.0,537.0
510.0,483.0,509.0,524.0
508.0,492.0,508.0,518.0
515.0,530.0,506.0,513.0
515.0,538.0,509.0,506.0
531.0,503.0,520.0,502.0
532.0,489.0,525.0,501.0
529.0,470.0,527.0,498.0
516.0,476.0,524.0,500.0
498.0,501.0,515.0,501.0
497.0,501.0,513.0,499.0
496.0,533.0,507.0,498.0
501.0,499.0,503.0,495.0
509.0,467.0,503.0,499.0
522.0,477.0,503.0,497.0
524.0,492.0,495.0,501.0
514.0,503.0,489.0,505.0
509.0,522.0,482.0,507.0
500.0,526.0,491.0,510.0
505.0,493.0,503.0,509.0
510.0,493.0,504.0,503.0
514.0,484.0,517.0,501.0
527.0,451.0,529.0,505.0
529.0,466.0,532.0,506.0
530.0,460.0,530.0,509.0
515.0,499.0,521.0,511.0
499.0,521.0,514.0,512.0
507.0,544.0,514.0,505.0
504.0,550.0,507.0,500.0
508.0,520.0,505.0,503.0
519.0,475.0,510.0,507.0
521.0,470.0,505.0,512.0
519.0,497.0,504.0,519.0
506.0,519.0,490.0,520.0
494.0,571.0,492.0,524.0
494.0,573.0,498.0,516.0
501.0,540.0,497.0,504.0
514.0,529.0,503.0,503.0
540.0,499.0,518.0,501.0
542.0,465.0,526.0,491.0
534.0,468.0,529.0,492.0
525.0,468.0,526.0,497.0
502.0,513.0,518.0,502.0
500.0,518.0,513.0,499.0
500.0,532.0,506.0,493.0
503.0,579.0,496.0,497.0
515.0,562.0,495.0,499.0
526.0,496.0,495.0,500.0
525.0,487.0,495.0,499.0
527.0,441.0,493.0,510.0
508.0,501.0,485.0,513.0
505.0,510.0,491.0,509.0
505.0,497.0,496.0,508.0
505.0,501.0,496.0,504.0
503.0,490.0,502.0,505.0
524.0,442.0,512.0,504.0
528.0,442.0,519.0,506.0
528.0,445.0,521.0,508.0
513.0,494.0,523.0,507.0
493.0,538.0,537.0,515.0
491.0,542.0,532.0,516.0
492.0,563.0,514.0,509.0
498.0,515.0,521.0,511.0
512.0,475.0,511.0,509.0
526.0,462.0,511.0,513.0
526.0,481.0,504.0,514.0
521.0,509.0,498.0,516.0
504.0,556.0,497.0,517.0
503.0,542.0,500.0,515.0
504.0,523.0,498.0,511.0
507.0,505.0,499.0,508.0
522.0,472.0,503.0,502.0
538.0,459.0,512.0,502.0
533.0,463.0,525.0,505.0
526.0,487.0,547.0,502.0
512.0,506.0,529.0,496.0
497.0,528.0,502.0,496.0
495.0,518.0,518.0,508.0
496.0,517.0,513.0,510.0
504.0,547.0,502.0,515.0
522.0,517.0,502.0,521.0
526.0,485.0,491.0,519.0
522.0,496.0,491.0,521.0
507.0,560.0,489.0,524.0
495.0,577.0,491.0,524.0
495.0,583.0,500.0,516.0
495.0,555.0,502.0,511.0
504.0,516.0,507.0,508.0
524.0,427.0,520.0,501.0
531.0,432.0,529.0,501.0
534.0,459.0,527.0,500.0
530.0,501.0,521.0,501.0
503.0,577.0,513.0,505.0
494.0,582.0,518.0,505.0
500.0,554.0,523.0,507.0
499.0,542.0,522.0,513.0
505.0,534.0,516.0,512.0
526.0,456.0,507.0,519.0
527.0,437.0,504.0,518.0
529.0,422.0,491.0,517.0
518.0,431.0,477.0,516.0
507.0,491.0,481.0,517.0
501.0,510.0,490.0,512.0
501.0,505.0,491.0,508.0
509.0,504.0,499.0,505.0
537.0,476.0,522.0,502.0
541.0,491.0,526.0,498.0
526.0,479.0,528.0,499.0
510.0,509.0,523.0,500.0
496.0,509.0,516.0,497.0
499.0,526.0,508.0,497.0
495.0,560.0,500.0,497.0
496.0,564.0,493.0,499.0
508.0,530.0,495.0,507.0
519.0,505.0,497.0,514.0
523.0,488.0,496.0,517.0
525.0,459.0,487.0,523.0
513.0,482.0,481.0,522.0
512.0,491.0,488.0,525.0
501.0,518.0,496.0,524.0
504.0,508.0,504.0,520.0
512.0,513.0,517.0,518.0
528.0,484.0,532.0,512.0
531.0,456.0,541.0,508.0
524.0,465.0,542.0,509.0
505.0,523.0,527.0,505.0
496.0,525.0,520.0,501.0
488.0,561.0,509.0,497.0
490.0,547.0,499.0,496.0
506.0,517.0,491.0,503.0
531.0,479.0,498.0,510.0
533.0,492.0,503.0,518.0
525.0,483.0,505.0,523.0
513.0,511.0,497.0,529.0
495.0,532.0,494.0,522.0
493.0,555.0,495.0,520.0
501.0,539.0,500.0,516.0
519.0,479.0,508.0,507.0
533.0,471.0,513.0,504.0
537.0,477.0,524.0,506.0
531.0,479.0,528.0,508.0
523.0,492.0,522.0,510.0
499.0,525.0,513.0,520.0
494.0,524.0,508.0,517.0
497.0,509.0,510.0,513.0
498.0,491.0,510.0,513.0
511.0,494.0,506.0,511.0
520.0,490.0,514.0,517.0
522.0,507.0,518.0,518.0
523.0,511.0,508.0,523.0
503.0,536.0,492.0,523.0
498.0,523.0,491.0,520.0
503.0,522.0,495.0,517.0
513.0,503.0,499.0,511.0
526.0,479.0,507.0,504.0
531.0,452.0,523.0,500.0
523.0,450.0,526.0,499.0
518.0,439.0,528.0,498.0
504.0,479.0,519.0,500.0
488.0,552.0,508.0,500.0
491.0,561.0,508.0,498.0
494.0,574.0,505.0,502.0
504.0,598.0,498.0,507.0
520.0,479.0,497.0,512.0
531.0,451.0,499.0,510.0
525.0,490.0,498.0,515.0
518.0,504.0,490.0,518.0
501.0,546.0,489.0,525.0
508.0,542.0,490.0,524.0
506.0,524.0,496.0,520.0
525.0,449.0,505.0,521.0
531.0,465.0,523.0,518.0
538.0,480.0,537.0,518.0
533.0,470.0,545.0,516.0
526.0,479.0,544.0,518.0
500.0,516.0,530.0,510.0
498.0,527.0,520.0,510.0
497.0,543.0,513.0,512.0
490.0,538.0,501.0,509.0
499.0,512.0,496.0,509.0
521.0,484.0,497.0,510.0
525.0,481.0,497.0,506.0
527.0,486.0,491.0,510.0
518.0,508.0,487.0,512.0
497.0,548.0,491.0,518.0
499.0,534.0,501.0,528.0
515.0,491.0,507.0,526.0
523.0,476.0,510.0,525.0
534.0,490.0,517.0,518.0
532.0,459.0,519.0,516.0
519.0,482.0,520.0,507.0
512.0,509.0,518.0,502.0
486.0,529.0,516.0,509.0
485.0,526.0,516.0,515.0
489.0,509.0,524.0,519.0
498.0,489.0,521.0,521.0
512.0,500.0,514.0,513.0
523.0,493.0,504.0,519.0
524.0,507.0,512.0,521.0
521.0,526.0,507.0,518.0
500.0,556.0,490.0,515.0
499.0,515.0,485.0,511.0
506.0,506.0,499.0,514.0
509.0,515.0,504.0,518.0
516.0,497.0,515.0,518.0
542.0,443.0,525.0,508.0
532.0,446.0,530.0,502.0
528.0,431.0,527.0,494.0
515.0,489.0,518.0,497.0
496.0,534.0,509.0,500.0
500.0,551.0,516.0,508.0
499.0,560.0,511.0,507.0
494.0,530.0,511.0,512.0
510.0,500.0,494.0,513.0
523.0,459.0,497.0,519.0
526.0,462.0,495.0,517.0
516.0,497.0,491.0,515.0
504.0,512.0,488.0,513.0
502.0,503.0,490.0,506.0
504.0,520.0,494.0,505.0
502.0,510.0,500.0,508.0
514.0,517.0,512.0,510.0
532.0,510.0,531.0,507.0
537.0,478.0,538.0,510.0
531.0,467.0,530.0,512.0
510.0,508.0,520.0,507.0
494.0,551.0,514.0,507.0
487.0,564.0,512.0,511.0
495.0,547.0,508.0,506.0
502.0,536.0,502.0,514.0
522.0,479.0,501.0,515.0
526.0,472.0,498.0,515.0
522.0,474.0,497.0,518.0
513.0,501.0,492.0,519.0
504.0,524.0,491.0,520.0
506.0,507.0,503.0,520.0
497.0,520.0,504.0,518.0
505.0,517.0,511.0,520.0
523.0,472.0,522.0,517.0
533.0,442.0,531.0,514.0
530.0,455.0,533.0,507.0
525.0,479.0,528.0,508.0
506.0,533.0,511.0,503.0
494.0,532.0,506.0,503.0
490.0,511.0,510.0,506.0
496.0,506.0,508.0,513.0
509.0,501.0,507.0,516.0
530.0,490.0,512.0,523.0
525.0,506.0,498.0,520.0
519.0,491.0,494.0,524.0
499.0,532.0,496.0,529.0
494.0,548.0,502.0,530.0
498.0,556.0,512.0,530.0
506.0,551.0,522.0,529.0
515.0,524.0,520.0,525.0
523.0,478.0,540.0,508.0
515.0,487.0,532.0,508.0
497.0,504.0,522.0,509.0
504.0,516.0,520.0,509.0
493.0,527.0,522.0,512.0
494.0,522.0,502.0,511.0
513.0,497.0,498.0,510.0
520.0,498.0,501.0,509.0
515.0,511.0,501.0,514.0
513.0,521.0,496.0,522.0
500.0,554.0,495.0,522.0
509.0,473.0,497.0,517.0
511.0,487.0,501.0,513.0
504.0,509.0,510.0,514.0
521.0,484.0,519.0,519.0
529.0,471.0,528.0,512.0
525.0,472.0,534.0,513.0
523.0,474.0,538.0,508.0
507.0,502.0,522.0,500.0
496.0,513.0,518.0,501.0
505.0,514.0,517.0,504.0
504.0,514.0,518.0,507.0
499.0,520.0,499.0,507.0
511.0,507.0,496.0,507.0
516.0,497.0,513.0,515.0
519.0,489.0,508.0,523.0
512.0,516.0,493.0,528.0
502.0,536.0,494.0,522.0
505.0,528.0,496.0,518.0
501.0,516.0,501.0,514.0
509.0,502.0,512.0,509.0
522.0,478.0,528.0,508.0
531.0,470.0,531.0,501.0
526.0,485.0,528.0,501.0
518.0,505.0,528.0,503.0
502.0,537.0,517.0,506.0
497.0,522.0,511.0,503.0
499.0,519.0,512.0,504.0
497.0,528.0,505.0,507.0
504.0,511.0,503.0,504.0
523.0,479.0,506.0,502.0
520.0,480.0,500.0,515.0
517.0,494.0,496.0,524.0
497.0,524.0,486.0,525.0
495.0,524.0,489.0,519.0
507.0,512.0,501.0,515.0
514.0,504.0,502.0,509.0
517.0,510.0,516.0,517.0
534.0,473.0,528.0,510.0
532.0,470.0,536.0,505.0
527.0,479.0,539.0,506.0
515.0,481.0,528.0,505.0
499.0,520.0,518.0,508.0
503.0,521.0,516.0,505.0
494.0,522.0,513.0,508.0
501.0,504.0,501.0,501.0
520.0,481.0,502.0,507.0
524.0,484.0,505.0,512.0
519.0,497.0,502.0,522.0
520.0,504.0,495.0,523.0
499.0,536.0,486.0,521.0
509.0,520.0,499.0,524.0
509.0,513.0,504.0,525.0
514.0,507.0,510.0,522.0
521.0,483.0,524.0,518.0
536.0,456.0,536.0,514.0
531.0,472.0,539.0,511.0
521.0,491.0,538.0,507.0
506.0,514.0,525.0,505.0
506.0,519.0,524.0,505.0
499.0,530.0,518.0,507.0
497.0,531.0,508.0,507.0
497.0,524.0,501.0,508.0
520.0,488.0,503.0,510.0
520.0,490.0,498.0,513.0
521.0,497.0,500.0,515.0
510.0,517.0,490.0,522.0
498.0,541.0,486.0,518.0
507.0,533.0,494.0,515.0
508.0,521.0,502.0,518.0
516.0,502.0,513.0,513.0
529.0,474.0,526.0,511.0
533.0,447.0,535.0,506.0
527.0,456.0,537.0,504.0
519.0,485.0,529.0,506.0
494.0,520.0,521.0,513.0
499.0,514.0,521.0,508.0
494.0,521.0,508.0,506.0
492.0,533.0,507.0,508.0
505.0,502.0,506.0,510.0
517.0,487.0,505.0,516.0
521.0,490.0,500.0,516.0
520.0,487.0,497.0,521.0
504.0,514.0,492.0,523.0
502.0,535.0,493.0,521.0
502.0,522.0,501.0,523.0
504.0,516.0,506.0,520.0
505.0,517.0,516.0,517.0
527.0,486.0,532.0,511.0
526.0,477.0,539.0,504.0
526.0,475.0,538.0,506.0
511.0,501.0,527.0,505.0
495.0,512.0,519.0,504.0
504.0,505.0,517.0,505.0
498.0,519.0,513.0,506.0
495.0,524.0,509.0,514.0
510.0,515.0,506.0,517.0
518.0,507.0,500.0,521.0
518.0,515.0,496.0,521.0
517.0,503.0,493.0,519.0
506.0,505.0,491.0,518.0
517.0,500.0,497.0,517.0
512.0,516.0,503.0,512.0
514.0,516.0,507.0,512.0
520.0,496.0,519.0,513.0
528.0,478.0,531.0,509.0
527.0,483.0,533.0,501.0
523.0,487.0,529.0,503.0
503.0,532.0,526.0,506.0
493.0,544.0,520.0,503.0
494.0,547.0,516.0,507.0
497.0,548.0,515.0,510.0
504.0,505.0,513.0,508.0
519.0,475.0,508.0,518.0
523.0,480.0,504.0,519.0
520.0,494.0,499.0,521.0
507.0,512.0,493.0,520.0
501.0,548.0,485.0,515.0
503.0,535.0,494.0,510.0
503.0,502.0,499.0,507.0
512.0,497.0,510.0,510.0
528.0,476.0,520.0,507.0
531.0,469.0,534.0,504.0
529.0,468.0,534.0,504.0
520.0,485.0,532.0,504.0
501.0,510.0,533.0,505.0
505.0,500.0,520.0,503.0
498.0,507.0,516.0,506.0
495.0,502.0,511.0,507.0
503.0,501.0,504.0,512.0
518.0,502.0,504.0,518.0
521.0,506.0,501.0,523.0
515.0,509.0,496.0,522.0
501.0,532.0,487.0,520.0
504.0,534.0,491.0,516.0
511.0,523.0,499.0,516.0
511.0,527.0,508.0,513.0
520.0,508.0,514.0,512.0
531.0,481.0,528.0,505.0
530.0,478.0,535.0,508.0
527.0,478.0,536.0,508.0
513.0,501.0,528.0,505.0
498.0,501.0,521.0,508.0
501.0,502.0,513.0,506.0
489.0,513.0,512.0,505.0
496.0,523.0,507.0,507.0
512.0,510.0,506.0,508.0
520.0,496.0,505.0,514.0
525.0,491.0,499.0,518.0
518.0,512.0,491.0,520.0
505.0,531.0,491.0,521.0
514.0,520.0,496.0,520.0
509.0,522.0,502.0,519.0
507.0,518.0,511.0,519.0
518.0,494.0,525.0,515.0
533.0,468.0,534.0,511.0
531.0,474.0,536.0,502.0
521.0,483.0,531.0,503.0
502.0,516.0,521.0,500.0
494.0,524.0,515.0,500.0
496.0,526.0,515.0,500.0
500.0,514.0,511.0,505.0
509.0,509.0,503.0,503.0
523.0,479.0,503.0,511.0
525.0,476.0,500.0,514.0
522.0,489.0,498.0,521.0
513.0,512.0,493.0,522.0
500.0,531.0,494.0,522.0
505.0,517.0,498.0,520.0
498.0,522.0,504.0,520.0
521.0,504.0,514.0,518.0
530.0,488.0,527.0,514.0
530.0,479.0,535.0,510.0
530.0,479.0,538.0,503.0
515.0,485.0,538.0,509.0
497.0,514.0,528.0,506.0
504.0,531.0,519.0,504.0
498.0,526.0,511.0,502.0
499.0,535.0,512.0,510.0
504.0,543.0,506.0,512.0
521.0,514.0,502.0,516.0
516.0,515.0,502.0,516.0
525.0,435.0,500.0,521.0
509.0,480.0,489.0,517.0
503.0,513.0,485.0,517.0
504.0,511.0,501.0,517.0
505.0,512.0,509.0,507.0
513.0,503.0,513.0,509.0
529.0,472.0,536.0,517.0
528.0,463.0,541.0,511.0
528.0,472.0,543.0,514.0
511.0,504.0,533.0,513.0
497.0,530.0,522.0,513.0
495.0,535.0,514.0,505.0
489.0,510.0,511.0,504.0
492.0,502.0,499.0,509.0
517.0,482.0,496.0,517.0
525.0,485.0,500.0,521.0
524.0,492.0,501.0,522.0
521.0,503.0,495.0,524.0
498.0,535.0,487.0,521.0
506.0,521.0,496.0,523.0
504.0,521.0,510.0,519.0
510.0,507.0,513.0,514.0
528.0,483.0,521.0,509.0
536.0,466.0,535.0,505.0
526.0,482.0,532.0,504.0
521.0,498.0,534.0,505.0
505.0,529.0,523.0,502.0
497.0,529.0,516.0,501.0
493.0,528.0,512.0,502.0
496.0,506.0,509.0,508.0
505.0,496.0,503.0,511.0
523.0,482.0,506.0,510.0
521.0,499.0,506.0,517.0
519.0,491.0,496.0,518.0
511.0,518.0,489.0,518.0
497.0,537.0,499.0,520.0
505.0,519.0,499.0,515.0
497.0,517.0,500.0,516.0
506.0,508.0,510.0,511.0
522.0,479.0,525.0,506.0
529.0,462.0,536.0,507.0
527.0,465.0,536.0,504.0
520.0,475.0,531.0,506.0
502.0,509.0,524.0,505.0
499.0,543.0,519.0,505.0
494.0,561.0,515.0,504.0
498.0,535.0,508.0,508.0
507.0,514.0,502.0,510.0
521.0,481.0,505.0,514.0
519.0,474.0,507.0,518.0
521.0,479.0,499.0,521.0
509.0,505.0,494.0,519.0
500.0,534.0,493.0,518.0
510.0,508.0,502.0,517.0
507.0,504.0,510.0,515.0
514.0,503.0,519.0,516.0
530.0,476.0,532.0,517.0
533.0,464.0,540.0,515.0
528.0,482.0,540.0,512.0
510.0,511.0,531.0,511.0
498.0,522.0,521.0,505.0
502.0,519.0,516.0,505.0
499.0,523.0,506.0,503.0
505.0,521.0,504.0,504.0
519.0,500.0,504.0,510.0
526.0,484.0,509.0,512.0
524.0,490.0,504.0,513.0
518.0,505.0,495.0,515.0
499.0,533.0,488.0,518.0
510.0,505.0,499.0,520.0
507.0,512.0,504.0,517.0
505.0,524.0,510.0,517.0
515.0,494.0,523.0,514.0
530.0,468.0,536.0,510.0
526.0,481.0,540.0,510.0
521.0,487.0,537.0,509.0
498.0,521.0,526.0,513.0
488.0,529.0,520.0,505.0
496.0,527.0,515.0,504.0
490.0,546.0,511.0,504.0
500.0,543.0,502.0,508.0
519.0,508.0,507.0,514.0
523.0,478.0,502.0,517.0
523.0,459.0,496.0,521.0
520.0,501.0,491.0,524.0
499.0,536.0,495.0,522.0
505.0,527.0,501.0,521.0
502.0,513.0,501.0,519.0
511.0,497.0,511.0,514.0
526.0,474.0,524.0,514.0
531.0,469.0,536.0,506.0
524.0,471.0,538.0,507.0
518.0,487.0,532.0,502.0
496.0,527.0,522.0,506.0
494.0,521.0,520.0,505.0
497.0,507.0,515.0,504.0
498.0,501.0,508.0,506.0
508.0,496.0,507.0,513.0
521.0,486.0,509.0,514.0
513.0,497.0,507.0,522.0
513.0,493.0,499.0,517.0
496.0,514.0,489.0,520.0
497.0,508.0,485.0,518.0
501.0,515.0,497.0,518.0
509.0,515.0,505.0,520.0
513.0,514.0,522.0,518.0
532.0,477.0,536.0,520.0
534.0,472.0,541.0,513.0
525.0,474.0,536.0,511.0
510.0,506.0,529.0,510.0
498.0,522.0,523.0,505.0
498.0,514.0,517.0,507.0
502.0,524.0,514.0,505.0
500.0,523.0,509.0,511.0
512.0,503.0,507.0,514.0
520.0,497.0,500.0,511.0
521.0,506.0,496.0,515.0
513.0,532.0,490.0,515.0
501.0,547.0,482.0,514.0
508.0,462.0,491.0,513.0
510.0,481.0,495.0,511.0
512.0,485.0,503.0,511.0
515.0,482.0,523.0,509.0
525.0,481.0,537.0,507.0
527.0,488.0,539.0,506.0
522.0,495.0,533.0,500.0
499.0,530.0,521.0,500.0
495.0,538.0,514.0,502.0
493.0,543.0,512.0,501.0
492.0,526.0,506.0,507.0
500.0,519.0,503.0,509.0
515.0,484.0,504.0,513.0
517.0,479.0,504.0,515.0
519.0,478.0,501.0,517.0
506.0,515.0,491.0,521.0
504.0,530.0,490.0,519.0
509.0,522.0,496.0,521.0
512.0,506.0,508.0,520.0
517.0,493.0,512.0,518.0
528.0,464.0,526.0,517.0
533.0,468.0,538.0,513.0
530.0,491.0,540.0,508.0
517.0,518.0,531.0,503.0
490.0,555.0,521.0,505.0
497.0,525.0,523.0,505.0
503.0,506.0,513.0,501.0
505.0,519.0,508.0,506.0
513.0,473.0,503.0,505.0
522.0,480.0,501.0,510.0
520.0,500.0,505.0,513.0
522.0,499.0,498.0,516.0
504.0,512.0,492.0,525.0
501.0,512.0,495.0,522.0
505.0,511.0,501.0,515.0
503.0,509.0,508.0,517.0
512.0,511.0,520.0,515.0
526.0,481.0,530.0,511.0
526.0,463.0,534.0,511.0
529.0,475.0,536.0,508.0
514.0,501.0,529.0,506.0
494.0,525.0,522.0,500.0
502.0,510.0,515.0,498.0
493.0,515.0,505.0,504.0
499.0,513.0,506.0,514.0
516.0,485.0,506.0,513.0
530.0,471.0,501.0,515.0
530.0,489.0,497.0,522.0
512.0,508.0,504.0,521.0
496.0,531.0,497.0,520.0
500.0,523.0,503.0,526.0
502.0,516.0,509.0,523.0
510.0,497.0,506.0,513.0
525.0,506.0,515.0,508.0
536.0,490.0,529.0,507.0
527.0,491.0,539.0,503.0
522.0,495.0,531.0,511.0
502.0,519.0,523.0,506.0
495.0,530.0,520.0,505.0
506.0,499.0,517.0,508.0
500.0,514.0,514.0,506.0
505.0,511.0,506.0,507.0
523.0,474.0,506.0,512.0
522.0,475.0,510.0,516.0
523.0,482.0,500.0,522.0
508.0,506.0,492.0,522.0
494.0,546.0,493.0,522.0
507.0,537.0,498.0,519.0
509.0,518.0,506.0,518.0
514.0,513.0,516.0,514.0
529.0,485.0,530.0,511.0
533.0,474.0,533.0,510.0
521.0,498.0,536.0,503.0
513.0,494.0,532.0,504.0
486.0,533.0,523.0,506.0
495.0,557.0,521.0,507.0
490.0,564.0,510.0,507.0
493.0,567.0,507.0,509.0
503.0,530.0,503.0,518.0
525.0,470.0,506.0,515.0
520.0,499.0,501.0,519.0
523.0,469.0,497.0,522.0
503.0,523.0,492.0,522.0
499.0,530.0,495.0,519.0
505.0,516.0,501.0,515.0
514.0,493.0,509.0,512.0
521.0,488.0,516.0,509.0
526.0,463.0,531.0,506.0
530.0,464.0,534.0,505.0
525.0,474.0,533.0,508.0
509.0,507.0,525.0,509.0
493.0,525.0,523.0,505.0
507.0,506.0,518.0,503.0
500.0,511.0,513.0,505.0
502.0,514.0,504.0,508.0
511.0,502.0,502.0,515.0
521.0,475.0,500.0,516.0
518.0,474.0,498.0,518.0
506.0,498.0,496.0,521.0
498.0,522.0,491.0,519.0
497.0,516.0,494.0,518.0
504.0,520.0,500.0,515.0
512.0,515.0,508.0,514.0
531.0,499.0,522.0,513.0
536.0,475.0,534.0,513.0
531.0,480.0,539.0,512.0
525.0,492.0,537.0,511.0
506.0,522.0,526.0,508.0
498.0,533.0,518.0,506.0
493.0,520.0,509.0,504.0
492.0,500.0,509.0,506.0
504.0,495.0,503.0,511.0
524.0,485.0,506.0,512.0
520.0,487.0,501.0,517.0
520.0,485.0,496.0,520.0
511.0,513.0,492.0,520.0
509.0,513.0,493.0,522.0
508.0,515.0,497.0,518.0
501.0,527.0,503.0,518.0
502.0,516.0,514.0,518.0
520.0,480.0,527.0,514.0
525.0,467.0,537.0,509.0
521.0,472.0,540.0,509.0
517.0,490.0,532.0,504.0
499.0,522.0,524.0,506.0
499.0,522.0,519.0,507.0
503.0,510.0,514.0,505.0
497.0,531.0,506.0,503.0
508.0,518.0,503.0,509.0
526.0,480.0,504.0,514.0
522.0,489.0,494.0,516.0
520.0,493.0,496.0,518.0
504.0,513.0,491.0,522.0
498.0,540.0,488.0,521.0
507.0,521.0,500.0,515.0
498.0,522.0,505.0,514.0
508.0,509.0,517.0,514.0
531.0,472.0,526.0,508.0
528.0,466.0,539.0,504.0
520.0,476.0,539.0,504.0
509.0,493.0,528.0,508.0
496.0,548.0,515.0,509.0
499.0,525.0,515.0,506.0
496.0,506.0,513.0,509.0
500.0,521.0,506.0,512.0
513.0,489.0,504.0,516.0
518.0,480.0,509.0,520.0
514.0,484.0,504.0,522.0
511.0,509.0,494.0,520.0
501.0,542.0,489.0,521.0
504.0,539.0,495.0,515.0
509.0,512.0,500.0,514.0
509.0,508.0,510.0,513.0
523.0,484.0,522.0,513.0
532.0,457.0,535.0,518.0
529.0,466.0,537.0,507.0
526.0,495.0,533.0,503.0
499.0,530.0,520.0,500.0
499.0,534.0,522.0,510.0
503.0,518.0,516.0,508.0
500.0,518.0,511.0,504.0
509.0,515.0,501.0,507.0
528.0,478.0,502.0,505.0
520.0,495.0,502.0,512.0
514.0,496.0,495.0,518.0
504.0,516.0,492.0,520.0
492.0,537.0,492.0,524.0
500.0,521.0,500.0,520.0
507.0,508.0,514.0,519.0
515.0,511.0,522.0,515.0
524.0,485.0,528.0,512.0
525.0,473.0,535.0,508.0
521.0,483.0,528.0,502.0
511.0,501.0,522.0,504.0
496.0,526.0,524.0,501.0
499.0,522.0,512.0,502.0
502.0,502.0,511.0,505.0
499.0,510.0,509.0,512.0
508.0,536.0,513.0,513.0
514.0,517.0,507.0,515.0
506.0,518.0,501.0,519.0
512.0,495.0,494.0,521.0
501.0,490.0,490.0,525.0
507.0,486.0,498.0,526.0
509.0,500.0,507.0,525.0
507.0,513.0,509.0,520.0
518.0,501.0,523.0,512.0
529.0,468.0,535.0,508.0
529.0,473.0,534.0,501.0
524.0,480.0,535.0,504.0
511.0,510.0,525.0,500.0
500.0,526.0,517.0,503.0
502.0,513.0,519.0,500.0
501.0,520.0,511.0,505.0
496.0,529.0,500.0,508.0
516.0,492.0,502.0,511.0
519.0,485.0,501.0,513.0
521.0,488.0,494.0,515.0
516.0,502.0,495.0,516.0
503.0,525.0,492.0,518.0
500.0,520.0,494.0,519.0
502.0,523.0,496.0,517.0
509.0,514.0,511.0,515.0
538.0,481.0,523.0,512.0
550.0,467.0,535.0,510.0
546.0,470.0,538.0,505.0
539.0,482.0,534.0,504.0
526.0,520.0,526.0,506.0
510.0,522.0,520.0,504.0
493.0,524.0,516.0,504.0
481.0,515.0,510.0,507.0
483.0,503.0,504.0,507.0
505.0,480.0,505.0,511.0
509.0,479.0,503.0,515.0
511.0,484.0,499.0,522.0
499.0,515.0,495.0,521.0
489.0,528.0,492.0,522.0
502.0,521.0,501.0,521.0
504.0,524.0,502.0,516.0
507.0,527.0,515.0,512.0
524.0,494.0,531.0,510.0
528.0,490.0,536.0,504.0
530.0,474.0,541.0,507.0
521.0,477.0,531.0,503.0
494.0,521.0,523.0,507.0
503.0,510.0,521.0,504.0
505.0,507.0,513.0,506.0
504.0,504.0,506.0,508.0
515.0,508.0,503.0,510.0
526.0,499.0,504.0,514.0
520.0,487.0,501.0,514.0
516.0,491.0,494.0,516.0
494.0,520.0,491.0,521.0
499.0,514.0,492.0,519.0
506.0,518.0,504.0,519.0
505.0,518.0,509.0,519.0
505.0,512.0,517.0,515.0
526.0,481.0,533.0,511.0
527.0,481.0,536.0,510.0
525.0,484.0,538.0,506.0
511.0,509.0,529.0,510.0
500.0,525.0,523.0,505.0
505.0,521.0,517.0,506.0
501.0,534.0,514.0,509.0
506.0,531.0,505.0,512.0
533.0,489.0,503.0,514.0
541.0,483.0,505.0,516.0
533.0,485.0,502.0,518.0
518.0,502.0,494.0,518.0
499.0,531.0,490.0,519.0
495.0,515.0,496.0,520.0
485.0,512.0,502.0,512.0
488.0,508.0,506.0,515.0
507.0,478.0,519.0,513.0
520.0,455.0,532.0,511.0
518.0,465.0,539.0,505.0
515.0,476.0,538.0,509.0
491.0,519.0,524.0,506.0
480.0,545.0,517.0,504.0
486.0,536.0,512.0,507.0
492.0,528.0,512.0,510.0
496.0,526.0,507.0,515.0
512.0,488.0,504.0,517.0
514.0,487.0,502.0,520.0
517.0,489.0,502.0,522.0
502.0,516.0,494.0,521.0
494.0,529.0,493.0,521.0
504.0,513.0,501.0,519.0
499.0,525.0,504.0,516.0
509.0,510.0,513.0,511.0
529.0,484.0,528.0,512.0
528.0,471.0,535.0,509.0
523.0,482.0,539.0,506.0
511.0,499.0,533.0,508.0
496.0,524.0,523.0,508.0
497.0,528.0,515.0,501.0
497.0,525.0,515.0,503.0
493.0,528.0,507.0,513.0
509.0,498.0,503.0,517.0
520.0,484.0,501.0,514.0
519.0,491.0,499.0,517.0
516.0,495.0,494.0,520.0
499.0,531.0,489.0,521.0
498.0,528.0,496.0,517.0
507.0,503.0,503.0,517.0
510.0,499.0,510.0,518.0
517.0,496.0,518.0,515.0
533.0,471.0,534.0,511.0
528.0,471.0,539.0,509.0
526.0,477.0,539.0,507.0
509.0,507.0,531.0,510.0
499.0,527.0,528.0,509.0
505.0,514.0,521.0,512.0
500.0,522.0,515.0,511.0
506.0,509.0,510.0,508.0
517.0,486.0,511.0,514.0
521.0,477.0,510.0,516.0
523.0,484.0,497.0,511.0
513.0,507.0,492.0,518.0
499.0,532.0,491.0,521.0
501.0,521.0,491.0,518.0
499.0,523.0,499.0,516.0
513.0,505.0,510.0,513.0
521.0,488.0,524.0,510.0
533.0,470.0,536.0,508.0
528.0,479.0,541.0,506.0
520.0,485.0,536.0,503.0
495.0,528.0,523.0,505.0
500.0,513.0,522.0,505.0
506.0,504.0,519.0,505.0
504.0,509.0,515.0,507.0
501.0,512.0,506.0,509.0
520.0,488.0,506.0,514.0
523.0,485.0,501.0,522.0
524.0,486.0,499.0,518.0
511.0,521.0,495.0,523.0
506.0,524.0,496.0,524.0
512.0,515.0,504.0,522.0
518.0,506.0,509.0,522.0
516.0,508.0,512.0,519.0
536.0,482.0,528.0,517.0
532.0,482.0,539.0,518.0
528.0,492.0,539.0,513.0
515.0,497.0,534.0,507.0
483.0,529.0,527.0,506.0
486.0,530.0,522.0,505.0
501.0,517.0,522.0,513.0
505.0,524.0,513.0,508.0
519.0,503.0,504.0,505.0
534.0,485.0,500.0,508.0
531.0,494.0,497.0,508.0
530.0,494.0,493.0,515.0
511.0,529.0,485.0,514.0
498.0,531.0,492.0,516.0
499.0,521.0,499.0,511.0
511.0,514.0,504.0,510.0
524.0,502.0,512.0,509.0
525.0,474.0,528.0,507.0
537.0,467.0,543.0,504.0
535.0,474.0,534.0,508.0
511.0,508.0,527.0,505.0
488.0,532.0,522.0,506.0
494.0,516.0,518.0,504.0
492.0,506.0,518.0,509.0
486.0,517.0,508.0,508.0
508.0,493.0,504.0,512.0
514.0,493.0,504.0,516.0
514.0,499.0,494.0,517.0
508.0,508.0,495.0,521.0
495.0,531.0,493.0,522.0
498.0,523.0,498.0,521.0
504.0,512.0,505.0,519.0
507.0,512.0,504.0,514.0
521.0,487.0,522.0,510.0
549.0,466.0,535.0,509.0
552.0,473.0,537.0,512.0
545.0,487.0,536.0,506.0
522.0,523.0,524.0,510.0
519.0,525.0,521.0,509.0
543.0,514.0,517.0,515.0
559.0,516.0,511.0,508.0
535.0,507.0,505.0,511.0
535.0,485.0,505.0,514.0
548.0,486.0,505.0,517.0
549.0,487.0,499.0,521.0
525.0,511.0,493.0,523.0
477.0,533.0,494.0,519.0
464.0,520.0,501.0,519.0
479.0,511.0,508.0,517.0
488.0,508.0,514.0,513.0
508.0,481.0,531.0,513.0
508.0,475.0,540.0,509.0
501.0,478.0,540.0,509.0
489.0,499.0,533.0,509.0
468.0,529.0,524.0,506.0
473.0,525.0,519.0,506.0
482.0,520.0,516.0,508.0
485.0,531.0,508.0,506.0
502.0,512.0,506.0,510.0
512.0,497.0,506.0,515.0
511.0,491.0,501.0,518.0
512.0,474.0,495.0,521.0
490.0,523.0,492.0,521.0
485.0,528.0,496.0,519.0
490.0,518.0,503.0,518.0
497.0,516.0,509.0,516.0
504.0,511.0,520.0,510.0
529.0,466.0,534.0,507.0
530.0,466.0,535.0,509.0
522.0,476.0,537.0,508.0
505.0,507.0,530.0,505.0
482.0,535.0,520.0,508.0
481.0,528.0,517.0,507.0
494.0,511.0,512.0,506.0
498.0,512.0,509.0,508.0
513.0,494.0,507.0,511.0
521.0,489.0,504.0,513.0
520.0,495.0,501.0,520.0
513.0,502.0,495.0,523.0
493.0,530.0,489.0,521.0
490.0,529.0,494.0,519.0
499.0,519.0,500.0,518.0
505.0,508.0,511.0,521.0
523.0,490.0,523.0,511.0
527.0,469.0,538.0,508.0
525.0,474.0,540.0,510.0
517.0,488.0,539.0,505.0
493.0,530.0,527.0,503.0
495.0,525.0,523.0,504.0
499.0,515.0,517.0,508.0
498.0,516.0,513.0,509.0
503.0,511.0,506.0,510.0
517.0,483.0,507.0,513.0
522.0,482.0,502.0,515.0
520.0,487.0,501.0,519.0
508.0,513.0,493.0,520.0
497.0,529.0,495.0,520.0
505.0,516.0,499.0,519.0
508.0,515.0,505.0,516.0
510.0,506.0,514.0,520.0
529.0,468.0,533.0,512.0
534.0,465.0,539.0,509.0
528.0,475.0,540.0,506.0
515.0,496.0,528.0,507.0
499.0,525.0,524.0,507.0
495.0,526.0,521.0,510.0
503.0,523.0,515.0,505.0
502.0,518.0,508.0,509.0
506.0,501.0,504.0,509.0
524.0,479.0,504.0,515.0
528.0,484.0,501.0,515.0
526.0,495.0,496.0,520.0
512.0,526.0,489.0,522.0
508.0,525.0,501.0,522.0
512.0,522.0,500.0,514.0
515.0,508.0,507.0,516.0
510.0,496.0,522.0,514.0
525.0,467.0,530.0,510.0
523.0,471.0,538.0,508.0
517.0,482.0,534.0,508.0
500.0,511.0,528.0,508.0
490.0,528.0,519.0,509.0
500.0,514.0,518.0,507.0
501.0,517.0,509.0,507.0
506.0,514.0,504.0,509.0
524.0,488.0,503.0,510.0
524.0,485.0,499.0,514.0
522.0,489.0,498.0,519.0
513.0,506.0,495.0,521.0
502.0,525.0,494.0,523.0
499.0,519.0,500.0,520.0
504.0,507.0,505.0,518.0
516.0,502.0,509.0,515.0
531.0,478.0,524.0,513.0
536.0,466.0,532.0,509.0
527.0,476.0,534.0,508.0
517.0,487.0,532.0,507.0
505.0,519.0,525.0,507.0
508.0,528.0,518.0,506.0
504.0,528.0,515.0,505.0
507.0,528.0,509.0,504.0
522.0,510.0,505.0,510.0
532.0,482.0,504.0,515.0
521.0,486.0,498.0,514.0
509.0,493.0,498.0,516.0
478.0,521.0,493.0,520.0
482.0,536.0,493.0,521.0
503.0,511.0,499.0,518.0
510.0,513.0,506.0,517.0
514.0,507.0,514.0,513.0
532.0,470.0,528.0,506.0
543.0,465.0,537.0,506.0
548.0,464.0,534.0,507.0
522.0,492.0,532.0,507.0
492.0,537.0,523.0,508.0
485.0,524.0,520.0,509.0
497.0,518.0,513.0,504.0
494.0,522.0,504.0,513.0
500.0,502.0,502.0,509.0
523.0,486.0,500.0,513.0
530.0,484.0,498.0,516.0
526.0,497.0,489.0,517.0
497.0,532.0,492.0,522.0
494.0,528.0,496.0,521.0
506.0,509.0,504.0,517.0
505.0,507.0,505.0,515.0
492.0,509.0,516.0,513.0
516.0,469.0,533.0,510.0
524.0,472.0,540.0,507.0
514.0,484.0,537.0,505.0
498.0,511.0,530.0,507.0
490.0,525.0,526.0,507.0
493.0,523.0,518.0,506.0
496.0,514.0,516.0,506.0
496.0,516.0,507.0,511.0
515.0,488.0,504.0,511.0
519.0,485.0,502.0,512.0
516.0,489.0,499.0,517.0
511.0,505.0,494.0,520.0
498.0,531.0,492.0,521.0
507.0,521.0,500.0,520.0
505.0,516.0,505.0,517.0
507.0,517.0,507.0,515.0
529.0,491.0,523.0,509.0
537.0,475.0,535.0,510.0
532.0,475.0,536.0,507.0
524.0,486.0,538.0,507.0
503.0,521.0,524.0,507.0
504.0,525.0,520.0,505.0
506.0,516.0,517.0,506.0
489.0,520.0,509.0,508.0
506.0,515.0,503.0,511.0
519.0,485.0,504.0,511.0
519.0,490.0,498.0,515.0
519.0,500.0,495.0,517.0
508.0,515.0,492.0,521.0
492.0,524.0,496.0,522.0
496.0,525.0,504.0,520.0
502.0,510.0,504.0,516.0
509.0,506.0,511.0,514.0
528.0,474.0,530.0,510.0
531.0,476.0,533.0,507.0
530.0,477.0,538.0,507.0
515.0,498.0,531.0,504.0
495.0,526.0,522.0,505.0
491.0,525.0,517.0,508.0
494.0,525.0,515.0,506.0
496.0,522.0,514.0,510.0
513.0,490.0,506.0,510.0
519.0,482.0,502.0,516.0
520.0,480.0,497.0,519.0
518.0,496.0,493.0,520.0
501.0,522.0,494.0,524.0
496.0,533.0,498.0,519.0
503.0,526.0,502.0,514.0
512.0,518.0,512.0,513.0
516.0,502.0,522.0,511.0
532.0,474.0,533.0,507.0
532.0,468.0,537.0,505.0
526.0,477.0,536.0,506.0
507.0,510.0,531.0,510.0
502.0,530.0,520.0,506.0
502.0,522.0,517.0,497.0
500.0,518.0,519.0,505.0
502.0,512.0,510.0,506.0
516.0,491.0,514.0,513.0
523.0,484.0,504.0,516.0
523.0,488.0,500.0,516.0
514.0,504.0,496.0,521.0
501.0,525.0,496.0,523.0
505.0,516.0,502.0,520.0
508.0,515.0,503.0,517.0
515.0,506.0,517.0,518.0
532.0,476.0,524.0,511.0
538.0,468.0,530.0,501.0
530.0,474.0,539.0,508.0
528.0,493.0,540.0,507.0
497.0,531.0,528.0,511.0
493.0,535.0,521.0,502.0
498.0,534.0,517.0,504.0
507.0,516.0,510.0,506.0
511.0,511.0,505.0,510.0
530.0,480.0,503.0,511.0
530.0,482.0,502.0,515.0
522.0,485.0,500.0,518.0
507.0,513.0,497.0,520.0
500.0,526.0,498.0,519.0
509.0,519.0,501.0,521.0
516.0,518.0,509.0,517.0
503.0,511.0,517.0,513.0
516.0,479.0,527.0,510.0
526.0,475.0,537.0,509.0
522.0,483.0,540.0,504.0
511.0,500.0,529.0,507.0
493.0,527.0,526.0,509.0
497.0,521.0,521.0,507.0
501.0,516.0,518.0,508.0
500.0,518.0,510.0,511.0
511.0,492.0,507.0,511.0
522.0,482.0,506.0,515.0
521.0,491.0,500.0,513.0
512.0,503.0,498.0,521.0
496.0,539.0,494.0,525.0
499.0,539.0,497.0,522.0
499.0,539.0,500.0,517.0
499.0,533.0,510.0,519.0
511.0,520.0,521.0,526.0
532.0,486.0,530.0,512.0
533.0,456.0,534.0,509.0
530.0,466.0,535.0,509.0
518.0,503.0,531.0,504.0
501.0,526.0,522.0,505.0
495.0,525.0,516.0,503.0
497.0,511.0,512.0,505.0
496.0,513.0,506.0,513.0
520.0,484.0,505.0,514.0
525.0,483.0,502.0,515.0
527.0,487.0,497.0,515.0
519.0,509.0,492.0,520.0
508.0,526.0,497.0,521.0
508.0,524.0,500.0,522.0
517.0,519.0,509.0,519.0
517.0,509.0,506.0,512.0
530.0,487.0,522.0,504.0
546.0,469.0,534.0,507.0
546.0,477.0,534.0,505.0
531.0,494.0,528.0,508.0
507.0,529.0,524.0,505.0
503.0,530.0,517.0,503.0
506.0,529.0,515.0,508.0
508.0,523.0,509.0,511.0
519.0,506.0,507.0,509.0
543.0,477.0,506.0,508.0
541.0,486.0,496.0,512.0
532.0,488.0,491.0,520.0
494.0,521.0,490.0,517.0
471.0,535.0,498.0,521.0
484.0,527.0,503.0,515.0
482.0,510.0,507.0,517.0
496.0,508.0,517.0,514.0
523.0,474.0,528.0,510.0
507.0,489.0,534.0,506.0
505.0,492.0,535.0,506.0
503.0,502.0,535.0,506.0
484.0,528.0,527.0,516.0
481.0,532.0,516.0,505.0
489.0,521.0,512.0,496.0
496.0,511.0,511.0,515.0
507.0,501.0,502.0,510.0
510.0,487.0,502.0,513.0
515.0,490.0,499.0,516.0
515.0,504.0,495.0,518.0
500.0,535.0,491.0,523.0
493.0,537.0,497.0,522.0
502.0,530.0,499.0,514.0
509.0,516.0,509.0,513.0
519.0,503.0,522.0,520.0
531.0,473.0,530.0,519.0
539.0,475.0,536.0,509.0
541.0,484.0,534.0,506.0
518.0,508.0,527.0,501.0
504.0,526.0,526.0,505.0
494.0,519.0,522.0,507.0
496.0,517.0,516.0,505.0
482.0,527.0,505.0,520.0
497.0,497.0,501.0,513.0
512.0,487.0,498.0,507.0
514.0,490.0,498.0,519.0
509.0,516.0,494.0,516.0
491.0,540.0,493.0,518.0
498.0,527.0,501.0,518.0
509.0,509.0,501.0,508.0
510.0,507.0,510.0,495.0
519.0,495.0,527.0,514.0
530.0,477.0,532.0,505.0
525.0,483.0,527.0,500.0
518.0,490.0,535.0,512.0
502.0,519.0,531.0,513.0
504.0,520.0,520.0,507.0
502.0,527.0,519.0,512.0
494.0,536.0,506.0,512.0
503.0,525.0,494.0,510.0
528.0,484.0,508.0,521.0
526.0,488.0,508.0,521.0
520.0,489.0,495.0,517.0
497.0,524.0,484.0,511.0
487.0,543.0,490.0,521.0
500.0,521.0,506.0,519.0
505.0,515.0,508.0,518.0
513.0,511.0,518.0,521.0
528.0,476.0,529.0,511.0
526.0,468.0,536.0,498.0
524.0,472.0,541.0,511.0
517.0,490.0,532.0,509.0
498.0,528.0,519.0,510.0
493.0,550.0,512.0,502.0
499.0,559.0,515.0,509.0
505.0,554.0,513.0,517.0
514.0,539.0,501.0,495.0
525.0,520.0,499.0,505.0
528.0,513.0,499.0,520.0
528.0,458.0,495.0,517.0
510.0,486.0,491.0,521.0
513.0,493.0,490.0,528.0
519.0,497.0,502.0,518.0
525.0,487.0,512.0,514.0
520.0,494.0,517.0,506.0
534.0,467.0,524.0,497.0
534.0,477.0,529.0,510.0
534.0,485.0,535.0,510.0
523.0,517.0,538.0,511.0
503.0,534.0,523.0,498.0
512.0,521.0,514.0,502.0
516.0,506.0,511.0,510.0
515.0,511.0,505.0,512.0
528.0,489.0,519.0,527.0
510.0,499.0,500.0,530.0
507.0,497.0,493.0,513.0
505.0,512.0,480.0,477.0
500.0,531.0,490.0,513.0
506.0,521.0,505.0,562.0
493.0,518.0,500.0,532.0
489.0,515.0,513.0,512.0
513.0,490.0,527.0,521.0
526.0,477.0,535.0,505.0
526.0,481.0,532.0,514.0
520.0,488.0,535.0,516.0
495.0,527.0,524.0,519.0
500.0,529.0,531.0,510.0
510.0,522.0,511.0,482.0
525.0,512.0,501.0,484.0
537.0,501.0,511.0,527.0
556.0,479.0,511.0,531.0
569.0,492.0,494.0,505.0
569.0,495.0,501.0,512.0
550.0,515.0,496.0,516.0
506.0,532.0,481.0,514.0
517.0,516.0,493.0,547.0
531.0,509.0,519.0,529.0
504.0,515.0,512.0,491.0
503.0,481.0,534.0,501.0
516.0,479.0,536.0,505.0
525.0,489.0,543.0,515.0
517.0,514.0,529.0,510.0
499.0,539.0,525.0,503.0
506.0,531.0,521.0,499.0
497.0,527.0,514.0,518.0
474.0,531.0,508.0,517.0
497.0,508.0,504.0,517.0
514.0,493.0,501.0,505.0
504.0,507.0,502.0,520.0
486.0,517.0,497.0,531.0
484.0,522.0,485.0,516.0
489.0,523.0,490.0,509.0
488.0,517.0,508.0,521.0
500.0,510.0,518.0,522.0
507.0,498.0,521.0,528.0
515.0,478.0,527.0,509.0
532.0,477.0,545.0,503.0
551.0,482.0,544.0,512.0
540.0,517.0,521.0,510.0
537.0,522.0,519.0,506.0
527.0,521.0,518.0,502.0
520.0,517.0,509.0,504.0
511.0,522.0,506.0,508.0
496.0,491.0,506.0,516.0
490.0,488.0,496.0,535.0
510.0,481.0,503.0,519.0
478.0,507.0,493.0,516.0
474.0,526.0,491.0,515.0
491.0,517.0,503.0,512.0
492.0,517.0,506.0,509.0
489.0,525.0,506.0,521.0
510.0,495.0,531.0,549.0
536.0,475.0,536.0,506.0
538.0,482.0,543.0,509.0
535.0,500.0,533.0,513.0
524.0,530.0,524.0,507.0
521.0,528.0,521.0,494.0
528.0,522.0,511.0,497.0
505.0,524.0,503.0,520.0
484.0,530.0,509.0,537.0
493.0,489.0,508.0,538.0
488.0,479.0,487.0,521.0
502.0,491.0,487.0,510.0
498.0,514.0,487.0,530.0
497.0,526.0,485.0,509.0
504.0,524.0,521.0,512.0
514.0,513.0,508.0,509.0
529.0,499.0,525.0,518.0
541.0,476.0,533.0,524.0
544.0,476.0,539.0,560.0
540.0,483.0,540.0,541.0
536.0,500.0,525.0,508.0
528.0,528.0,513.0,474.0
532.0,513.0,535.0,493.0
532.0,499.0,550.0,513.0
498.0,511.0,548.0,546.0
498.0,502.0,523.0,516.0
524.0,487.0,490.0,512.0
511.0,497.0,477.0,504.0
507.0,511.0,499.0,495.0
510.0,549.0,488.0,485.0
527.0,536.0,496.0,508.0
525.0,522.0,499.0,536.0
531.0,510.0,504.0,537.0
525.0,496.0,534.0,525.0
545.0,469.0,547.0,511.0
533.0,477.0,545.0,492.0
513.0,491.0,536.0,464.0
480.0,526.0,520.0,505.0
457.0,538.0,506.0,551.0
461.0,532.0,535.0,553.0
491.0,516.0,552.0,537.0
511.0,516.0,519.0,510.0
533.0,497.0,498.0,520.0
538.0,488.0,495.0,522.0
539.0,488.0,511.0,458.0
526.0,508.0,486.0,458.0
469.0,544.0,505.0,533.0
473.0,530.0,486.0,530.0
493.0,519.0,500.0,540.0
511.0,508.0,511.0,548.0
544.0,483.0,524.0,551.0
558.0,469.0,523.0,516.0
549.0,479.0,546.0,495.0
527.0,494.0,558.0,501.0
500.0,525.0,541.0,492.0
503.0,521.0,488.0,514.0
464.0,524.0,520.0,547.0
460.0,516.0,544.0,524.0
490.0,513.0,527.0,504.0
521.0,497.0,491.0,493.0
513.0,498.0,498.0,513.0
516.0,498.0,511.0,525.0
508.0,527.0,491.0,471.0
498.0,537.0,473.0,470.0
503.0,522.0,493.0,600.0
485.0,530.0,533.0,556.0
506.0,515.0,517.0,523.0
542.0,472.0,551.0,531.0
544.0,470.0,640.0,529.0
537.0,476.0,572.0,513.0
526.0,505.0,488.0,507.0
499.0,547.0,519.0,510.0
490.0,538.0,513.0,498.0
511.0,520.0,524.0,526.0
506.0,528.0,508.0,526.0
524.0,500.0,456.0,426.0
516.0,485.0,470.0,484.0
525.0,496.0,481.0,531.0
517.0,501.0,545.0,551.0
501.0,533.0,524.0,542.0
516.0,532.0,525.0,513.0
543.0,525.0,495.0,532.0
557.0,503.0,496.0,547.0
562.0,499.0,551.0,494.0
555.0,480.0,574.0,503.0
542.0,477.0,554.0,529.0
546.0,479.0,532.0,517.0
481.0,515.0,549.0,519.0
473.0,527.0,548.0,502.0
496.0,526.0,497.0,510.0
523.0,505.0,497.0,507.0
525.0,509.0,518.0,488.0
554.0,491.0,491.0,479.0
565.0,481.0,532.0,553.0
543.0,498.0,543.0,534.0
527.0,520.0,466.0,530.0
497.0,542.0,494.0,554.0
501.0,547.0,533.0,548.0
519.0,549.0,502.0,480.0
514.0,556.0,513.0,491.0
533.0,519.0,529.0,496.0
564.0,487.0,566.0,553.0
570.0,476.0,489.0,495.0
536.0,449.0,547.0,492.0
546.0,496.0,564.0,533.0
548.0,514.0,521.0,535.0
515.0,480.0,523.0,536.0
460.0,495.0,518.0,511.0
422.0,516.0,512.0,511.0
476.0,487.0,507.0,505.0
465.0,488.0,517.0,495.0
465.0,498.0,534.0,520.0
476.0,521.0,477.0,533.0
510.0,527.0,457.0,492.0
535.0,525.0,504.0,500.0
552.0,509.0,534.0,522.0
561.0,497.0,532.0,511.0
562.0,472.0,539.0,500.0
531.0,470.0,564.0,540.0
477.0,481.0,565.0,546.0
452.0,505.0,556.0,496.0
461.0,527.0,545.0,486.0
501.0,528.0,503.0,514.0
520.0,524.0,474.0,489.0
527.0,515.0,518.0,498.0
536.0,501.0,472.0,415.0
546.0,496.0,507.0,550.0
504.0,498.0,514.0,659.0
466.0,508.0,553.0,580.0
523.0,538.0,519.0,486.0
555.0,541.0,471.0,534.0
567.0,533.0,493.0,547.0
576.0,503.0,514.0,546.0
586.0,481.0,571.0,539.0
503.0,462.0,562.0,497.0
433.0,475.0,498.0,501.0
443.0,501.0,523.0,481.0
444.0,533.0,558.0,481.0
453.0,544.0,536.0,515.0
450.0,530.0,554.0,542.0
468.0,519.0,573.0,520.0
478.0,513.0,516.0,476.0
498.0,486.0,503.0,521.0
503.0,481.0,505.0,512.0
496.0,488.0,529.0,565.0
494.0,508.0,422.0,565.0
491.0,541.0,483.0,512.0
491.0,532.0,540.0,522.0
503.0,522.0,524.0,495.0
507.0,516.0,537.0,514.0
521.0,488.0,502.0,495.0
519.0,477.0,565.0,566.0
532.0,496.0,681.0,602.0
533.0,507.0,585.0,489.0
529.0,530.0,442.0,525.0
533.0,514.0,497.0,531.0
526.0,509.0,565.0,428.0
514.0,522.0,560.0,474.0
494.0,512.0,536.0,510.0
501.0,499.0,489.0,523.0
509.0,492.0,432.0,526.0
523.0,501.0,486.0,465.0
538.0,514.0,503.0,489.0
548.0,521.0,487.0,513.0
565.0,512.0,471.0,511.0
568.0,507.0,518.0,548.0
570.0,498.0,545.0,575.0
568.0,471.0,546.0,514.0
589.0,459.0,518.0,519.0
554.0,476.0,524.0,533.0
542.0,486.0,497.0,525.0
531.0,496.0,465.0,523.0
524.0,517.0,513.0,488.0
497.0,531.0,557.0,510.0
481.0,533.0,534.0,482.0
496.0,519.0,499.0,522.0
533.0,496.0,479.0,513.0
530.0,503.0,525.0,403.0
529.0,509.0,504.0,466.0
519.0,516.0,506.0,558.0
466.0,533.0,529.0,541.0
479.0,531.0,621.0,574.0
514.0,522.0,616.0,544.0
571.0,505.0,543.0,526.0
618.0,489.0,506.0,529.0
643.0,484.0,526.0,495.0
638.0,490.0,580.0,535.0
622.0,524.0,462.0,480.0
593.0,504.0,466.0,493.0
507.0,494.0,516.0,553.0
467.0,524.0,523.0,493.0
507.0,562.0,525.0,490.0
603.0,511.0,606.0,509.0
596.0,482.0,622.0,561.0
557.0,497.0,421.0,591.0
485.0,514.0,411.0,507.0
419.0,505.0,469.0,516.0
415.0,483.0,488.0,481.0
419.0,526.0,493.0,534.0
467.0,527.0,504.0,538.0
549.0,477.0,523.0,494.0
569.0,449.0,546.0,496.0
563.0,468.0,540.0,500.0
529.0,504.0,529.0,525.0
487.0,525.0,519.0,470.0
437.0,513.0,482.0,457.0
394.0,536.0,522.0,606.0
431.0,523.0,544.0,484.0
450.0,513.0,539.0,476.0
461.0,488.0,556.0,513.0
452.0,502.0,447.0,513.0
459.0,519.0,465.0,480.0
455.0,540.0,486.0,444.0
459.0,553.0,518.0,535.0
468.0,547.0,515.0,486.0
479.0,547.0,500.0,510.0
488.0,545.0,521.0,524.0
512.0,492.0,592.0,529.0
511.0,450.0,543.0,503.0
511.0,469.0,523.0,544.0
522.0,509.0,552.0,513.0
530.0,537.0,522.0,503.0
543.0,508.0,515.0,506.0
548.0,510.0,482.0,527.0
537.0,508.0,527.0,510.0
526.0,486.0,531.0,515.0
470.0,498.0,498.0,490.0
476.0,498.0,494.0,515.0
501.0,498.0,432.0,502.0
493.0,520.0,511.0,532.0
500.0,523.0,455.0,538.0
497.0,515.0,506.0,510.0
523.0,489.0,543.0,498.0
521.0,489.0,576.0,566.0
531.0,478.0,515.0,523.0
542.0,490.0,520.0,468.0
547.0,491.0,541.0,451.0
528.0,516.0,546.0,532.0
501.0,525.0,501.0,501.0
480.0,527.0,561.0,502.0
499.0,511.0,574.0,546.0
518.0,504.0,580.0,583.0
552.0,497.0,445.0,526.0
551.0,505.0,528.0,456.0
520.0,518.0,541.0,491.0
513.0,524.0,420.0,617.0
509.0,538.0,472.0,575.0
499.0,531.0,501.0,512.0
503.0,492.0,549.0,503.0
499.0,504.0,478.0,515.0
527.0,490.0,609.0,520.0
561.0,467.0,717.0,485.0
552.0,488.0,574.0,483.0
555.0,495.0,513.0,558.0
564.0,515.0,437.0,481.0
572.0,510.0,533.0,490.0
572.0,508.0,562.0,554.0
552.0,521.0,493.0,484.0
583.0,509.0,486.0,515.0
580.0,498.0,518.0,509.0
584.0,500.0,470.0,497.0
576.0,500.0,505.0,544.0
554.0,523.0,507.0,528.0
561.0,530.0,477.0,524.0
551.0,511.0,517.0,522.0
531.0,503.0,558.0,533.0
512.0,508.0,636.0,586.0
470.0,508.0,460.0,527.0
444.0,505.0,468.0,440.0
452.0,508.0,528.0,454.0
471.0,521.0,513.0,506.0
619.0,525.0,509.0,469.0
695.0,482.0,503.0,483.0
702.0,476.0,495.0,512.0
692.0,464.0,528.0,543.0
703.0,435.0,496.0,516.0
606.0,453.0,521.0,492.0
397.0,491.0,464.0,489.0
442.0,540.0,476.0,482.0
478.0,593.0,481.0,474.0
452.0,588.0,474.0,561.0
409.0,566.0,516.0,509.0
413.0,562.0,533.0,516.0
430.0,488.0,565.0,523.0
463.0,440.0,538.0,568.0
490.0,436.0,529.0,493.0
502.0,463.0,507.0,482.0
476.0,553.0,515.0,534.0
466.0,550.0,504.0,521.0
461.0,517.0,533.0,484.0
439.0,501.0,501.0,451.0
457.0,504.0,535.0,522.0
485.0,478.0,480.0,540.0
420.0,509.0,484.0,566.0
433.0,514.0,514.0,552.0
460.0,521.0,493.0,506.0
461.0,545.0,504.0,479.0
472.0,537.0,707.0,503.0
490.0,534.0,634.0,523.0
475.0,547.0,404.0,487.0
505.0,506.0,482.0,468.0
526.0,474.0,526.0,483.0
543.0,460.0,531.0,497.0
537.0,491.0,554.0,562.0
519.0,540.0,526.0,508.0
505.0,542.0,530.0,510.0
523.0,516.0,515.0,518.0
524.0,527.0,488.0,532.0
500.0,531.0,463.0,494.0
532.0,501.0,478.0,507.0
556.0,477.0,455.0,477.0
560.0,462.0,488.0,505.0
544.0,482.0,491.0,604.0
539.0,494.0,471.0,521.0
530.0,513.0,540.0,546.0
497.0,546.0,504.0,554.0
444.0,535.0,468.0,486.0
465.0,497.0,516.0,549.0
499.0,481.0,589.0,531.0
509.0,488.0,668.0,502.0
495.0,515.0,617.0,547.0
474.0,555.0,476.0,566.0
486.0,545.0,456.0,462.0
485.0,541.0,495.0,427.0
505.0,520.0,592.0,466.0
518.0,497.0,506.0,511.0
523.0,492.0,447.0,547.0
525.0,486.0,516.0,542.0
521.0,502.0,493.0,584.0
488.0,551.0,491.0,496.0
493.0,528.0,462.0,485.0
508.0,520.0,490.0,547.0
530.0,496.0,540.0,540.0
537.0,472.0,507.0,513.0
554.0,454.0,487.0,489.0
565.0,485.0,518.0,534.0
565.0,510.0,516.0,515.0
572.0,539.0,516.0,442.0
590.0,549.0,519.0,531.0
624.0,554.0,644.0,485.0
607.0,548.0,625.0,473.0
602.0,500.0,445.0,556.0
579.0,475.0,435.0,575.0
474.0,508.0,502.0,521.0
443.0,515.0,565.0,467.0
508.0,486.0,542.0,504.0
549.0,486.0,488.0,571.0
592.0,508.0,499.0,541.0
612.0,523.0,504.0,510.0
602.0,486.0,498.0,458.0
564.0,466.0,514.0,502.0
571.0,437.0,527.0,522.0
462.0,474.0,578.0,519.0
385.0,533.0,530.0,404.0
391.0,559.0,556.0,436.0
397.0,545.0,501.0,571.0
455.0,520.0,580.0,579.0
504.0,518.0,587.0,529.0
503.0,507.0,470.0,522.0
533.0,472.0,463.0,520.0
568.0,475.0,482.0,550.0
593.0,487.0,488.0,523.0
542.0,572.0,485.0,492.0
535.0,591.0,450.0,526.0
614.0,506.0,495.0,580.0
644.0,481.0,552.0,534.0
626.0,463.0,491.0,504.0
650.0,422.0,475.0,485.0
568.0,451.0,550.0,451.0
544.0,484.0,558.0,491.0
520.0,500.0,541.0,425.0
455.0,510.0,498.0,503.0
409.0,554.0,479.0,509.0
377.0,605.0,611.0,540.0
347.0,626.0,614.0,536.0
408.0,551.0,426.0,514.0
451.0,512.0,419.0,528.0
452.0,524.0,451.0,542.0
448.0,519.0,510.0,557.0
436.0,522.0,527.0,523.0
432.0,511.0,506.0,529.0
445.0,517.0,508.0,503.0
492.0,490.0,537.0,503.0
547.0,458.0,537.0,506.0
582.0,477.0,571.0,493.0
599.0,487.0,514.0,480.0
612.0,486.0,521.0,495.0
592.0,496.0,522.0,482.0
528.0,502.0,481.0,529.0
492.0,509.0,465.0,435.0
484.0,501.0,518.0,522.0
472.0,517.0,528.0,533.0
466.0,499.0,497.0,486.0
494.0,499.0,446.0,504.0
510.0,490.0,473.0,552.0
503.0,518.0,451.0,567.0
505.0,538.0,518.0,536.0
508.0,542.0,501.0,515.0
502.0,499.0,599.0,545.0
508.0,508.0,536.0,512.0
497.0,507.0,516.0,461.0
503.0,499.0,556.0,495.0
523.0,476.0,563.0,504.0
528.0,492.0,503.0,520.0
502.0,532.0,467.0,539.0
499.0,525.0,529.0,512.0
505.0,532.0,774.0,501.0
510.0,525.0,676.0,525.0
493.0,510.0,395.0,451.0
498.0,503.0,427.0,478.0
498.0,502.0,451.0,504.0
500.0,502.0,488.0,484.0
490.0,518.0,449.0,545.0
505.0,515.0,499.0,547.0
518.0,536.0,508.0,531.0
506.0,552.0,528.0,534.0
503.0,551.0,528.0,536.0
523.0,505.0,504.0,489.0
534.0,496.0,525.0,455.0
539.0,475.0,526.0,505.0
534.0,494.0,520.0,565.0
511.0,506.0,537.0,497.0
504.0,494.0,487.0,422.0
498.0,519.0,499.0,518.0
540.0,529.0,481.0,598.0
594.0,493.0,495.0,508.0
637.0,482.0,532.0,469.0
697.0,477.0,514.0,522.0
721.0,517.0,482.0,543.0
670.0,570.0,482.0,508.0
559.0,562.0,546.0,619.0
549.0,484.0,597.0,522.0
507.0,468.0,493.0,500.0
384.0,524.0,438.0,458.0
442.0,502.0,526.0,499.0
469.0,500.0,648.0,490.0
475.0,494.0,524.0,524.0
465.0,521.0,460.0,543.0
438.0,542.0,542.0,511.0
435.0,565.0,524.0,553.0
466.0,590.0,493.0,498.0
526.0,565.0,503.0,470.0
564.0,507.0,553.0,521.0
598.0,434.0,517.0,534.0
607.0,427.0,492.0,526.0
601.0,429.0,511.0,529.0
491.0,510.0,488.0,557.0
435.0,527.0,540.0,512.0
468.0,515.0,468.0,484.0
517.0,512.0,510.0,510.0
535.0,483.0,521.0,504.0
541.0,473.0,594.0,490.0
481.0,498.0,567.0,487.0
497.0,484.0,440.0,401.0
465.0,532.0,494.0,495.0
458.0,530.0,499.0,518.0
465.0,512.0,578.0,569.0
459.0,514.0,536.0,541.0
456.0,515.0,494.0,522.0
486.0,484.0,476.0,522.0
482.0,497.0,507.0,553.0
489.0,514.0,490.0,509.0
490.0,546.0,517.0,529.0
524.0,521.0,516.0,553.0
553.0,500.0,498.0,526.0
561.0,480.0,493.0,500.0
553.0,511.0,517.0,523.0
524.0,510.0,511.0,447.0
507.0,499.0,522.0,517.0
539.0,486.0,481.0,503.0
521.0,535.0,529.0,508.0
506.0,550.0,586.0,540.0
507.0,539.0,518.0,526.0
506.0,534.0,508.0,514.0
539.0,525.0,508.0,483.0
540.0,489.0,542.0,515.0
538.0,490.0,483.0,501.0
563.0,508.0,517.0,513.0
522.0,517.0,486.0,446.0
470.0,519.0,491.0,501.0
461.0,518.0,515.0,563.0
443.0,540.0,532.0,549.0
455.0,546.0,498.0,562.0
490.0,498.0,514.0,549.0
504.0,479.0,530.0,469.0
493.0,496.0,516.0,492.0
501.0,506.0,504.0,501.0
496.0,533.0,540.0,552.0
490.0,559.0,509.0,499.0
482.0,570.0,495.0,517.0
492.0,537.0,539.0,508.0
504.0,515.0,564.0,519.0
519.0,453.0,511.0,477.0
529.0,436.0,487.0,526.0
527.0,450.0,502.0,509.0
535.0,491.0,498.0,517.0
526.0,522.0,521.0,528.0
532.0,540.0,460.0,540.0
561.0,561.0,503.0,498.0
568.0,547.0,513.0,444.0
601.0,475.0,519.0,538.0
571.0,469.0,504.0,527.0
597.0,464.0,519.0,475.0
608.0,479.0,550.0,454.0
528.0,525.0,530.0,553.0
475.0,530.0,502.0,491.0
456.0,534.0,470.0,511.0
458.0,531.0,621.0,548.0
437.0,504.0,553.0,559.0
444.0,506.0,504.0,546.0
464.0,531.0,450.0,514.0
487.0,528.0,494.0,517.0
502.0,559.0,545.0,517.0
515.0,571.0,457.0,490.0
557.0,560.0,486.0,525.0
553.0,505.0,583.0,525.0
550.0,469.0,500.0,452.0
581.0,456.0,551.0,547.0
568.0,435.0,544.0,543.0
561.0,427.0,528.0,480.0
518.0,477.0,564.0,513.0
521.0,480.0,513.0,470.0
497.0,505.0,494.0,493.0
405.0,553.0,503.0,505.0
477.0,533.0,524.0,494.0
538.0,517.0,507.0,563.0
599.0,500.0,495.0,505.0
629.0,487.0,488.0,476.0
633.0,495.0,498.0,522.0
609.0,526.0,446.0,515.0
546.0,533.0,504.0,539.0
573.0,495.0,540.0,536.0
591.0,481.0,539.0,537.0
563.0,458.0,512.0,528.0
567.0,457.0,509.0,477.0
516.0,500.0,533.0,456.0
490.0,503.0,603.0,465.0
406.0,570.0,481.0,547.0
399.0,575.0,521.0,524.0
416.0,544.0,554.0,510.0
426.0,555.0,515.0,523.0
441.0,537.0,526.0,517.0
487.0,498.0,519.0,508.0
507.0,484.0,503.0,515.0
503.0,501.0,517.0,503.0
476.0,524.0,512.0,500.0
431.0,552.0,399.0,481.0
448.0,532.0,447.0,528.0
433.0,552.0,537.0,480.0
471.0,524.0,492.0,522.0
497.0,490.0,524.0,610.0
505.0,504.0,537.0,547.0
526.0,488.0,543.0,494.0
539.0,483.0,553.0,484.0
521.0,513.0,602.0,494.0
515.0,506.0,761.0,523.0
537.0,499.0,499.0,495.0
535.0,507.0,432.0,465.0
524.0,502.0,488.0,527.0
500.0,489.0,470.0,548.0
494.0,495.0,522.0,576.0
513.0,489.0,505.0,519.0
472.0,534.0,459.0,498.0
469.0,538.0,491.0,504.0
500.0,492.0,536.0,507.0
530.0,478.0,478.0,507.0
524.0,483.0,447.0,491.0
550.0,469.0,475.0,473.0
549.0,501.0,538.0,484.0
544.0,494.0,525.0,482.0
555.0,499.0,504.0,460.0
547.0,532.0,558.0,534.0
544.0,534.0,564.0,564.0
525.0,533.0,537.0,524.0
525.0,530.0,487.0,516.0
552.0,509.0,487.0,430.0
550.0,479.0,490.0,340.0
500.0,507.0,449.0,552.0
486.0,491.0,485.0,619.0
466.0,516.0,495.0,611.0
460.0,535.0,502.0,561.0
453.0,536.0,545.0,569.0
480.0,548.0,507.0,507.0
501.0,533.0,519.0,518.0
496.0,522.0,546.0,454.0
501.0,512.0,576.0,497.0
487.0,535.0,601.0,536.0
480.0,525.0,620.0,505.0
485.0,499.0,491.0,507.0
500.0,490.0,455.0,521.0
520.0,495.0,486.0,541.0
525.0,505.0,535.0,544.0
535.0,493.0,502.0,525.0
542.0,506.0,464.0,522.0
540.0,525.0,500.0,497.0
528.0,546.0,537.0,526.0
528.0,536.0,497.0,517.0
548.0,534.0,472.0,510.0
568.0,485.0,477.0,421.0
627.0,431.0,462.0,467.0
649.0,414.0,550.0,560.0
602.0,446.0,578.0,606.0
630.0,456.0,524.0,519.0
626.0,465.0,542.0,490.0
601.0,517.0,543.0,470.0
547.0,524.0,518.0,522.0
434.0,550.0,490.0,556.0
415.0,551.0,484.0,472.0
429.0,546.0,512.0,481.0
394.0,529.0,509.0,512.0
410.0,499.0,509.0,532.0
438.0,481.0,509.0,491.0
449.0,547.0,499.0,572.0
478.0,577.0,504.0,550.0
506.0,543.0,502.0,492.0
522.0,523.0,532.0,506.0
536.0,519.0,518.0,530.0
592.0,469.0,545.0,487.0
587.0,446.0,571.0,509.0
540.0,465.0,509.0,518.0
533.0,498.0,516.0,517.0
527.0,521.0,525.0,519.0
513.0,509.0,523.0,488.0
446.0,511.0,525.0,496.0
458.0,506.0,525.0,507.0
465.0,509.0,477.0,501.0
498.0,507.0,522.0,494.0
515.0,495.0,457.0,494.0
502.0,513.0,475.0,555.0
504.0,523.0,519.0,549.0
510.0,517.0,500.0,479.0
456.0,521.0,489.0,477.0
477.0,512.0,511.0,550.0
517.0,500.0,522.0,476.0
532.0,497.0,497.0,433.0
516.0,495.0,604.0,499.0
547.0,465.0,548.0,590.0
553.0,519.0,554.0,459.0
524.0,550.0,476.0,497.0
518.0,552.0,510.0,521.0
523.0,569.0,528.0,532.0
517.0,537.0,522.0,561.0
473.0,436.0,435.0,452.0
493.0,447.0,491.0,475.0
510.0,478.0,535.0,551.0
513.0,495.0,508.0,563.0
515.0,519.0,487.0,519.0
500.0,530.0,461.0,521.0
458.0,549.0,482.0,543.0
491.0,515.0,498.0,514.0
521.0,480.0,587.0,512.0
542.0,466.0,609.0,532.0
549.0,489.0,520.0,504.0
541.0,529.0,480.0,385.0
487.0,580.0,559.0,474.0
497.0,560.0,530.0,525.0
507.0,564.0,484.0,538.0
504.0,511.0,494.0,606.0
505.0,469.0,526.0,518.0
507.0,460.0,493.0,466.0
514.0,480.0,544.0,511.0
510.0,525.0,539.0,476.0
494.0,525.0,561.0,538.0
499.0,534.0,606.0,535.0
508.0,540.0,420.0,484.0
506.0,520.0,435.0,552.0
526.0,466.0,531.0,581.0
571.0,439.0,648.0,569.0
570.0,470.0,486.0,495.0
576.0,470.0,463.0,465.0
555.0,490.0,544.0,486.0
535.0,520.0,576.0,625.0
487.0,532.0,466.0,535.0
451.0,551.0,495.0,452.0
481.0,556.0,500.0,439.0
570.0,502.0,552.0,491.0
659.0,473.0,526.0,543.0
667.0,487.0,480.0,534.0
656.0,465.0,492.0,519.0
631.0,495.0,493.0,548.0
575.0,472.0,679.0,525.0
418.0,507.0,549.0,538.0
388.0,549.0,393.0,512.0
433.0,512.0,523.0,536.0
469.0,489.0,541.0,541.0
496.0,492.0,533.0,485.0
550.0,487.0,555.0,473.0
586.0,504.0,525.0,483.0
615.0,513.0,476.0,480.0
622.0,516.0,470.0,449.0
577.0,495.0,524.0,522.0
538.0,497.0,527.0,553.0
510.0,480.0,528.0,553.0
422.0,525.0,493.0,508.0
431.0,504.0,498.0,519.0
448.0,528.0,484.0,512.0
453.0,538.0,447.0,490.0
429.0,540.0,476.0,517.0
402.0,544.0,503.0,544.0
396.0,531.0,538.0,581.0
449.0,509.0,545.0,503.0
476.0,484.0,483.0,445.0
491.0,472.0,485.0,447.0
508.0,493.0,480.0,487.0
485.0,522.0,537.0,455.0
487.0,521.0,552.0,504.0
502.0,499.0,589.0,594.0
498.0,511.0,542.0,545.0
499.0,508.0,420.0,482.0
515.0,476.0,453.0,503.0
532.0,501.0,464.0,505.0
531.0,549.0,555.0,464.0
526.0,525.0,523.0,562.0
536.0,460.0,507.0,526.0
499.0,505.0,530.0,444.0
476.0,511.0,459.0,509.0
474.0,507.0,530.0,591.0
489.0,463.0,517.0,499.0
511.0,466.0,551.0,546.0
516.0,507.0,533.0,563.0
498.0,536.0,519.0,503.0
484.0,552.0,483.0,456.0
478.0,529.0,562.0,522.0
489.0,527.0,622.0,536.0
502.0,553.0,488.0,517.0
512.0,533.0,488.0,517.0
519.0,520.0,532.0,514.0
514.0,523.0,521.0,536.0
512.0,522.0,480.0,518.0
510.0,473.0,483.0,534.0
510.0,491.0,523.0,537.0
513.0,516.0,512.0,524.0
513.0,539.0,515.0,499.0
540.0,490.0,587.0,487.0
561.0,430.0,529.0,496.0
554.0,478.0,509.0,496.0
551.0,494.0,556.0,505.0
531.0,531.0,533.0,531.0
507.0,553.0,542.0,520.0
484.0,527.0,519.0,547.0
482.0,526.0,490.0,530.0
517.0,514.0,446.0,457.0
541.0,448.0,495.0,488.0
545.0,453.0,531.0,529.0
562.0,483.0,468.0,495.0
540.0,528.0,505.0,527.0
522.0,550.0,501.0,523.0
518.0,558.0,524.0,529.0
538.0,536.0,445.0,484.0
544.0,512.0,539.0,522.0
580.0,477.0,593.0,498.0
591.0,487.0,507.0,460.0
573.0,471.0,509.0,488.0
527.0,502.0,535.0,581.0
462.0,551.0,573.0,568.0
448.0,544.0,620.0,517.0
521.0,495.0,462.0,499.0
558.0,485.0,474.0,491.0
598.0,453.0,499.0,513.0
584.0,466.0,453.0,536.0
582.0,473.0,504.0,484.0
533.0,481.0,483.0,403.0
350.0,565.0,555.0,530.0
404.0,561.0,550.0,598.0
482.0,514.0,535.0,539.0
506.0,516.0,483.0,517.0
558.0,506.0,573.0,514.0
623.0,484.0,546.0,472.0
629.0,449.0,459.0,509.0
594.0,415.0,553.0,542.0
567.0,449.0,582.0,478.0
512.0,490.0,540.0,452.0
402.0,574.0,459.0,553.0
432.0,592.0,486.0,561.0
503.0,577.0,498.0,546.0
523.0,524.0,447.0,507.0
536.0,510.0,617.0,529.0
460.0,515.0,595.0,518.0
421.0,531.0,465.0,519.0
380.0,513.0,489.0,523.0
426.0,474.0,491.0,528.0
461.0,505.0,491.0,529.0
473.0,523.0,495.0,513.0
501.0,483.0,528.0,501.0
521.0,462.0,533.0,514.0
530.0,474.0,528.0,503.0
516.0,483.0,517.0,508.0
480.0,528.0,562.0,531.0
494.0,534.0,559.0,528.0
482.0,543.0,512.0,485.0
494.0,535.0,510.0,489.0
500.0,526.0,505.0,507.0
532.0,498.0,461.0,505.0
515.0,498.0,438.0,515.0
503.0,495.0,521.0,549.0
506.0,496.0,492.0,527.0
504.0,519.0,477.0,494.0
495.0,545.0,495.0,460.0
497.0,544.0,474.0,509.0
507.0,527.0,538.0,536.0
526.0,497.0,544.0,544.0
527.0,478.0,517.0,485.0
538.0,476.0,522.0,478.0
509.0,499.0,549.0,517.0
488.0,539.0,549.0,494.0
481.0,555.0,518.0,527.0
486.0,529.0,599.0,560.0
505.0,513.0,469.0,477.0
521.0,521.0,469.0,505.0
521.0,546.0,501.0,459.0
523.0,531.0,529.0,530.0
508.0,552.0,521.0,528.0
494.0,565.0,486.0,538.0
511.0,460.0,500.0,520.0
524.0,421.0,512.0,544.0
528.0,445.0,493.0,486.0
525.0,489.0,494.0,480.0
536.0,476.0,535.0,486.0
537.0,489.0,504.0,461.0
531.0,494.0,537.0,539.0
512.0,521.0,499.0,535.0
499.0,535.0,512.0,528.0
508.0,527.0,585.0,513.0
511.0,529.0,542.0,461.0
522.0,511.0,425.0,463.0
541.0,488.0,497.0,512.0
547.0,486.0,515.0,516.0
571.0,500.0,456.0,495.0
572.0,495.0,528.0,571.0
559.0,495.0,537.0,556.0
568.0,489.0,555.0,603.0
539.0,508.0,530.0,553.0
528.0,516.0,513.0,503.0
517.0,486.0,555.0,511.0
509.0,486.0,564.0,460.0
561.0,473.0,567.0,451.0
572.0,485.0,660.0,537.0
563.0,498.0,454.0,548.0
582.0,483.0,464.0,504.0
610.0,493.0,521.0,530.0
592.0,488.0,510.0,545.0
434.0,542.0,506.0,536.0
416.0,540.0,498.0,496.0
422.0,519.0,493.0,470.0
432.0,526.0,509.0,493.0
411.0,560.0,473.0,514.0
408.0,565.0,448.0,439.0
452.0,515.0,516.0,468.0
456.0,516.0,537.0,483.0
472.0,545.0,521.0,531.0
497.0,479.0,522.0,560.0
500.0,462.0,527.0,521.0
506.0,470.0,501.0,569.0
501.0,486.0,500.0,512.0
493.0,513.0,625.0,547.0
485.0,533.0,553.0,543.0
493.0,529.0,451.0,501.0
504.0,531.0,538.0,509.0
528.0,511.0,583.0,527.0
541.0,502.0,446.0,508.0
540.0,500.0,486.0,525.0
536.0,493.0,506.0,519.0
502.0,516.0,497.0,551.0
486.0,505.0,497.0,500.0
486.0,515.0,491.0,486.0
536.0,503.0,519.0,542.0
602.0,481.0,505.0,531.0
628.0,463.0,546.0,520.0
633.0,452.0,527.0,491.0
623.0,468.0,513.0,514.0
573.0,507.0,487.0,525.0
493.0,516.0,510.0,526.0
388.0,540.0,544.0,491.0
393.0,566.0,495.0,459.0
454.0,548.0,495.0,511.0
490.0,503.0,516.0,499.0
493.0,509.0,501.0,514.0
503.0,507.0,527.0,545.0
520.0,529.0,496.0,525.0
545.0,495.0,497.0,502.0
572.0,483.0,502.0,501.0
578.0,503.0,469.0,528.0
595.0,500.0,537.0,511.0
580.0,466.0,557.0,530.0
512.0,478.0,497.0,476.0
431.0,531.0,510.0,493.0
435.0,535.0,515.0,494.0
468.0,549.0,543.0,517.0
467.0,564.0,533.0,469.0
458.0,544.0,521.0,480.0
461.0,510.0,539.0,544.0
472.0,534.0,505.0,590.0
504.0,499.0,484.0,504.0
513.0,478.0,583.0,501.0
514.0,461.0,485.0,507.0
499.0,500.0,560.0,549.0
499.0,529.0,535.0,462.0
513.0,496.0,459.0,503.0
521.0,488.0,533.0,621.0
523.0,489.0,492.0,488.0
534.0,483.0,503.0,518.0
523.0,501.0,565.0,531.0
513.0,477.0,516.0,423.0
490.0,503.0,523.0,458.0
482.0,525.0,528.0,510.0
487.0,523.0,463.0,521.0
489.0,530.0,499.0,549.0
491.0,523.0,540.0,523.0
503.0,508.0,542.0,525.0
529.0,503.0,494.0,527.0
533.0,518.0,457.0,491.0
535.0,513.0,519.0,512.0
508.0,532.0,502.0,526.0
511.0,551.0,516.0,549.0
512.0,518.0,518.0,522.0
506.0,506.0,529.0,505.0
529.0,478.0,502.0,529.0
545.0,459.0,519.0,464.0
541.0,493.0,547.0,520.0
552.0,498.0,516.0,475.0
551.0,472.0,500.0,464.0
527.0,497.0,539.0,611.0
503.0,522.0,543.0,561.0
463.0,551.0,540.0,469.0
468.0,536.0,479.0,471.0
499.0,502.0,463.0,477.0
527.0,477.0,457.0,423.0
534.0,461.0,452.0,509.0
504.0,495.0,544.0,523.0
495.0,530.0,578.0,569.0
497.0,533.0,533.0,570.0
499.0,535.0,537.0,559.0
529.0,526.0,487.0,521.0
561.0,482.0,482.0,512.0
579.0,463.0,517.0,513.0
589.0,443.0,558.0,500.0
553.0,459.0,499.0,489.0
528.0,500.0,536.0,483.0
527.0,497.0,543.0,508.0
481.0,525.0,540.0,528.0
461.0,538.0,505.0,495.0
477.0,542.0,500.0,493.0
515.0,494.0,529.0,526.0
533.0,486.0,508.0,532.0
554.0,483.0,446.0,429.0
547.0,509.0,455.0,452.0
532.0,526.0,498.0,599.0
524.0,522.0,511.0,535.0
429.0,553.0,490.0,494.0
410.0,558.0,516.0,512.0
476.0,519.0,559.0,535.0
497.0,493.0,553.0,555.0
502.0,476.0,509.0,533.0
502.0,484.0,491.0,489.0
484.0,536.0,536.0,507.0
485.0,534.0,536.0,495.0
486.0,515.0,537.0,482.0
467.0,550.0,482.0,540.0
492.0,532.0,485.0,532.0
534.0,460.0,558.0,512.0
533.0,477.0,567.0,508.0
536.0,499.0,464.0,512.0
526.0,520.0,477.0,530.0
520.0,512.0,482.0,512.0
526.0,495.0,460.0,484.0
510.0,494.0,534.0,515.0
514.0,507.0,524.0,565.0
528.0,467.0,541.0,536.0
534.0,460.0,525.0,496.0
527.0,487.0,577.0,528.0
515.0,511.0,562.0,488.0
471.0,526.0,478.0,461.0
464.0,528.0,507.0,509.0
484.0,532.0,521.0,554.0
492.0,546.0,506.0,481.0
511.0,514.0,532.0,516.0
533.0,477.0,502.0,514.0
537.0,493.0,510.0,513.0
542.0,524.0,462.0,485.0
555.0,533.0,491.0,514.0
545.0,530.0,506.0,537.0
527.0,520.0,470.0,525.0
482.0,506.0,520.0,519.0
508.0,474.0,518.0,523.0
523.0,468.0,547.0,523.0
519.0,484.0,526.0,524.0
530.0,464.0,521.0,501.0
487.0,522.0,528.0,526.0
473.0,540.0,528.0,497.0
464.0,517.0,538.0,495.0
477.0,508.0,523.0,507.0
492.0,508.0,500.0,496.0
498.0,513.0,501.0,504.0
510.0,492.0,492.0,508.0
516.0,474.0,503.0,535.0
510.0,501.0,483.0,531.0
497.0,547.0,481.0,513.0
493.0,544.0,460.0,478.0
499.0,527.0,509.0,489.0
517.0,517.0,530.0,533.0
536.0,468.0,511.0,505.0
525.0,472.0,489.0,489.0
518.0,487.0,556.0,500.0
512.0,500.0,570.0,537.0
501.0,528.0,522.0,496.0
503.0,531.0,537.0,490.0
497.0,535.0,520.0,500.0
506.0,516.0,508.0,514.0
518.0,494.0,524.0,502.0
521.0,482.0,477.0,517.0
526.0,483.0,508.0,564.0
525.0,502.0,515.0,528.0
512.0,523.0,477.0,484.0
503.0,534.0,507.0,536.0
511.0,519.0,515.0,528.0
514.0,522.0,477.0,475.0
517.0,502.0,555.0,511.0
534.0,480.0,552.0,512.0
540.0,491.0,534.0,508.0
538.0,489.0,507.0,464.0
529.0,519.0,535.0,442.0
516.0,537.0,487.0,450.0
516.0,524.0,482.0,463.0
522.0,509.0,523.0,529.0
515.0,522.0,535.0,548.0
520.0,503.0,523.0,560.0
499.0,502.0,482.0,512.0
492.0,518.0,466.0,480.0
498.0,534.0,525.0,551.0
500.0,552.0,498.0,537.0
515.0,550.0,460.0,523.0
559.0,497.0,523.0,518.0
588.0,481.0,541.0,503.0
617.0,478.0,537.0,512.0
633.0,436.0,547.0,516.0
616.0,443.0,531.0,512.0
570.0,470.0,522.0,505.0
442.0,526.0,526.0,513.0
412.0,528.0,512.0,528.0
398.0,532.0,508.0,502.0
436.0,519.0,494.0,519.0
475.0,511.0,469.0,505.0
501.0,495.0,485.0,509.0
514.0,486.0,515.0,503.0
496.0,504.0,521.0,518.0
474.0,535.0,498.0,521.0
472.0,537.0,500.0,522.0
485.0,533.0,506.0,521.0
485.0,546.0,504.0,515.0
491.0,530.0,514.0,509.0
522.0,497.0,536.0,504.0
544.0,473.0,545.0,500.0
548.0,448.0,537.0,496.0
537.0,491.0,524.0,505.0
521.0,529.0,528.0,506.0
528.0,523.0,519.0,502.0
504.0,540.0,512.0,499.0
475.0,532.0,508.0,505.0
513.0,511.0,491.0,504.0
534.0,499.0,496.0,524.0
527.0,496.0,553.0,509.0
509.0,508.0,485.0,501.0
497.0,520.0,466.0,509.0
485.0,519.0,496.0,515.0
477.0,528.0,500.0,512.0
489.0,511.0,523.0,519.0
506.0,497.0,530.0,511.0
528.0,471.0,535.0,497.0
526.0,478.0,536.0,502.0
517.0,493.0,531.0,506.0
506.0,505.0,520.0,506.0
498.0,512.0,507.0,506.0
483.0,515.0,526.0,512.0
485.0,531.0,527.0,505.0
492.0,525.0,492.0,526.0
514.0,486.0,490.0,526.0
523.0,484.0,508.0,495.0
524.0,490.0,518.0,500.0
515.0,513.0,504.0,517.0
505.0,532.0,496.0,497.0
504.0,526.0,497.0,504.0
509.0,515.0,497.0,512.0
518.0,500.0,489.0,505.0
529.0,478.0,519.0,500.0
541.0,465.0,555.0,515.0
533.0,478.0,543.0,506.0
530.0,480.0,534.0,500.0
499.0,515.0,520.0,484.0
495.0,531.0,518.0,516.0
501.0,530.0,518.0,512.0
509.0,523.0,510.0,508.0
503.0,512.0,505.0,514.0
519.0,484.0,502.0,514.0
527.0,487.0,493.0,477.0
523.0,496.0,490.0,498.0
505.0,523.0,493.0,501.0
498.0,530.0,501.0,532.0
507.0,513.0,503.0,528.0
511.0,515.0,510.0,519.0
514.0,513.0,515.0,511.0
535.0,484.0,531.0,503.0
536.0,483.0,540.0,508.0
528.0,490.0,537.0,504.0
512.0,506.0,531.0,508.0
500.0,523.0,526.0,510.0
495.0,531.0,518.0,507.0
502.0,511.0,520.0,506.0
514.0,505.0,508.0,502.0
520.0,494.0,505.0,503.0
524.0,489.0,502.0,510.0
524.0,497.0,492.0,512.0
516.0,523.0,491.0,520.0
503.0,552.0,496.0,517.0
506.0,543.0,499.0,513.0
504.0,538.0,504.0,513.0
519.0,494.0,509.0,510.0
528.0,472.0,523.0,507.0
544.0,472.0,534.0,504.0
533.0,483.0,538.0,503.0
520.0,493.0,537.0,507.0
506.0,516.0,527.0,510.0
494.0,536.0,524.0,504.0
500.0,530.0,518.0,502.0
497.0,521.0,514.0,503.0
503.0,510.0,505.0,505.0
521.0,483.0,504.0,504.0
524.0,483.0,501.0,508.0
525.0,488.0,498.0,511.0
517.0,514.0,492.0,518.0
509.0,529.0,491.0,521.0
507.0,527.0,501.0,518.0
507.0,528.0,505.0,517.0
512.0,513.0,515.0,515.0
528.0,482.0,527.0,510.0
533.0,467.0,534.0,503.0
529.0,470.0,538.0,500.0
521.0,485.0,531.0,500.0
507.0,521.0,523.0,502.0
505.0,520.0,521.0,505.0
504.0,512.0,516.0,505.0
494.0,532.0,508.0,507.0
506.0,519.0,503.0,509.0
523.0,485.0,504.0,508.0
523.0,487.0,497.0,509.0
527.0,484.0,490.0,512.0
517.0,518.0,490.0,518.0
503.0,541.0,494.0,517.0
504.0,520.0,500.0,515.0
506.0,510.0,505.0,512.0
516.0,498.0,521.0,512.0
529.0,469.0,531.0,506.0
525.0,470.0,538.0,505.0
529.0,483.0,535.0,502.0
515.0,512.0,534.0,500.0
503.0,533.0,525.0,499.0
503.0,529.0,522.0,500.0
503.0,531.0,516.0,502.0
506.0,529.0,509.0,504.0
505.0,512.0,504.0,504.0
519.0,492.0,501.0,504.0
516.0,494.0,497.0,508.0
511.0,498.0,491.0,512.0
494.0,533.0,488.0,518.0
500.0,524.0,497.0,516.0
502.0,526.0,501.0,512.0
508.0,512.0,510.0,510.0
518.0,493.0,521.0,509.0
533.0,459.0,532.0,505.0
537.0,460.0,537.0,502.0
531.0,472.0,537.0,500.0
510.0,511.0,531.0,507.0
500.0,529.0,527.0,509.0
493.0,538.0,520.0,511.0
491.0,543.0,515.0,511.0
496.0,532.0,508.0,513.0
516.0,501.0,505.0,507.0
517.0,500.0,503.0,510.0
520.0,500.0,493.0,514.0
510.0,520.0,490.0,516.0
500.0,532.0,491.0,517.0
497.0,533.0,498.0,516.0
504.0,527.0,505.0,514.0
511.0,522.0,510.0,511.0
528.0,474.0,524.0,508.0
535.0,458.0,531.0,503.0
533.0,466.0,531.0,501.0
515.0,505.0,530.0,502.0
499.0,522.0,525.0,504.0
495.0,521.0,519.0,505.0
493.0,532.0,517.0,503.0
495.0,532.0,508.0,508.0
507.0,512.0,503.0,505.0
521.0,491.0,498.0,507.0
524.0,493.0,496.0,510.0
522.0,497.0,495.0,513.0
510.0,544.0,490.0,515.0
503.0,547.0,495.0,515.0
507.0,538.0,500.0,514.0
510.0,533.0,506.0,512.0
511.0,523.0,512.0,510.0
531.0,489.0,525.0,506.0
534.0,440.0,533.0,504.0
533.0,433.0,533.0,501.0
521.0,486.0,529.0,502.0
505.0,521.0,520.0,503.0
501.0,523.0,518.0,502.0
501.0,514.0,511.0,501.0
493.0,508.0,503.0,510.0
516.0,483.0,502.0,507.0
524.0,481.0,500.0,516.0
511.0,503.0,496.0,515.0
509.0,524.0,495.0,515.0
491.0,564.0,494.0,520.0
494.0,533.0,499.0,519.0
493.0,532.0,504.0,518.0
511.0,472.0,509.0,518.0
525.0,490.0,519.0,508.0
534.0,483.0,530.0,506.0
536.0,470.0,534.0,504.0
529.0,507.0,533.0,499.0
506.0,553.0,524.0,504.0
501.0,566.0,515.0,504.0
499.0,562.0,516.0,506.0
496.0,523.0,509.0,504.0
503.0,494.0,503.0,506.0
517.0,469.0,505.0,510.0
524.0,497.0,500.0,516.0
520.0,503.0,497.0,516.0
508.0,520.0,493.0,520.0
499.0,534.0,494.0,522.0
507.0,533.0,499.0,519.0
507.0,539.0,506.0,516.0
512.0,486.0,512.0,519.0
524.0,460.0,523.0,508.0
533.0,474.0,532.0,503.0
527.0,494.0,532.0,502.0
524.0,491.0,529.0,502.0
509.0,523.0,521.0,504.0
502.0,534.0,517.0,502.0
495.0,539.0,514.0,505.0
496.0,529.0,507.0,508.0
503.0,509.0,503.0,511.0
521.0,478.0,502.0,509.0
522.0,485.0,497.0,516.0
518.0,491.0,496.0,520.0
503.0,525.0,494.0,519.0
493.0,556.0,496.0,523.0
495.0,550.0,503.0,523.0
503.0,523.0,512.0,519.0
515.0,514.0,519.0,513.0
529.0,501.0,530.0,507.0
525.0,486.0,539.0,503.0
522.0,472.0,535.0,500.0
514.0,490.0,527.0,501.0
496.0,511.0,517.0,505.0
496.0,508.0,515.0,506.0
500.0,499.0,512.0,503.0
498.0,512.0,507.0,510.0
521.0,495.0,503.0,509.0
524.0,502.0,501.0,509.0
523.0,506.0,499.0,514.0
518.0,494.0,495.0,519.0
509.0,519.0,495.0,521.0
499.0,544.0,499.0,520.0
502.0,531.0,507.0,518.0
507.0,524.0,512.0,520.0
515.0,493.0,523.0,513.0
527.0,461.0,532.0,507.0
523.0,451.0,538.0,504.0
517.0,470.0,535.0,504.0
507.0,508.0,528.0,507.0
501.0,513.0,522.0,505.0
495.0,518.0,516.0,507.0
499.0,516.0,509.0,507.0
499.0,527.0,504.0,509.0
519.0,487.0,503.0,507.0
525.0,486.0,497.0,509.0
522.0,506.0,499.0,513.0
510.0,526.0,494.0,520.0
502.0,538.0,495.0,522.0
500.0,542.0,505.0,521.0
504.0,523.0,509.0,520.0
514.0,507.0,517.0,518.0
528.0,508.0,528.0,508.0
533.0,496.0,535.0,506.0
530.0,488.0,538.0,504.0
523.0,503.0,532.0,505.0
506.0,523.0,525.0,507.0
510.0,525.0,521.0,506.0
505.0,526.0,516.0,508.0
508.0,541.0,510.0,507.0
508.0,520.0,504.0,510.0
523.0,484.0,501.0,511.0
524.0,486.0,496.0,514.0
522.0,478.0,498.0,515.0
510.0,525.0,493.0,520.0
505.0,538.0,498.0,520.0
504.0,523.0,504.0,517.0
507.0,524.0,509.0,519.0
512.0,517.0,518.0,516.0
533.0,481.0,532.0,506.0
526.0,483.0,535.0,503.0
520.0,502.0,534.0,504.0
505.0,538.0,530.0,504.0
493.0,538.0,524.0,508.0
496.0,486.0,518.0,502.0
488.0,498.0,515.0,508.0
495.0,459.0,509.0,513.0
513.0,456.0,506.0,513.0
515.0,486.0,505.0,514.0
517.0,516.0,502.0,517.0
511.0,553.0,498.0,522.0
493.0,551.0,498.0,525.0
506.0,513.0,501.0,521.0
509.0,529.0,502.0,521.0
517.0,514.0,513.0,519.0
527.0,499.0,522.0,512.0
538.0,460.0,532.0,504.0
533.0,470.0,535.0,504.0
528.0,473.0,533.0,506.0
511.0,507.0,528.0,507.0
504.0,506.0,520.0,513.0
507.0,508.0,520.0,510.0
505.0,511.0,518.0,514.0
498.0,517.0,506.0,517.0
522.0,484.0,506.0,513.0
527.0,503.0,500.0,514.0
525.0,510.0,496.0,518.0
506.0,537.0,497.0,522.0
492.0,567.0,495.0,524.0
500.0,531.0,497.0,517.0
500.0,513.0,504.0,513.0
516.0,490.0,512.0,514.0
530.0,475.0,528.0,507.0
535.0,459.0,534.0,504.0
531.0,456.0,535.0,502.0
524.0,486.0,527.0,502.0
501.0,536.0,521.0,504.0
490.0,548.0,520.0,508.0
489.0,551.0,514.0,512.0
498.0,535.0,509.0,513.0
509.0,503.0,504.0,514.0
523.0,479.0,504.0,518.0
522.0,480.0,501.0,518.0
522.0,458.0,502.0,522.0
510.0,493.0,494.0,525.0
508.0,502.0,497.0,520.0
507.0,498.0,500.0,521.0
499.0,513.0,506.0,521.0
505.0,497.0,517.0,514.0
528.0,466.0,530.0,510.0
530.0,477.0,534.0,503.0
529.0,498.0,532.0,504.0
513.0,557.0,529.0,508.0
503.0,575.0,525.0,511.0
497.0,563.0,521.0,512.0
491.0,566.0,515.0,508.0
495.0,544.0,507.0,508.0
515.0,503.0,506.0,508.0
525.0,475.0,501.0,513.0
532.0,465.0,497.0,512.0
522.0,470.0,494.0,518.0
511.0,516.0,492.0,526.0
504.0,511.0,494.0,527.0
505.0,531.0,503.0,528.0
511.0,519.0,509.0,528.0
529.0,488.0,522.0,518.0
537.0,480.0,534.0,512.0
533.0,461.0,539.0,509.0
526.0,476.0,537.0,508.0
509.0,515.0,532.0,509.0
503.0,521.0,519.0,509.0
492.0,546.0,516.0,505.0
491.0,553.0,507.0,506.0
497.0,540.0,501.0,508.0
514.0,501.0,502.0,509.0
512.0,508.0,499.0,515.0
514.0,511.0,499.0,516.0
505.0,540.0,496.0,522.0
510.0,544.0,496.0,525.0
515.0,523.0,504.0,526.0
513.0,518.0,506.0,524.0
519.0,500.0,516.0,518.0
538.0,463.0,525.0,515.0
538.0,459.0,533.0,507.0
531.0,468.0,534.0,508.0
530.0,471.0,525.0,508.0
515.0,493.0,522.0,510.0
504.0,482.0,519.0,512.0
497.0,508.0,516.0,510.0
501.0,520.0,507.0,510.0
510.0,516.0,506.0,512.0
530.0,484.0,505.0,514.0
534.0,487.0,501.0,514.0
524.0,504.0,507.0,523.0
509.0,519.0,503.0,526.0
508.0,517.0,495.0,525.0
503.0,518.0,506.0,531.0
518.0,488.0,512.0,528.0
520.0,505.0,528.0,527.0
533.0,493.0,527.0,514.0
531.0,487.0,520.0,503.0
525.0,500.0,534.0,514.0
502.0,534.0,536.0,513.0
495.0,534.0,520.0,506.0
495.0,519.0,514.0,504.0
496.0,520.0,514.0,510.0
503.0,537.0,508.0,511.0
517.0,503.0,505.0,511.0
522.0,476.0,502.0,508.0
523.0,472.0,499.0,515.0
507.0,495.0,502.0,523.0
489.0,523.0,496.0,523.0
500.0,530.0,501.0,519.0
497.0,525.0,504.0,520.0
502.0,517.0,511.0,517.0
520.0,507.0,519.0,514.0
535.0,494.0,527.0,510.0
533.0,465.0,526.0,507.0
532.0,463.0,529.0,505.0
509.0,527.0,524.0,509.0
502.0,551.0,518.0,512.0
491.0,565.0,515.0,514.0
493.0,550.0,509.0,515.0
503.0,504.0,507.0,517.0
519.0,483.0,511.0,518.0
523.0,497.0,510.0,520.0
520.0,508.0,507.0,517.0
506.0,539.0,499.0,521.0
499.0,544.0,496.0,522.0
505.0,522.0,503.0,519.0
509.0,513.0,506.0,516.0
517.0,518.0,514.0,512.0
532.0,454.0,522.0,504.0
533.0,453.0,529.0,502.0
530.0,462.0,529.0,502.0
521.0,475.0,526.0,501.0
506.0,500.0,514.0,501.0
496.0,513.0,516.0,505.0
494.0,511.0,517.0,505.0
497.0,497.0,508.0,508.0
510.0,457.0,502.0,509.0
523.0,447.0,506.0,514.0
527.0,473.0,510.0,519.0
522.0,500.0,500.0,522.0
504.0,519.0,497.0,526.0
498.0,527.0,495.0,522.0
495.0,550.0,504.0,526.0
505.0,517.0,510.0,523.0
532.0,492.0,519.0,518.0
545.0,465.0,533.0,514.0
539.0,475.0,537.0,512.0
530.0,487.0,539.0,509.0
514.0,514.0,528.0,509.0
500.0,535.0,519.0,506.0
493.0,554.0,515.0,505.0
503.0,535.0,511.0,505.0
506.0,520.0,504.0,506.0
521.0,516.0,510.0,510.0
523.0,507.0,506.0,513.0
525.0,448.0,492.0,511.0
512.0,495.0,492.0,520.0
500.0,550.0,496.0,524.0
501.0,530.0,498.0,524.0
507.0,536.0,504.0,525.0
511.0,535.0,511.0,519.0
518.0,498.0,524.0,516.0
538.0,468.0,530.0,505.0
535.0,480.0,533.0,507.0
530.0,465.0,535.0,508.0
507.0,485.0,531.0,508.0
505.0,496.0,521.0,508.0
505.0,515.0,517.0,514.0
498.0,524.0,511.0,516.0
504.0,520.0,501.0,521.0
524.0,492.0,503.0,519.0
529.0,475.0,498.0,519.0
524.0,493.0,496.0,517.0
506.0,530.0,494.0,517.0
490.0,583.0,494.0,518.0
496.0,577.0,500.0,517.0
510.0,573.0,506.0,512.0
512.0,564.0,506.0,511.0
533.0,452.0,514.0,508.0
537.0,431.0,521.0,503.0
539.0,442.0,521.0,498.0
528.0,474.0,522.0,499.0
506.0,516.0,515.0,502.0
496.0,531.0,520.0,505.0
489.0,552.0,519.0,503.0
498.0,515.0,516.0,503.0
505.0,501.0,514.0,502.0
523.0,475.0,504.0,505.0
522.0,483.0,497.0,509.0
516.0,498.0,497.0,511.0
505.0,545.0,495.0,511.0
504.0,511.0,498.0,513.0
503.0,518.0,499.0,508.0
504.0,502.0,495.0,498.0
516.0,475.0,501.0,484.0
533.0,452.0,517.0,484.0
530.0,476.0,523.0,491.0
532.0,483.0,518.0,485.0
513.0,520.0,508.0,490.0
500.0,516.0,507.0,500.0
500.0,518.0,507.0,504.0
494.0,513.0,505.0,503.0
501.0,515.0,503.0,511.0
522.0,481.0,500.0,516.0
530.0,467.0,502.0,515.0
535.0,468.0,502.0,525.0
521.0,498.0,498.0,524.0
498.0,544.0,488.0,518.0
499.0,564.0,491.0,512.0
491.0,570.0,503.0,513.0
499.0,537.0,511.0,519.0
513.0,493.0,518.0,517.0
528.0,457.0,518.0,507.0
529.0,460.0,528.0,501.0
528.0,487.0,525.0,507.0
507.0,525.0,521.0,516.0
505.0,531.0,519.0,519.0
507.0,538.0,523.0,519.0
508.0,540.0,525.0,513.0
505.0,524.0,509.0,509.0
521.0,502.0,498.0,505.0
519.0,513.0,501.0,502.0
526.0,459.0,497.0,502.0
516.0,458.0,487.0,504.0
512.0,495.0,490.0,505.0
513.0,504.0,496.0,509.0
511.0,535.0,500.0,513.0
507.0,543.0,504.0,511.0
522.0,482.0,520.0,506.0
525.0,460.0,531.0,506.0
524.0,467.0,535.0,506.0
512.0,472.0,533.0,508.0
503.0,507.0,523.0,504.0
496.0,553.0,515.0,509.0
488.0,561.0,505.0,508.0
490.0,533.0,499.0,505.0
510.0,522.0,497.0,508.0
520.0,505.0,500.0,514.0
523.0,478.0,501.0,521.0
522.0,488.0,497.0,522.0
506.0,524.0,491.0,524.0
504.0,534.0,502.0,525.0
501.0,540.0,506.0,515.0
508.0,495.0,502.0,515.0
516.0,477.0,519.0,510.0
529.0,476.0,536.0,508.0
535.0,484.0,537.0,508.0
530.0,490.0,540.0,514.0
508.0,501.0,540.0,522.0
497.0,492.0,528.0,520.0
497.0,487.0,522.0,515.0
508.0,528.0,518.0,509.0
507.0,580.0,507.0,500.0
525.0,515.0,496.0,500.0
529.0,507.0,489.0,498.0
525.0,531.0,488.0,501.0
515.0,533.0,482.0,505.0
505.0,517.0,489.0,507.0
507.0,502.0,494.0,511.0
508.0,504.0,500.0,513.0
515.0,503.0,512.0,509.0
522.0,493.0,514.0,503.0
530.0,475.0,516.0,497.0
527.0,491.0,525.0,500.0
529.0,523.0,520.0,504.0
499.0,551.0,510.0,507.0
510.0,455.0,512.0,518.0
496.0,548.0,516.0,523.0
491.0,526.0,519.0,528.0
508.0,493.0,525.0,529.0
523.0,487.0,513.0,524.0
525.0,491.0,516.0,526.0
527.0,471.0,509.0,524.0
516.0,487.0,495.0,519.0
506.0,519.0,485.0,514.0
510.0,533.0,487.0,505.0
499.0,551.0,491.0,500.0
496.0,525.0,503.0,515.0
514.0,467.0,522.0,517.0
537.0,427.0,530.0,517.0
535.0,452.0,531.0,519.0
520.0,492.0,530.0,523.0
495.0,527.0,526.0,521.0
492.0,536.0,524.0,517.0
491.0,538.0,531.0,515.0
493.0,522.0,528.0,510.0
505.0,493.0,504.0,509.0
529.0,452.0,511.0,511.0
534.0,480.0,507.0,510.0
525.0,511.0,489.0,509.0
505.0,537.0,477.0,509.0
506.0,524.0,488.0,514.0
505.0,508.0,498.0,516.0
513.0,505.0,507.0,512.0
517.0,493.0,519.0,506.0
528.0,475.0,533.0,505.0
531.0,487.0,531.0,502.0
525.0,499.0,526.0,505.0
513.0,527.0,519.0,504.0
499.0,516.0,510.0,501.0
497.0,520.0,507.0,501.0
490.0,539.0,502.0,504.0
502.0,517.0,497.0,510.0
519.0,481.0,502.0,519.0
522.0,471.0,498.0,524.0
519.0,480.0,499.0,529.0
513.0,504.0,493.0,528.0
505.0,538.0,494.0,530.0
506.0,525.0,500.0,524.0
503.0,520.0,505.0,517.0
509.0,506.0,511.0,515.0
526.0,480.0,516.0,510.0
532.0,458.0,532.0,513.0
525.0,486.0,536.0,514.0
521.0,508.0,532.0,514.0
503.0,530.0,518.0,513.0
504.0,522.0,516.0,515.0
497.0,533.0,519.0,515.0
503.0,510.0,510.0,513.0
508.0,507.0,506.0,517.0
522.0,489.0,519.0,528.0
519.0,492.0,513.0,535.0
514.0,493.0,504.0,534.0
505.0,530.0,489.0,530.0
506.0,544.0,484.0,524.0
515.0,523.0,493.0,520.0
510.0,538.0,502.0,513.0
517.0,516.0,502.0,510.0
529.0,477.0,526.0,511.0
530.0,467.0,536.0,504.0
530.0,459.0,527.0,500.0
508.0,498.0,515.0,499.0
498.0,482.0,514.0,498.0
501.0,504.0,517.0,503.0
499.0,524.0,515.0,502.0
501.0,516.0,510.0,501.0
513.0,520.0,498.0,502.0
521.0,517.0,492.0,508.0
526.0,465.0,490.0,515.0
531.0,472.0,491.0,518.0
506.0,519.0,486.0,521.0
496.0,503.0,491.0,525.0
499.0,479.0,504.0,524.0
510.0,491.0,515.0,524.0
521.0,525.0,520.0,517.0
524.0,529.0,532.0,512.0
517.0,527.0,536.0,505.0
514.0,496.0,530.0,506.0
500.0,538.0,516.0,504.0
491.0,534.0,510.0,504.0
496.0,499.0,512.0,508.0
493.0,524.0,512.0,517.0
493.0,513.0,509.0,520.0
511.0,471.0,514.0,521.0
519.0,467.0,514.0,525.0
515.0,467.0,499.0,522.0
507.0,473.0,492.0,522.0
500.0,502.0,491.0,518.0
513.0,521.0,499.0,517.0
521.0,528.0,500.0,512.0
523.0,519.0,502.0,506.0
529.0,474.0,513.0,503.0
534.0,455.0,527.0,506.0
528.0,452.0,538.0,515.0
519.0,486.0,541.0,520.0
504.0,521.0,530.0,527.0
496.0,538.0,516.0,523.0
497.0,530.0,517.0,522.0
492.0,549.0,512.0,512.0
503.0,532.0,505.0,510.0
517.0,511.0,505.0,511.0
518.0,511.0,494.0,510.0
525.0,480.0,488.0,515.0
515.0,482.0,488.0,516.0
505.0,510.0,495.0,518.0
505.0,535.0,503.0,512.0
508.0,530.0,508.0,513.0
515.0,526.0,519.0,518.0
534.0,482.0,527.0,514.0
535.0,468.0,530.0,505.0
530.0,486.0,527.0,503.0
515.0,508.0,521.0,501.0
497.0,522.0,512.0,500.0
500.0,505.0,510.0,500.0
493.0,514.0,506.0,502.0
498.0,509.0,498.0,504.0
510.0,511.0,495.0,513.0
521.0,493.0,497.0,515.0
521.0,485.0,495.0,523.0
521.0,491.0,497.0,528.0
504.0,514.0,491.0,529.0
503.0,525.0,509.0,528.0
499.0,535.0,517.0,531.0
505.0,504.0,509.0,531.0
521.0,478.0,517.0,521.0
538.0,446.0,537.0,513.0
537.0,469.0,530.0,503.0
523.0,482.0,531.0,499.0
512.0,503.0,532.0,506.0
502.0,516.0,531.0,509.0
501.0,516.0,520.0,511.0
494.0,528.0,513.0,513.0
497.0,532.0,494.0,502.0
518.0,492.0,498.0,507.0
526.0,472.0,501.0,511.0
526.0,465.0,493.0,512.0
518.0,489.0,486.0,518.0
499.0,523.0,487.0,522.0
503.0,521.0,496.0,517.0
504.0,537.0,501.0,514.0
507.0,530.0,511.0,520.0
519.0,501.0,538.0,513.0
526.0,475.0,540.0,512.0
522.0,489.0,533.0,511.0
518.0,505.0,532.0,508.0
493.0,544.0,522.0,516.0
492.0,554.0,514.0,511.0
490.0,548.0,514.0,508.0
494.0,511.0,509.0,512.0
516.0,503.0,508.0,517.0
533.0,478.0,510.0,520.0
526.0,498.0,506.0,520.0
517.0,504.0,499.0,523.0
516.0,487.0,492.0,522.0
508.0,535.0,487.0,523.0
505.0,531.0,493.0,524.0
516.0,496.0,506.0,524.0
518.0,476.0,523.0,527.0
533.0,454.0,540.0,528.0
534.0,452.0,547.0,526.0
531.0,459.0,541.0,518.0
515.0,488.0,525.0,514.0
488.0,539.0,519.0,509.0
494.0,525.0,519.0,502.0
490.0,519.0,524.0,511.0
495.0,506.0,522.0,519.0
510.0,461.0,510.0,517.0
525.0,468.0,497.0,511.0
525.0,486.0,497.0,514.0
526.0,518.0,495.0,513.0
505.0,579.0,491.0,514.0
507.0,558.0,493.0,513.0
512.0,506.0,495.0,510.0
516.0,461.0,499.0,515.0
525.0,460.0,507.0,511.0
535.0,462.0,523.0,510.0
530.0,497.0,541.0,514.0
525.0,475.0,547.0,512.0
518.0,511.0,538.0,512.0
494.0,544.0,522.0,507.0
498.0,516.0,503.0,501.0
495.0,521.0,496.0,499.0
503.0,511.0,493.0,503.0
521.0,481.0,502.0,512.0
528.0,471.0,506.0,516.0
527.0,477.0,505.0,517.0
514.0,506.0,491.0,520.0
499.0,530.0,486.0,520.0
502.0,523.0,487.0,515.0
503.0,511.0,493.0,517.0
518.0,499.0,510.0,521.0
527.0,508.0,526.0,519.0
532.0,489.0,549.0,523.0
523.0,493.0,556.0,525.0
515.0,507.0,535.0,513.0
500.0,521.0,519.0,511.0
502.0,503.0,505.0,501.0
493.0,529.0,499.0,499.0
501.0,516.0,499.0,501.0
512.0,513.0,496.0,503.0
526.0,481.0,516.0,512.0
526.0,470.0,514.0,516.0
522.0,483.0,495.0,517.0
501.0,525.0,487.0,512.0
499.0,540.0,495.0,520.0
503.0,526.0,502.0,514.0
498.0,516.0,494.0,511.0
507.0,493.0,515.0,514.0
537.0,455.0,533.0,521.0
535.0,476.0,545.0,511.0
525.0,486.0,534.0,510.0
511.0,498.0,526.0,511.0
499.0,536.0,531.0,517.0
500.0,570.0,520.0,512.0
489.0,587.0,504.0,506.0
506.0,579.0,508.0,509.0
523.0,503.0,501.0,508.0
536.0,426.0,499.0,504.0
527.0,459.0,500.0,515.0
523.0,464.0,497.0,517.0
504.0,519.0,495.0,522.0
504.0,530.0,495.0,522.0
507.0,511.0,496.0,525.0
514.0,498.0,507.0,533.0
516.0,481.0,517.0,530.0
531.0,447.0,533.0,524.0
526.0,454.0,549.0,523.0
516.0,468.0,544.0,521.0
501.0,498.0,526.0,515.0
493.0,480.0,522.0,512.0
491.0,526.0,521.0,513.0
504.0,546.0,502.0,501.0
502.0,537.0,492.0,502.0
527.0,473.0,498.0,506.0
529.0,484.0,500.0,506.0
524.0,517.0,497.0,509.0
516.0,525.0,491.0,511.0
504.0,538.0,491.0,518.0
512.0,518.0,501.0,523.0
505.0,527.0,499.0,524.0
507.0,521.0,508.0,520.0
520.0,494.0,526.0,522.0
532.0,466.0,535.0,519.0
527.0,462.0,537.0,518.0
523.0,463.0,528.0,511.0
506.0,489.0,515.0,508.0
506.0,513.0,517.0,507.0
496.0,542.0,517.0,516.0
499.0,525.0,527.0,515.0
509.0,527.0,519.0,517.0
529.0,494.0,513.0,514.0
528.0,507.0,503.0,514.0
519.0,510.0,503.0,522.0
503.0,515.0,493.0,519.0
490.0,521.0,492.0,517.0
495.0,518.0,492.0,508.0
502.0,515.0,497.0,505.0
517.0,496.0,515.0,508.0
532.0,471.0,526.0,508.0
533.0,487.0,523.0,501.0
527.0,461.0,533.0,502.0
515.0,472.0,528.0,502.0
491.0,513.0,523.0,508.0
498.0,520.0,512.0,510.0
492.0,551.0,505.0,507.0
502.0,535.0,507.0,512.0
516.0,509.0,505.0,511.0
523.0,493.0,504.0,515.0
525.0,474.0,503.0,523.0
518.0,500.0,501.0,524.0
499.0,528.0,504.0,526.0
502.0,508.0,499.0,527.0
501.0,526.0,500.0,521.0
505.0,521.0,506.0,515.0
516.0,500.0,520.0,514.0
525.0,482.0,532.0,508.0
520.0,481.0,545.0,513.0
532.0,464.0,535.0,513.0
513.0,513.0,523.0,509.0
500.0,506.0,518.0,505.0
501.0,508.0,511.0,506.0
491.0,560.0,510.0,508.0
494.0,555.0,508.0,512.0
518.0,493.0,508.0,515.0
522.0,496.0,507.0,520.0
527.0,459.0,499.0,526.0
514.0,496.0,495.0,527.0
497.0,550.0,499.0,529.0
507.0,540.0,503.0,527.0
507.0,517.0,516.0,526.0
511.0,501.0,522.0,519.0
528.0,461.0,523.0,515.0
531.0,456.0,524.0,507.0
520.0,471.0,538.0,506.0
518.0,479.0,529.0,501.0
495.0,513.0,516.0,501.0
492.0,517.0,516.0,500.0
492.0,520.0,503.0,500.0
497.0,518.0,506.0,502.0
512.0,513.0,504.0,508.0
525.0,496.0,500.0,512.0
527.0,492.0,500.0,518.0
527.0,513.0,497.0,519.0
514.0,518.0,489.0,518.0
505.0,506.0,499.0,523.0
507.0,511.0,501.0,522.0
501.0,499.0,506.0,520.0
514.0,486.0,521.0,518.0
527.0,465.0,536.0,513.0
526.0,463.0,533.0,507.0
517.0,479.0,532.0,504.0
505.0,488.0,526.0,507.0
494.0,513.0,519.0,509.0
504.0,512.0,518.0,513.0
496.0,554.0,513.0,510.0
498.0,550.0,507.0,514.0
512.0,510.0,510.0,519.0
525.0,480.0,508.0,523.0
518.0,484.0,505.0,526.0
510.0,495.0,500.0,525.0
499.0,523.0,494.0,522.0
499.0,507.0,497.0,515.0
506.0,503.0,501.0,514.0
518.0,548.0,509.0,514.0
525.0,522.0,517.0,511.0
537.0,466.0,528.0,514.0
531.0,462.0,534.0,510.0
530.0,473.0,531.0,510.0
511.0,526.0,527.0,508.0
496.0,531.0,519.0,509.0
492.0,534.0,518.0,508.0
495.0,530.0,516.0,511.0
506.0,509.0,503.0,510.0
522.0,486.0,506.0,514.0
522.0,487.0,516.0,520.0
519.0,490.0,501.0,518.0
512.0,511.0,493.0,521.0
496.0,535.0,493.0,521.0
514.0,499.0,500.0,525.0
509.0,499.0,501.0,526.0
512.0,482.0,510.0,521.0
524.0,454.0,524.0,519.0
535.0,444.0,534.0,518.0
526.0,473.0,539.0,513.0
515.0,492.0,547.0,520.0
489.0,561.0,534.0,518.0
494.0,541.0,533.0,521.0
496.0,542.0,515.0,514.0
503.0,547.0,507.0,512.0
508.0,513.0,501.0,505.0
522.0,465.0,495.0,505.0
524.0,466.0,491.0,505.0
520.0,478.0,490.0,510.0
508.0,512.0,485.0,514.0
499.0,555.0,486.0,516.0
500.0,543.0,494.0,520.0
499.0,502.0,505.0,520.0
520.0,460.0,519.0,522.0
535.0,458.0,534.0,521.0
530.0,456.0,545.0,523.0
523.0,470.0,555.0,522.0
507.0,483.0,539.0,511.0
498.0,510.0,512.0,498.0
501.0,548.0,499.0,494.0
494.0,554.0,501.0,499.0
494.0,537.0,507.0,510.0
513.0,521.0,505.0,514.0
526.0,495.0,507.0,517.0
521.0,498.0,512.0,523.0
517.0,505.0,499.0,523.0
499.0,531.0,495.0,523.0
504.0,536.0,496.0,516.0
503.0,539.0,498.0,512.0
514.0,519.0,506.0,509.0
520.0,500.0,514.0,508.0
535.0,453.0,526.0,503.0
532.0,452.0,532.0,503.0
524.0,472.0,531.0,508.0
504.0,502.0,527.0,510.0
497.0,511.0,517.0,512.0
502.0,529.0,515.0,507.0
492.0,577.0,508.0,513.0
496.0,564.0,506.0,516.0
526.0,503.0,507.0,517.0
528.0,417.0,504.0,519.0
521.0,455.0,500.0,520.0
513.0,511.0,497.0,521.0
505.0,526.0,497.0,521.0
513.0,511.0,501.0,518.0
511.0,488.0,505.0,518.0
515.0,476.0,512.0,516.0
526.0,452.0,527.0,517.0
528.0,454.0,533.0,521.0
523.0,477.0,545.0,515.0
520.0,522.0,541.0,512.0
502.0,555.0,520.0,510.0
497.0,541.0,513.0,507.0
494.0,532.0,514.0,508.0
499.0,516.0,509.0,508.0
504.0,509.0,505.0,512.0
516.0,474.0,510.0,514.0
516.0,463.0,507.0,522.0
515.0,469.0,508.0,521.0
507.0,515.0,501.0,523.0
506.0,523.0,500.0,520.0
519.0,519.0,504.0,519.0
515.0,510.0,505.0,527.0
519.0,488.0,515.0,519.0
530.0,457.0,528.0,513.0
526.0,482.0,538.0,512.0
524.0,503.0,542.0,511.0
513.0,528.0,534.0,520.0
493.0,542.0,523.0,518.0
506.0,514.0,520.0,517.0
496.0,559.0,508.0,511.0
499.0,557.0,503.0,512.0
516.0,501.0,512.0,514.0
527.0,449.0,514.0,513.0
525.0,470.0,506.0,518.0
523.0,495.0,497.0,515.0
504.0,537.0,488.0,515.0
508.0,519.0,506.0,516.0
508.0,521.0,506.0,509.0
507.0,526.0,508.0,509.0
520.0,483.0,519.0,510.0
538.0,459.0,530.0,511.0
531.0,460.0,534.0,505.0
522.0,467.0,536.0,511.0
502.0,520.0,521.0,507.0
497.0,524.0,517.0,504.0
493.0,525.0,517.0,513.0
486.0,536.0,513.0,516.0
491.0,531.0,507.0,518.0
516.0,492.0,514.0,518.0
520.0,507.0,513.0,515.0
526.0,498.0,492.0,513.0
523.0,482.0,490.0,513.0
510.0,497.0,490.0,511.0
508.0,509.0,496.0,509.0
507.0,520.0,499.0,509.0
509.0,515.0,508.0,516.0
520.0,498.0,520.0,511.0
529.0,487.0,537.0,507.0
529.0,469.0,536.0,509.0
517.0,483.0,531.0,507.0
497.0,514.0,520.0,511.0
502.0,505.0,517.0,507.0
498.0,505.0,519.0,515.0
499.0,506.0,514.0,514.0
505.0,487.0,506.0,511.0
520.0,466.0,508.0,511.0
517.0,488.0,504.0,513.0
517.0,499.0,494.0,518.0
502.0,541.0,492.0,520.0
498.0,545.0,498.0,517.0
510.0,513.0,503.0,521.0
511.0,508.0,512.0,522.0
520.0,503.0,518.0,520.0
536.0,482.0,529.0,517.0
527.0,484.0,536.0,513.0
518.0,496.0,538.0,511.0
511.0,499.0,531.0,508.0
490.0,536.0,521.0,509.0
498.0,524.0,518.0,507.0
499.0,528.0,511.0,506.0
510.0,534.0,503.0,512.0
515.0,505.0,513.0,519.0
520.0,507.0,519.0,526.0
517.0,506.0,520.0,523.0
518.0,467.0,500.0,523.0
495.0,538.0,496.0,523.0
500.0,530.0,498.0,519.0
503.0,544.0,501.0,509.0
511.0,500.0,507.0,506.0
521.0,424.0,514.0,505.0
532.0,431.0,526.0,504.0
529.0,462.0,531.0,503.0
523.0,474.0,526.0,504.0
504.0,504.0,522.0,507.0
498.0,527.0,512.0,506.0
501.0,533.0,512.0,507.0
493.0,539.0,507.0,509.0
498.0,515.0,506.0,510.0
522.0,484.0,507.0,515.0
526.0,476.0,501.0,515.0
527.0,473.0,501.0,518.0
518.0,497.0,498.0,520.0
502.0,534.0,495.0,522.0
501.0,529.0,503.0,517.0
498.0,533.0,511.0,516.0
506.0,505.0,518.0,522.0
528.0,493.0,526.0,511.0
532.0,484.0,530.0,511.0
525.0,469.0,533.0,513.0
513.0,492.0,531.0,513.0
496.0,511.0,522.0,510.0
504.0,483.0,517.0,511.0
503.0,514.0,513.0,510.0
503.0,533.0,512.0,510.0
507.0,524.0,511.0,518.0
520.0,499.0,514.0,521.0
519.0,490.0,514.0,521.0
516.0,500.0,505.0,519.0
502.0,523.0,495.0,513.0
501.0,512.0,495.0,513.0
508.0,519.0,502.0,507.0
511.0,505.0,506.0,510.0
524.0,498.0,509.0,504.0
536.0,478.0,526.0,505.0
527.0,497.0,535.0,510.0
519.0,484.0,530.0,513.0
503.0,521.0,524.0,510.0
496.0,528.0,521.0,507.0
501.0,513.0,517.0,509.0
496.0,521.0,520.0,515.0
501.0,516.0,509.0,516.0
516.0,483.0,503.0,513.0
519.0,474.0,506.0,516.0
520.0,477.0,501.0,520.0
514.0,486.0,496.0,524.0
495.0,520.0,494.0,530.0
504.0,522.0,499.0,531.0
507.0,519.0,506.0,522.0
518.0,524.0,520.0,519.0
524.0,504.0,540.0,518.0
533.0,479.0,539.0,509.0
524.0,477.0,532.0,503.0
520.0,468.0,518.0,496.0
502.0,501.0,516.0,497.0
497.0,518.0,514.0,501.0
496.0,522.0,512.0,501.0
496.0,534.0,506.0,504.0
500.0,522.0,504.0,505.0
516.0,496.0,505.0,511.0
519.0,499.0,502.0,513.0
523.0,477.0,495.0,517.0
509.0,517.0,487.0,521.0
499.0,531.0,495.0,523.0
509.0,479.0,500.0,517.0
503.0,508.0,510.0,522.0
510.0,506.0,520.0,517.0
522.0,478.0,529.0,517.0
524.0,479.0,539.0,514.0
518.0,478.0,537.0,512.0
508.0,498.0,530.0,514.0
490.0,516.0,524.0,515.0
486.0,525.0,522.0,516.0
493.0,518.0,517.0,517.0
500.0,514.0,519.0,508.0
511.0,496.0,505.0,504.0
536.0,474.0,502.0,506.0
533.0,492.0,498.0,512.0
526.0,489.0,491.0,514.0
507.0,527.0,485.0,516.0
502.0,529.0,488.0,519.0
506.0,514.0,497.0,515.0
507.0,508.0,505.0,519.0
514.0,490.0,514.0,515.0
531.0,461.0,535.0,514.0
531.0,446.0,545.0,513.0
527.0,454.0,542.0,510.0
516.0,488.0,531.0,507.0
496.0,521.0,518.0,506.0
500.0,519.0,517.0,507.0
490.0,557.0,514.0,506.0
488.0,569.0,505.0,511.0
508.0,531.0,503.0,512.0
521.0,480.0,504.0,514.0
516.0,471.0,503.0,516.0
520.0,452.0,501.0,526.0
506.0,513.0,496.0,530.0
498.0,552.0,502.0,524.0
506.0,527.0,508.0,520.0
508.0,503.0,516.0,517.0
521.0,489.0,513.0,509.0
528.0,479.0,528.0,506.0
528.0,478.0,534.0,506.0
525.0,468.0,530.0,502.0
504.0,513.0,521.0,504.0
498.0,517.0,517.0,507.0
502.0,514.0,512.0,500.0
500.0,512.0,507.0,506.0
504.0,513.0,504.0,508.0
523.0,468.0,507.0,514.0
522.0,470.0,512.0,521.0
521.0,484.0,503.0,524.0
509.0,520.0,498.0,523.0
501.0,542.0,498.0,522.0
504.0,506.0,500.0,519.0
501.0,512.0,505.0,514.0
514.0,490.0,507.0,513.0
532.0,454.0,527.0,510.0
532.0,484.0,531.0,509.0
520.0,508.0,535.0,510.0
513.0,515.0,531.0,511.0
494.0,541.0,521.0,511.0
498.0,520.0,519.0,507.0
496.0,515.0,517.0,509.0
498.0,534.0,505.0,509.0
504.0,520.0,504.0,517.0
522.0,469.0,507.0,520.0
525.0,479.0,508.0,521.0
523.0,489.0,505.0,526.0
506.0,519.0,502.0,522.0
497.0,531.0,499.0,519.0
503.0,522.0,501.0,510.0
505.0,512.0,501.0,512.0
512.0,497.0,511.0,507.0
530.0,462.0,528.0,509.0
528.0,462.0,539.0,504.0
520.0,483.0,534.0,507.0
503.0,525.0,532.0,516.0
490.0,538.0,520.0,516.0
499.0,524.0,515.0,515.0
497.0,503.0,512.0,514.0
497.0,480.0,514.0,519.0
517.0,483.0,514.0,521.0
529.0,502.0,519.0,518.0
532.0,507.0,504.0,517.0
521.0,513.0,492.0,521.0
502.0,532.0,485.0,516.0
505.0,516.0,492.0,512.0
504.0,504.0,498.0,514.0
513.0,505.0,509.0,508.0
521.0,516.0,523.0,507.0
535.0,464.0,529.0,508.0
531.0,453.0,534.0,509.0
521.0,464.0,536.0,510.0
503.0,514.0,528.0,508.0
491.0,536.0,510.0,505.0
499.0,527.0,508.0,515.0
499.0,528.0,510.0,517.0
504.0,531.0,504.0,514.0
524.0,501.0,506.0,515.0
526.0,492.0,511.0,519.0
524.0,492.0,506.0,518.0
519.0,497.0,492.0,517.0
507.0,524.0,489.0,520.0
507.0,520.0,496.0,519.0
504.0,526.0,504.0,518.0
511.0,509.0,518.0,519.0
527.0,477.0,526.0,514.0
532.0,468.0,538.0,510.0
527.0,474.0,543.0,511.0
519.0,489.0,531.0,509.0
497.0,529.0,518.0,505.0
501.0,527.0,513.0,506.0
495.0,533.0,512.0,506.0
500.0,527.0,505.0,509.0
508.0,499.0,505.0,512.0
524.0,459.0,505.0,518.0
522.0,474.0,507.0,520.0
519.0,502.0,501.0,529.0
499.0,550.0,501.0,519.0
498.0,544.0,497.0,516.0
509.0,458.0,505.0,517.0
513.0,468.0,518.0,515.0
517.0,466.0,522.0,512.0
536.0,463.0,530.0,507.0
540.0,467.0,531.0,510.0
528.0,484.0,535.0,511.0
514.0,506.0,522.0,509.0
501.0,532.0,514.0,503.0
499.0,533.0,511.0,503.0
496.0,530.0,513.0,513.0
500.0,529.0,510.0,512.0
513.0,494.0,514.0,519.0
519.0,483.0,514.0,518.0
519.0,485.0,507.0,522.0
509.0,486.0,492.0,520.0
485.0,524.0,485.0,519.0
495.0,510.0,508.0,521.0
495.0,508.0,504.0,519.0
500.0,514.0,505.0,515.0
518.0,504.0,522.0,510.0
544.0,485.0,531.0,504.0
544.0,476.0,531.0,503.0
526.0,493.0,531.0,502.0
503.0,525.0,523.0,505.0
494.0,535.0,519.0,505.0
495.0,539.0,512.0,503.0
494.0,569.0,506.0,503.0
494.0,573.0,499.0,506.0
515.0,518.0,505.0,511.0
524.0,478.0,505.0,516.0
533.0,435.0,500.0,519.0
521.0,472.0,496.0,522.0
505.0,496.0,496.0,522.0
513.0,478.0,501.0,519.0
507.0,513.0,506.0,516.0
511.0,518.0,515.0,516.0
516.0,461.0,529.0,517.0
524.0,453.0,539.0,516.0
526.0,454.0,538.0,511.0
520.0,500.0,533.0,511.0
500.0,547.0,521.0,506.0
498.0,541.0,516.0,507.0
496.0,536.0,513.0,507.0
500.0,524.0,504.0,512.0
510.0,509.0,503.0,511.0
522.0,485.0,505.0,511.0
524.0,483.0,501.0,516.0
521.0,496.0,498.0,518.0
500.0,532.0,491.0,523.0
503.0,524.0,496.0,521.0
506.0,510.0,505.0,516.0
508.0,514.0,507.0,517.0
509.0,495.0,517.0,516.0
529.0,459.0,530.0,513.0
528.0,461.0,536.0,513.0
526.0,484.0,540.0,512.0
514.0,520.0,529.0,510.0
490.0,538.0,520.0,513.0
497.0,516.0,521.0,512.0
497.0,509.0,515.0,512.0
505.0,516.0,506.0,511.0
516.0,503.0,504.0,510.0
518.0,511.0,504.0,513.0
519.0,512.0,504.0,524.0
508.0,519.0,499.0,527.0
503.0,495.0,506.0,524.0
511.0,467.0,502.0,517.0
514.0,496.0,508.0,518.0
507.0,525.0,513.0,513.0
520.0,509.0,518.0,508.0
529.0,473.0,530.0,510.0
527.0,473.0,534.0,507.0
522.0,477.0,536.0,509.0
497.0,521.0,524.0,505.0
495.0,521.0,519.0,500.0
500.0,519.0,514.0,496.0
497.0,514.0,507.0,501.0
501.0,506.0,501.0,515.0
524.0,465.0,508.0,523.0
528.0,475.0,502.0,522.0
525.0,487.0,501.0,528.0
512.0,507.0,490.0,536.0
499.0,536.0,493.0,526.0
504.0,536.0,510.0,521.0
500.0,532.0,515.0,523.0
511.0,512.0,521.0,517.0
524.0,482.0,538.0,513.0
529.0,475.0,531.0,508.0
525.0,476.0,526.0,500.0
514.0,497.0,522.0,504.0
491.0,533.0,514.0,505.0
491.0,532.0,513.0,502.0
506.0,518.0,515.0,505.0
499.0,522.0,504.0,505.0
510.0,489.0,502.0,507.0
520.0,490.0,507.0,513.0
517.0,492.0,501.0,517.0
516.0,505.0,505.0,523.0
501.0,532.0,498.0,525.0
502.0,537.0,505.0,527.0
506.0,517.0,506.0,531.0
512.0,489.0,510.0,524.0
514.0,492.0,529.0,521.0
530.0,471.0,533.0,521.0
531.0,467.0,535.0,509.0
523.0,472.0,529.0,506.0
506.0,502.0,520.0,505.0
494.0,519.0,519.0,502.0
504.0,518.0,514.0,499.0
501.0,554.0,501.0,495.0
502.0,537.0,499.0,505.0
525.0,449.0,502.0,516.0
526.0,462.0,504.0,515.0
523.0,456.0,508.0,520.0
517.0,501.0,497.0,518.0
492.0,553.0,500.0,517.0
495.0,537.0,498.0,517.0
504.0,532.0,499.0,518.0
505.0,508.0,506.0,518.0
516.0,483.0,521.0,514.0
530.0,457.0,533.0,512.0
525.0,466.0,536.0,508.0
518.0,484.0,536.0,513.0
499.0,525.0,534.0,513.0
491.0,537.0,522.0,507.0
499.0,516.0,516.0,510.0
503.0,504.0,510.0,510.0
507.0,502.0,500.0,513.0
523.0,490.0,506.0,514.0
521.0,494.0,501.0,518.0
524.0,511.0,503.0,521.0
506.0,535.0,498.0,526.0
497.0,555.0,500.0,523.0
507.0,509.0,503.0,520.0
504.0,503.0,502.0,518.0
509.0,505.0,512.0,517.0
527.0,479.0,540.0,520.0
527.0,474.0,540.0,517.0
521.0,481.0,538.0,510.0
512.0,509.0,534.0,508.0
495.0,538.0,519.0,506.0
503.0,522.0,507.0,503.0
507.0,514.0,508.0,501.0
498.0,526.0,504.0,503.0
511.0,494.0,500.0,509.0
524.0,461.0,503.0,516.0
519.0,471.0,502.0,516.0
519.0,494.0,499.0,524.0
500.0,532.0,495.0,525.0
494.0,537.0,501.0,521.0
504.0,524.0,503.0,515.0
508.0,522.0,506.0,510.0
516.0,501.0,517.0,511.0
531.0,478.0,530.0,513.0
525.0,476.0,536.0,513.0
523.0,452.0,534.0,514.0
503.0,479.0,527.0,515.0
490.0,507.0,517.0,512.0
493.0,529.0,511.0,509.0
499.0,522.0,512.0,510.0
501.0,517.0,507.0,515.0
518.0,479.0,507.0,513.0
527.0,466.0,505.0,516.0
527.0,461.0,505.0,516.0
509.0,474.0,494.0,518.0
486.0,502.0,494.0,517.0
491.0,508.0,499.0,518.0
506.0,528.0,501.0,514.0
501.0,577.0,509.0,514.0
516.0,535.0,521.0,518.0
537.0,516.0,530.0,512.0
542.0,467.0,529.0,509.0
530.0,458.0,531.0,506.0
501.0,517.0,522.0,508.0
497.0,527.0,521.0,510.0
501.0,520.0,515.0,509.0
500.0,519.0,511.0,507.0
497.0,519.0,507.0,515.0
519.0,481.0,506.0,514.0
518.0,485.0,502.0,515.0
514.0,495.0,499.0,522.0
502.0,518.0,495.0,524.0
503.0,521.0,499.0,526.0
513.0,503.0,508.0,529.0
514.0,499.0,511.0,525.0
514.0,500.0,517.0,517.0
530.0,479.0,529.0,511.0
531.0,485.0,538.0,509.0
529.0,512.0,527.0,502.0
513.0,530.0,522.0,507.0
497.0,531.0,520.0,509.0
504.0,497.0,520.0,511.0
501.0,509.0,512.0,511.0
503.0,500.0,507.0,514.0
512.0,487.0,502.0,517.0
528.0,474.0,503.0,518.0
522.0,486.0,501.0,516.0
519.0,491.0,501.0,520.0
501.0,531.0,498.0,520.0
504.0,535.0,497.0,514.0
506.0,523.0,500.0,514.0
507.0,515.0,502.0,513.0
513.0,497.0,515.0,517.0
525.0,478.0,528.0,513.0
526.0,496.0,532.0,515.0
521.0,488.0,536.0,515.0
506.0,471.0,533.0,521.0
493.0,474.0,523.0,511.0
505.0,486.0,515.0,502.0
495.0,532.0,507.0,501.0
502.0,525.0,492.0,504.0
521.0,482.0,497.0,508.0
527.0,484.0,500.0,516.0
524.0,483.0,502.0,520.0
517.0,511.0,499.0,524.0
504.0,540.0,505.0,527.0
502.0,515.0,507.0,526.0
510.0,503.0,507.0,517.0
512.0,521.0,505.0,511.0
525.0,492.0,521.0,509.0
536.0,468.0,531.0,507.0
525.0,467.0,528.0,510.0
522.0,471.0,529.0,508.0
499.0,510.0,521.0,510.0
496.0,552.0,513.0,511.0
498.0,529.0,510.0,510.0
501.0,520.0,509.0,511.0
509.0,514.0,518.0,515.0
524.0,481.0,514.0,514.0
524.0,479.0,494.0,511.0
518.0,487.0,493.0,517.0
501.0,542.0,490.0,521.0
501.0,536.0,496.0,520.0
506.0,525.0,500.0,518.0
503.0,525.0,508.0,517.0
514.0,469.0,513.0,517.0
531.0,457.0,527.0,511.0
535.0,449.0,533.0,509.0
532.0,465.0,536.0,506.0
512.0,503.0,532.0,514.0
490.0,541.0,524.0,512.0
489.0,529.0,512.0,511.0
499.0,498.0,509.0,512.0
511.0,511.0,505.0,516.0
514.0,519.0,511.0,517.0
525.0,499.0,513.0,521.0
521.0,488.0,509.0,526.0
515.0,483.0,508.0,527.0
506.0,517.0,499.0,518.0
498.0,509.0,493.0,513.0
505.0,522.0,495.0,511.0
504.0,512.0,511.0,513.0
513.0,488.0,517.0,514.0
527.0,452.0,531.0,513.0
526.0,465.0,534.0,512.0
522.0,487.0,530.0,510.0
504.0,527.0,522.0,510.0
490.0,542.0,514.0,507.0
492.0,534.0,517.0,503.0
493.0,530.0,512.0,509.0
494.0,536.0,504.0,513.0
517.0,497.0,507.0,512.0
525.0,468.0,502.0,515.0
526.0,470.0,503.0,521.0
517.0,496.0,497.0,520.0
505.0,529.0,494.0,516.0
503.0,523.0,499.0,517.0
510.0,510.0,507.0,519.0
509.0,504.0,511.0,516.0
518.0,479.0,522.0,513.0
523.0,471.0,530.0,515.0
521.0,494.0,532.0,510.0
513.0,515.0,529.0,509.0
489.0,534.0,519.0,510.0
493.0,525.0,520.0,510.0
500.0,465.0,528.0,510.0
498.0,513.0,518.0,509.0
504.0,516.0,500.0,508.0
524.0,482.0,500.0,512.0
524.0,484.0,496.0,517.0
527.0,489.0,499.0,519.0
516.0,514.0,492.0,521.0
500.0,532.0,493.0,519.0
505.0,523.0,501.0,516.0
509.0,523.0,506.0,521.0
513.0,506.0,520.0,520.0
528.0,471.0,540.0,521.0
532.0,463.0,537.0,525.0
526.0,470.0,532.0,513.0
515.0,502.0,528.0,509.0
499.0,536.0,516.0,501.0
494.0,534.0,508.0,494.0
500.0,523.0,503.0,493.0
496.0,528.0,500.0,502.0
508.0,511.0,503.0,516.0
520.0,490.0,501.0,514.0
520.0,484.0,502.0,513.0
516.0,482.0,497.0,521.0
503.0,512.0,496.0,518.0
503.0,508.0,503.0,518.0
508.0,508.0,504.0,516.0
511.0,529.0,510.0,515.0
516.0,490.0,519.0,512.0
531.0,453.0,530.0,509.0
528.0,473.0,531.0,504.0
521.0,485.0,529.0,509.0
509.0,503.0,523.0,507.0
490.0,520.0,518.0,510.0
492.0,515.0,512.0,509.0
490.0,519.0,511.0,509.0
493.0,517.0,505.0,517.0
513.0,485.0,504.0,518.0
521.0,481.0,502.0,520.0
528.0,491.0,502.0,516.0
524.0,505.0,494.0,516.0
508.0,521.0,498.0,523.0
506.0,517.0,502.0,521.0
506.0,527.0,505.0,519.0
511.0,515.0,512.0,516.0
526.0,480.0,529.0,514.0
532.0,469.0,534.0,513.0
526.0,477.0,537.0,510.0
515.0,479.0,533.0,510.0
494.0,524.0,521.0,513.0
494.0,479.0,523.0,512.0
500.0,464.0,513.0,513.0
490.0,492.0,508.0,510.0
502.0,488.0,502.0,510.0
520.0,504.0,503.0,517.0
523.0,518.0,503.0,520.0
520.0,506.0,499.0,523.0
499.0,535.0,490.0,521.0
496.0,532.0,488.0,514.0
512.0,519.0,494.0,512.0
515.0,538.0,496.0,513.0
514.0,522.0,512.0,513.0
531.0,475.0,537.0,512.0
537.0,451.0,541.0,507.0
528.0,479.0,530.0,500.0
514.0,516.0,523.0,509.0
495.0,551.0,515.0,510.0
499.0,537.0,514.0,504.0
494.0,526.0,513.0,508.0
497.0,537.0,505.0,506.0
508.0,508.0,507.0,515.0
519.0,483.0,506.0,519.0
522.0,463.0,501.0,515.0
520.0,472.0,491.0,518.0
500.0,548.0,495.0,521.0
499.0,536.0,504.0,522.0
510.0,516.0,510.0,523.0
514.0,514.0,515.0,524.0
520.0,501.0,520.0,519.0
532.0,475.0,531.0,511.0
530.0,478.0,534.0,508.0
523.0,492.0,527.0,505.0
504.0,519.0,524.0,503.0
494.0,513.0,518.0,504.0
499.0,511.0,515.0,499.0
502.0,498.0,505.0,503.0
500.0,502.0,501.0,509.0
515.0,480.0,504.0,513.0
520.0,485.0,505.0,518.0
515.0,529.0,500.0,524.0
505.0,561.0,499.0,528.0
497.0,578.0,505.0,530.0
508.0,558.0,511.0,526.0
523.0,441.0,508.0,517.0
518.0,467.0,505.0,512.0
525.0,466.0,520.0,511.0
534.0,454.0,531.0,509.0
532.0,465.0,532.0,507.0
521.0,472.0,530.0,503.0
507.0,502.0,521.0,505.0
499.0,511.0,516.0,505.0
500.0,520.0,515.0,506.0
498.0,520.0,517.0,515.0
506.0,524.0,511.0,518.0
524.0,490.0,513.0,523.0
526.0,471.0,507.0,527.0
523.0,485.0,502.0,521.0
506.0,518.0,494.0,517.0
499.0,528.0,501.0,518.0
503.0,513.0,505.0,516.0
512.0,501.0,507.0,507.0
509.0,501.0,504.0,508.0
526.0,465.0,525.0,504.0
530.0,474.0,528.0,507.0
523.0,484.0,527.0,502.0
512.0,499.0,521.0,504.0
495.0,518.0,513.0,502.0
492.0,511.0,512.0,500.0
500.0,498.0,510.0,503.0
495.0,508.0,501.0,509.0
513.0,484.0,501.0,511.0
525.0,493.0,503.0,512.0
528.0,506.0,501.0,520.0
525.0,514.0,499.0,524.0
498.0,543.0,503.0,524.0
500.0,532.0,498.0,523.0
503.0,522.0,497.0,520.0
512.0,497.0,503.0,519.0
524.0,484.0,517.0,515.0
532.0,453.0,531.0,516.0
528.0,461.0,536.0,515.0
521.0,482.0,536.0,508.0
505.0,514.0,525.0,507.0
499.0,518.0,516.0,504.0
505.0,528.0,513.0,501.0
506.0,530.0,507.0,503.0
501.0,525.0,502.0,506.0
519.0,490.0,508.0,509.0
524.0,493.0,505.0,512.0
520.0,494.0,500.0,514.0
510.0,524.0,496.0,518.0
499.0,524.0,498.0,518.0
500.0,513.0,503.0,518.0
509.0,506.0,508.0,518.0
508.0,498.0,514.0,513.0
524.0,471.0,520.0,517.0
533.0,458.0,532.0,515.0
526.0,464.0,534.0,514.0
519.0,487.0,526.0,514.0
499.0,529.0,524.0,510.0
504.0,527.0,523.0,511.0
505.0,516.0,522.0,502.0
494.0,530.0,510.0,514.0
506.0,500.0,504.0,516.0
520.0,487.0,507.0,517.0
519.0,490.0,501.0,517.0
517.0,500.0,499.0,517.0
511.0,560.0,495.0,520.0
503.0,528.0,498.0,520.0
505.0,501.0,504.0,516.0
509.0,489.0,508.0,514.0
509.0,492.0,518.0,515.0
528.0,471.0,528.0,512.0
526.0,484.0,531.0,509.0
524.0,499.0,535.0,508.0
509.0,516.0,527.0,506.0
487.0,559.0,515.0,508.0
497.0,518.0,517.0,511.0
492.0,513.0,511.0,510.0
490.0,520.0,501.0,515.0
505.0,494.0,503.0,516.0
514.0,471.0,504.0,524.0
513.0,477.0,503.0,522.0
509.0,487.0,505.0,523.0
507.0,521.0,510.0,533.0
513.0,541.0,509.0,528.0
513.0,519.0,503.0,516.0
518.0,499.0,506.0,510.0
529.0,483.0,514.0,507.0
534.0,456.0,528.0,507.0
531.0,466.0,533.0,506.0
524.0,488.0,528.0,503.0
505.0,516.0,512.0,501.0
497.0,517.0,515.0,503.0
496.0,514.0,508.0,506.0
501.0,505.0,508.0,508.0
502.0,503.0,504.0,512.0
521.0,481.0,506.0,515.0
524.0,499.0,504.0,518.0
518.0,507.0,504.0,521.0
504.0,527.0,498.0,523.0
492.0,553.0,495.0,525.0
504.0,523.0,504.0,521.0
513.0,490.0,509.0,520.0
514.0,500.0,520.0,522.0
529.0,474.0,530.0,520.0
533.0,468.0,538.0,518.0
528.0,482.0,536.0,508.0
517.0,496.0,524.0,498.0
499.0,532.0,511.0,499.0
499.0,529.0,510.0,498.0
500.0,520.0,507.0,503.0
503.0,517.0,499.0,503.0
509.0,496.0,503.0,509.0
525.0,471.0,506.0,511.0
525.0,473.0,503.0,516.0
523.0,479.0,496.0,517.0
505.0,513.0,485.0,528.0
489.0,533.0,490.0,520.0
510.0,493.0,490.0,514.0
518.0,472.0,509.0,517.0
520.0,496.0,528.0,518.0
523.0,503.0,541.0,517.0
523.0,488.0,549.0,512.0
524.0,485.0,538.0,507.0
510.0,501.0,523.0,503.0
496.0,532.0,513.0,507.0
493.0,527.0,519.0,511.0
499.0,516.0,519.0,510.0
498.0,525.0,505.0,503.0
518.0,498.0,500.0,502.0
523.0,476.0,505.0,511.0
525.0,483.0,505.0,524.0
519.0,496.0,500.0,523.0
501.0,518.0,502.0,523.0
506.0,516.0,500.0,525.0
510.0,508.0,508.0,518.0
512.0,518.0,508.0,515.0
516.0,520.0,519.0,511.0
527.0,483.0,529.0,513.0
521.0,484.0,530.0,508.0
521.0,483.0,530.0,506.0
507.0,493.0,520.0,505.0
488.0,521.0,516.0,510.0
494.0,528.0,521.0,510.0
505.0,505.0,513.0,515.0
505.0,512.0,513.0,525.0
523.0,469.0,519.0,526.0
525.0,470.0,509.0,522.0
524.0,485.0,500.0,519.0
515.0,506.0,489.0,512.0
504.0,534.0,488.0,511.0
507.0,539.0,492.0,509.0
504.0,533.0,500.0,509.0
509.0,523.0,506.0,508.0
525.0,495.0,522.0,507.0
524.0,463.0,532.0,509.0
518.0,459.0,533.0,507.0
514.0,495.0,530.0,505.0
495.0,535.0,519.0,508.0
501.0,528.0,519.0,507.0
501.0,500.0,511.0,502.0
506.0,487.0,503.0,510.0
511.0,506.0,500.0,515.0
521.0,486.0,507.0,517.0
519.0,488.0,498.0,522.0
515.0,518.0,503.0,529.0
497.0,543.0,500.0,533.0
500.0,525.0,510.0,538.0
506.0,513.0,517.0,525.0
507.0,511.0,509.0,518.0
516.0,501.0,513.0,510.0
531.0,467.0,523.0,509.0
530.0,464.0,529.0,503.0
524.0,477.0,531.0,504.0
511.0,502.0,527.0,506.0
495.0,515.0,516.0,504.0
492.0,537.0,511.0,505.0
496.0,539.0,508.0,506.0
498.0,556.0,503.0,512.0
516.0,498.0,504.0,515.0
526.0,445.0,509.0,520.0
522.0,459.0,507.0,522.0
517.0,492.0,501.0,520.0
499.0,528.0,497.0,519.0
501.0,528.0,498.0,518.0
502.0,519.0,501.0,516.0
504.0,511.0,513.0,518.0
519.0,490.0,522.0,515.0
535.0,471.0,531.0,515.0
528.0,472.0,538.0,514.0
521.0,475.0,532.0,506.0
501.0,513.0,517.0,496.0
494.0,520.0,517.0,509.0
497.0,519.0,512.0,511.0
498.0,520.0,507.0,510.0
504.0,508.0,505.0,514.0
517.0,476.0,505.0,512.0
517.0,478.0,506.0,516.0
508.0,492.0,506.0,522.0
502.0,526.0,498.0,526.0
493.0,523.0,502.0,524.0
500.0,520.0,506.0,526.0
511.0,500.0,509.0,521.0
521.0,497.0,520.0,520.0
535.0,476.0,532.0,517.0
532.0,463.0,536.0,511.0
531.0,470.0,536.0,507.0
521.0,494.0,524.0,500.0
504.0,526.0,513.0,498.0
498.0,523.0,511.0,503.0
494.0,526.0,512.0,505.0
498.0,519.0,506.0,507.0
507.0,501.0,501.0,510.0
528.0,480.0,499.0,517.0
525.0,488.0,500.0,521.0
520.0,495.0,501.0,524.0
503.0,521.0,500.0,526.0
502.0,520.0,506.0,525.0
506.0,507.0,507.0,519.0
508.0,494.0,511.0,517.0
510.0,489.0,515.0,515.0
531.0,462.0,524.0,511.0
536.0,481.0,530.0,506.0
529.0,484.0,536.0,509.0
509.0,521.0,524.0,511.0
491.0,551.0,516.0,513.0
497.0,526.0,518.0,510.0
502.0,524.0,517.0,515.0
497.0,533.0,516.0,518.0
520.0,492.0,509.0,516.0
525.0,477.0,505.0,513.0
522.0,486.0,504.0,519.0
518.0,492.0,498.0,525.0
503.0,527.0,493.0,522.0
502.0,536.0,497.0,518.0
505.0,521.0,501.0,511.0
512.0,508.0,508.0,507.0
520.0,498.0,520.0,511.0
533.0,463.0,532.0,513.0
530.0,460.0,535.0,509.0
525.0,469.0,531.0,508.0
501.0,517.0,517.0,506.0
496.0,539.0,512.0,506.0
489.0,534.0,511.0,505.0
499.0,495.0,512.0,505.0
498.0,508.0,499.0,512.0
517.0,478.0,506.0,517.0
517.0,472.0,505.0,521.0
517.0,501.0,503.0,528.0
503.0,536.0,496.0,529.0
494.0,557.0,498.0,526.0
507.0,519.0,506.0,519.0
509.0,506.0,505.0,515.0
523.0,503.0,515.0,512.0
537.0,468.0,526.0,507.0
534.0,459.0,528.0,506.0
530.0,463.0,530.0,506.0
516.0,479.0,530.0,510.0
484.0,538.0,520.0,511.0
487.0,529.0,519.0,518.0
493.0,531.0,516.0,517.0
492.0,550.0,510.0,517.0
506.0,562.0,502.0,513.0
520.0,544.0,507.0,512.0
521.0,527.0,503.0,512.0
523.0,471.0,500.0,515.0
512.0,448.0,495.0,522.0
506.0,483.0,494.0,515.0
505.0,500.0,498.0,514.0
512.0,491.0,507.0,512.0
512.0,496.0,516.0,511.0
528.0,464.0,528.0,512.0
530.0,451.0,535.0,508.0
526.0,465.0,533.0,508.0
511.0,499.0,525.0,508.0
494.0,520.0,520.0,507.0
496.0,536.0,512.0,507.0
496.0,531.0,513.0,510.0
490.0,520.0,503.0,512.0
509.0,474.0,508.0,515.0
525.0,455.0,510.0,520.0
526.0,494.0,507.0,522.0
516.0,509.0,501.0,523.0
500.0,536.0,494.0,519.0
494.0,535.0,494.0,521.0
500.0,539.0,501.0,516.0
511.0,515.0,521.0,516.0
525.0,493.0,526.0,523.0
534.0,472.0,535.0,517.0
531.0,476.0,534.0,511.0
521.0,485.0,531.0,505.0
501.0,520.0,516.0,506.0
496.0,525.0,517.0,507.0
496.0,521.0,515.0,506.0
497.0,523.0,511.0,509.0
500.0,517.0,505.0,512.0
518.0,495.0,510.0,516.0
520.0,487.0,506.0,517.0
521.0,482.0,501.0,519.0
510.0,505.0,497.0,520.0
504.0,513.0,502.0,523.0
513.0,513.0,508.0,521.0
509.0,514.0,500.0,515.0
511.0,508.0,513.0,513.0
523.0,489.0,526.0,513.0
531.0,465.0,535.0,508.0
524.0,466.0,539.0,513.0
520.0,478.0,529.0,510.0
500.0,510.0,521.0,507.0
498.0,528.0,516.0,507.0
493.0,532.0,512.0,508.0
498.0,534.0,503.0,507.0
508.0,500.0,502.0,509.0
524.0,479.0,501.0,513.0
521.0,481.0,497.0,518.0
516.0,486.0,496.0,523.0
504.0,526.0,490.0,525.0
501.0,539.0,497.0,528.0
500.0,531.0,516.0,526.0
515.0,511.0,523.0,526.0
519.0,499.0,528.0,514.0
535.0,469.0,535.0,504.0
534.0,469.0,534.0,503.0
526.0,489.0,527.0,501.0
510.0,519.0,521.0,503.0
495.0,521.0,514.0,504.0
498.0,518.0,509.0,505.0
496.0,522.0,508.0,506.0
500.0,522.0,503.0,508.0
518.0,487.0,508.0,512.0
522.0,479.0,513.0,518.0
523.0,485.0,503.0,521.0
519.0,496.0,501.0,518.0
499.0,528.0,496.0,520.0
500.0,522.0,499.0,520.0
503.0,517.0,505.0,519.0
505.0,511.0,512.0,516.0
516.0,488.0,519.0,514.0
530.0,468.0,532.0,510.0
530.0,474.0,534.0,505.0
524.0,475.0,534.0,505.0
503.0,508.0,518.0,503.0
496.0,515.0,517.0,502.0
500.0,518.0,512.0,505.0
497.0,518.0,507.0,508.0
503.0,523.0,501.0,510.0
519.0,490.0,509.0,515.0
532.0,471.0,505.0,517.0
526.0,487.0,502.0,521.0
510.0,500.0,500.0,523.0
502.0,523.0,496.0,521.0
505.0,512.0,504.0,519.0
506.0,520.0,505.0,517.0
508.0,528.0,516.0,518.0
523.0,499.0,528.0,514.0
532.0,471.0,536.0,514.0
526.0,456.0,538.0,512.0
518.0,471.0,539.0,508.0
503.0,512.0,528.0,509.0
501.0,543.0,516.0,506.0
494.0,539.0,513.0,504.0
496.0,534.0,501.0,506.0
504.0,517.0,501.0,509.0
519.0,487.0,510.0,515.0
522.0,481.0,504.0,519.0
520.0,492.0,501.0,518.0
505.0,519.0,501.0,522.0
489.0,576.0,500.0,523.0
493.0,559.0,505.0,518.0
501.0,534.0,509.0,516.0
518.0,466.0,519.0,513.0
536.0,420.0,529.0,510.0
531.0,448.0,534.0,510.0
527.0,451.0,534.0,508.0
510.0,507.0,531.0,510.0
501.0,557.0,525.0,511.0
496.0,535.0,519.0,508.0
496.0,513.0,513.0,512.0
497.0,519.0,508.0,512.0
513.0,490.0,510.0,509.0
518.0,478.0,510.0,525.0
520.0,477.0,506.0,524.0
511.0,495.0,502.0,525.0
494.0,527.0,500.0,524.0
497.0,539.0,504.0,526.0
494.0,529.0,510.0,521.0
499.0,496.0,524.0,516.0
514.0,474.0,518.0,513.0
530.0,457.0,526.0,508.0
536.0,457.0,533.0,508.0
534.0,484.0,533.0,503.0
506.0,523.0,521.0,502.0
506.0,528.0,514.0,494.0
503.0,531.0,505.0,501.0
506.0,525.0,506.0,501.0
503.0,521.0,508.0,507.0
525.0,485.0,506.0,510.0
519.0,471.0,505.0,516.0
523.0,486.0,500.0,527.0
511.0,513.0,496.0,523.0
499.0,531.0,498.0,520.0
503.0,521.0,501.0,527.0
512.0,507.0,506.0,519.0
512.0,505.0,519.0,516.0
529.0,477.0,533.0,515.0
531.0,472.0,549.0,509.0
527.0,477.0,544.0,511.0
516.0,498.0,528.0,510.0
496.0,530.0,521.0,505.0
494.0,527.0,516.0,507.0
499.0,510.0,510.0,506.0
507.0,501.0,502.0,505.0
515.0,488.0,505.0,504.0
526.0,472.0,507.0,509.0
524.0,484.0,505.0,512.0
517.0,504.0,502.0,523.0
496.0,537.0,496.0,525.0
502.0,519.0,492.0,525.0
506.0,512.0,501.0,526.0
508.0,505.0,513.0,526.0
514.0,494.0,527.0,525.0
525.0,467.0,547.0,527.0
527.0,473.0,550.0,520.0
522.0,479.0,546.0,513.0
504.0,507.0,522.0,508.0
489.0,537.0,514.0,496.0
500.0,521.0,510.0,493.0
501.0,511.0,505.0,496.0
497.0,517.0,500.0,500.0
511.0,503.0,506.0,505.0
523.0,487.0,502.0,512.0
521.0,489.0,501.0,515.0
513.0,515.0,495.0,519.0
494.0,537.0,496.0,518.0
504.0,519.0,504.0,515.0
502.0,516.0,511.0,517.0
512.0,507.0,514.0,510.0
525.0,483.0,520.0,511.0
534.0,464.0,534.0,508.0
525.0,482.0,537.0,507.0
519.0,497.0,534.0,510.0
493.0,549.0,520.0,508.0
495.0,549.0,517.0,505.0
497.0,501.0,514.0,503.0
499.0,505.0,508.0,508.0
506.0,480.0,504.0,512.0
520.0,446.0,507.0,514.0
521.0,467.0,507.0,517.0
523.0,477.0,507.0,527.0
511.0,527.0,499.0,526.0
502.0,554.0,499.0,524.0
510.0,531.0,512.0,527.0
508.0,517.0,515.0,527.0
511.0,497.0,519.0,525.0
531.0,471.0,535.0,515.0
529.0,477.0,541.0,515.0
524.0,481.0,537.0,509.0
515.0,493.0,527.0,498.0
497.0,511.0,517.0,500.0
497.0,507.0,514.0,500.0
496.0,528.0,510.0,502.0
495.0,532.0,504.0,505.0
506.0,514.0,503.0,509.0
520.0,481.0,506.0,517.0
525.0,486.0,504.0,517.0
523.0,503.0,505.0,522.0
505.0,519.0,499.0,523.0
497.0,521.0,499.0,521.0
498.0,510.0,501.0,516.0
509.0,490.0,512.0,516.0
521.0,498.0,519.0,510.0
531.0,473.0,531.0,511.0
526.0,491.0,535.0,507.0
519.0,502.0,533.0,506.0
504.0,537.0,527.0,508.0
492.0,527.0,519.0,508.0
493.0,506.0,519.0,509.0
495.0,489.0,513.0,506.0
493.0,511.0,506.0,510.0
512.0,481.0,506.0,512.0
514.0,483.0,504.0,517.0
519.0,501.0,504.0,518.0
512.0,518.0,500.0,522.0
506.0,548.0,498.0,524.0
505.0,527.0,508.0,522.0
509.0,515.0,509.0,520.0
513.0,504.0,516.0,521.0
528.0,483.0,525.0,516.0
538.0,462.0,534.0,513.0
531.0,468.0,535.0,514.0
525.0,477.0,533.0,508.0
508.0,513.0,521.0,508.0
499.0,533.0,517.0,506.0
496.0,541.0,514.0,508.0
493.0,538.0,511.0,511.0
501.0,514.0,502.0,514.0
515.0,514.0,505.0,515.0
514.0,526.0,502.0,518.0
511.0,527.0,495.0,520.0
516.0,500.0,496.0,523.0
502.0,497.0,498.0,521.0
506.0,510.0,508.0,521.0
511.0,513.0,510.0,520.0
510.0,515.0,513.0,517.0
522.0,473.0,536.0,514.0
527.0,474.0,536.0,509.0
525.0,477.0,535.0,507.0
516.0,492.0,531.0,503.0
494.0,522.0,520.0,505.0
491.0,517.0,515.0,505.0
487.0,523.0,513.0,505.0
491.0,523.0,501.0,508.0
505.0,492.0,500.0,510.0
518.0,475.0,498.0,512.0
519.0,483.0,499.0,514.0
529.0,500.0,499.0,518.0
514.0,528.0,497.0,521.0
505.0,525.0,512.0,522.0
505.0,521.0,515.0,531.0
512.0,515.0,514.0,526.0
522.0,504.0,522.0,517.0
533.0,471.0,534.0,516.0
531.0,471.0,528.0,504.0
527.0,481.0,528.0,501.0
511.0,503.0,525.0,506.0
499.0,518.0,520.0,506.0
501.0,511.0,517.0,503.0
500.0,512.0,511.0,505.0
500.0,524.0,500.0,507.0
519.0,498.0,501.0,506.0
521.0,491.0,500.0,507.0
519.0,496.0,505.0,515.0
515.0,503.0,497.0,527.0
504.0,518.0,498.0,526.0
504.0,523.0,501.0,522.0
509.0,516.0,508.0,521.0
510.0,509.0,515.0,520.0
520.0,494.0,525.0,521.0
530.0,465.0,543.0,522.0
528.0,467.0,553.0,516.0
519.0,482.0,538.0,510.0
499.0,517.0,528.0,506.0
490.0,528.0,511.0,500.0
490.0,533.0,509.0,501.0
491.0,528.0,515.0,509.0
503.0,503.0,503.0,509.0
526.0,469.0,501.0,503.0
525.0,465.0,498.0,510.0
523.0,471.0,500.0,516.0
507.0,503.0,493.0,517.0
495.0,544.0,491.0,514.0
499.0,540.0,506.0,517.0
506.0,533.0,508.0,515.0
519.0,514.0,518.0,516.0
530.0,480.0,529.0,515.0
533.0,457.0,537.0,511.0
528.0,468.0,540.0,510.0
514.0,500.0,531.0,507.0
490.0,540.0,516.0,505.0
498.0,518.0,515.0,507.0
496.0,530.0,509.0,508.0
500.0,515.0,506.0,512.0
511.0,498.0,506.0,515.0
525.0,482.0,506.0,517.0
520.0,490.0,507.0,520.0
520.0,493.0,497.0,519.0
508.0,519.0,501.0,523.0
506.0,522.0,507.0,522.0
504.0,523.0,501.0,520.0
508.0,516.0,506.0,514.0
516.0,479.0,520.0,514.0
531.0,449.0,534.0,508.0
531.0,451.0,535.0,509.0
525.0,484.0,537.0,508.0
504.0,560.0,529.0,508.0
491.0,546.0,519.0,508.0
493.0,518.0,515.0,508.0
492.0,523.0,506.0,508.0
497.0,517.0,504.0,506.0
521.0,487.0,500.0,514.0
527.0,489.0,504.0,516.0
527.0,487.0,507.0,522.0
515.0,504.0,503.0,522.0
501.0,533.0,496.0,523.0
503.0,526.0,508.0,521.0
499.0,548.0,505.0,517.0
505.0,532.0,507.0,517.0
519.0,492.0,521.0,512.0
528.0,439.0,533.0,512.0
522.0,435.0,531.0,508.0
513.0,469.0,527.0,509.0
494.0,538.0,518.0,509.0
491.0,545.0,514.0,510.0
495.0,515.0,514.0,508.0
501.0,507.0,510.0,511.0
507.0,511.0,505.0,514.0
525.0,494.0,511.0,515.0
523.0,502.0,504.0,518.0
524.0,494.0,499.0,520.0
510.0,515.0,496.0,519.0
503.0,517.0,501.0,519.0
502.0,512.0,501.0,523.0
506.0,513.0,505.0,518.0
510.0,526.0,516.0,516.0
521.0,510.0,532.0,518.0
527.0,507.0,538.0,514.0
529.0,456.0,536.0,510.0
520.0,476.0,525.0,506.0
490.0,550.0,514.0,504.0
500.0,509.0,516.0,506.0
502.0,496.0,515.0,506.0
500.0,505.0,506.0,509.0
512.0,492.0,506.0,512.0
524.0,480.0,506.0,517.0
519.0,482.0,505.0,520.0
515.0,488.0,499.0,523.0
497.0,529.0,497.0,524.0
498.0,526.0,501.0,522.0
505.0,527.0,504.0,517.0
515.0,513.0,515.0,518.0
518.0,489.0,522.0,514.0
534.0,461.0,534.0,510.0
529.0,463.0,535.0,508.0
524.0,472.0,539.0,506.0
509.0,512.0,524.0,503.0
495.0,524.0,516.0,505.0
489.0,551.0,515.0,511.0
496.0,531.0,511.0,513.0
500.0,524.0,504.0,513.0
517.0,491.0,509.0,514.0
522.0,474.0,508.0,526.0
525.0,485.0,500.0,522.0
513.0,514.0,496.0,523.0
499.0,522.0,496.0,522.0
505.0,521.0,503.0,517.0
496.0,534.0,504.0,513.0
501.0,514.0,515.0,520.0
519.0,489.0,524.0,515.0
531.0,471.0,529.0,511.0
534.0,467.0,533.0,508.0
523.0,475.0,529.0,507.0
496.0,502.0,522.0,512.0
489.0,515.0,521.0,512.0
490.0,516.0,516.0,509.0
488.0,525.0,514.0,513.0
501.0,508.0,514.0,515.0
516.0,495.0,511.0,518.0
528.0,501.0,504.0,521.0
535.0,512.0,499.0,523.0
514.0,535.0,493.0,514.0
498.0,540.0,488.0,508.0
500.0,536.0,498.0,512.0
508.0,522.0,507.0,516.0
515.0,506.0,518.0,510.0
529.0,463.0,531.0,511.0
533.0,458.0,536.0,509.0
530.0,469.0,534.0,504.0
517.0,493.0,527.0,503.0
498.0,528.0,518.0,505.0
497.0,528.0,515.0,504.0
488.0,542.0,502.0,504.0
501.0,532.0,507.0,505.0
515.0,503.0,505.0,518.0
528.0,488.0,502.0,517.0
523.0,487.0,498.0,518.0
520.0,496.0,499.0,518.0
497.0,536.0,491.0,519.0
501.0,533.0,495.0,517.0
503.0,521.0,503.0,517.0
508.0,508.0,511.0,517.0
517.0,487.0,518.0,515.0
531.0,465.0,532.0,510.0
531.0,471.0,536.0,507.0
526.0,494.0,532.0,507.0
502.0,540.0,525.0,508.0
494.0,526.0,524.0,503.0
488.0,520.0,506.0,507.0
499.0,510.0,505.0,507.0
506.0,502.0,502.0,510.0
524.0,460.0,504.0,515.0
523.0,472.0,501.0,521.0
520.0,480.0,504.0,522.0
509.0,510.0,495.0,524.0
498.0,528.0,501.0,526.0
504.0,518.0,513.0,526.0
503.0,529.0,514.0,522.0
510.0,522.0,517.0,515.0
524.0,493.0,523.0,513.0
530.0,468.0,531.0,510.0
526.0,478.0,536.0,507.0
519.0,502.0,532.0,512.0
500.0,521.0,512.0,509.0
500.0,514.0,512.0,504.0
496.0,525.0,511.0,506.0
498.0,521.0,504.0,506.0
504.0,511.0,501.0,510.0
518.0,488.0,507.0,515.0
523.0,487.0,503.0,516.0
521.0,493.0,500.0,523.0
507.0,524.0,494.0,524.0
497.0,530.0,496.0,520.0
507.0,513.0,504.0,520.0
512.0,505.0,508.0,515.0
511.0,504.0,512.0,515.0
527.0,476.0,529.0,513.0
528.0,469.0,534.0,511.0
525.0,465.0,532.0,509.0
511.0,490.0,523.0,504.0
499.0,521.0,519.0,505.0
494.0,523.0,514.0,507.0
493.0,504.0,512.0,506.0
502.0,516.0,507.0,508.0
510.0,499.0,505.0,512.0
520.0,503.0,506.0,516.0
525.0,505.0,504.0,518.0
516.0,510.0,500.0,523.0
496.0,547.0,495.0,521.0
497.0,539.0,497.0,519.0
504.0,517.0,504.0,522.0
512.0,497.0,513.0,518.0
516.0,491.0,518.0,514.0
529.0,462.0,530.0,515.0
528.0,459.0,536.0,506.0
523.0,475.0,534.0,509.0
507.0,516.0,522.0,506.0
492.0,542.0,519.0,508.0
494.0,538.0,514.0,507.0
492.0,549.0,509.0,506.0
502.0,543.0,502.0,512.0
513.0,529.0,509.0,514.0
518.0,520.0,505.0,517.0
526.0,477.0,498.0,517.0
515.0,476.0,495.0,525.0
496.0,530.0,495.0,521.0
509.0,517.0,501.0,521.0
506.0,532.0,503.0,518.0
503.0,531.0,514.0,516.0
519.0,494.0,527.0,514.0
525.0,482.0,534.0,510.0
524.0,438.0,537.0,509.0
520.0,459.0,529.0,507.0
498.0,517.0,519.0,506.0
498.0,531.0,514.0,507.0
500.0,528.0,511.0,507.0
501.0,521.0,507.0,506.0
505.0,511.0,503.0,509.0
521.0,478.0,506.0,512.0
523.0,481.0,502.0,517.0
515.0,491.0,501.0,520.0
501.0,517.0,493.0,526.0
497.0,530.0,498.0,520.0
507.0,525.0,500.0,526.0
514.0,517.0,507.0,515.0
525.0,506.0,518.0,515.0
544.0,470.0,528.0,513.0
541.0,470.0,533.0,511.0
537.0,478.0,535.0,507.0
514.0,509.0,529.0,508.0
486.0,536.0,518.0,505.0
487.0,534.0,515.0,507.0
495.0,529.0,510.0,507.0
501.0,516.0,504.0,509.0
507.0,485.0,506.0,512.0
520.0,474.0,504.0,516.0
517.0,486.0,500.0,519.0
515.0,501.0,500.0,521.0
498.0,542.0,493.0,519.0
494.0,544.0,497.0,520.0
503.0,510.0,506.0,517.0
511.0,494.0,512.0,513.0
518.0,485.0,520.0,514.0
534.0,465.0,535.0,512.0
530.0,473.0,538.0,510.0
521.0,493.0,532.0,509.0
504.0,530.0,523.0,508.0
492.0,536.0,517.0,510.0
497.0,529.0,515.0,504.0
497.0,524.0,508.0,510.0
502.0,514.0,510.0,511.0
519.0,484.0,507.0,515.0
524.0,478.0,504.0,517.0
523.0,487.0,500.0,520.0
512.0,512.0,497.0,520.0
498.0,536.0,494.0,519.0
502.0,528.0,500.0,519.0
498.0,536.0,504.0,520.0
517.0,510.0,513.0,514.0
534.0,478.0,527.0,511.0
541.0,470.0,533.0,509.0
535.0,472.0,535.0,506.0
522.0,488.0,527.0,508.0
504.0,526.0,519.0,509.0
506.0,524.0,515.0,507.0
505.0,520.0,514.0,506.0
503.0,530.0,505.0,507.0
510.0,511.0,503.0,513.0
531.0,477.0,507.0,516.0
537.0,485.0,507.0,519.0
518.0,491.0,502.0,520.0
490.0,525.0,501.0,522.0
495.0,535.0,498.0,521.0
500.0,534.0,501.0,517.0
506.0,525.0,505.0,517.0
519.0,496.0,520.0,515.0
532.0,470.0,529.0,512.0
527.0,480.0,537.0,508.0
525.0,485.0,536.0,507.0
501.0,515.0,525.0,507.0
482.0,538.0,520.0,507.0
489.0,511.0,521.0,507.0
491.0,509.0,515.0,504.0
495.0,508.0,505.0,511.0
510.0,486.0,501.0,514.0
518.0,483.0,506.0,515.0
519.0,488.0,504.0,521.0
514.0,501.0,498.0,521.0
495.0,537.0,493.0,523.0
498.0,529.0,501.0,517.0
502.0,518.0,511.0,522.0
509.0,517.0,516.0,519.0
516.0,496.0,516.0,513.0
533.0,468.0,534.0,512.0
529.0,470.0,539.0,510.0
521.0,482.0,536.0,508.0
504.0,513.0,521.0,505.0
490.0,527.0,513.0,503.0
494.0,527.0,517.0,504.0
491.0,533.0,508.0,514.0
501.0,511.0,505.0,516.0
523.0,481.0,509.0,514.0
526.0,480.0,510.0,516.0
516.0,489.0,501.0,521.0
512.0,511.0,498.0,520.0
498.0,534.0,496.0,518.0
506.0,523.0,502.0,522.0
504.0,512.0,511.0,519.0
509.0,505.0,515.0,511.0
525.0,479.0,528.0,514.0
533.0,468.0,537.0,517.0
527.0,479.0,539.0,512.0
524.0,494.0,533.0,507.0
504.0,529.0,523.0,506.0
496.0,537.0,515.0,508.0
493.0,537.0,512.0,508.0
498.0,527.0,509.0,508.0
506.0,514.0,503.0,512.0
526.0,481.0,509.0,517.0
530.0,482.0,506.0,520.0
528.0,487.0,501.0,522.0
515.0,518.0,496.0,523.0
512.0,520.0,501.0,520.0
507.0,528.0,501.0,520.0
508.0,533.0,510.0,519.0
517.0,525.0,519.0,517.0
531.0,495.0,532.0,511.0
525.0,488.0,538.0,511.0
526.0,451.0,539.0,509.0
521.0,480.0,529.0,507.0
506.0,514.0,522.0,508.0
503.0,515.0,518.0,509.0
497.0,523.0,515.0,508.0
498.0,519.0,508.0,511.0
510.0,501.0,508.0,513.0
523.0,483.0,503.0,517.0
519.0,482.0,506.0,521.0
512.0,497.0,499.0,522.0
496.0,523.0,497.0,519.0
492.0,517.0,502.0,523.0
492.0,522.0,507.0,519.0
504.0,509.0,510.0,516.0
516.0,501.0,524.0,514.0
531.0,468.0,534.0,516.0
527.0,474.0,537.0,510.0
522.0,487.0,536.0,509.0
505.0,527.0,522.0,509.0
502.0,531.0,520.0,506.0
502.0,527.0,514.0,509.0
506.0,527.0,509.0,510.0
514.0,518.0,508.0,512.0
531.0,487.0,510.0,515.0
534.0,492.0,506.0,520.0
535.0,492.0,503.0,521.0
513.0,519.0,499.0,522.0
498.0,533.0,498.0,523.0
494.0,530.0,504.0,518.0
495.0,516.0,511.0,515.0
512.0,502.0,520.0,516.0
533.0,472.0,530.0,510.0
539.0,475.0,538.0,510.0
532.0,482.0,539.0,510.0
529.0,499.0,532.0,507.0
500.0,523.0,525.0,508.0
496.0,530.0,519.0,508.0
502.0,525.0,512.0,507.0
510.0,514.0,510.0,509.0
495.0,499.0,506.0,512.0
512.0,476.0,509.0,516.0
