CH1,CH2,CH3,CH4
530.0,456.0,532.0,517.0
530.0,447.0,536.0,516.0
523.0,464.0,535.0,515.0
508.0,503.0,524.0,507.0
491.0,542.0,516.0,505.0
495.0,508.0,515.0,498.0
496.0,518.0,509.0,498.0
502.0,536.0,508.0,503.0
516.0,517.0,503.0,502.0
525.0,494.0,498.0,503.0
522.0,478.0,500.0,518.0
523.0,466.0,502.0,521.0
509.0,521.0,500.0,521.0
505.0,517.0,499.0,520.0
513.0,510.0,503.0,515.0
514.0,522.0,519.0,522.0
518.0,499.0,513.0,520.0
534.0,470.0,539.0,509.0
529.0,472.0,534.0,512.0
525.0,476.0,525.0,498.0
502.0,507.0,515.0,498.0
485.0,519.0,522.0,500.0
490.0,523.0,510.0,509.0
491.0,535.0,510.0,506.0
497.0,534.0,509.0,510.0
517.0,508.0,510.0,513.0
528.0,498.0,508.0,511.0
523.0,500.0,509.0,518.0
515.0,511.0,501.0,518.0
502.0,504.0,502.0,525.0
509.0,490.0,507.0,521.0
508.0,483.0,503.0,520.0
515.0,478.0,515.0,522.0
523.0,481.0,525.0,524.0
533.0,483.0,533.0,516.0
524.0,522.0,535.0,510.0
513.0,529.0,533.0,511.0
492.0,569.0,526.0,512.0
489.0,567.0,517.0,507.0
497.0,495.0,511.0,508.0
494.0,511.0,500.0,503.0
505.0,511.0,492.0,506.0
523.0,479.0,504.0,508.0
521.0,501.0,503.0,519.0
522.0,502.0,505.0,519.0
507.0,526.0,498.0,521.0
499.0,492.0,502.0,523.0
496.0,493.0,504.0,519.0
501.0,485.0,502.0,515.0
521.0,494.0,512.0,513.0
530.0,475.0,525.0,511.0
530.0,439.0,533.0,505.0
525.0,470.0,534.0,504.0
517.0,495.0,523.0,507.0
497.0,538.0,519.0,519.0
495.0,537.0,519.0,518.0
489.0,527.0,515.0,513.0
499.0,510.0,508.0,511.0
508.0,499.0,511.0,514.0
520.0,476.0,509.0,513.0
525.0,469.0,501.0,518.0
523.0,483.0,500.0,524.0
505.0,547.0,495.0,529.0
493.0,563.0,502.0,531.0
494.0,571.0,512.0,532.0
502.0,550.0,522.0,530.0
513.0,488.0,532.0,520.0
536.0,435.0,535.0,505.0
531.0,442.0,520.0,495.0
526.0,470.0,525.0,493.0
502.0,505.0,515.0,492.0
487.0,525.0,505.0,493.0
492.0,521.0,507.0,500.0
491.0,539.0,505.0,502.0
496.0,506.0,501.0,507.0
518.0,435.0,505.0,507.0
521.0,446.0,502.0,511.0
514.0,498.0,497.0,514.0
504.0,528.0,494.0,518.0
492.0,572.0,493.0,518.0
503.0,556.0,498.0,524.0
511.0,545.0,509.0,521.0
521.0,509.0,513.0,514.0
526.0,494.0,521.0,510.0
528.0,491.0,528.0,506.0
528.0,504.0,533.0,506.0
522.0,527.0,535.0,509.0
507.0,512.0,527.0,511.0
500.0,503.0,519.0,509.0
502.0,512.0,511.0,510.0
502.0,511.0,507.0,510.0
508.0,507.0,497.0,511.0
523.0,487.0,500.0,514.0
523.0,491.0,499.0,516.0
520.0,492.0,499.0,523.0
508.0,522.0,505.0,528.0
500.0,532.0,514.0,529.0
505.0,520.0,515.0,525.0
506.0,517.0,510.0,517.0
510.0,505.0,516.0,509.0
530.0,477.0,525.0,503.0
533.0,467.0,528.0,504.0
529.0,473.0,524.0,498.0
519.0,492.0,517.0,501.0
502.0,520.0,516.0,506.0
501.0,517.0,516.0,508.0
497.0,521.0,511.0,509.0
499.0,524.0,505.0,510.0
510.0,507.0,501.0,512.0
517.0,489.0,505.0,514.0
518.0,488.0,503.0,518.0
513.0,497.0,510.0,529.0
509.0,521.0,502.0,531.0
509.0,515.0,491.0,518.0
510.0,517.0,502.0,517.0
508.0,518.0,513.0,519.0
515.0,508.0,520.0,516.0
536.0,450.0,526.0,513.0
532.0,460.0,542.0,504.0
526.0,478.0,529.0,501.0
511.0,501.0,514.0,501.0
498.0,521.0,515.0,502.0
493.0,520.0,513.0,503.0
494.0,514.0,508.0,503.0
495.0,510.0,512.0,512.0
517.0,475.0,507.0,520.0
521.0,470.0,509.0,516.0
518.0,472.0,498.0,520.0
516.0,501.0,493.0,523.0
496.0,551.0,496.0,518.0
500.0,538.0,497.0,518.0
501.0,537.0,502.0,511.0
509.0,507.0,509.0,511.0
522.0,477.0,520.0,507.0
531.0,458.0,529.0,512.0
528.0,463.0,532.0,502.0
526.0,497.0,524.0,500.0
501.0,520.0,518.0,513.0
493.0,510.0,515.0,507.0
493.0,517.0,511.0,510.0
496.0,559.0,506.0,511.0
504.0,547.0,506.0,509.0
518.0,509.0,506.0,511.0
514.0,452.0,501.0,517.0
519.0,462.0,500.0,516.0
508.0,499.0,490.0,523.0
501.0,513.0,502.0,521.0
516.0,506.0,504.0,521.0
514.0,507.0,510.0,520.0
519.0,503.0,521.0,521.0
524.0,500.0,534.0,521.0
522.0,484.0,541.0,517.0
519.0,479.0,541.0,516.0
512.0,497.0,532.0,515.0
499.0,508.0,522.0,506.0
492.0,532.0,511.0,501.0
489.0,520.0,507.0,498.0
499.0,508.0,502.0,500.0
510.0,523.0,499.0,503.0
522.0,516.0,499.0,509.0
516.0,524.0,498.0,515.0
511.0,526.0,494.0,518.0
503.0,512.0,494.0,518.0
502.0,510.0,497.0,518.0
511.0,515.0,507.0,520.0
523.0,499.0,517.0,522.0
522.0,490.0,527.0,520.0
527.0,464.0,534.0,519.0
530.0,468.0,533.0,514.0
520.0,486.0,529.0,514.0
502.0,512.0,526.0,514.0
494.0,531.0,522.0,512.0
503.0,517.0,518.0,505.0
499.0,507.0,510.0,503.0
501.0,519.0,504.0,505.0
519.0,507.0,505.0,510.0
521.0,486.0,501.0,510.0
524.0,451.0,495.0,516.0
514.0,503.0,488.0,521.0
505.0,539.0,491.0,522.0
501.0,567.0,494.0,518.0
504.0,515.0,502.0,517.0
511.0,497.0,502.0,514.0
521.0,475.0,518.0,511.0
535.0,458.0,529.0,511.0
526.0,469.0,538.0,514.0
518.0,475.0,547.0,521.0
503.0,511.0,532.0,516.0
494.0,522.0,519.0,508.0
495.0,531.0,505.0,506.0
497.0,534.0,500.0,503.0
503.0,509.0,499.0,506.0
520.0,483.0,502.0,509.0
518.0,484.0,506.0,514.0
514.0,486.0,501.0,518.0
501.0,508.0,494.0,516.0
501.0,517.0,494.0,515.0
500.0,525.0,500.0,515.0
506.0,522.0,506.0,517.0
507.0,504.0,517.0,518.0
528.0,482.0,524.0,513.0
534.0,492.0,532.0,508.0
527.0,503.0,530.0,508.0
515.0,518.0,523.0,513.0
494.0,529.0,519.0,513.0
501.0,487.0,524.0,512.0
500.0,525.0,525.0,521.0
501.0,525.0,509.0,513.0
517.0,499.0,509.0,514.0
522.0,483.0,508.0,520.0
520.0,477.0,507.0,523.0
513.0,491.0,514.0,532.0
496.0,522.0,507.0,534.0
493.0,525.0,506.0,525.0
500.0,507.0,511.0,514.0
513.0,521.0,498.0,502.0
523.0,501.0,502.0,500.0
539.0,463.0,518.0,493.0
531.0,463.0,529.0,499.0
524.0,478.0,535.0,503.0
510.0,505.0,527.0,503.0
500.0,532.0,512.0,508.0
501.0,523.0,507.0,504.0
498.0,518.0,503.0,504.0
494.0,514.0,500.0,502.0
516.0,488.0,500.0,511.0
519.0,492.0,501.0,515.0
522.0,510.0,508.0,518.0
512.0,506.0,500.0,521.0
502.0,498.0,494.0,518.0
506.0,509.0,501.0,517.0
510.0,494.0,505.0,512.0
515.0,494.0,512.0,509.0
524.0,494.0,527.0,510.0
524.0,480.0,537.0,510.0
515.0,496.0,539.0,512.0
511.0,524.0,532.0,509.0
488.0,558.0,521.0,508.0
480.0,525.0,513.0,506.0
492.0,490.0,506.0,498.0
510.0,520.0,498.0,500.0
508.0,538.0,498.0,507.0
522.0,496.0,508.0,515.0
526.0,481.0,509.0,520.0
525.0,496.0,500.0,521.0
503.0,533.0,498.0,523.0
491.0,544.0,499.0,523.0
501.0,509.0,499.0,518.0
516.0,500.0,508.0,517.0
522.0,491.0,513.0,517.0
532.0,494.0,527.0,512.0
531.0,495.0,528.0,513.0
527.0,495.0,534.0,507.0
513.0,519.0,526.0,508.0
507.0,501.0,533.0,509.0
493.0,518.0,519.0,507.0
488.0,522.0,504.0,505.0
494.0,516.0,497.0,506.0
511.0,493.0,500.0,512.0
523.0,485.0,503.0,510.0
526.0,477.0,498.0,515.0
523.0,504.0,502.0,518.0
501.0,541.0,494.0,522.0
499.0,537.0,500.0,518.0
505.0,522.0,505.0,516.0
510.0,516.0,506.0,514.0
514.0,488.0,517.0,510.0
534.0,444.0,529.0,508.0
530.0,449.0,530.0,503.0
524.0,466.0,531.0,509.0
507.0,517.0,528.0,510.0
491.0,549.0,523.0,509.0
492.0,538.0,518.0,507.0
495.0,542.0,510.0,508.0
497.0,531.0,502.0,509.0
525.0,485.0,502.0,505.0
523.0,476.0,502.0,513.0
523.0,466.0,500.0,513.0
513.0,484.0,493.0,520.0
497.0,510.0,494.0,520.0
500.0,509.0,502.0,522.0
506.0,513.0,507.0,518.0
522.0,523.0,518.0,516.0
527.0,497.0,528.0,518.0
526.0,478.0,542.0,518.0
523.0,474.0,543.0,522.0
521.0,472.0,534.0,509.0
500.0,533.0,514.0,509.0
490.0,549.0,516.0,510.0
494.0,549.0,518.0,505.0
503.0,525.0,515.0,504.0
510.0,514.0,506.0,516.0
528.0,487.0,507.0,522.0
526.0,489.0,498.0,524.0
524.0,503.0,505.0,526.0
508.0,543.0,501.0,520.0
502.0,548.0,495.0,519.0
510.0,506.0,513.0,522.0
515.0,482.0,516.0,509.0
512.0,508.0,508.0,503.0
524.0,489.0,520.0,498.0
530.0,489.0,525.0,502.0
526.0,466.0,529.0,504.0
513.0,475.0,526.0,501.0
502.0,503.0,514.0,499.0
501.0,507.0,515.0,507.0
501.0,512.0,512.0,513.0
506.0,506.0,506.0,508.0
512.0,489.0,508.0,512.0
525.0,492.0,502.0,510.0
516.0,527.0,497.0,515.0
512.0,519.0,502.0,524.0
508.0,504.0,500.0,524.0
503.0,516.0,501.0,520.0
500.0,529.0,501.0,518.0
503.0,530.0,507.0,516.0
514.0,501.0,517.0,515.0
529.0,459.0,533.0,512.0
529.0,450.0,543.0,513.0
525.0,462.0,542.0,512.0
517.0,494.0,529.0,510.0
498.0,515.0,515.0,504.0
499.0,517.0,511.0,500.0
496.0,514.0,505.0,501.0
494.0,508.0,496.0,505.0
521.0,489.0,501.0,507.0
516.0,498.0,503.0,509.0
514.0,495.0,501.0,515.0
506.0,515.0,493.0,519.0
499.0,534.0,492.0,520.0
495.0,521.0,505.0,519.0
500.0,516.0,501.0,519.0
513.0,508.0,511.0,516.0
536.0,467.0,528.0,515.0
539.0,457.0,534.0,509.0
531.0,466.0,532.0,507.0
522.0,498.0,533.0,506.0
497.0,535.0,522.0,507.0
493.0,517.0,518.0,506.0
489.0,529.0,505.0,507.0
499.0,531.0,503.0,513.0
509.0,516.0,502.0,518.0
524.0,490.0,504.0,522.0
527.0,484.0,511.0,527.0
522.0,487.0,517.0,535.0
506.0,521.0,507.0,534.0
502.0,523.0,509.0,529.0
508.0,519.0,504.0,517.0
501.0,530.0,505.0,522.0
506.0,531.0,519.0,519.0
532.0,478.0,531.0,513.0
531.0,472.0,534.0,504.0
527.0,480.0,528.0,495.0
513.0,497.0,513.0,490.0
497.0,534.0,507.0,494.0
491.0,534.0,507.0,498.0
493.0,521.0,504.0,500.0
493.0,508.0,503.0,504.0
512.0,481.0,503.0,507.0
523.0,469.0,503.0,512.0
518.0,500.0,498.0,514.0
512.0,519.0,498.0,518.0
506.0,524.0,495.0,516.0
507.0,539.0,492.0,516.0
502.0,534.0,499.0,514.0
507.0,508.0,512.0,517.0
515.0,482.0,519.0,514.0
536.0,450.0,532.0,516.0
532.0,464.0,541.0,514.0
522.0,481.0,538.0,510.0
502.0,526.0,525.0,505.0
489.0,550.0,512.0,505.0
480.0,536.0,510.0,507.0
494.0,502.0,507.0,506.0
503.0,513.0,503.0,507.0
529.0,496.0,505.0,506.0
524.0,517.0,505.0,512.0
527.0,464.0,505.0,521.0
513.0,494.0,502.0,526.0
496.0,546.0,498.0,526.0
499.0,521.0,499.0,525.0
508.0,503.0,505.0,521.0
517.0,484.0,515.0,520.0
527.0,488.0,525.0,514.0
532.0,483.0,533.0,506.0
526.0,494.0,533.0,504.0
517.0,483.0,523.0,501.0
502.0,489.0,516.0,504.0
487.0,527.0,512.0,504.0
492.0,525.0,514.0,506.0
500.0,517.0,508.0,509.0
505.0,512.0,508.0,514.0
520.0,481.0,515.0,520.0
519.0,486.0,506.0,519.0
520.0,493.0,500.0,519.0
507.0,525.0,492.0,519.0
502.0,523.0,498.0,521.0
500.0,526.0,500.0,518.0
503.0,519.0,502.0,517.0
510.0,505.0,512.0,513.0
527.0,478.0,529.0,512.0
524.0,480.0,543.0,514.0
524.0,475.0,537.0,506.0
514.0,502.0,527.0,502.0
493.0,511.0,516.0,504.0
487.0,508.0,511.0,507.0
483.0,517.0,507.0,507.0
491.0,514.0,502.0,513.0
514.0,485.0,507.0,515.0
517.0,480.0,514.0,518.0
520.0,480.0,511.0,516.0
512.0,508.0,502.0,519.0
504.0,526.0,497.0,518.0
501.0,537.0,491.0,516.0
517.0,527.0,504.0,512.0
519.0,508.0,512.0,512.0
526.0,492.0,519.0,507.0
539.0,472.0,529.0,505.0
540.0,474.0,528.0,512.0
525.0,484.0,528.0,513.0
509.0,507.0,525.0,508.0
505.0,511.0,519.0,508.0
499.0,515.0,513.0,509.0
492.0,536.0,510.0,509.0
496.0,539.0,513.0,515.0
519.0,495.0,511.0,513.0
519.0,487.0,509.0,525.0
523.0,488.0,503.0,518.0
514.0,501.0,494.0,516.0
505.0,533.0,496.0,521.0
500.0,517.0,510.0,521.0
499.0,534.0,511.0,513.0
506.0,517.0,499.0,509.0
523.0,483.0,509.0,503.0
534.0,462.0,524.0,505.0
525.0,466.0,527.0,505.0
519.0,479.0,534.0,506.0
500.0,521.0,534.0,507.0
492.0,529.0,524.0,516.0
498.0,514.0,511.0,509.0
500.0,499.0,504.0,520.0
507.0,490.0,503.0,512.0
522.0,470.0,505.0,512.0
501.0,531.0,507.0,518.0
507.0,519.0,511.0,518.0
510.0,511.0,527.0,518.0
526.0,480.0,534.0,516.0
523.0,462.0,540.0,509.0
522.0,477.0,537.0,507.0
507.0,513.0,527.0,505.0
496.0,540.0,520.0,508.0
495.0,530.0,517.0,508.0
498.0,511.0,509.0,514.0
501.0,510.0,501.0,512.0
525.0,473.0,495.0,514.0
523.0,474.0,493.0,513.0
523.0,477.0,493.0,517.0
516.0,506.0,493.0,518.0
502.0,517.0,503.0,520.0
501.0,514.0,507.0,523.0
500.0,510.0,515.0,520.0
509.0,489.0,521.0,519.0
529.0,471.0,524.0,510.0
534.0,469.0,534.0,508.0
534.0,492.0,532.0,508.0
522.0,523.0,532.0,501.0
499.0,557.0,528.0,505.0
495.0,547.0,523.0,505.0
499.0,522.0,514.0,510.0
495.0,519.0,511.0,509.0
504.0,507.0,504.0,511.0
521.0,483.0,504.0,513.0
520.0,481.0,499.0,513.0
518.0,484.0,493.0,514.0
503.0,517.0,487.0,518.0
496.0,530.0,492.0,515.0
510.0,528.0,495.0,513.0
511.0,523.0,502.0,508.0
519.0,504.0,515.0,512.0
532.0,479.0,528.0,507.0
527.0,477.0,534.0,507.0
522.0,499.0,535.0,504.0
508.0,513.0,526.0,505.0
492.0,532.0,519.0,504.0
506.0,525.0,519.0,505.0
506.0,491.0,516.0,507.0
509.0,492.0,509.0,509.0
517.0,494.0,505.0,511.0
523.0,484.0,503.0,515.0
523.0,485.0,496.0,517.0
521.0,498.0,492.0,519.0
502.0,527.0,492.0,519.0
499.0,525.0,499.0,519.0
512.0,508.0,505.0,517.0
517.0,496.0,504.0,513.0
521.0,490.0,518.0,515.0
533.0,469.0,532.0,510.0
529.0,473.0,537.0,508.0
522.0,492.0,539.0,511.0
504.0,518.0,528.0,508.0
497.0,536.0,520.0,500.0
500.0,525.0,520.0,507.0
503.0,510.0,515.0,511.0
505.0,511.0,508.0,511.0
521.0,488.0,507.0,512.0
523.0,482.0,502.0,516.0
519.0,488.0,502.0,517.0
513.0,501.0,493.0,521.0
503.0,511.0,493.0,518.0
511.0,505.0,499.0,525.0
505.0,520.0,504.0,515.0
506.0,514.0,512.0,515.0
521.0,494.0,527.0,512.0
525.0,501.0,532.0,508.0
521.0,516.0,535.0,507.0
516.0,520.0,530.0,506.0
500.0,526.0,523.0,507.0
496.0,488.0,516.0,506.0
507.0,495.0,514.0,502.0
498.0,525.0,508.0,508.0
505.0,513.0,503.0,509.0
521.0,485.0,502.0,514.0
522.0,481.0,499.0,520.0
520.0,485.0,496.0,523.0
509.0,507.0,494.0,521.0
506.0,514.0,496.0,524.0
508.0,501.0,503.0,517.0
508.0,496.0,509.0,518.0
506.0,495.0,513.0,516.0
526.0,471.0,528.0,514.0
528.0,475.0,536.0,509.0
527.0,477.0,540.0,510.0
513.0,503.0,532.0,510.0
501.0,542.0,520.0,508.0
493.0,541.0,514.0,504.0
490.0,530.0,516.0,510.0
497.0,520.0,510.0,507.0
510.0,505.0,504.0,511.0
521.0,496.0,500.0,515.0
524.0,489.0,495.0,520.0
521.0,491.0,492.0,523.0
500.0,526.0,488.0,528.0
502.0,521.0,497.0,523.0
509.0,512.0,507.0,520.0
517.0,499.0,522.0,519.0
524.0,488.0,529.0,514.0
534.0,477.0,535.0,509.0
530.0,482.0,533.0,503.0
524.0,486.0,533.0,505.0
509.0,506.0,523.0,507.0
496.0,524.0,514.0,502.0
498.0,516.0,515.0,509.0
503.0,507.0,507.0,505.0
502.0,513.0,501.0,511.0
520.0,486.0,512.0,513.0
521.0,483.0,507.0,519.0
519.0,490.0,506.0,520.0
514.0,525.0,500.0,521.0
498.0,559.0,493.0,518.0
494.0,548.0,497.0,517.0
498.0,533.0,502.0,517.0
509.0,474.0,512.0,520.0
522.0,462.0,530.0,518.0
528.0,461.0,535.0,514.0
530.0,473.0,538.0,508.0
522.0,487.0,530.0,506.0
506.0,518.0,520.0,505.0
505.0,522.0,518.0,503.0
502.0,547.0,513.0,505.0
496.0,525.0,507.0,505.0
503.0,504.0,506.0,506.0
523.0,482.0,501.0,508.0
525.0,469.0,497.0,512.0
523.0,474.0,495.0,513.0
506.0,518.0,489.0,517.0
502.0,523.0,494.0,519.0
512.0,531.0,502.0,519.0
510.0,524.0,504.0,515.0
513.0,506.0,514.0,515.0
523.0,476.0,527.0,507.0
520.0,474.0,527.0,506.0
520.0,479.0,536.0,507.0
507.0,496.0,528.0,509.0
499.0,523.0,520.0,503.0
499.0,547.0,517.0,506.0
500.0,525.0,511.0,505.0
502.0,509.0,506.0,509.0
514.0,497.0,504.0,513.0
526.0,485.0,503.0,516.0
523.0,484.0,500.0,521.0
518.0,491.0,496.0,525.0
503.0,525.0,496.0,524.0
496.0,536.0,498.0,523.0
503.0,536.0,501.0,521.0
512.0,512.0,509.0,517.0
519.0,500.0,520.0,513.0
529.0,473.0,532.0,508.0
529.0,473.0,537.0,505.0
524.0,484.0,539.0,506.0
505.0,516.0,528.0,505.0
495.0,535.0,520.0,504.0
499.0,525.0,516.0,505.0
498.0,523.0,511.0,508.0
498.0,521.0,504.0,512.0
509.0,488.0,510.0,515.0
519.0,485.0,502.0,517.0
520.0,477.0,499.0,518.0
509.0,495.0,496.0,520.0
498.0,515.0,490.0,520.0
507.0,507.0,499.0,520.0
511.0,502.0,504.0,516.0
510.0,508.0,511.0,515.0
523.0,487.0,523.0,511.0
526.0,476.0,537.0,509.0
525.0,482.0,536.0,505.0
522.0,487.0,532.0,507.0
504.0,518.0,524.0,508.0
498.0,533.0,523.0,508.0
494.0,546.0,515.0,507.0
493.0,549.0,508.0,506.0
502.0,526.0,504.0,512.0
523.0,475.0,506.0,517.0
525.0,481.0,500.0,519.0
522.0,494.0,498.0,521.0
507.0,499.0,494.0,519.0
503.0,515.0,495.0,521.0
509.0,501.0,503.0,519.0
512.0,510.0,505.0,520.0
512.0,520.0,516.0,516.0
526.0,486.0,532.0,514.0
525.0,484.0,534.0,512.0
523.0,488.0,537.0,509.0
514.0,512.0,527.0,507.0
494.0,528.0,522.0,503.0
497.0,519.0,520.0,505.0
496.0,517.0,512.0,506.0
496.0,526.0,507.0,509.0
508.0,500.0,500.0,512.0
522.0,475.0,504.0,514.0
523.0,478.0,500.0,515.0
520.0,486.0,503.0,520.0
502.0,536.0,494.0,519.0
500.0,559.0,496.0,516.0
496.0,547.0,501.0,518.0
503.0,513.0,505.0,515.0
513.0,494.0,515.0,516.0
534.0,462.0,529.0,511.0
532.0,457.0,535.0,510.0
522.0,474.0,533.0,508.0
506.0,523.0,526.0,508.0
490.0,548.0,523.0,510.0
493.0,534.0,518.0,510.0
499.0,517.0,515.0,511.0
506.0,514.0,507.0,511.0
519.0,490.0,503.0,513.0
526.0,482.0,505.0,514.0
524.0,485.0,502.0,518.0
517.0,502.0,492.0,521.0
500.0,526.0,486.0,515.0
501.0,521.0,497.0,515.0
501.0,506.0,497.0,513.0
509.0,488.0,506.0,513.0
526.0,457.0,528.0,514.0
531.0,464.0,539.0,510.0
528.0,486.0,533.0,507.0
521.0,506.0,532.0,507.0
494.0,533.0,524.0,507.0
491.0,540.0,520.0,507.0
494.0,539.0,516.0,505.0
493.0,537.0,508.0,506.0
502.0,516.0,503.0,514.0
519.0,484.0,506.0,514.0
521.0,480.0,496.0,514.0
521.0,467.0,498.0,521.0
505.0,500.0,489.0,523.0
495.0,517.0,490.0,520.0
508.0,499.0,500.0,517.0
512.0,506.0,507.0,516.0
509.0,519.0,519.0,517.0
528.0,487.0,530.0,512.0
533.0,488.0,538.0,507.0
526.0,502.0,536.0,507.0
510.0,528.0,524.0,504.0
488.0,556.0,515.0,502.0
501.0,515.0,515.0,500.0
498.0,489.0,510.0,503.0
503.0,496.0,505.0,504.0
513.0,488.0,504.0,512.0
525.0,490.0,504.0,522.0
524.0,502.0,501.0,516.0
520.0,498.0,497.0,519.0
504.0,525.0,493.0,521.0
502.0,519.0,495.0,519.0
510.0,501.0,503.0,520.0
518.0,488.0,511.0,514.0
525.0,502.0,517.0,510.0
533.0,486.0,528.0,506.0
530.0,480.0,531.0,504.0
526.0,480.0,533.0,501.0
506.0,511.0,522.0,503.0
494.0,529.0,519.0,500.0
494.0,527.0,519.0,503.0
501.0,518.0,512.0,510.0
505.0,509.0,506.0,510.0
521.0,491.0,505.0,511.0
524.0,486.0,501.0,514.0
520.0,486.0,500.0,518.0
515.0,508.0,497.0,518.0
496.0,533.0,496.0,522.0
500.0,522.0,496.0,521.0
499.0,555.0,504.0,517.0
506.0,530.0,510.0,516.0
522.0,491.0,524.0,513.0
533.0,463.0,533.0,510.0
527.0,455.0,537.0,508.0
524.0,468.0,532.0,505.0
502.0,508.0,523.0,508.0
495.0,526.0,517.0,508.0
501.0,532.0,517.0,511.0
499.0,532.0,509.0,511.0
506.0,519.0,512.0,515.0
521.0,494.0,507.0,516.0
523.0,490.0,501.0,518.0
523.0,484.0,500.0,518.0
511.0,506.0,496.0,523.0
504.0,516.0,502.0,523.0
512.0,509.0,501.0,518.0
518.0,496.0,504.0,518.0
519.0,492.0,514.0,515.0
530.0,472.0,525.0,510.0
536.0,476.0,529.0,507.0
528.0,483.0,535.0,507.0
516.0,486.0,529.0,505.0
495.0,512.0,521.0,504.0
489.0,506.0,514.0,506.0
491.0,517.0,509.0,505.0
497.0,524.0,505.0,507.0
507.0,513.0,505.0,512.0
520.0,509.0,503.0,513.0
518.0,513.0,499.0,519.0
517.0,522.0,495.0,522.0
505.0,539.0,494.0,524.0
503.0,498.0,496.0,524.0
507.0,498.0,508.0,523.0
505.0,506.0,511.0,519.0
514.0,501.0,522.0,516.0
528.0,474.0,534.0,512.0
524.0,472.0,528.0,505.0
522.0,475.0,529.0,502.0
505.0,498.0,525.0,505.0
489.0,522.0,519.0,503.0
490.0,512.0,516.0,501.0
496.0,509.0,509.0,506.0
492.0,521.0,505.0,506.0
518.0,489.0,504.0,513.0
525.0,482.0,504.0,515.0
523.0,486.0,502.0,521.0
513.0,500.0,501.0,520.0
501.0,515.0,495.0,522.0
501.0,511.0,499.0,519.0
508.0,501.0,506.0,516.0
513.0,498.0,509.0,520.0
526.0,489.0,522.0,513.0
536.0,479.0,534.0,508.0
531.0,480.0,536.0,506.0
525.0,491.0,530.0,506.0
502.0,531.0,521.0,503.0
497.0,532.0,513.0,503.0
496.0,530.0,512.0,503.0
494.0,525.0,510.0,508.0
503.0,518.0,507.0,508.0
522.0,497.0,509.0,513.0
522.0,502.0,507.0,520.0
524.0,498.0,499.0,525.0
511.0,511.0,494.0,523.0
499.0,530.0,496.0,521.0
506.0,515.0,501.0,519.0
507.0,515.0,507.0,513.0
511.0,508.0,516.0,515.0
525.0,479.0,526.0,511.0
531.0,473.0,531.0,506.0
528.0,478.0,531.0,507.0
517.0,495.0,525.0,508.0
496.0,528.0,520.0,509.0
494.0,536.0,520.0,507.0
494.0,540.0,516.0,508.0
499.0,527.0,517.0,512.0
508.0,510.0,514.0,512.0
523.0,477.0,514.0,516.0
526.0,477.0,504.0,520.0
519.0,490.0,498.0,520.0
504.0,519.0,492.0,519.0
505.0,515.0,493.0,516.0
507.0,507.0,496.0,513.0
503.0,505.0,501.0,513.0
519.0,474.0,514.0,511.0
533.0,441.0,528.0,510.0
534.0,456.0,534.0,508.0
521.0,486.0,534.0,506.0
501.0,533.0,527.0,509.0
486.0,564.0,518.0,508.0
494.0,533.0,518.0,509.0
504.0,520.0,515.0,508.0
507.0,514.0,509.0,515.0
521.0,480.0,501.0,516.0
526.0,483.0,503.0,517.0
526.0,489.0,500.0,517.0
517.0,505.0,494.0,515.0
497.0,538.0,490.0,514.0
498.0,530.0,496.0,513.0
495.0,532.0,506.0,522.0
507.0,525.0,515.0,519.0
518.0,504.0,520.0,512.0
529.0,476.0,526.0,514.0
529.0,442.0,538.0,512.0
524.0,427.0,541.0,508.0
505.0,469.0,525.0,507.0
495.0,493.0,518.0,505.0
495.0,520.0,519.0,508.0
489.0,515.0,504.0,501.0
502.0,513.0,498.0,507.0
520.0,509.0,504.0,514.0
530.0,509.0,503.0,520.0
527.0,522.0,504.0,522.0
511.0,552.0,498.0,523.0
503.0,511.0,494.0,522.0
514.0,465.0,496.0,520.0
506.0,500.0,508.0,518.0
508.0,508.0,511.0,516.0
530.0,493.0,527.0,510.0
533.0,488.0,534.0,507.0
527.0,484.0,533.0,505.0
520.0,489.0,528.0,504.0
499.0,523.0,517.0,501.0
499.0,528.0,515.0,501.0
498.0,526.0,511.0,503.0
495.0,529.0,502.0,508.0
507.0,508.0,500.0,510.0
521.0,485.0,504.0,511.0
520.0,489.0,499.0,516.0
517.0,492.0,496.0,520.0
507.0,515.0,493.0,522.0
508.0,516.0,496.0,519.0
509.0,514.0,502.0,520.0
503.0,517.0,504.0,517.0
513.0,503.0,516.0,512.0
529.0,472.0,533.0,510.0
528.0,474.0,533.0,509.0
525.0,483.0,535.0,507.0
512.0,508.0,527.0,506.0
499.0,525.0,519.0,508.0
500.0,516.0,518.0,506.0
498.0,522.0,512.0,505.0
494.0,516.0,509.0,511.0
515.0,484.0,505.0,510.0
527.0,477.0,503.0,515.0
524.0,484.0,500.0,520.0
518.0,501.0,498.0,523.0
501.0,533.0,494.0,524.0
499.0,543.0,499.0,522.0
498.0,549.0,505.0,519.0
502.0,527.0,508.0,517.0
519.0,493.0,523.0,511.0
527.0,477.0,535.0,509.0
527.0,445.0,536.0,507.0
522.0,471.0,530.0,510.0
499.0,519.0,522.0,508.0
492.0,528.0,521.0,507.0
496.0,524.0,516.0,507.0
503.0,511.0,512.0,510.0
512.0,508.0,507.0,511.0
524.0,487.0,506.0,511.0
523.0,487.0,504.0,517.0
523.0,493.0,497.0,514.0
514.0,517.0,493.0,520.0
502.0,528.0,494.0,518.0
505.0,515.0,498.0,520.0
510.0,509.0,502.0,516.0
521.0,497.0,510.0,517.0
528.0,481.0,524.0,513.0
531.0,470.0,528.0,506.0
523.0,472.0,531.0,511.0
514.0,489.0,529.0,512.0
490.0,534.0,520.0,509.0
492.0,536.0,520.0,510.0
493.0,536.0,521.0,513.0
502.0,526.0,515.0,510.0
509.0,490.0,506.0,512.0
525.0,441.0,505.0,512.0
524.0,466.0,500.0,516.0
524.0,480.0,499.0,519.0
504.0,506.0,496.0,520.0
499.0,531.0,493.0,521.0
505.0,525.0,501.0,519.0
510.0,518.0,507.0,516.0
509.0,517.0,516.0,511.0
526.0,481.0,528.0,505.0
525.0,480.0,530.0,500.0
519.0,489.0,533.0,505.0
506.0,514.0,522.0,504.0
494.0,527.0,519.0,505.0
498.0,512.0,515.0,505.0
505.0,506.0,512.0,500.0
505.0,518.0,502.0,505.0
523.0,492.0,499.0,510.0
526.0,485.0,501.0,516.0
525.0,488.0,495.0,517.0
517.0,500.0,495.0,516.0
498.0,535.0,491.0,522.0
499.0,528.0,497.0,522.0
503.0,527.0,502.0,517.0
510.0,509.0,511.0,521.0
521.0,484.0,523.0,511.0
532.0,454.0,532.0,509.0
529.0,457.0,536.0,507.0
523.0,471.0,534.0,508.0
503.0,504.0,521.0,509.0
489.0,562.0,519.0,507.0
496.0,543.0,514.0,507.0
497.0,525.0,510.0,508.0
503.0,510.0,504.0,511.0
521.0,481.0,506.0,514.0
521.0,487.0,499.0,518.0
521.0,492.0,496.0,520.0
510.0,514.0,495.0,520.0
493.0,537.0,495.0,524.0
495.0,531.0,498.0,521.0
502.0,532.0,506.0,517.0
509.0,517.0,514.0,514.0
526.0,483.0,524.0,508.0
530.0,471.0,533.0,508.0
525.0,469.0,533.0,507.0
515.0,485.0,529.0,506.0
493.0,516.0,527.0,507.0
495.0,516.0,517.0,505.0
491.0,521.0,510.0,505.0
494.0,529.0,501.0,507.0
503.0,535.0,504.0,509.0
526.0,513.0,504.0,515.0
528.0,511.0,501.0,519.0
518.0,515.0,498.0,521.0
503.0,508.0,494.0,520.0
504.0,501.0,493.0,518.0
517.0,491.0,502.0,518.0
514.0,499.0,508.0,516.0
516.0,488.0,515.0,513.0
535.0,459.0,529.0,505.0
529.0,456.0,532.0,504.0
523.0,479.0,532.0,508.0
510.0,508.0,528.0,511.0
495.0,526.0,520.0,511.0
498.0,519.0,517.0,507.0
498.0,518.0,514.0,510.0
502.0,516.0,506.0,513.0
515.0,494.0,503.0,510.0
523.0,483.0,499.0,514.0
523.0,484.0,497.0,514.0
518.0,492.0,495.0,517.0
501.0,515.0,490.0,519.0
502.0,523.0,498.0,519.0
507.0,508.0,502.0,515.0
516.0,509.0,509.0,513.0
523.0,511.0,516.0,512.0
534.0,450.0,529.0,507.0
534.0,471.0,533.0,506.0
525.0,485.0,531.0,508.0
506.0,516.0,525.0,511.0
498.0,544.0,518.0,506.0
495.0,534.0,511.0,509.0
497.0,530.0,509.0,508.0
501.0,518.0,504.0,513.0
517.0,479.0,504.0,513.0
522.0,480.0,503.0,514.0
524.0,484.0,497.0,514.0
510.0,512.0,487.0,520.0
497.0,540.0,490.0,525.0
497.0,523.0,499.0,520.0
513.0,512.0,506.0,519.0
518.0,499.0,520.0,515.0
532.0,480.0,527.0,517.0
532.0,477.0,531.0,508.0
526.0,478.0,528.0,505.0
518.0,489.0,526.0,506.0
501.0,514.0,521.0,506.0
489.0,529.0,516.0,506.0
491.0,520.0,509.0,506.0
495.0,523.0,507.0,506.0
504.0,512.0,503.0,510.0
522.0,490.0,504.0,515.0
518.0,491.0,502.0,521.0
517.0,496.0,499.0,521.0
505.0,511.0,498.0,521.0
494.0,523.0,489.0,517.0
498.0,513.0,498.0,517.0
503.0,508.0,502.0,517.0
515.0,491.0,516.0,513.0
531.0,465.0,526.0,512.0
528.0,464.0,532.0,507.0
522.0,475.0,535.0,507.0
511.0,500.0,529.0,505.0
500.0,519.0,521.0,507.0
498.0,522.0,514.0,506.0
501.0,530.0,510.0,507.0
500.0,527.0,503.0,509.0
516.0,495.0,505.0,513.0
524.0,477.0,504.0,515.0
522.0,490.0,500.0,518.0
514.0,507.0,496.0,522.0
497.0,528.0,493.0,522.0
501.0,524.0,497.0,520.0
505.0,517.0,504.0,521.0
507.0,517.0,507.0,515.0
521.0,494.0,521.0,510.0
535.0,469.0,532.0,506.0
529.0,469.0,537.0,508.0
527.0,473.0,534.0,506.0
507.0,515.0,525.0,507.0
489.0,544.0,516.0,507.0
489.0,526.0,516.0,504.0
496.0,527.0,512.0,504.0
499.0,520.0,503.0,518.0
517.0,488.0,504.0,514.0
521.0,489.0,502.0,518.0
521.0,502.0,499.0,520.0
513.0,524.0,495.0,524.0
501.0,550.0,495.0,522.0
505.0,528.0,499.0,520.0
507.0,512.0,507.0,517.0
520.0,485.0,508.0,510.0
530.0,474.0,524.0,509.0
534.0,467.0,533.0,510.0
530.0,475.0,534.0,507.0
528.0,495.0,533.0,509.0
502.0,526.0,521.0,508.0
499.0,528.0,515.0,508.0
500.0,539.0,513.0,507.0
508.0,521.0,506.0,507.0
526.0,493.0,505.0,513.0
533.0,470.0,503.0,514.0
529.0,471.0,501.0,518.0
527.0,481.0,496.0,521.0
506.0,515.0,493.0,521.0
493.0,532.0,494.0,522.0
487.0,551.0,498.0,514.0
490.0,553.0,505.0,516.0
503.0,523.0,517.0,515.0
521.0,497.0,525.0,508.0
532.0,449.0,534.0,506.0
526.0,432.0,535.0,505.0
507.0,490.0,528.0,508.0
491.0,523.0,522.0,508.0
493.0,540.0,516.0,507.0
488.0,545.0,511.0,508.0
496.0,508.0,509.0,511.0
510.0,483.0,504.0,514.0
516.0,478.0,503.0,520.0
518.0,483.0,502.0,516.0
514.0,495.0,496.0,521.0
498.0,520.0,495.0,522.0
498.0,522.0,496.0,521.0
498.0,526.0,502.0,518.0
504.0,514.0,509.0,514.0
515.0,493.0,520.0,514.0
538.0,459.0,532.0,510.0
537.0,468.0,534.0,512.0
537.0,484.0,534.0,506.0
517.0,516.0,523.0,504.0
504.0,530.0,519.0,506.0
501.0,525.0,511.0,506.0
502.0,525.0,508.0,507.0
508.0,513.0,504.0,509.0
517.0,484.0,505.0,513.0
512.0,483.0,500.0,517.0
516.0,486.0,500.0,519.0
515.0,502.0,493.0,526.0
501.0,524.0,492.0,521.0
498.0,522.0,499.0,518.0
506.0,518.0,504.0,515.0
512.0,507.0,513.0,516.0
522.0,484.0,521.0,512.0
526.0,471.0,533.0,509.0
520.0,475.0,535.0,507.0
513.0,490.0,533.0,505.0
497.0,524.0,526.0,507.0
492.0,522.0,520.0,506.0
499.0,515.0,515.0,504.0
501.0,514.0,510.0,509.0
510.0,503.0,505.0,511.0
525.0,480.0,506.0,514.0
521.0,485.0,502.0,515.0
518.0,488.0,498.0,520.0
506.0,517.0,492.0,522.0
494.0,532.0,496.0,524.0
506.0,514.0,503.0,520.0
503.0,514.0,507.0,516.0
505.0,506.0,519.0,514.0
525.0,475.0,530.0,511.0
530.0,475.0,538.0,508.0
522.0,482.0,536.0,506.0
510.0,506.0,526.0,508.0
491.0,536.0,520.0,507.0
490.0,531.0,514.0,510.0
488.0,537.0,511.0,506.0
495.0,522.0,506.0,510.0
513.0,494.0,506.0,515.0
524.0,479.0,505.0,514.0
521.0,488.0,502.0,516.0
517.0,498.0,498.0,521.0
502.0,523.0,496.0,523.0
502.0,520.0,498.0,522.0
502.0,524.0,505.0,519.0
508.0,512.0,509.0,515.0
517.0,497.0,519.0,514.0
531.0,469.0,531.0,511.0
531.0,472.0,536.0,510.0
529.0,482.0,535.0,505.0
510.0,518.0,523.0,506.0
499.0,532.0,520.0,505.0
507.0,514.0,515.0,503.0
506.0,515.0,513.0,505.0
504.0,506.0,509.0,511.0
512.0,480.0,507.0,513.0
513.0,480.0,504.0,515.0
514.0,488.0,500.0,519.0
509.0,510.0,493.0,520.0
497.0,534.0,492.0,516.0
500.0,518.0,503.0,521.0
506.0,508.0,507.0,516.0
510.0,497.0,514.0,514.0
525.0,473.0,525.0,510.0
531.0,465.0,533.0,506.0
527.0,468.0,536.0,507.0
520.0,484.0,532.0,503.0
503.0,522.0,527.0,506.0
508.0,521.0,518.0,507.0
507.0,514.0,516.0,507.0
514.0,508.0,511.0,507.0
514.0,506.0,502.0,511.0
528.0,483.0,506.0,514.0
528.0,489.0,502.0,517.0
518.0,495.0,499.0,519.0
496.0,510.0,495.0,523.0
495.0,511.0,495.0,521.0
503.0,512.0,499.0,518.0
501.0,523.0,506.0,518.0
519.0,510.0,515.0,512.0
532.0,474.0,530.0,509.0
536.0,475.0,535.0,508.0
538.0,478.0,535.0,508.0
525.0,502.0,530.0,504.0
500.0,525.0,520.0,506.0
506.0,507.0,519.0,506.0
503.0,507.0,513.0,509.0
500.0,528.0,504.0,509.0
519.0,486.0,505.0,510.0
538.0,482.0,505.0,515.0
541.0,495.0,499.0,517.0
536.0,505.0,498.0,519.0
523.0,533.0,494.0,522.0
522.0,530.0,496.0,519.0
511.0,522.0,505.0,517.0
508.0,521.0,506.0,514.0
510.0,506.0,516.0,513.0
493.0,478.0,534.0,509.0
487.0,480.0,536.0,506.0
501.0,484.0,530.0,501.0
499.0,503.0,530.0,506.0
487.0,522.0,526.0,506.0
494.0,520.0,519.0,509.0
487.0,519.0,516.0,510.0
490.0,518.0,507.0,512.0
513.0,484.0,500.0,512.0
513.0,482.0,500.0,516.0
515.0,486.0,496.0,519.0
507.0,504.0,494.0,521.0
486.0,527.0,492.0,521.0
491.0,518.0,498.0,520.0
497.0,515.0,505.0,518.0
509.0,507.0,515.0,516.0
515.0,486.0,524.0,511.0
527.0,481.0,534.0,509.0
523.0,477.0,536.0,508.0
520.0,486.0,531.0,501.0
507.0,520.0,522.0,505.0
496.0,528.0,518.0,507.0
493.0,533.0,512.0,506.0
496.0,531.0,507.0,508.0
507.0,513.0,505.0,511.0
523.0,481.0,500.0,513.0
519.0,481.0,500.0,516.0
510.0,486.0,500.0,520.0
499.0,510.0,498.0,522.0
499.0,525.0,492.0,521.0
501.0,519.0,498.0,518.0
504.0,517.0,504.0,520.0
513.0,504.0,514.0,513.0
531.0,472.0,529.0,508.0
534.0,475.0,530.0,508.0
527.0,478.0,536.0,506.0
517.0,495.0,529.0,505.0
492.0,522.0,520.0,507.0
492.0,521.0,516.0,506.0
492.0,529.0,513.0,505.0
503.0,523.0,509.0,508.0
520.0,496.0,503.0,508.0
527.0,479.0,502.0,511.0
526.0,485.0,501.0,517.0
523.0,494.0,500.0,521.0
501.0,525.0,493.0,520.0
497.0,524.0,496.0,520.0
491.0,520.0,503.0,513.0
511.0,500.0,512.0,519.0
522.0,491.0,520.0,514.0
535.0,469.0,531.0,509.0
531.0,479.0,530.0,507.0
521.0,483.0,533.0,505.0
508.0,517.0,525.0,504.0
493.0,529.0,518.0,506.0
482.0,530.0,516.0,507.0
496.0,509.0,511.0,510.0
504.0,512.0,505.0,509.0
515.0,496.0,504.0,511.0
523.0,487.0,502.0,512.0
523.0,486.0,500.0,516.0
510.0,495.0,496.0,518.0
498.0,518.0,496.0,519.0
504.0,516.0,501.0,519.0
501.0,526.0,504.0,517.0
508.0,516.0,509.0,515.0
524.0,490.0,522.0,513.0
534.0,467.0,531.0,506.0
528.0,473.0,533.0,510.0
519.0,484.0,533.0,509.0
497.0,511.0,522.0,505.0
499.0,513.0,517.0,505.0
503.0,520.0,516.0,506.0
505.0,513.0,508.0,507.0
510.0,518.0,500.0,510.0
526.0,485.0,503.0,511.0
529.0,486.0,499.0,516.0
528.0,487.0,497.0,518.0
521.0,521.0,492.0,523.0
510.0,538.0,497.0,520.0
516.0,524.0,502.0,518.0
521.0,512.0,506.0,516.0
528.0,499.0,511.0,514.0
531.0,479.0,526.0,505.0
525.0,481.0,534.0,507.0
516.0,484.0,535.0,504.0
512.0,499.0,527.0,506.0
489.0,525.0,519.0,508.0
495.0,525.0,518.0,507.0
489.0,526.0,511.0,507.0
490.0,526.0,498.0,506.0
497.0,499.0,501.0,508.0
510.0,480.0,504.0,512.0
516.0,482.0,500.0,514.0
514.0,495.0,498.0,519.0
496.0,527.0,496.0,520.0
497.0,522.0,498.0,520.0
500.0,517.0,498.0,516.0
506.0,502.0,510.0,517.0
511.0,496.0,518.0,514.0
526.0,467.0,532.0,506.0
528.0,472.0,536.0,507.0
527.0,477.0,537.0,504.0
509.0,508.0,526.0,506.0
497.0,527.0,521.0,506.0
497.0,520.0,518.0,506.0
489.0,524.0,509.0,507.0
487.0,514.0,505.0,510.0
502.0,486.0,506.0,507.0
519.0,483.0,502.0,515.0
517.0,483.0,501.0,517.0
511.0,502.0,496.0,519.0
497.0,530.0,495.0,519.0
504.0,518.0,499.0,519.0
505.0,508.0,509.0,519.0
514.0,496.0,516.0,515.0
525.0,484.0,524.0,513.0
534.0,470.0,529.0,510.0
534.0,476.0,534.0,508.0
523.0,489.0,532.0,508.0
499.0,519.0,524.0,504.0
492.0,522.0,519.0,501.0
482.0,532.0,512.0,506.0
488.0,521.0,507.0,509.0
497.0,517.0,505.0,508.0
517.0,486.0,509.0,513.0
518.0,484.0,503.0,515.0
518.0,485.0,501.0,519.0
507.0,509.0,498.0,519.0
501.0,523.0,500.0,520.0
505.0,514.0,505.0,520.0
504.0,513.0,508.0,521.0
511.0,504.0,518.0,517.0
526.0,477.0,530.0,516.0
527.0,473.0,526.0,505.0
523.0,474.0,523.0,498.0
512.0,490.0,531.0,505.0
495.0,518.0,529.0,507.0
497.0,513.0,522.0,505.0
502.0,515.0,513.0,505.0
505.0,522.0,506.0,507.0
513.0,508.0,506.0,512.0
524.0,488.0,503.0,514.0
525.0,491.0,502.0,516.0
524.0,494.0,500.0,520.0
499.0,519.0,499.0,522.0
499.0,521.0,500.0,520.0
502.0,510.0,506.0,515.0
510.0,504.0,511.0,516.0
519.0,500.0,520.0,513.0
530.0,472.0,527.0,506.0
528.0,480.0,532.0,503.0
527.0,484.0,533.0,501.0
512.0,512.0,525.0,506.0
487.0,534.0,520.0,504.0
486.0,529.0,517.0,505.0
482.0,542.0,508.0,510.0
496.0,522.0,505.0,504.0
514.0,491.0,502.0,510.0
519.0,485.0,502.0,514.0
517.0,486.0,499.0,517.0
513.0,498.0,495.0,516.0
491.0,531.0,496.0,524.0
494.0,529.0,501.0,523.0
504.0,518.0,503.0,519.0
510.0,511.0,513.0,514.0
520.0,490.0,523.0,509.0
530.0,471.0,531.0,508.0
529.0,474.0,534.0,506.0
525.0,481.0,532.0,503.0
504.0,516.0,523.0,505.0
495.0,528.0,516.0,506.0
491.0,538.0,513.0,507.0
496.0,529.0,512.0,508.0
502.0,511.0,505.0,510.0
511.0,487.0,506.0,511.0
517.0,486.0,505.0,515.0
520.0,489.0,502.0,517.0
508.0,509.0,497.0,520.0
496.0,528.0,502.0,522.0
503.0,520.0,505.0,519.0
499.0,523.0,507.0,519.0
509.0,511.0,518.0,517.0
526.0,481.0,528.0,508.0
535.0,469.0,534.0,504.0
527.0,474.0,534.0,503.0
517.0,494.0,530.0,506.0
493.0,526.0,524.0,505.0
492.0,526.0,519.0,504.0
495.0,524.0,513.0,508.0
496.0,527.0,510.0,510.0
508.0,512.0,502.0,511.0
525.0,486.0,506.0,515.0
523.0,485.0,501.0,518.0
519.0,495.0,499.0,533.0
510.0,516.0,495.0,529.0
501.0,511.0,498.0,519.0
503.0,513.0,506.0,517.0
512.0,498.0,515.0,509.0
512.0,498.0,522.0,509.0
532.0,474.0,531.0,508.0
527.0,480.0,535.0,509.0
526.0,481.0,532.0,505.0
512.0,505.0,526.0,511.0
499.0,523.0,521.0,507.0
502.0,520.0,518.0,504.0
495.0,531.0,515.0,509.0
499.0,524.0,508.0,510.0
523.0,488.0,505.0,511.0
531.0,477.0,505.0,512.0
528.0,478.0,501.0,533.0
519.0,496.0,496.0,519.0
502.0,538.0,493.0,511.0
503.0,530.0,504.0,526.0
506.0,521.0,506.0,522.0
510.0,502.0,514.0,514.0
516.0,488.0,526.0,514.0
530.0,471.0,537.0,512.0
529.0,477.0,527.0,498.0
519.0,488.0,528.0,502.0
498.0,524.0,526.0,517.0
494.0,529.0,523.0,513.0
499.0,513.0,519.0,510.0
506.0,507.0,512.0,509.0
512.0,502.0,503.0,510.0
531.0,476.0,507.0,518.0
534.0,485.0,498.0,515.0
524.0,491.0,497.0,521.0
505.0,528.0,496.0,522.0
509.0,532.0,495.0,524.0
520.0,519.0,504.0,520.0
520.0,516.0,504.0,517.0
524.0,494.0,515.0,518.0
531.0,472.0,525.0,508.0
519.0,475.0,535.0,505.0
512.0,477.0,538.0,505.0
497.0,499.0,529.0,507.0
481.0,523.0,522.0,512.0
478.0,535.0,521.0,509.0
482.0,534.0,513.0,503.0
487.0,515.0,508.0,508.0
501.0,494.0,506.0,510.0
527.0,474.0,505.0,507.0
527.0,483.0,503.0,513.0
522.0,498.0,501.0,521.0
512.0,525.0,500.0,523.0
511.0,527.0,499.0,521.0
515.0,515.0,506.0,520.0
512.0,514.0,512.0,516.0
509.0,501.0,517.0,514.0
531.0,467.0,530.0,508.0
520.0,471.0,534.0,504.0
506.0,477.0,532.0,503.0
495.0,514.0,525.0,496.0
494.0,517.0,518.0,500.0
495.0,524.0,517.0,502.0
492.0,524.0,513.0,512.0
494.0,521.0,505.0,511.0
511.0,491.0,501.0,515.0
520.0,483.0,503.0,522.0
522.0,481.0,500.0,515.0
518.0,492.0,497.0,515.0
504.0,521.0,497.0,522.0
507.0,516.0,500.0,519.0
509.0,518.0,505.0,519.0
508.0,507.0,510.0,516.0
516.0,487.0,522.0,509.0
520.0,474.0,533.0,505.0
524.0,484.0,531.0,502.0
518.0,498.0,527.0,503.0
500.0,522.0,518.0,503.0
492.0,535.0,516.0,506.0
501.0,521.0,514.0,505.0
496.0,519.0,510.0,510.0
502.0,500.0,505.0,511.0
523.0,477.0,505.0,510.0
525.0,480.0,500.0,511.0
517.0,490.0,499.0,514.0
509.0,515.0,495.0,519.0
501.0,528.0,497.0,521.0
509.0,509.0,502.0,518.0
513.0,505.0,508.0,518.0
518.0,505.0,511.0,522.0
529.0,477.0,520.0,501.0
541.0,470.0,527.0,503.0
536.0,474.0,533.0,506.0
524.0,495.0,527.0,513.0
507.0,531.0,519.0,501.0
492.0,523.0,513.0,499.0
494.0,513.0,516.0,501.0
503.0,507.0,509.0,505.0
510.0,497.0,501.0,510.0
525.0,479.0,503.0,509.0
522.0,488.0,503.0,516.0
523.0,497.0,495.0,522.0
508.0,520.0,493.0,522.0
502.0,518.0,498.0,530.0
506.0,516.0,501.0,514.0
504.0,510.0,505.0,512.0
514.0,497.0,519.0,515.0
535.0,465.0,529.0,504.0
534.0,472.0,536.0,501.0
527.0,484.0,526.0,502.0
515.0,508.0,528.0,503.0
499.0,539.0,520.0,510.0
496.0,530.0,517.0,505.0
485.0,529.0,509.0,506.0
497.0,513.0,506.0,506.0
516.0,491.0,501.0,511.0
522.0,480.0,501.0,509.0
522.0,485.0,501.0,514.0
509.0,503.0,494.0,520.0
498.0,525.0,493.0,530.0
499.0,522.0,501.0,530.0
499.0,522.0,507.0,517.0
515.0,503.0,512.0,519.0
531.0,488.0,521.0,513.0
553.0,466.0,527.0,504.0
546.0,474.0,536.0,501.0
531.0,487.0,530.0,506.0
518.0,512.0,523.0,506.0
513.0,531.0,518.0,507.0
484.0,543.0,514.0,507.0
470.0,535.0,510.0,509.0
478.0,526.0,502.0,512.0
511.0,491.0,497.0,508.0
524.0,477.0,499.0,518.0
529.0,479.0,495.0,525.0
515.0,511.0,493.0,522.0
511.0,533.0,501.0,527.0
522.0,524.0,503.0,524.0
523.0,513.0,510.0,521.0
523.0,503.0,512.0,518.0
531.0,479.0,525.0,516.0
535.0,463.0,530.0,512.0
533.0,476.0,527.0,499.0
518.0,491.0,525.0,500.0
472.0,531.0,518.0,503.0
490.0,518.0,519.0,507.0
500.0,522.0,517.0,508.0
502.0,517.0,511.0,514.0
495.0,512.0,503.0,509.0
502.0,491.0,499.0,516.0
497.0,490.0,488.0,485.0
503.0,499.0,497.0,521.0
497.0,528.0,504.0,529.0
494.0,527.0,500.0,520.0
506.0,516.0,494.0,501.0
521.0,505.0,513.0,520.0
533.0,493.0,523.0,519.0
542.0,476.0,532.0,507.0
547.0,474.0,530.0,481.0
529.0,483.0,529.0,488.0
506.0,518.0,524.0,518.0
479.0,537.0,524.0,518.0
479.0,533.0,521.0,522.0
485.0,535.0,514.0,523.0
507.0,521.0,511.0,504.0
530.0,491.0,507.0,518.0
547.0,474.0,506.0,530.0
549.0,471.0,496.0,513.0
532.0,487.0,497.0,540.0
511.0,515.0,489.0,528.0
510.0,518.0,497.0,530.0
495.0,529.0,509.0,512.0
481.0,523.0,506.0,511.0
503.0,503.0,521.0,522.0
522.0,483.0,535.0,513.0
522.0,483.0,538.0,499.0
520.0,490.0,530.0,501.0
496.0,516.0,531.0,531.0
484.0,533.0,507.0,519.0
482.0,538.0,500.0,508.0
484.0,524.0,509.0,510.0
496.0,517.0,514.0,509.0
517.0,482.0,508.0,506.0
523.0,483.0,496.0,521.0
531.0,483.0,501.0,526.0
519.0,512.0,494.0,540.0
512.0,527.0,490.0,521.0
514.0,515.0,507.0,518.0
512.0,512.0,506.0,512.0
510.0,510.0,516.0,516.0
510.0,483.0,532.0,503.0
522.0,460.0,533.0,504.0
527.0,458.0,529.0,506.0
524.0,481.0,529.0,503.0
519.0,515.0,522.0,504.0
523.0,524.0,515.0,511.0
526.0,519.0,509.0,507.0
514.0,512.0,509.0,504.0
510.0,497.0,499.0,498.0
533.0,474.0,496.0,508.0
524.0,482.0,494.0,522.0
493.0,494.0,496.0,519.0
454.0,527.0,496.0,522.0
478.0,531.0,497.0,512.0
490.0,528.0,506.0,521.0
499.0,519.0,512.0,518.0
505.0,503.0,518.0,510.0
526.0,468.0,528.0,507.0
527.0,469.0,528.0,504.0
523.0,478.0,530.0,504.0
510.0,509.0,529.0,501.0
494.0,535.0,515.0,491.0
512.0,519.0,510.0,509.0
516.0,519.0,514.0,519.0
523.0,508.0,502.0,492.0
541.0,482.0,495.0,516.0
557.0,472.0,509.0,509.0
551.0,485.0,497.0,500.0
525.0,506.0,495.0,527.0
508.0,524.0,491.0,567.0
499.0,521.0,491.0,536.0
493.0,522.0,501.0,504.0
489.0,513.0,514.0,512.0
494.0,494.0,532.0,504.0
527.0,469.0,524.0,494.0
533.0,483.0,535.0,507.0
560.0,480.0,533.0,506.0
543.0,517.0,523.0,515.0
541.0,516.0,515.0,497.0
546.0,508.0,514.0,493.0
534.0,511.0,536.0,517.0
530.0,502.0,533.0,527.0
501.0,488.0,511.0,492.0
485.0,486.0,465.0,493.0
512.0,492.0,480.0,533.0
506.0,513.0,488.0,531.0
474.0,534.0,502.0,527.0
457.0,529.0,511.0,518.0
469.0,527.0,506.0,527.0
489.0,513.0,499.0,502.0
491.0,480.0,527.0,483.0
504.0,460.0,536.0,536.0
526.0,461.0,552.0,527.0
507.0,483.0,532.0,490.0
483.0,525.0,498.0,520.0
489.0,532.0,505.0,532.0
491.0,532.0,502.0,511.0
501.0,532.0,516.0,512.0
529.0,503.0,532.0,508.0
540.0,480.0,542.0,511.0
536.0,486.0,519.0,528.0
525.0,490.0,490.0,531.0
497.0,522.0,506.0,503.0
488.0,528.0,502.0,524.0
475.0,529.0,505.0,547.0
475.0,509.0,507.0,528.0
499.0,476.0,534.0,527.0
529.0,451.0,548.0,511.0
529.0,455.0,543.0,499.0
530.0,471.0,520.0,512.0
510.0,515.0,504.0,482.0
486.0,533.0,514.0,499.0
495.0,514.0,534.0,528.0
494.0,528.0,521.0,537.0
498.0,518.0,503.0,506.0
504.0,496.0,511.0,498.0
512.0,481.0,498.0,502.0
525.0,478.0,483.0,511.0
509.0,490.0,497.0,527.0
489.0,517.0,513.0,551.0
517.0,510.0,481.0,508.0
509.0,525.0,509.0,523.0
506.0,530.0,528.0,546.0
518.0,502.0,534.0,498.0
527.0,488.0,527.0,481.0
534.0,488.0,539.0,521.0
538.0,490.0,531.0,503.0
531.0,515.0,528.0,515.0
532.0,529.0,524.0,514.0
533.0,526.0,518.0,493.0
540.0,521.0,504.0,516.0
544.0,508.0,501.0,547.0
537.0,473.0,499.0,572.0
495.0,478.0,494.0,520.0
476.0,488.0,495.0,499.0
466.0,514.0,493.0,502.0
459.0,532.0,486.0,529.0
481.0,525.0,500.0,505.0
502.0,501.0,529.0,517.0
508.0,496.0,507.0,501.0
530.0,472.0,539.0,509.0
545.0,464.0,518.0,503.0
527.0,476.0,520.0,499.0
508.0,492.0,537.0,493.0
518.0,524.0,544.0,521.0
529.0,515.0,516.0,525.0
519.0,508.0,575.0,526.0
503.0,505.0,592.0,545.0
504.0,503.0,472.0,508.0
518.0,488.0,508.0,494.0
493.0,511.0,552.0,534.0
476.0,526.0,504.0,524.0
467.0,570.0,476.0,524.0
486.0,566.0,453.0,474.0
504.0,537.0,499.0,529.0
526.0,485.0,573.0,556.0
558.0,460.0,555.0,588.0
582.0,447.0,527.0,487.0
562.0,454.0,538.0,450.0
545.0,470.0,553.0,524.0
521.0,500.0,570.0,521.0
466.0,524.0,530.0,499.0
460.0,518.0,501.0,514.0
477.0,516.0,518.0,506.0
506.0,512.0,501.0,483.0
536.0,496.0,503.0,524.0
531.0,491.0,507.0,572.0
530.0,492.0,520.0,544.0
526.0,473.0,512.0,501.0
502.0,505.0,493.0,549.0
515.0,518.0,502.0,568.0
527.0,503.0,502.0,532.0
535.0,494.0,500.0,532.0
502.0,485.0,519.0,506.0
524.0,462.0,535.0,499.0
533.0,462.0,544.0,462.0
511.0,464.0,524.0,483.0
500.0,494.0,523.0,532.0
481.0,525.0,511.0,513.0
486.0,534.0,528.0,559.0
490.0,534.0,479.0,536.0
498.0,523.0,481.0,485.0
533.0,490.0,490.0,401.0
530.0,498.0,484.0,470.0
526.0,504.0,543.0,608.0
500.0,526.0,486.0,586.0
474.0,554.0,491.0,547.0
488.0,552.0,524.0,513.0
506.0,531.0,517.0,537.0
514.0,504.0,517.0,511.0
547.0,477.0,512.0,518.0
560.0,457.0,563.0,530.0
544.0,463.0,570.0,503.0
518.0,493.0,560.0,506.0
477.0,514.0,600.0,542.0
466.0,521.0,613.0,525.0
461.0,530.0,500.0,509.0
446.0,543.0,487.0,528.0
486.0,516.0,508.0,503.0
526.0,484.0,573.0,497.0
553.0,475.0,635.0,538.0
584.0,471.0,549.0,496.0
571.0,506.0,392.0,525.0
565.0,528.0,457.0,496.0
577.0,518.0,505.0,536.0
544.0,525.0,530.0,546.0
476.0,529.0,498.0,470.0
452.0,519.0,523.0,538.0
464.0,503.0,584.0,553.0
454.0,477.0,590.0,495.0
472.0,481.0,519.0,499.0
467.0,506.0,471.0,501.0
460.0,515.0,486.0,490.0
470.0,519.0,550.0,515.0
500.0,518.0,522.0,538.0
529.0,495.0,499.0,518.0
561.0,448.0,492.0,506.0
561.0,446.0,491.0,503.0
559.0,464.0,471.0,514.0
546.0,490.0,506.0,581.0
508.0,504.0,504.0,546.0
512.0,520.0,497.0,466.0
520.0,510.0,496.0,459.0
550.0,489.0,496.0,477.0
569.0,458.0,499.0,453.0
519.0,473.0,512.0,523.0
489.0,498.0,579.0,553.0
498.0,503.0,545.0,495.0
513.0,495.0,554.0,515.0
516.0,498.0,537.0,538.0
495.0,510.0,505.0,573.0
483.0,523.0,450.0,466.0
480.0,503.0,505.0,529.0
473.0,515.0,551.0,489.0
470.0,511.0,491.0,474.0
471.0,535.0,483.0,553.0
489.0,558.0,491.0,537.0
518.0,524.0,525.0,516.0
554.0,525.0,528.0,554.0
570.0,519.0,638.0,552.0
595.0,490.0,642.0,528.0
600.0,481.0,570.0,529.0
562.0,509.0,619.0,498.0
520.0,507.0,507.0,475.0
461.0,506.0,548.0,466.0
479.0,486.0,471.0,515.0
499.0,492.0,444.0,534.0
497.0,491.0,484.0,472.0
513.0,488.0,559.0,576.0
535.0,488.0,571.0,547.0
513.0,497.0,488.0,510.0
515.0,528.0,481.0,492.0
531.0,535.0,460.0,492.0
489.0,541.0,492.0,583.0
494.0,525.0,494.0,580.0
504.0,527.0,508.0,524.0
501.0,522.0,546.0,555.0
533.0,464.0,538.0,508.0
526.0,448.0,431.0,479.0
499.0,481.0,494.0,519.0
501.0,505.0,612.0,574.0
499.0,511.0,553.0,557.0
519.0,494.0,479.0,478.0
494.0,522.0,512.0,446.0
507.0,497.0,485.0,518.0
540.0,464.0,502.0,543.0
582.0,467.0,497.0,489.0
648.0,462.0,441.0,577.0
667.0,489.0,472.0,467.0
628.0,541.0,547.0,517.0
600.0,521.0,534.0,483.0
505.0,514.0,507.0,448.0
463.0,508.0,487.0,511.0
370.0,532.0,577.0,571.0
400.0,498.0,559.0,500.0
460.0,493.0,565.0,433.0
461.0,513.0,473.0,490.0
446.0,526.0,651.0,575.0
431.0,552.0,726.0,549.0
450.0,521.0,429.0,531.0
459.0,532.0,437.0,505.0
468.0,551.0,505.0,518.0
490.0,514.0,529.0,546.0
502.0,471.0,429.0,538.0
486.0,487.0,404.0,578.0
472.0,512.0,551.0,523.0
474.0,502.0,638.0,520.0
502.0,492.0,487.0,544.0
526.0,483.0,646.0,585.0
531.0,495.0,448.0,370.0
548.0,453.0,554.0,528.0
554.0,442.0,645.0,520.0
529.0,459.0,462.0,498.0
519.0,483.0,562.0,544.0
503.0,517.0,538.0,508.0
497.0,517.0,498.0,495.0
474.0,542.0,475.0,453.0
475.0,546.0,518.0,536.0
494.0,524.0,449.0,464.0
527.0,482.0,444.0,485.0
545.0,493.0,511.0,526.0
552.0,502.0,524.0,484.0
521.0,540.0,503.0,556.0
509.0,545.0,528.0,497.0
513.0,517.0,476.0,459.0
526.0,501.0,495.0,580.0
527.0,490.0,545.0,559.0
516.0,491.0,519.0,480.0
531.0,484.0,487.0,359.0
553.0,482.0,504.0,496.0
582.0,519.0,528.0,547.0
560.0,519.0,531.0,510.0
538.0,521.0,490.0,564.0
564.0,500.0,495.0,557.0
561.0,496.0,510.0,565.0
522.0,478.0,438.0,490.0
432.0,495.0,508.0,512.0
489.0,487.0,523.0,528.0
524.0,485.0,511.0,487.0
509.0,502.0,493.0,521.0
516.0,507.0,447.0,477.0
536.0,498.0,461.0,575.0
559.0,497.0,481.0,592.0
556.0,495.0,530.0,481.0
600.0,479.0,509.0,538.0
590.0,479.0,493.0,464.0
575.0,478.0,646.0,450.0
518.0,509.0,532.0,434.0
441.0,540.0,528.0,584.0
442.0,555.0,635.0,619.0
459.0,562.0,633.0,488.0
479.0,536.0,490.0,516.0
511.0,498.0,501.0,521.0
531.0,492.0,440.0,509.0
547.0,468.0,525.0,588.0
510.0,472.0,535.0,549.0
523.0,505.0,521.0,547.0
517.0,521.0,553.0,551.0
509.0,541.0,519.0,529.0
493.0,536.0,535.0,493.0
489.0,521.0,737.0,503.0
488.0,499.0,528.0,541.0
442.0,462.0,516.0,510.0
462.0,455.0,485.0,498.0
473.0,496.0,534.0,519.0
480.0,509.0,457.0,506.0
489.0,522.0,436.0,482.0
495.0,520.0,511.0,523.0
543.0,518.0,504.0,527.0
631.0,471.0,418.0,474.0
658.0,446.0,396.0,483.0
686.0,454.0,476.0,534.0
689.0,459.0,520.0,501.0
630.0,477.0,473.0,480.0
551.0,487.0,469.0,515.0
459.0,510.0,443.0,435.0
424.0,541.0,514.0,514.0
344.0,542.0,456.0,482.0
397.0,510.0,525.0,526.0
436.0,520.0,439.0,521.0
445.0,540.0,648.0,507.0
450.0,523.0,683.0,548.0
456.0,521.0,496.0,558.0
472.0,499.0,446.0,430.0
472.0,498.0,520.0,416.0
475.0,481.0,520.0,569.0
473.0,472.0,489.0,533.0
478.0,508.0,434.0,491.0
481.0,513.0,531.0,546.0
482.0,519.0,530.0,532.0
474.0,527.0,483.0,584.0
480.0,524.0,450.0,493.0
489.0,523.0,519.0,452.0
508.0,495.0,569.0,520.0
513.0,484.0,497.0,489.0
506.0,493.0,585.0,548.0
512.0,499.0,598.0,602.0
505.0,513.0,559.0,652.0
497.0,512.0,655.0,478.0
503.0,521.0,492.0,475.0
489.0,556.0,277.0,454.0
506.0,538.0,596.0,481.0
552.0,487.0,591.0,529.0
577.0,474.0,506.0,531.0
578.0,483.0,445.0,479.0
592.0,498.0,465.0,515.0
562.0,512.0,524.0,559.0
492.0,553.0,497.0,527.0
500.0,528.0,468.0,525.0
486.0,542.0,473.0,523.0
492.0,502.0,513.0,494.0
551.0,435.0,494.0,453.0
605.0,436.0,567.0,538.0
627.0,467.0,548.0,503.0
565.0,542.0,557.0,507.0
537.0,560.0,696.0,556.0
531.0,528.0,443.0,512.0
483.0,554.0,403.0,437.0
450.0,528.0,453.0,442.0
474.0,447.0,496.0,513.0
456.0,459.0,509.0,556.0
483.0,496.0,491.0,502.0
476.0,535.0,511.0,564.0
495.0,517.0,711.0,513.0
602.0,470.0,365.0,516.0
721.0,451.0,427.0,539.0
743.0,444.0,508.0,528.0
742.0,454.0,458.0,528.0
740.0,436.0,519.0,496.0
588.0,464.0,527.0,489.0
373.0,525.0,522.0,510.0
271.0,554.0,520.0,509.0
324.0,544.0,477.0,490.0
381.0,542.0,478.0,505.0
425.0,513.0,531.0,525.0
436.0,507.0,564.0,488.0
455.0,487.0,508.0,487.0
476.0,507.0,479.0,550.0
473.0,542.0,470.0,541.0
477.0,557.0,466.0,552.0
495.0,531.0,473.0,498.0
478.0,508.0,478.0,510.0
478.0,500.0,586.0,505.0
464.0,483.0,523.0,466.0
476.0,474.0,539.0,492.0
501.0,485.0,512.0,457.0
504.0,506.0,537.0,557.0
495.0,523.0,633.0,558.0
520.0,533.0,458.0,509.0
533.0,519.0,335.0,504.0
539.0,527.0,598.0,531.0
529.0,555.0,554.0,504.0
520.0,502.0,542.0,508.0
524.0,456.0,483.0,527.0
482.0,488.0,506.0,533.0
499.0,507.0,548.0,457.0
552.0,531.0,491.0,543.0
604.0,541.0,489.0,562.0
650.0,496.0,526.0,526.0
654.0,434.0,530.0,528.0
630.0,419.0,484.0,493.0
585.0,450.0,507.0,465.0
518.0,496.0,519.0,450.0
440.0,488.0,503.0,515.0
470.0,488.0,561.0,534.0
539.0,487.0,586.0,471.0
637.0,472.0,443.0,422.0
684.0,483.0,526.0,593.0
708.0,492.0,510.0,574.0
763.0,432.0,518.0,515.0
703.0,458.0,507.0,509.0
616.0,462.0,543.0,478.0
483.0,545.0,442.0,535.0
379.0,614.0,491.0,462.0
346.0,618.0,577.0,545.0
354.0,551.0,451.0,526.0
384.0,508.0,467.0,530.0
430.0,459.0,598.0,531.0
442.0,470.0,551.0,470.0
408.0,519.0,517.0,415.0
396.0,517.0,623.0,485.0
421.0,525.0,726.0,548.0
431.0,543.0,447.0,524.0
433.0,553.0,410.0,559.0
449.0,532.0,470.0,567.0
480.0,500.0,446.0,490.0
499.0,459.0,491.0,501.0
487.0,487.0,557.0,516.0
494.0,509.0,394.0,507.0
470.0,552.0,351.0,459.0
468.0,532.0,490.0,550.0
446.0,526.0,486.0,544.0
444.0,524.0,529.0,485.0
478.0,509.0,498.0,481.0
512.0,471.0,527.0,504.0
512.0,462.0,516.0,504.0
518.0,468.0,499.0,538.0
500.0,512.0,438.0,519.0
490.0,521.0,549.0,549.0
486.0,537.0,597.0,498.0
480.0,538.0,495.0,528.0
511.0,520.0,386.0,528.0
516.0,512.0,427.0,470.0
523.0,491.0,589.0,499.0
522.0,479.0,524.0,528.0
522.0,496.0,506.0,532.0
504.0,520.0,501.0,519.0
512.0,528.0,610.0,520.0
513.0,526.0,442.0,526.0
519.0,502.0,461.0,520.0
533.0,464.0,581.0,506.0
533.0,465.0,550.0,519.0
531.0,516.0,517.0,572.0
529.0,518.0,479.0,601.0
500.0,536.0,572.0,482.0
488.0,529.0,580.0,395.0
491.0,483.0,561.0,437.0
515.0,491.0,496.0,487.0
524.0,493.0,532.0,488.0
554.0,456.0,506.0,517.0
551.0,458.0,469.0,501.0
548.0,491.0,484.0,537.0
523.0,548.0,505.0,570.0
528.0,537.0,478.0,554.0
592.0,495.0,483.0,541.0
622.0,459.0,488.0,491.0
627.0,492.0,536.0,432.0
595.0,475.0,598.0,534.0
568.0,455.0,511.0,536.0
518.0,470.0,514.0,521.0
364.0,556.0,490.0,516.0
429.0,570.0,519.0,510.0
501.0,579.0,618.0,539.0
545.0,532.0,571.0,483.0
617.0,518.0,390.0,458.0
639.0,523.0,390.0,482.0
680.0,486.0,481.0,506.0
651.0,452.0,508.0,480.0
618.0,450.0,667.0,506.0
567.0,457.0,425.0,474.0
476.0,477.0,384.0,456.0
430.0,481.0,455.0,480.0
363.0,513.0,557.0,505.0
367.0,522.0,538.0,562.0
448.0,480.0,541.0,568.0
472.0,502.0,512.0,509.0
523.0,499.0,568.0,537.0
559.0,502.0,556.0,526.0
548.0,528.0,517.0,508.0
523.0,544.0,504.0,493.0
518.0,530.0,490.0,505.0
551.0,491.0,476.0,491.0
456.0,516.0,488.0,517.0
448.0,500.0,463.0,517.0
463.0,489.0,457.0,500.0
472.0,535.0,419.0,511.0
460.0,562.0,527.0,567.0
443.0,551.0,487.0,452.0
456.0,555.0,653.0,607.0
526.0,524.0,552.0,553.0
557.0,508.0,482.0,500.0
569.0,456.0,498.0,479.0
567.0,428.0,617.0,512.0
525.0,460.0,399.0,484.0
426.0,515.0,473.0,434.0
382.0,532.0,622.0,486.0
410.0,526.0,505.0,493.0
449.0,519.0,419.0,562.0
488.0,495.0,510.0,549.0
526.0,488.0,478.0,491.0
558.0,491.0,442.0,479.0
574.0,522.0,449.0,501.0
586.0,524.0,491.0,477.0
577.0,495.0,484.0,502.0
534.0,513.0,538.0,523.0
465.0,526.0,498.0,502.0
470.0,507.0,542.0,509.0
482.0,480.0,551.0,594.0
459.0,512.0,547.0,522.0
476.0,536.0,495.0,479.0
487.0,535.0,569.0,475.0
490.0,551.0,581.0,510.0
492.0,540.0,534.0,488.0
495.0,535.0,491.0,517.0
498.0,468.0,442.0,517.0
492.0,486.0,524.0,450.0
485.0,502.0,482.0,490.0
491.0,527.0,520.0,479.0
504.0,525.0,512.0,505.0
491.0,529.0,399.0,442.0
520.0,483.0,366.0,447.0
529.0,497.0,489.0,529.0
533.0,494.0,557.0,580.0
567.0,477.0,539.0,511.0
602.0,440.0,559.0,508.0
595.0,419.0,535.0,500.0
510.0,460.0,562.0,549.0
506.0,494.0,513.0,530.0
493.0,514.0,461.0,461.0
471.0,535.0,603.0,511.0
471.0,532.0,571.0,587.0
493.0,534.0,539.0,547.0
527.0,483.0,548.0,498.0
527.0,478.0,451.0,528.0
519.0,488.0,373.0,491.0
527.0,524.0,577.0,350.0
541.0,539.0,530.0,516.0
557.0,519.0,512.0,616.0
554.0,502.0,535.0,542.0
531.0,512.0,545.0,542.0
513.0,493.0,638.0,539.0
525.0,456.0,617.0,518.0
497.0,459.0,385.0,494.0
542.0,474.0,406.0,505.0
552.0,500.0,537.0,497.0
544.0,537.0,527.0,539.0
548.0,509.0,497.0,439.0
513.0,516.0,499.0,484.0
534.0,508.0,490.0,546.0
582.0,484.0,495.0,499.0
597.0,491.0,571.0,464.0
622.0,482.0,451.0,470.0
621.0,482.0,436.0,555.0
531.0,498.0,434.0,573.0
498.0,493.0,446.0,510.0
581.0,512.0,550.0,479.0
660.0,489.0,522.0,485.0
672.0,451.0,507.0,554.0
616.0,424.0,507.0,516.0
502.0,450.0,552.0,500.0
292.0,529.0,544.0,524.0
298.0,567.0,531.0,529.0
329.0,561.0,519.0,515.0
385.0,580.0,473.0,490.0
391.0,581.0,400.0,426.0
404.0,556.0,549.0,517.0
430.0,531.0,524.0,507.0
441.0,510.0,509.0,495.0
454.0,507.0,553.0,522.0
445.0,517.0,492.0,547.0
472.0,516.0,501.0,530.0
510.0,518.0,531.0,532.0
546.0,498.0,412.0,498.0
565.0,498.0,485.0,522.0
593.0,473.0,558.0,514.0
583.0,470.0,529.0,520.0
526.0,467.0,537.0,515.0
466.0,523.0,530.0,508.0
480.0,537.0,544.0,498.0
511.0,496.0,520.0,509.0
507.0,499.0,558.0,529.0
508.0,521.0,430.0,557.0
479.0,513.0,419.0,470.0
481.0,518.0,538.0,460.0
488.0,518.0,461.0,497.0
491.0,532.0,509.0,473.0
498.0,465.0,476.0,497.0
490.0,471.0,494.0,519.0
480.0,518.0,572.0,507.0
489.0,509.0,519.0,567.0
507.0,482.0,537.0,526.0
503.0,474.0,562.0,472.0
509.0,487.0,524.0,492.0
509.0,505.0,474.0,476.0
513.0,498.0,485.0,528.0
515.0,511.0,529.0,515.0
497.0,559.0,535.0,518.0
498.0,540.0,649.0,496.0
504.0,497.0,750.0,470.0
537.0,477.0,433.0,538.0
515.0,482.0,348.0,513.0
511.0,482.0,450.0,503.0
503.0,499.0,456.0,501.0
499.0,501.0,453.0,506.0
498.0,525.0,495.0,525.0
497.0,552.0,492.0,500.0
495.0,525.0,486.0,439.0
510.0,488.0,418.0,345.0
530.0,470.0,539.0,506.0
540.0,467.0,685.0,540.0
523.0,512.0,519.0,554.0
514.0,551.0,473.0,543.0
545.0,520.0,562.0,538.0
588.0,528.0,523.0,509.0
580.0,515.0,423.0,511.0
559.0,476.0,388.0,488.0
562.0,458.0,521.0,483.0
535.0,488.0,567.0,514.0
483.0,503.0,505.0,535.0
478.0,514.0,485.0,531.0
549.0,507.0,513.0,544.0
594.0,463.0,577.0,584.0
585.0,478.0,526.0,581.0
591.0,507.0,439.0,472.0
558.0,483.0,567.0,477.0
561.0,447.0,626.0,521.0
542.0,460.0,545.0,469.0
594.0,482.0,492.0,503.0
617.0,517.0,522.0,583.0
632.0,525.0,556.0,547.0
607.0,506.0,684.0,480.0
431.0,523.0,442.0,451.0
423.0,516.0,356.0,473.0
412.0,490.0,547.0,516.0
350.0,548.0,523.0,484.0
342.0,591.0,514.0,546.0
399.0,609.0,420.0,495.0
418.0,582.0,558.0,489.0
422.0,582.0,531.0,528.0
446.0,485.0,483.0,536.0
469.0,442.0,506.0,498.0
480.0,441.0,519.0,516.0
477.0,485.0,493.0,504.0
472.0,521.0,561.0,482.0
478.0,502.0,595.0,526.0
466.0,528.0,471.0,555.0
497.0,533.0,462.0,526.0
533.0,513.0,420.0,503.0
531.0,504.0,477.0,470.0
531.0,469.0,528.0,494.0
520.0,471.0,512.0,516.0
536.0,439.0,467.0,528.0
481.0,488.0,415.0,513.0
490.0,500.0,488.0,497.0
505.0,515.0,554.0,481.0
522.0,502.0,509.0,485.0
532.0,507.0,512.0,505.0
556.0,491.0,589.0,503.0
563.0,492.0,463.0,514.0
571.0,472.0,618.0,494.0
564.0,462.0,552.0,509.0
539.0,536.0,461.0,487.0
517.0,545.0,541.0,533.0
456.0,552.0,671.0,505.0
433.0,565.0,412.0,501.0
471.0,556.0,374.0,487.0
514.0,504.0,525.0,526.0
529.0,456.0,470.0,492.0
539.0,488.0,509.0,497.0
527.0,512.0,477.0,510.0
515.0,512.0,395.0,543.0
518.0,514.0,570.0,549.0
508.0,499.0,543.0,528.0
479.0,504.0,518.0,512.0
492.0,493.0,519.0,476.0
517.0,475.0,507.0,465.0
522.0,465.0,509.0,481.0
513.0,493.0,522.0,507.0
519.0,498.0,521.0,496.0
526.0,504.0,490.0,501.0
552.0,501.0,506.0,546.0
590.0,499.0,526.0,532.0
597.0,474.0,493.0,480.0
563.0,473.0,490.0,465.0
526.0,499.0,486.0,524.0
471.0,532.0,496.0,492.0
425.0,550.0,456.0,436.0
440.0,540.0,532.0,600.0
469.0,529.0,515.0,568.0
484.0,535.0,560.0,528.0
493.0,520.0,586.0,532.0
508.0,487.0,415.0,458.0
544.0,484.0,498.0,466.0
554.0,496.0,566.0,471.0
545.0,523.0,521.0,542.0
583.0,500.0,547.0,556.0
554.0,526.0,539.0,471.0
520.0,536.0,499.0,484.0
484.0,535.0,448.0,483.0
530.0,502.0,531.0,501.0
504.0,495.0,405.0,516.0
419.0,462.0,503.0,529.0
461.0,462.0,591.0,589.0
472.0,520.0,595.0,566.0
513.0,507.0,415.0,435.0
565.0,498.0,460.0,451.0
569.0,498.0,460.0,490.0
583.0,465.0,538.0,543.0
594.0,453.0,528.0,552.0
594.0,471.0,586.0,533.0
502.0,530.0,538.0,488.0
468.0,547.0,492.0,458.0
426.0,543.0,529.0,524.0
469.0,495.0,533.0,516.0
584.0,471.0,583.0,531.0
636.0,482.0,525.0,519.0
635.0,462.0,454.0,476.0
683.0,435.0,543.0,496.0
610.0,476.0,471.0,430.0
492.0,510.0,471.0,524.0
344.0,571.0,366.0,526.0
408.0,587.0,499.0,543.0
463.0,560.0,569.0,539.0
467.0,507.0,518.0,520.0
449.0,476.0,509.0,529.0
441.0,478.0,595.0,496.0
429.0,482.0,549.0,456.0
443.0,474.0,513.0,522.0
450.0,509.0,549.0,513.0
433.0,531.0,507.0,520.0
447.0,519.0,563.0,480.0
472.0,493.0,515.0,590.0
490.0,495.0,398.0,607.0
495.0,511.0,531.0,422.0
505.0,512.0,732.0,513.0
505.0,525.0,461.0,525.0
487.0,552.0,378.0,505.0
508.0,519.0,442.0,488.0
521.0,532.0,465.0,534.0
531.0,514.0,478.0,495.0
533.0,490.0,584.0,460.0
536.0,477.0,539.0,477.0
516.0,515.0,496.0,506.0
486.0,497.0,535.0,565.0
493.0,495.0,535.0,550.0
493.0,513.0,496.0,484.0
486.0,535.0,488.0,505.0
494.0,553.0,492.0,504.0
511.0,542.0,502.0,473.0
524.0,513.0,513.0,482.0
522.0,479.0,498.0,504.0
522.0,456.0,518.0,548.0
522.0,462.0,515.0,539.0
513.0,490.0,484.0,513.0
516.0,513.0,493.0,456.0
510.0,518.0,504.0,510.0
522.0,509.0,500.0,501.0
540.0,495.0,516.0,499.0
526.0,498.0,521.0,502.0
513.0,511.0,509.0,464.0
518.0,521.0,534.0,453.0
513.0,554.0,516.0,503.0
538.0,493.0,534.0,476.0
586.0,442.0,439.0,421.0
643.0,455.0,434.0,518.0
643.0,471.0,501.0,549.0
637.0,462.0,569.0,572.0
593.0,488.0,520.0,557.0
542.0,475.0,506.0,530.0
394.0,513.0,520.0,535.0
359.0,561.0,480.0,518.0
419.0,534.0,507.0,514.0
464.0,513.0,488.0,461.0
468.0,510.0,523.0,514.0
481.0,491.0,662.0,567.0
494.0,477.0,481.0,526.0
510.0,479.0,467.0,416.0
494.0,492.0,526.0,485.0
508.0,523.0,520.0,484.0
528.0,539.0,465.0,505.0
533.0,555.0,465.0,542.0
517.0,527.0,527.0,597.0
533.0,499.0,487.0,503.0
519.0,478.0,484.0,441.0
497.0,477.0,457.0,503.0
494.0,502.0,538.0,591.0
489.0,528.0,442.0,545.0
506.0,526.0,520.0,528.0
508.0,518.0,534.0,530.0
534.0,504.0,494.0,502.0
548.0,498.0,540.0,514.0
579.0,479.0,503.0,509.0
593.0,471.0,530.0,500.0
574.0,456.0,519.0,475.0
545.0,448.0,483.0,475.0
465.0,502.0,529.0,489.0
446.0,509.0,475.0,448.0
495.0,501.0,533.0,469.0
507.0,508.0,523.0,539.0
505.0,533.0,491.0,553.0
529.0,531.0,524.0,571.0
540.0,508.0,563.0,534.0
501.0,563.0,415.0,472.0
495.0,563.0,495.0,533.0
487.0,573.0,516.0,501.0
478.0,544.0,507.0,510.0
525.0,479.0,519.0,498.0
542.0,426.0,531.0,511.0
528.0,422.0,547.0,529.0
519.0,456.0,581.0,535.0
509.0,489.0,545.0,503.0
515.0,512.0,462.0,479.0
475.0,531.0,488.0,477.0
448.0,556.0,450.0,530.0
419.0,568.0,529.0,537.0
450.0,547.0,552.0,475.0
501.0,522.0,609.0,512.0
518.0,483.0,494.0,470.0
549.0,447.0,521.0,534.0
544.0,500.0,534.0,565.0
544.0,495.0,421.0,497.0
527.0,502.0,613.0,542.0
541.0,496.0,584.0,475.0
518.0,498.0,309.0,429.0
491.0,439.0,524.0,568.0
480.0,441.0,535.0,585.0
478.0,487.0,578.0,482.0
488.0,512.0,417.0,473.0
472.0,533.0,564.0,528.0
447.0,575.0,574.0,525.0
456.0,591.0,526.0,479.0
494.0,505.0,494.0,505.0
516.0,464.0,482.0,511.0
516.0,478.0,488.0,529.0
519.0,496.0,509.0,526.0
528.0,509.0,463.0,516.0
528.0,513.0,471.0,515.0
531.0,532.0,607.0,439.0
529.0,521.0,492.0,487.0
530.0,498.0,429.0,558.0
550.0,475.0,520.0,560.0
511.0,464.0,594.0,500.0
484.0,490.0,550.0,529.0
511.0,525.0,516.0,502.0
507.0,561.0,440.0,506.0
509.0,567.0,472.0,485.0
515.0,534.0,511.0,522.0
525.0,509.0,540.0,515.0
499.0,478.0,499.0,504.0
525.0,468.0,504.0,479.0
491.0,484.0,492.0,493.0
476.0,494.0,486.0,512.0
476.0,518.0,486.0,507.0
471.0,534.0,485.0,516.0
482.0,515.0,505.0,511.0
497.0,511.0,508.0,561.0
495.0,532.0,550.0,562.0
522.0,488.0,495.0,489.0
532.0,444.0,534.0,491.0
533.0,440.0,502.0,517.0
514.0,492.0,464.0,460.0
499.0,536.0,558.0,471.0
512.0,519.0,550.0,513.0
509.0,522.0,538.0,504.0
511.0,536.0,518.0,509.0
549.0,518.0,495.0,524.0
577.0,476.0,491.0,505.0
559.0,484.0,490.0,509.0
579.0,482.0,479.0,512.0
581.0,503.0,448.0,518.0
525.0,525.0,509.0,551.0
498.0,518.0,515.0,475.0
443.0,526.0,547.0,437.0
457.0,501.0,476.0,502.0
466.0,467.0,585.0,589.0
492.0,475.0,543.0,523.0
494.0,487.0,521.0,489.0
494.0,514.0,560.0,503.0
483.0,543.0,500.0,447.0
481.0,539.0,513.0,483.0
501.0,488.0,504.0,508.0
520.0,507.0,508.0,546.0
535.0,497.0,518.0,558.0
557.0,476.0,495.0,579.0
567.0,484.0,488.0,470.0
562.0,493.0,503.0,466.0
522.0,515.0,520.0,541.0
517.0,509.0,506.0,511.0
501.0,522.0,449.0,529.0
501.0,516.0,559.0,528.0
572.0,486.0,521.0,503.0
621.0,421.0,512.0,500.0
622.0,438.0,506.0,458.0
601.0,481.0,553.0,512.0
503.0,539.0,514.0,538.0
452.0,528.0,515.0,548.0
448.0,522.0,510.0,495.0
463.0,541.0,523.0,491.0
464.0,544.0,497.0,510.0
468.0,526.0,482.0,510.0
479.0,482.0,508.0,505.0
526.0,481.0,493.0,531.0
530.0,517.0,557.0,534.0
519.0,537.0,499.0,531.0
525.0,539.0,462.0,534.0
491.0,531.0,498.0,522.0
471.0,535.0,451.0,495.0
434.0,540.0,506.0,492.0
466.0,467.0,550.0,516.0
488.0,465.0,539.0,509.0
500.0,473.0,532.0,511.0
472.0,515.0,516.0,484.0
472.0,515.0,534.0,500.0
485.0,532.0,512.0,525.0
496.0,505.0,471.0,466.0
508.0,490.0,493.0,488.0
519.0,453.0,506.0,525.0
526.0,478.0,443.0,484.0
546.0,490.0,586.0,528.0
496.0,535.0,484.0,516.0
499.0,547.0,426.0,471.0
507.0,524.0,502.0,557.0
513.0,524.0,606.0,545.0
512.0,518.0,482.0,493.0
511.0,494.0,484.0,489.0
524.0,490.0,529.0,498.0
524.0,497.0,523.0,503.0
516.0,520.0,540.0,498.0
498.0,553.0,470.0,488.0
492.0,532.0,540.0,505.0
486.0,513.0,510.0,488.0
480.0,511.0,504.0,525.0
499.0,487.0,501.0,509.0
517.0,464.0,470.0,496.0
521.0,472.0,475.0,475.0
515.0,497.0,465.0,510.0
497.0,535.0,478.0,537.0
498.0,528.0,517.0,535.0
501.0,531.0,528.0,509.0
509.0,522.0,517.0,509.0
518.0,501.0,546.0,524.0
534.0,447.0,550.0,511.0
522.0,461.0,530.0,499.0
516.0,454.0,527.0,504.0
507.0,486.0,537.0,495.0
503.0,505.0,498.0,487.0
501.0,517.0,508.0,510.0
505.0,534.0,508.0,497.0
507.0,516.0,507.0,516.0
525.0,506.0,506.0,529.0
521.0,498.0,521.0,518.0
521.0,492.0,498.0,491.0
516.0,520.0,493.0,518.0
500.0,545.0,481.0,503.0
508.0,532.0,498.0,509.0
520.0,496.0,499.0,511.0
526.0,459.0,519.0,497.0
533.0,462.0,538.0,490.0
520.0,488.0,486.0,522.0
525.0,483.0,528.0,508.0
518.0,491.0,533.0,500.0
506.0,550.0,496.0,485.0
492.0,552.0,520.0,496.0
485.0,524.0,508.0,509.0
485.0,517.0,485.0,500.0
502.0,507.0,496.0,514.0
524.0,474.0,495.0,510.0
530.0,475.0,501.0,511.0
529.0,500.0,483.0,513.0
516.0,521.0,514.0,515.0
509.0,527.0,504.0,517.0
504.0,552.0,494.0,503.0
503.0,555.0,503.0,495.0
506.0,550.0,511.0,516.0
526.0,515.0,515.0,514.0
529.0,504.0,530.0,513.0
527.0,492.0,532.0,502.0
516.0,492.0,530.0,495.0
505.0,487.0,528.0,497.0
512.0,486.0,525.0,501.0
502.0,509.0,510.0,498.0
507.0,505.0,497.0,503.0
517.0,482.0,490.0,501.0
529.0,473.0,496.0,507.0
533.0,483.0,493.0,512.0
527.0,487.0,488.0,507.0
514.0,517.0,489.0,512.0
504.0,515.0,494.0,512.0
506.0,513.0,501.0,511.0
494.0,511.0,505.0,512.0
518.0,495.0,517.0,507.0
526.0,477.0,528.0,502.0
523.0,483.0,531.0,497.0
522.0,485.0,527.0,502.0
496.0,501.0,517.0,511.0
486.0,521.0,517.0,492.0
496.0,521.0,502.0,484.0
490.0,525.0,499.0,489.0
509.0,521.0,504.0,487.0
545.0,476.0,498.0,507.0
546.0,472.0,493.0,510.0
556.0,484.0,495.0,506.0
548.0,498.0,496.0,508.0
533.0,514.0,496.0,511.0
512.0,521.0,499.0,510.0
523.0,524.0,503.0,511.0
549.0,511.0,511.0,507.0
564.0,485.0,522.0,506.0
599.0,461.0,525.0,497.0
594.0,459.0,534.0,495.0
546.0,471.0,533.0,497.0
519.0,510.0,524.0,496.0
483.0,528.0,514.0,500.0
416.0,549.0,509.0,502.0
393.0,543.0,506.0,498.0
442.0,525.0,501.0,502.0
480.0,502.0,500.0,505.0
494.0,495.0,493.0,502.0
504.0,494.0,493.0,503.0
487.0,522.0,495.0,520.0
475.0,524.0,496.0,519.0
477.0,526.0,503.0,520.0
474.0,523.0,501.0,517.0
482.0,509.0,513.0,510.0
507.0,471.0,527.0,502.0
518.0,469.0,533.0,497.0
506.0,483.0,533.0,494.0
500.0,501.0,528.0,497.0
489.0,526.0,517.0,499.0
484.0,531.0,516.0,501.0
485.0,549.0,512.0,499.0
490.0,533.0,505.0,501.0
510.0,497.0,499.0,502.0
519.0,492.0,499.0,504.0
516.0,498.0,496.0,505.0
516.0,502.0,493.0,510.0
501.0,536.0,492.0,513.0
495.0,539.0,497.0,516.0
503.0,503.0,502.0,511.0
509.0,499.0,508.0,510.0
512.0,502.0,521.0,514.0
527.0,473.0,531.0,511.0
529.0,474.0,539.0,506.0
528.0,482.0,535.0,509.0
512.0,519.0,529.0,513.0
500.0,517.0,519.0,514.0
500.0,505.0,515.0,510.0
501.0,516.0,509.0,506.0
513.0,508.0,499.0,505.0
522.0,477.0,498.0,502.0
516.0,491.0,493.0,504.0
521.0,491.0,491.0,507.0
513.0,518.0,487.0,513.0
506.0,505.0,488.0,514.0
504.0,507.0,499.0,518.0
505.0,513.0,504.0,517.0
508.0,513.0,514.0,517.0
520.0,490.0,526.0,512.0
531.0,476.0,532.0,510.0
528.0,467.0,533.0,509.0
527.0,492.0,532.0,504.0
500.0,539.0,522.0,508.0
500.0,550.0,513.0,507.0
487.0,558.0,507.0,509.0
490.0,518.0,506.0,508.0
510.0,496.0,494.0,509.0
529.0,493.0,496.0,507.0
526.0,496.0,493.0,508.0
520.0,507.0,496.0,515.0
506.0,538.0,497.0,522.0
497.0,548.0,502.0,523.0
503.0,526.0,504.0,522.0
507.0,491.0,513.0,519.0
512.0,481.0,519.0,513.0
532.0,466.0,526.0,507.0
540.0,458.0,530.0,505.0
521.0,482.0,532.0,500.0
506.0,502.0,523.0,501.0
505.0,507.0,512.0,500.0
504.0,515.0,512.0,495.0
489.0,518.0,512.0,508.0
493.0,518.0,511.0,512.0
517.0,497.0,511.0,507.0
525.0,476.0,506.0,506.0
523.0,475.0,502.0,510.0
520.0,477.0,503.0,517.0
498.0,521.0,498.0,522.0
494.0,542.0,503.0,519.0
500.0,550.0,507.0,520.0
516.0,524.0,514.0,517.0
524.0,494.0,522.0,512.0
533.0,470.0,529.0,504.0
527.0,486.0,536.0,502.0
518.0,463.0,537.0,498.0
505.0,493.0,528.0,499.0
491.0,544.0,521.0,503.0
498.0,549.0,517.0,498.0
494.0,541.0,508.0,503.0
498.0,509.0,504.0,505.0
521.0,459.0,504.0,504.0
527.0,470.0,505.0,505.0
528.0,494.0,502.0,509.0
513.0,515.0,498.0,518.0
500.0,529.0,498.0,518.0
505.0,518.0,502.0,519.0
514.0,515.0,509.0,517.0
514.0,513.0,515.0,513.0
523.0,495.0,525.0,510.0
525.0,476.0,534.0,503.0
527.0,492.0,532.0,503.0
521.0,506.0,530.0,502.0
500.0,553.0,521.0,507.0
488.0,573.0,518.0,505.0
486.0,578.0,513.0,506.0
502.0,502.0,510.0,503.0
507.0,482.0,504.0,508.0
521.0,469.0,506.0,509.0
521.0,476.0,502.0,508.0
517.0,491.0,500.0,517.0
502.0,507.0,498.0,519.0
496.0,508.0,497.0,521.0
496.0,514.0,505.0,520.0
500.0,510.0,511.0,518.0
516.0,506.0,515.0,513.0
529.0,481.0,528.0,506.0
533.0,480.0,528.0,503.0
524.0,500.0,532.0,500.0
516.0,506.0,524.0,503.0
507.0,512.0,518.0,505.0
506.0,496.0,517.0,505.0
494.0,527.0,512.0,506.0
498.0,529.0,503.0,507.0
510.0,498.0,501.0,508.0
525.0,488.0,504.0,509.0
527.0,490.0,500.0,510.0
519.0,507.0,498.0,517.0
503.0,534.0,492.0,520.0
499.0,536.0,498.0,520.0
500.0,521.0,506.0,518.0
503.0,512.0,509.0,517.0
513.0,491.0,515.0,513.0
531.0,475.0,528.0,503.0
526.0,480.0,530.0,503.0
524.0,478.0,529.0,501.0
505.0,513.0,524.0,503.0
493.0,513.0,522.0,505.0
490.0,508.0,515.0,503.0
497.0,483.0,510.0,508.0
505.0,499.0,505.0,510.0
517.0,495.0,502.0,510.0
518.0,488.0,502.0,512.0
523.0,487.0,501.0,514.0
520.0,503.0,498.0,518.0
512.0,530.0,499.0,523.0
510.0,525.0,502.0,517.0
501.0,535.0,501.0,518.0
511.0,527.0,510.0,513.0
524.0,496.0,522.0,506.0
536.0,468.0,529.0,499.0
530.0,469.0,529.0,498.0
523.0,487.0,529.0,501.0
507.0,521.0,520.0,505.0
500.0,520.0,512.0,505.0
500.0,525.0,514.0,506.0
501.0,523.0,509.0,505.0
505.0,516.0,505.0,507.0
521.0,496.0,503.0,507.0
523.0,497.0,501.0,510.0
521.0,488.0,499.0,515.0
505.0,523.0,495.0,525.0
504.0,528.0,503.0,520.0
502.0,536.0,505.0,516.0
507.0,536.0,509.0,517.0
518.0,522.0,514.0,513.0
531.0,464.0,522.0,506.0
538.0,432.0,528.0,501.0
537.0,422.0,529.0,498.0
517.0,479.0,522.0,501.0
507.0,538.0,518.0,502.0
488.0,569.0,513.0,503.0
488.0,573.0,510.0,506.0
489.0,545.0,504.0,509.0
507.0,482.0,503.0,510.0
525.0,445.0,504.0,507.0
520.0,454.0,502.0,518.0
514.0,473.0,501.0,519.0
504.0,509.0,499.0,521.0
495.0,548.0,502.0,517.0
495.0,539.0,502.0,519.0
500.0,518.0,511.0,515.0
515.0,506.0,517.0,512.0
539.0,472.0,527.0,501.0
540.0,466.0,529.0,504.0
536.0,484.0,530.0,499.0
512.0,516.0,525.0,505.0
502.0,510.0,521.0,505.0
492.0,524.0,515.0,502.0
489.0,523.0,513.0,507.0
498.0,499.0,500.0,509.0
514.0,463.0,503.0,505.0
523.0,459.0,500.0,507.0
522.0,471.0,497.0,512.0
516.0,499.0,495.0,516.0
507.0,551.0,498.0,518.0
503.0,561.0,498.0,515.0
499.0,549.0,505.0,512.0
504.0,525.0,511.0,512.0
522.0,494.0,520.0,504.0
531.0,468.0,526.0,504.0
529.0,473.0,528.0,502.0
526.0,472.0,526.0,503.0
507.0,516.0,518.0,509.0
496.0,517.0,515.0,504.0
496.0,528.0,511.0,501.0
503.0,525.0,505.0,504.0
511.0,499.0,502.0,504.0
517.0,469.0,503.0,501.0
517.0,482.0,500.0,511.0
514.0,484.0,501.0,516.0
500.0,519.0,497.0,521.0
497.0,557.0,494.0,521.0
505.0,538.0,503.0,516.0
508.0,534.0,505.0,518.0
517.0,513.0,508.0,514.0
534.0,478.0,524.0,508.0
534.0,485.0,524.0,505.0
529.0,491.0,529.0,504.0
516.0,504.0,526.0,508.0
500.0,519.0,524.0,513.0
497.0,506.0,517.0,509.0
498.0,514.0,513.0,510.0
502.0,506.0,505.0,510.0
510.0,496.0,509.0,511.0
529.0,477.0,502.0,506.0
528.0,487.0,496.0,510.0
519.0,505.0,497.0,515.0
507.0,515.0,493.0,521.0
499.0,535.0,496.0,517.0
494.0,529.0,502.0,517.0
505.0,499.0,502.0,519.0
517.0,479.0,510.0,517.0
527.0,486.0,521.0,511.0
526.0,485.0,531.0,508.0
525.0,484.0,526.0,507.0
511.0,513.0,521.0,508.0
506.0,539.0,513.0,507.0
500.0,552.0,508.0,504.0
495.0,550.0,508.0,507.0
499.0,498.0,509.0,508.0
520.0,473.0,509.0,508.0
521.0,489.0,502.0,509.0
522.0,506.0,504.0,513.0
510.0,534.0,498.0,516.0
497.0,544.0,493.0,517.0
498.0,533.0,498.0,516.0
496.0,528.0,497.0,511.0
513.0,532.0,505.0,504.0
526.0,493.0,513.0,505.0
530.0,496.0,521.0,500.0
532.0,493.0,521.0,496.0
529.0,473.0,521.0,502.0
509.0,484.0,513.0,510.0
503.0,505.0,514.0,509.0
496.0,513.0,518.0,509.0
499.0,512.0,515.0,506.0
505.0,509.0,510.0,516.0
526.0,488.0,508.0,520.0
527.0,483.0,497.0,518.0
525.0,485.0,496.0,511.0
507.0,512.0,492.0,519.0
498.0,532.0,492.0,520.0
511.0,523.0,499.0,522.0
520.0,522.0,504.0,513.0
528.0,500.0,510.0,509.0
535.0,467.0,516.0,504.0
534.0,470.0,524.0,503.0
526.0,477.0,526.0,505.0
507.0,492.0,518.0,505.0
491.0,494.0,511.0,504.0
481.0,502.0,509.0,504.0
489.0,506.0,508.0,503.0
502.0,521.0,504.0,507.0
508.0,526.0,500.0,513.0
522.0,493.0,506.0,516.0
526.0,485.0,505.0,519.0
523.0,502.0,502.0,521.0
509.0,525.0,496.0,524.0
506.0,522.0,496.0,520.0
505.0,524.0,502.0,521.0
516.0,532.0,508.0,521.0
516.0,528.0,515.0,511.0
533.0,480.0,525.0,509.0
531.0,468.0,530.0,506.0
522.0,477.0,536.0,511.0
510.0,503.0,527.0,512.0
501.0,515.0,521.0,506.0
499.0,526.0,512.0,508.0
501.0,523.0,506.0,506.0
502.0,520.0,506.0,512.0
515.0,494.0,501.0,509.0
524.0,490.0,498.0,514.0
523.0,493.0,497.0,516.0
518.0,504.0,495.0,520.0
505.0,529.0,493.0,517.0
512.0,508.0,500.0,517.0
507.0,518.0,502.0,511.0
511.0,514.0,507.0,507.0
525.0,489.0,516.0,508.0
535.0,461.0,523.0,503.0
529.0,458.0,523.0,503.0
524.0,462.0,521.0,508.0
505.0,493.0,516.0,511.0
507.0,502.0,517.0,510.0
501.0,533.0,512.0,505.0
497.0,538.0,506.0,503.0
506.0,520.0,499.0,507.0
524.0,485.0,499.0,509.0
523.0,486.0,494.0,513.0
522.0,483.0,494.0,519.0
509.0,500.0,494.0,525.0
503.0,499.0,492.0,525.0
501.0,486.0,500.0,527.0
506.0,504.0,509.0,522.0
505.0,524.0,516.0,519.0
526.0,494.0,524.0,510.0
527.0,484.0,531.0,500.0
519.0,484.0,529.0,495.0
512.0,516.0,522.0,498.0
495.0,567.0,510.0,498.0
491.0,553.0,510.0,495.0
489.0,538.0,505.0,500.0
495.0,508.0,502.0,508.0
508.0,489.0,507.0,511.0
529.0,480.0,502.0,511.0
526.0,489.0,494.0,512.0
520.0,507.0,494.0,507.0
502.0,535.0,492.0,513.0
496.0,543.0,496.0,510.0
499.0,511.0,502.0,509.0
507.0,505.0,507.0,506.0
520.0,515.0,513.0,509.0
534.0,495.0,523.0,506.0
532.0,504.0,524.0,502.0
533.0,523.0,522.0,498.0
517.0,505.0,514.0,501.0
507.0,424.0,509.0,498.0
505.0,487.0,503.0,500.0
499.0,537.0,504.0,499.0
503.0,555.0,500.0,504.0
509.0,508.0,498.0,509.0
519.0,504.0,504.0,516.0
518.0,500.0,506.0,523.0
515.0,495.0,511.0,530.0
506.0,517.0,510.0,540.0
504.0,522.0,516.0,536.0
499.0,523.0,516.0,529.0
508.0,502.0,518.0,520.0
519.0,462.0,520.0,508.0
536.0,442.0,522.0,494.0
537.0,476.0,514.0,492.0
533.0,488.0,508.0,491.0
513.0,521.0,498.0,488.0
504.0,528.0,496.0,490.0
498.0,550.0,498.0,498.0
501.0,529.0,496.0,503.0
506.0,513.0,497.0,512.0
520.0,485.0,504.0,511.0
528.0,489.0,509.0,518.0
524.0,499.0,511.0,515.0
511.0,536.0,499.0,512.0
499.0,541.0,496.0,509.0
497.0,538.0,500.0,504.0
501.0,520.0,503.0,500.0
506.0,513.0,503.0,494.0
527.0,474.0,513.0,493.0
540.0,428.0,522.0,495.0
537.0,437.0,525.0,496.0
524.0,491.0,515.0,491.0
503.0,524.0,504.0,492.0
500.0,501.0,498.0,485.0
497.0,493.0,493.0,490.0
499.0,488.0,495.0,498.0
512.0,483.0,495.0,502.0
529.0,480.0,501.0,510.0
525.0,501.0,505.0,519.0
523.0,511.0,506.0,532.0
509.0,529.0,508.0,532.0
506.0,536.0,505.0,527.0
498.0,562.0,506.0,532.0
500.0,551.0,508.0,529.0
511.0,518.0,517.0,519.0
528.0,471.0,526.0,503.0
527.0,479.0,532.0,489.0
521.0,470.0,538.0,485.0
512.0,491.0,529.0,488.0
496.0,538.0,510.0,494.0
494.0,567.0,497.0,493.0
491.0,551.0,498.0,493.0
502.0,532.0,493.0,495.0
516.0,479.0,493.0,498.0
522.0,471.0,495.0,506.0
520.0,469.0,493.0,518.0
511.0,501.0,492.0,521.0
501.0,549.0,492.0,523.0
504.0,546.0,502.0,522.0
510.0,521.0,513.0,523.0
519.0,485.0,519.0,518.0
529.0,463.0,529.0,510.0
541.0,469.0,528.0,509.0
538.0,468.0,520.0,499.0
530.0,438.0,516.0,494.0
515.0,485.0,511.0,494.0
506.0,506.0,511.0,493.0
498.0,517.0,504.0,489.0
496.0,538.0,500.0,489.0
492.0,557.0,495.0,497.0
508.0,510.0,487.0,500.0
510.0,507.0,486.0,506.0
515.0,510.0,485.0,508.0
507.0,551.0,481.0,514.0
501.0,548.0,497.0,519.0
513.0,512.0,506.0,515.0
506.0,532.0,507.0,514.0
509.0,534.0,507.0,509.0
531.0,440.0,515.0,499.0
534.0,442.0,520.0,496.0
528.0,467.0,526.0,497.0
517.0,487.0,521.0,491.0
499.0,511.0,513.0,496.0
495.0,502.0,506.0,497.0
501.0,492.0,500.0,503.0
508.0,510.0,494.0,512.0
521.0,517.0,486.0,517.0
526.0,475.0,488.0,521.0
528.0,453.0,495.0,526.0
525.0,467.0,505.0,535.0
512.0,549.0,508.0,537.0
502.0,545.0,506.0,529.0
510.0,518.0,522.0,522.0
514.0,542.0,528.0,514.0
517.0,520.0,518.0,503.0
531.0,476.0,515.0,495.0
531.0,466.0,513.0,490.0
527.0,454.0,516.0,492.0
512.0,497.0,511.0,496.0
505.0,517.0,506.0,497.0
492.0,554.0,505.0,503.0
485.0,555.0,503.0,501.0
492.0,544.0,501.0,508.0
521.0,468.0,495.0,512.0
528.0,461.0,497.0,514.0
522.0,483.0,501.0,516.0
516.0,487.0,495.0,518.0
503.0,515.0,489.0,516.0
506.0,519.0,496.0,515.0
508.0,534.0,496.0,516.0
514.0,529.0,503.0,515.0
524.0,523.0,510.0,513.0
532.0,509.0,525.0,515.0
531.0,473.0,526.0,521.0
521.0,489.0,526.0,518.0
502.0,480.0,520.0,518.0
495.0,511.0,514.0,515.0
499.0,542.0,511.0,512.0
498.0,534.0,507.0,516.0
503.0,520.0,494.0,522.0
527.0,493.0,491.0,524.0
530.0,473.0,492.0,521.0
521.0,477.0,494.0,527.0
505.0,508.0,502.0,525.0
497.0,512.0,513.0,529.0
499.0,506.0,510.0,523.0
506.0,525.0,515.0,516.0
523.0,529.0,509.0,504.0
518.0,571.0,503.0,492.0
522.0,579.0,505.0,488.0
518.0,538.0,504.0,485.0
528.0,428.0,505.0,486.0
506.0,472.0,501.0,487.0
501.0,467.0,510.0,497.0
498.0,496.0,509.0,503.0
509.0,490.0,506.0,507.0
522.0,491.0,498.0,504.0
522.0,474.0,495.0,507.0
518.0,477.0,492.0,506.0
519.0,462.0,489.0,511.0
504.0,506.0,482.0,508.0
497.0,546.0,482.0,512.0
506.0,527.0,493.0,516.0
508.0,509.0,493.0,518.0
524.0,459.0,502.0,521.0
539.0,457.0,514.0,519.0
529.0,482.0,515.0,514.0
520.0,485.0,522.0,509.0
511.0,506.0,521.0,513.0
497.0,539.0,533.0,520.0
491.0,536.0,542.0,523.0
488.0,540.0,526.0,524.0
493.0,533.0,505.0,520.0
514.0,500.0,497.0,517.0
523.0,501.0,489.0,514.0
515.0,499.0,480.0,512.0
510.0,498.0,482.0,513.0
505.0,526.0,487.0,518.0
514.0,515.0,500.0,521.0
513.0,518.0,507.0,512.0
511.0,504.0,498.0,505.0
517.0,485.0,505.0,503.0
531.0,462.0,521.0,500.0
530.0,475.0,523.0,501.0
526.0,495.0,519.0,497.0
506.0,525.0,512.0,505.0
501.0,525.0,501.0,505.0
494.0,528.0,497.0,509.0
497.0,517.0,507.0,513.0
502.0,504.0,509.0,521.0
525.0,473.0,514.0,523.0
527.0,480.0,508.0,523.0
525.0,485.0,495.0,520.0
510.0,509.0,486.0,514.0
501.0,531.0,493.0,520.0
504.0,525.0,493.0,520.0
499.0,511.0,501.0,517.0
505.0,502.0,507.0,513.0
526.0,473.0,510.0,505.0
527.0,461.0,521.0,503.0
528.0,453.0,532.0,502.0
516.0,463.0,522.0,504.0
500.0,484.0,517.0,497.0
497.0,500.0,510.0,503.0
497.0,517.0,513.0,511.0
495.0,541.0,496.0,514.0
512.0,531.0,497.0,516.0
528.0,509.0,494.0,516.0
527.0,496.0,498.0,516.0
520.0,499.0,486.0,516.0
504.0,532.0,491.0,515.0
500.0,555.0,496.0,520.0
503.0,559.0,494.0,516.0
510.0,551.0,501.0,512.0
509.0,532.0,511.0,509.0
527.0,452.0,524.0,512.0
526.0,455.0,531.0,511.0
521.0,469.0,528.0,513.0
511.0,517.0,524.0,513.0
492.0,558.0,514.0,506.0
494.0,565.0,506.0,505.0
497.0,493.0,497.0,510.0
503.0,492.0,492.0,518.0
523.0,492.0,505.0,524.0
528.0,480.0,511.0,532.0
520.0,502.0,514.0,534.0
509.0,505.0,510.0,539.0
493.0,500.0,503.0,540.0
496.0,503.0,498.0,534.0
501.0,522.0,500.0,521.0
515.0,529.0,510.0,515.0
528.0,524.0,513.0,503.0
539.0,458.0,524.0,497.0
528.0,489.0,523.0,498.0
518.0,518.0,513.0,499.0
504.0,550.0,498.0,502.0
506.0,518.0,494.0,507.0
503.0,476.0,497.0,514.0
504.0,494.0,505.0,513.0
505.0,482.0,514.0,523.0
521.0,458.0,523.0,527.0
530.0,480.0,504.0,526.0
525.0,499.0,495.0,522.0
512.0,520.0,481.0,511.0
500.0,521.0,474.0,503.0
502.0,492.0,482.0,505.0
503.0,492.0,500.0,503.0
506.0,511.0,504.0,503.0
525.0,500.0,505.0,504.0
533.0,486.0,510.0,499.0
527.0,481.0,521.0,501.0
515.0,491.0,526.0,504.0
497.0,525.0,523.0,504.0
495.0,519.0,523.0,504.0
495.0,513.0,509.0,502.0
500.0,507.0,495.0,502.0
502.0,508.0,488.0,503.0
520.0,479.0,492.0,507.0
521.0,493.0,491.0,512.0
517.0,508.0,492.0,515.0
501.0,541.0,487.0,516.0
508.0,519.0,487.0,516.0
511.0,517.0,492.0,514.0
519.0,503.0,494.0,519.0
519.0,497.0,505.0,520.0
535.0,471.0,517.0,514.0
535.0,474.0,528.0,519.0
529.0,473.0,539.0,522.0
516.0,484.0,539.0,523.0
500.0,486.0,536.0,520.0
505.0,507.0,516.0,514.0
494.0,571.0,503.0,507.0
495.0,554.0,497.0,507.0
509.0,526.0,497.0,506.0
522.0,499.0,497.0,508.0
527.0,474.0,500.0,514.0
517.0,501.0,494.0,516.0
500.0,532.0,488.0,525.0
505.0,523.0,497.0,527.0
505.0,519.0,498.0,522.0
508.0,506.0,506.0,513.0
518.0,490.0,514.0,503.0
534.0,467.0,519.0,499.0
534.0,471.0,520.0,495.0
525.0,477.0,521.0,499.0
503.0,521.0,511.0,501.0
491.0,533.0,517.0,507.0
496.0,531.0,516.0,508.0
498.0,535.0,511.0,515.0
496.0,558.0,497.0,515.0
520.0,508.0,496.0,513.0
524.0,483.0,495.0,513.0
527.0,466.0,493.0,512.0
511.0,507.0,492.0,518.0
500.0,523.0,487.0,520.0
503.0,504.0,492.0,512.0
505.0,495.0,498.0,510.0
507.0,498.0,503.0,511.0
523.0,495.0,516.0,509.0
531.0,480.0,525.0,512.0
529.0,497.0,529.0,514.0
518.0,524.0,525.0,516.0
502.0,463.0,516.0,517.0
493.0,513.0,512.0,508.0
482.0,551.0,509.0,510.0
490.0,523.0,513.0,514.0
501.0,491.0,510.0,519.0
514.0,422.0,499.0,516.0
519.0,440.0,485.0,513.0
532.0,478.0,492.0,518.0
519.0,524.0,490.0,518.0
507.0,540.0,496.0,518.0
507.0,535.0,504.0,512.0
512.0,533.0,498.0,511.0
518.0,502.0,503.0,505.0
534.0,450.0,512.0,502.0
533.0,426.0,518.0,500.0
529.0,440.0,521.0,502.0
518.0,497.0,515.0,507.0
504.0,551.0,512.0,510.0
502.0,562.0,515.0,510.0
493.0,543.0,528.0,516.0
500.0,526.0,517.0,518.0
512.0,481.0,500.0,514.0
526.0,472.0,493.0,512.0
523.0,479.0,489.0,512.0
524.0,492.0,486.0,513.0
497.0,565.0,485.0,517.0
489.0,576.0,489.0,514.0
494.0,569.0,497.0,521.0
510.0,522.0,511.0,519.0
518.0,497.0,515.0,516.0
536.0,467.0,521.0,514.0
536.0,449.0,526.0,515.0
525.0,467.0,536.0,521.0
503.0,513.0,532.0,525.0
493.0,525.0,524.0,530.0
486.0,541.0,519.0,523.0
492.0,534.0,507.0,510.0
497.0,529.0,500.0,504.0
524.0,503.0,495.0,501.0
529.0,477.0,487.0,501.0
528.0,488.0,482.0,509.0
510.0,514.0,485.0,515.0
499.0,524.0,493.0,523.0
499.0,531.0,497.0,515.0
496.0,556.0,498.0,517.0
509.0,545.0,504.0,515.0
526.0,528.0,513.0,511.0
542.0,446.0,533.0,508.0
539.0,413.0,530.0,511.0
520.0,457.0,526.0,514.0
501.0,494.0,515.0,512.0
499.0,510.0,514.0,519.0
494.0,524.0,504.0,519.0
502.0,515.0,497.0,523.0
514.0,504.0,497.0,517.0
527.0,485.0,491.0,518.0
524.0,474.0,490.0,506.0
524.0,474.0,495.0,509.0
506.0,515.0,483.0,513.0
504.0,520.0,497.0,512.0
512.0,521.0,510.0,513.0
512.0,529.0,506.0,510.0
516.0,517.0,504.0,507.0
526.0,489.0,521.0,508.0
529.0,472.0,530.0,506.0
529.0,453.0,525.0,503.0
510.0,486.0,515.0,508.0
498.0,513.0,512.0,500.0
501.0,506.0,511.0,502.0
499.0,513.0,507.0,501.0
501.0,515.0,499.0,504.0
515.0,487.0,491.0,507.0
524.0,470.0,493.0,512.0
523.0,470.0,495.0,518.0
524.0,492.0,493.0,519.0
501.0,552.0,493.0,526.0
496.0,552.0,503.0,527.0
495.0,556.0,509.0,523.0
501.0,517.0,512.0,520.0
516.0,460.0,525.0,521.0
528.0,437.0,536.0,522.0
532.0,458.0,535.0,518.0
525.0,497.0,529.0,512.0
506.0,526.0,515.0,505.0
496.0,512.0,507.0,500.0
494.0,519.0,503.0,497.0
488.0,532.0,497.0,502.0
497.0,544.0,496.0,509.0
512.0,510.0,500.0,517.0
520.0,488.0,502.0,520.0
525.0,486.0,501.0,521.0
518.0,514.0,498.0,532.0
507.0,531.0,496.0,527.0
507.0,522.0,500.0,521.0
504.0,519.0,505.0,516.0
515.0,503.0,513.0,513.0
524.0,481.0,517.0,510.0
532.0,472.0,529.0,505.0
529.0,471.0,529.0,503.0
521.0,482.0,529.0,509.0
507.0,505.0,517.0,509.0
509.0,506.0,511.0,501.0
496.0,524.0,505.0,505.0
490.0,521.0,502.0,506.0
498.0,518.0,498.0,509.0
511.0,488.0,501.0,508.0
513.0,491.0,499.0,517.0
518.0,484.0,496.0,521.0
499.0,513.0,494.0,524.0
506.0,491.0,499.0,525.0
519.0,479.0,504.0,525.0
523.0,507.0,515.0,524.0
517.0,498.0,516.0,526.0
533.0,495.0,529.0,520.0
526.0,492.0,532.0,524.0
523.0,489.0,541.0,529.0
514.0,514.0,523.0,524.0
507.0,535.0,520.0,516.0
507.0,538.0,515.0,501.0
502.0,538.0,510.0,500.0
501.0,547.0,500.0,501.0
513.0,517.0,501.0,506.0
519.0,479.0,503.0,511.0
530.0,429.0,499.0,512.0
517.0,474.0,489.0,520.0
500.0,539.0,485.0,521.0
506.0,530.0,493.0,524.0
510.0,531.0,504.0,526.0
512.0,517.0,525.0,531.0
521.0,494.0,534.0,520.0
535.0,471.0,533.0,508.0
531.0,474.0,519.0,497.0
521.0,485.0,519.0,491.0
497.0,520.0,505.0,495.0
497.0,497.0,504.0,494.0
488.0,518.0,499.0,498.0
491.0,518.0,498.0,502.0
503.0,521.0,489.0,505.0
521.0,527.0,496.0,507.0
522.0,499.0,498.0,516.0
519.0,532.0,501.0,523.0
512.0,538.0,497.0,521.0
509.0,528.0,500.0,522.0
508.0,493.0,504.0,520.0
505.0,488.0,511.0,521.0
505.0,490.0,511.0,523.0
523.0,486.0,524.0,524.0
532.0,489.0,536.0,517.0
528.0,475.0,532.0,508.0
522.0,481.0,529.0,505.0
501.0,517.0,509.0,498.0
504.0,518.0,503.0,499.0
492.0,555.0,499.0,506.0
499.0,521.0,509.0,515.0
509.0,488.0,505.0,517.0
533.0,453.0,509.0,520.0
525.0,465.0,504.0,524.0
522.0,492.0,503.0,531.0
507.0,530.0,497.0,524.0
502.0,525.0,491.0,517.0
506.0,520.0,497.0,511.0
504.0,513.0,502.0,511.0
512.0,509.0,514.0,505.0
529.0,475.0,524.0,504.0
530.0,468.0,529.0,504.0
524.0,479.0,527.0,502.0
515.0,503.0,519.0,504.0
501.0,525.0,510.0,505.0
500.0,527.0,510.0,507.0
500.0,516.0,510.0,514.0
501.0,520.0,502.0,518.0
511.0,499.0,510.0,527.0
521.0,486.0,511.0,527.0
522.0,491.0,512.0,529.0
513.0,502.0,508.0,536.0
503.0,527.0,514.0,537.0
506.0,521.0,512.0,534.0
504.0,516.0,510.0,528.0
507.0,512.0,508.0,515.0
517.0,492.0,503.0,499.0
526.0,468.0,507.0,489.0
525.0,475.0,510.0,488.0
519.0,482.0,512.0,493.0
499.0,521.0,511.0,499.0
497.0,524.0,517.0,504.0
509.0,505.0,517.0,503.0
504.0,508.0,510.0,505.0
506.0,507.0,507.0,511.0
517.0,477.0,505.0,514.0
522.0,483.0,506.0,519.0
518.0,496.0,503.0,516.0
518.0,492.0,491.0,507.0
511.0,496.0,498.0,520.0
516.0,519.0,509.0,524.0
504.0,556.0,507.0,518.0
502.0,548.0,511.0,529.0
518.0,470.0,527.0,525.0
527.0,444.0,528.0,519.0
525.0,454.0,526.0,515.0
517.0,490.0,527.0,510.0
500.0,544.0,522.0,511.0
498.0,540.0,525.0,514.0
496.0,537.0,531.0,512.0
495.0,541.0,514.0,512.0
502.0,515.0,498.0,503.0
520.0,473.0,493.0,504.0
528.0,464.0,485.0,506.0
520.0,493.0,490.0,511.0
502.0,516.0,488.0,517.0
498.0,559.0,494.0,517.0
497.0,548.0,500.0,515.0
504.0,562.0,504.0,513.0
512.0,504.0,510.0,507.0
525.0,447.0,525.0,509.0
528.0,472.0,530.0,507.0
520.0,469.0,530.0,506.0
506.0,501.0,521.0,499.0
491.0,523.0,516.0,505.0
489.0,525.0,512.0,512.0
488.0,534.0,508.0,515.0
502.0,534.0,505.0,519.0
519.0,507.0,509.0,517.0
525.0,491.0,508.0,518.0
525.0,507.0,502.0,515.0
515.0,515.0,494.0,518.0
494.0,515.0,488.0,514.0
493.0,506.0,494.0,517.0
494.0,512.0,496.0,516.0
504.0,497.0,503.0,514.0
514.0,494.0,514.0,514.0
526.0,485.0,524.0,509.0
536.0,499.0,534.0,513.0
538.0,482.0,533.0,513.0
516.0,515.0,530.0,515.0
501.0,516.0,526.0,514.0
501.0,519.0,515.0,514.0
498.0,531.0,510.0,511.0
508.0,520.0,503.0,511.0
526.0,483.0,503.0,517.0
527.0,472.0,500.0,511.0
530.0,481.0,493.0,512.0
513.0,510.0,492.0,514.0
502.0,513.0,487.0,517.0
511.0,525.0,499.0,518.0
499.0,550.0,501.0,518.0
501.0,550.0,509.0,515.0
520.0,489.0,523.0,512.0
531.0,450.0,530.0,507.0
525.0,467.0,530.0,506.0
519.0,474.0,527.0,504.0
497.0,507.0,520.0,505.0
504.0,515.0,515.0,508.0
499.0,536.0,514.0,508.0
498.0,531.0,508.0,514.0
504.0,521.0,502.0,517.0
522.0,482.0,505.0,518.0
523.0,482.0,504.0,519.0
521.0,489.0,504.0,520.0
503.0,520.0,493.0,520.0
505.0,516.0,502.0,522.0
502.0,518.0,505.0,518.0
507.0,509.0,506.0,515.0
514.0,498.0,514.0,516.0
527.0,473.0,523.0,510.0
531.0,471.0,529.0,510.0
526.0,471.0,534.0,510.0
513.0,498.0,524.0,506.0
495.0,522.0,522.0,510.0
500.0,520.0,519.0,508.0
494.0,531.0,509.0,513.0
498.0,513.0,504.0,516.0
514.0,489.0,504.0,515.0
522.0,488.0,504.0,524.0
519.0,492.0,507.0,519.0
522.0,498.0,508.0,520.0
502.0,530.0,498.0,526.0
505.0,516.0,493.0,526.0
502.0,514.0,502.0,518.0
506.0,510.0,506.0,514.0
518.0,498.0,513.0,515.0
533.0,476.0,533.0,510.0
528.0,484.0,540.0,508.0
523.0,493.0,540.0,510.0
501.0,529.0,523.0,509.0
494.0,536.0,512.0,504.0
494.0,513.0,507.0,502.0
495.0,520.0,502.0,504.0
504.0,508.0,498.0,505.0
518.0,479.0,497.0,509.0
518.0,472.0,503.0,516.0
519.0,466.0,501.0,522.0
513.0,482.0,501.0,525.0
509.0,530.0,496.0,519.0
502.0,534.0,500.0,521.0
499.0,536.0,507.0,522.0
507.0,494.0,517.0,523.0
528.0,463.0,531.0,517.0
533.0,462.0,539.0,516.0
530.0,465.0,540.0,511.0
523.0,492.0,530.0,507.0
496.0,536.0,519.0,510.0
494.0,548.0,514.0,508.0
494.0,548.0,509.0,511.0
491.0,534.0,507.0,512.0
501.0,520.0,502.0,514.0
521.0,490.0,502.0,513.0
520.0,472.0,496.0,508.0
519.0,479.0,498.0,515.0
506.0,495.0,496.0,519.0
506.0,516.0,498.0,521.0
512.0,526.0,509.0,524.0
506.0,526.0,510.0,526.0
511.0,507.0,519.0,524.0
528.0,480.0,532.0,521.0
527.0,497.0,540.0,515.0
516.0,495.0,540.0,516.0
502.0,500.0,532.0,517.0
499.0,470.0,521.0,509.0
505.0,507.0,515.0,497.0
496.0,544.0,504.0,494.0
497.0,547.0,499.0,499.0
519.0,516.0,498.0,505.0
529.0,493.0,503.0,514.0
527.0,478.0,504.0,520.0
528.0,492.0,499.0,529.0
506.0,529.0,493.0,534.0
509.0,515.0,501.0,522.0
500.0,520.0,507.0,519.0
505.0,502.0,512.0,516.0
511.0,468.0,522.0,511.0
528.0,452.0,534.0,508.0
527.0,482.0,532.0,501.0
522.0,512.0,526.0,500.0
502.0,529.0,519.0,500.0
489.0,529.0,514.0,503.0
484.0,516.0,509.0,502.0
491.0,524.0,508.0,506.0
499.0,526.0,504.0,507.0
519.0,494.0,507.0,511.0
517.0,487.0,508.0,516.0
518.0,478.0,496.0,517.0
512.0,483.0,497.0,521.0
502.0,499.0,500.0,523.0
500.0,512.0,497.0,521.0
499.0,536.0,506.0,522.0
506.0,527.0,523.0,523.0
520.0,496.0,529.0,521.0
529.0,484.0,540.0,513.0
535.0,487.0,534.0,510.0
528.0,486.0,527.0,504.0
501.0,518.0,520.0,507.0
501.0,508.0,529.0,510.0
494.0,532.0,510.0,504.0
496.0,520.0,507.0,506.0
506.0,504.0,499.0,508.0
523.0,484.0,506.0,509.0
523.0,482.0,504.0,516.0
524.0,483.0,499.0,520.0
509.0,517.0,492.0,518.0
500.0,527.0,491.0,519.0
505.0,523.0,501.0,518.0
513.0,496.0,513.0,521.0
515.0,489.0,518.0,520.0
529.0,462.0,531.0,516.0
532.0,459.0,538.0,512.0
530.0,474.0,530.0,509.0
515.0,515.0,522.0,502.0
494.0,531.0,516.0,509.0
497.0,525.0,514.0,507.0
494.0,532.0,509.0,509.0
497.0,517.0,501.0,513.0
509.0,490.0,500.0,512.0
526.0,479.0,503.0,514.0
524.0,499.0,503.0,522.0
518.0,509.0,506.0,527.0
501.0,523.0,500.0,528.0
504.0,517.0,499.0,522.0
501.0,527.0,501.0,521.0
503.0,509.0,506.0,522.0
512.0,502.0,521.0,507.0
526.0,474.0,531.0,508.0
529.0,479.0,532.0,505.0
523.0,497.0,532.0,505.0
507.0,532.0,525.0,510.0
505.0,526.0,518.0,506.0
499.0,546.0,508.0,505.0
495.0,538.0,511.0,510.0
500.0,537.0,507.0,513.0
519.0,508.0,504.0,520.0
525.0,457.0,501.0,518.0
527.0,410.0,494.0,516.0
520.0,468.0,487.0,516.0
499.0,538.0,496.0,518.0
504.0,517.0,501.0,512.0
504.0,511.0,504.0,512.0
507.0,509.0,515.0,514.0
521.0,485.0,521.0,509.0
530.0,461.0,528.0,505.0
527.0,465.0,532.0,502.0
515.0,479.0,533.0,508.0
497.0,526.0,518.0,506.0
492.0,534.0,507.0,505.0
490.0,539.0,506.0,504.0
492.0,531.0,505.0,508.0
502.0,517.0,503.0,511.0
520.0,476.0,508.0,513.0
522.0,475.0,510.0,527.0
519.0,471.0,499.0,525.0
507.0,490.0,487.0,518.0
507.0,474.0,492.0,519.0
514.0,503.0,498.0,523.0
498.0,550.0,509.0,521.0
509.0,531.0,517.0,519.0
522.0,502.0,529.0,518.0
521.0,493.0,536.0,514.0
519.0,494.0,537.0,517.0
509.0,514.0,530.0,510.0
497.0,530.0,520.0,506.0
496.0,517.0,516.0,509.0
491.0,524.0,505.0,505.0
501.0,513.0,502.0,507.0
512.0,494.0,497.0,510.0
522.0,470.0,503.0,513.0
521.0,473.0,515.0,517.0
515.0,498.0,502.0,518.0
497.0,556.0,494.0,512.0
497.0,549.0,495.0,514.0
499.0,535.0,501.0,514.0
509.0,504.0,505.0,513.0
513.0,491.0,518.0,515.0
531.0,465.0,530.0,512.0
528.0,480.0,538.0,511.0
520.0,498.0,532.0,508.0
502.0,521.0,517.0,503.0
504.0,512.0,515.0,502.0
501.0,513.0,511.0,505.0
497.0,512.0,507.0,510.0
499.0,517.0,506.0,515.0
519.0,484.0,507.0,519.0
524.0,486.0,506.0,523.0
523.0,501.0,506.0,525.0
513.0,517.0,499.0,526.0
502.0,520.0,496.0,518.0
506.0,513.0,504.0,518.0
498.0,524.0,513.0,522.0
509.0,505.0,524.0,527.0
527.0,487.0,533.0,518.0
533.0,492.0,533.0,513.0
531.0,477.0,531.0,504.0
523.0,475.0,524.0,499.0
502.0,512.0,514.0,495.0
496.0,502.0,510.0,498.0
494.0,510.0,507.0,501.0
494.0,497.0,503.0,507.0
499.0,512.0,501.0,510.0
515.0,492.0,504.0,516.0
514.0,497.0,503.0,516.0
515.0,508.0,505.0,519.0
506.0,535.0,495.0,518.0
503.0,531.0,492.0,519.0
505.0,525.0,494.0,520.0
512.0,506.0,500.0,519.0
510.0,509.0,515.0,517.0
526.0,487.0,529.0,516.0
531.0,476.0,542.0,518.0
526.0,484.0,544.0,514.0
515.0,518.0,529.0,509.0
495.0,555.0,518.0,511.0
495.0,527.0,520.0,508.0
496.0,514.0,512.0,506.0
500.0,487.0,502.0,508.0
519.0,466.0,500.0,505.0
528.0,447.0,499.0,508.0
527.0,461.0,493.0,513.0
524.0,477.0,493.0,518.0
499.0,532.0,492.0,521.0
500.0,560.0,496.0,519.0
500.0,543.0,503.0,518.0
507.0,518.0,515.0,517.0
516.0,494.0,521.0,512.0
528.0,456.0,525.0,510.0
530.0,458.0,526.0,506.0
518.0,474.0,529.0,503.0
501.0,537.0,523.0,513.0
495.0,566.0,519.0,510.0
500.0,553.0,519.0,509.0
496.0,511.0,512.0,508.0
505.0,495.0,502.0,508.0
517.0,495.0,501.0,508.0
521.0,495.0,502.0,510.0
525.0,506.0,497.0,515.0
515.0,491.0,493.0,517.0
499.0,534.0,490.0,521.0
502.0,519.0,496.0,522.0
497.0,530.0,504.0,520.0
508.0,501.0,509.0,520.0
523.0,489.0,525.0,515.0
532.0,477.0,538.0,515.0
526.0,495.0,544.0,515.0
522.0,475.0,536.0,508.0
502.0,498.0,519.0,507.0
500.0,496.0,512.0,506.0
501.0,496.0,506.0,505.0
509.0,509.0,503.0,509.0
512.0,511.0,501.0,511.0
521.0,497.0,505.0,517.0
522.0,489.0,510.0,519.0
515.0,488.0,507.0,527.0
499.0,517.0,499.0,530.0
489.0,522.0,496.0,524.0
489.0,519.0,507.0,523.0
493.0,525.0,504.0,515.0
508.0,526.0,505.0,511.0
533.0,481.0,524.0,508.0
546.0,482.0,531.0,511.0
538.0,468.0,536.0,509.0
519.0,497.0,527.0,506.0
494.0,530.0,515.0,508.0
502.0,521.0,511.0,506.0
493.0,514.0,502.0,510.0
495.0,504.0,498.0,513.0
507.0,488.0,499.0,519.0
525.0,476.0,506.0,525.0
532.0,505.0,516.0,525.0
527.0,492.0,518.0,527.0
506.0,520.0,509.0,527.0
506.0,512.0,516.0,530.0
517.0,502.0,512.0,524.0
514.0,509.0,507.0,511.0
514.0,522.0,509.0,505.0
530.0,491.0,521.0,496.0
529.0,491.0,529.0,501.0
526.0,488.0,526.0,506.0
512.0,483.0,518.0,505.0
500.0,518.0,512.0,499.0
495.0,531.0,505.0,502.0
494.0,550.0,503.0,502.0
498.0,522.0,502.0,506.0
518.0,480.0,504.0,510.0
523.0,474.0,516.0,522.0
525.0,478.0,508.0,520.0
516.0,489.0,500.0,517.0
499.0,535.0,492.0,520.0
506.0,530.0,500.0,517.0
503.0,541.0,503.0,518.0
512.0,511.0,508.0,518.0
525.0,480.0,522.0,517.0
533.0,467.0,531.0,514.0
527.0,481.0,532.0,504.0
517.0,495.0,526.0,505.0
494.0,534.0,518.0,507.0
503.0,517.0,515.0,508.0
501.0,514.0,510.0,509.0
499.0,516.0,508.0,502.0
500.0,516.0,502.0,510.0
521.0,480.0,506.0,508.0
523.0,475.0,502.0,513.0
527.0,472.0,497.0,519.0
517.0,493.0,489.0,520.0
509.0,515.0,497.0,525.0
505.0,546.0,498.0,519.0
497.0,534.0,503.0,515.0
506.0,515.0,514.0,518.0
524.0,476.0,523.0,512.0
529.0,470.0,529.0,510.0
523.0,484.0,530.0,508.0
514.0,502.0,528.0,503.0
492.0,539.0,517.0,511.0
499.0,526.0,516.0,509.0
493.0,536.0,514.0,509.0
500.0,531.0,506.0,512.0
510.0,518.0,499.0,514.0
530.0,451.0,499.0,514.0
524.0,478.0,500.0,521.0
520.0,502.0,507.0,523.0
498.0,535.0,500.0,519.0
507.0,512.0,501.0,519.0
507.0,511.0,502.0,521.0
503.0,513.0,507.0,516.0
513.0,499.0,522.0,514.0
531.0,470.0,524.0,505.0
527.0,467.0,535.0,505.0
524.0,470.0,535.0,505.0
510.0,499.0,517.0,505.0
499.0,511.0,514.0,505.0
501.0,520.0,511.0,505.0
497.0,531.0,509.0,504.0
498.0,522.0,502.0,511.0
515.0,494.0,511.0,517.0
522.0,482.0,505.0,519.0
521.0,489.0,502.0,526.0
516.0,499.0,501.0,525.0
501.0,524.0,499.0,526.0
508.0,513.0,504.0,519.0
497.0,507.0,508.0,523.0
502.0,506.0,508.0,517.0
511.0,479.0,522.0,514.0
531.0,442.0,528.0,509.0
530.0,488.0,530.0,511.0
522.0,502.0,526.0,500.0
503.0,525.0,519.0,499.0
503.0,514.0,520.0,504.0
494.0,523.0,511.0,506.0
495.0,519.0,508.0,507.0
503.0,508.0,501.0,509.0
521.0,476.0,502.0,511.0
523.0,481.0,500.0,511.0
520.0,511.0,500.0,516.0
508.0,519.0,498.0,523.0
503.0,524.0,497.0,524.0
504.0,531.0,503.0,522.0
506.0,498.0,505.0,522.0
514.0,493.0,516.0,519.0
524.0,472.0,527.0,517.0
528.0,462.0,527.0,507.0
525.0,466.0,533.0,510.0
513.0,487.0,530.0,509.0
492.0,540.0,520.0,511.0
497.0,549.0,518.0,510.0
500.0,549.0,512.0,512.0
511.0,516.0,505.0,508.0
512.0,501.0,502.0,509.0
519.0,493.0,505.0,513.0
514.0,498.0,501.0,516.0
507.0,512.0,499.0,517.0
496.0,525.0,495.0,519.0
502.0,517.0,495.0,522.0
498.0,522.0,505.0,517.0
514.0,517.0,506.0,516.0
524.0,495.0,516.0,515.0
535.0,469.0,530.0,512.0
531.0,472.0,534.0,511.0
521.0,486.0,531.0,515.0
508.0,530.0,528.0,514.0
494.0,530.0,516.0,508.0
496.0,522.0,517.0,507.0
487.0,525.0,514.0,506.0
501.0,506.0,507.0,508.0
517.0,506.0,503.0,511.0
521.0,494.0,503.0,517.0
520.0,485.0,500.0,519.0
511.0,507.0,495.0,521.0
489.0,538.0,489.0,520.0
495.0,505.0,496.0,520.0
504.0,501.0,505.0,521.0
515.0,498.0,515.0,525.0
526.0,496.0,527.0,524.0
536.0,474.0,539.0,528.0
530.0,476.0,542.0,524.0
525.0,479.0,536.0,516.0
498.0,520.0,523.0,500.0
499.0,517.0,511.0,498.0
498.0,527.0,509.0,498.0
499.0,515.0,512.0,496.0
504.0,505.0,501.0,499.0
519.0,484.0,497.0,501.0
522.0,500.0,497.0,505.0
524.0,503.0,493.0,512.0
507.0,518.0,489.0,515.0
497.0,527.0,492.0,517.0
504.0,531.0,497.0,514.0
496.0,548.0,501.0,517.0
503.0,543.0,514.0,516.0
527.0,505.0,530.0,516.0
532.0,435.0,537.0,517.0
528.0,463.0,542.0,514.0
513.0,487.0,533.0,508.0
495.0,507.0,519.0,506.0
500.0,502.0,512.0,498.0
495.0,518.0,509.0,497.0
504.0,526.0,502.0,502.0
509.0,521.0,503.0,510.0
521.0,503.0,509.0,516.0
523.0,482.0,501.0,519.0
520.0,492.0,499.0,519.0
503.0,517.0,496.0,518.0
506.0,508.0,506.0,520.0
505.0,511.0,504.0,519.0
511.0,501.0,512.0,519.0
516.0,498.0,519.0,516.0
533.0,469.0,531.0,511.0
532.0,468.0,536.0,513.0
520.0,482.0,531.0,512.0
508.0,518.0,525.0,506.0
495.0,516.0,520.0,508.0
501.0,498.0,515.0,510.0
492.0,511.0,510.0,509.0
500.0,501.0,503.0,510.0
510.0,487.0,502.0,513.0
515.0,486.0,500.0,517.0
519.0,514.0,498.0,519.0
515.0,535.0,503.0,526.0
497.0,558.0,509.0,523.0
506.0,532.0,513.0,520.0
511.0,520.0,499.0,512.0
511.0,508.0,504.0,509.0
521.0,486.0,517.0,512.0
532.0,467.0,529.0,506.0
529.0,473.0,530.0,506.0
524.0,491.0,528.0,504.0
506.0,528.0,516.0,504.0
494.0,535.0,513.0,507.0
485.0,537.0,512.0,506.0
492.0,526.0,504.0,510.0
501.0,519.0,502.0,511.0
520.0,483.0,507.0,516.0
524.0,486.0,510.0,522.0
525.0,491.0,510.0,523.0
512.0,518.0,499.0,520.0
503.0,538.0,498.0,519.0
505.0,520.0,503.0,529.0
512.0,515.0,509.0,524.0
520.0,500.0,523.0,523.0
528.0,489.0,534.0,524.0
532.0,479.0,536.0,522.0
528.0,483.0,541.0,517.0
519.0,496.0,528.0,506.0
503.0,494.0,515.0,507.0
508.0,485.0,515.0,501.0
499.0,501.0,510.0,499.0
493.0,529.0,497.0,507.0
500.0,503.0,504.0,511.0
515.0,489.0,504.0,514.0
518.0,477.0,495.0,517.0
523.0,479.0,502.0,519.0
511.0,533.0,499.0,515.0
503.0,537.0,493.0,514.0
501.0,536.0,501.0,511.0
507.0,523.0,509.0,511.0
510.0,507.0,517.0,507.0
534.0,477.0,527.0,505.0
527.0,480.0,528.0,505.0
523.0,481.0,529.0,502.0
507.0,514.0,520.0,504.0
491.0,525.0,518.0,505.0
493.0,517.0,515.0,505.0
493.0,525.0,508.0,504.0
499.0,519.0,507.0,509.0
512.0,496.0,504.0,512.0
521.0,487.0,506.0,516.0
519.0,483.0,504.0,524.0
513.0,499.0,503.0,525.0
501.0,511.0,501.0,529.0
502.0,518.0,503.0,527.0
500.0,529.0,508.0,521.0
505.0,530.0,517.0,518.0
513.0,524.0,524.0,513.0
532.0,459.0,530.0,508.0
529.0,462.0,535.0,505.0
527.0,483.0,528.0,503.0
507.0,532.0,517.0,502.0
508.0,516.0,513.0,503.0
509.0,514.0,509.0,504.0
506.0,516.0,508.0,506.0
504.0,525.0,502.0,511.0
520.0,494.0,508.0,514.0
517.0,496.0,504.0,518.0
520.0,494.0,501.0,520.0
508.0,511.0,503.0,524.0
497.0,542.0,500.0,521.0
505.0,531.0,495.0,515.0
503.0,534.0,505.0,516.0
516.0,458.0,513.0,514.0
530.0,443.0,526.0,510.0
533.0,457.0,531.0,509.0
531.0,466.0,534.0,506.0
520.0,488.0,528.0,507.0
493.0,546.0,520.0,505.0
499.0,534.0,519.0,506.0
497.0,557.0,516.0,509.0
496.0,549.0,510.0,512.0
510.0,478.0,507.0,513.0
529.0,466.0,505.0,518.0
524.0,477.0,509.0,520.0
517.0,490.0,506.0,525.0
497.0,520.0,497.0,528.0
504.0,516.0,502.0,527.0
499.0,527.0,506.0,525.0
505.0,507.0,514.0,523.0
522.0,499.0,522.0,520.0
535.0,483.0,531.0,515.0
532.0,477.0,530.0,507.0
527.0,475.0,525.0,504.0
513.0,497.0,514.0,504.0
496.0,529.0,512.0,506.0
500.0,524.0,517.0,514.0
499.0,526.0,524.0,512.0
503.0,520.0,520.0,517.0
519.0,494.0,511.0,518.0
524.0,484.0,506.0,513.0
522.0,490.0,504.0,516.0
516.0,501.0,498.0,518.0
491.0,547.0,494.0,519.0
499.0,533.0,496.0,517.0
505.0,513.0,503.0,517.0
513.0,501.0,510.0,514.0
522.0,486.0,518.0,513.0
530.0,468.0,528.0,507.0
527.0,481.0,530.0,508.0
520.0,488.0,527.0,514.0
503.0,513.0,517.0,507.0
499.0,517.0,514.0,505.0
498.0,519.0,513.0,505.0
495.0,519.0,521.0,509.0
499.0,506.0,516.0,510.0
519.0,469.0,509.0,509.0
523.0,476.0,497.0,510.0
517.0,506.0,496.0,515.0
506.0,534.0,493.0,520.0
501.0,530.0,498.0,525.0
512.0,522.0,505.0,524.0
504.0,552.0,514.0,525.0
510.0,526.0,520.0,525.0
530.0,446.0,531.0,519.0
533.0,450.0,537.0,516.0
525.0,451.0,535.0,509.0
515.0,466.0,531.0,505.0
497.0,503.0,522.0,507.0
500.0,512.0,515.0,504.0
498.0,529.0,510.0,500.0
494.0,531.0,504.0,503.0
503.0,508.0,498.0,504.0
524.0,493.0,496.0,508.0
525.0,486.0,499.0,515.0
522.0,490.0,495.0,522.0
501.0,526.0,500.0,525.0
494.0,538.0,506.0,525.0
496.0,541.0,507.0,515.0
511.0,511.0,507.0,513.0
519.0,508.0,517.0,510.0
535.0,475.0,526.0,503.0
528.0,488.0,533.0,505.0
527.0,483.0,533.0,501.0
512.0,523.0,522.0,503.0
491.0,556.0,507.0,503.0
509.0,539.0,511.0,504.0
490.0,569.0,505.0,506.0
499.0,508.0,502.0,506.0
517.0,477.0,506.0,514.0
527.0,493.0,505.0,515.0
522.0,498.0,498.0,521.0
518.0,507.0,496.0,524.0
500.0,531.0,496.0,525.0
505.0,507.0,501.0,528.0
501.0,517.0,508.0,527.0
508.0,512.0,518.0,524.0
518.0,488.0,526.0,517.0
533.0,463.0,533.0,511.0
528.0,465.0,536.0,507.0
525.0,474.0,530.0,503.0
504.0,509.0,517.0,502.0
497.0,520.0,510.0,500.0
492.0,541.0,507.0,502.0
493.0,529.0,504.0,504.0
499.0,515.0,501.0,509.0
517.0,481.0,504.0,510.0
522.0,466.0,502.0,511.0
529.0,473.0,501.0,517.0
509.0,528.0,495.0,519.0
496.0,548.0,494.0,518.0
498.0,544.0,502.0,520.0
503.0,532.0,508.0,521.0
514.0,500.0,512.0,516.0
528.0,478.0,524.0,507.0
532.0,480.0,532.0,508.0
528.0,474.0,538.0,509.0
521.0,487.0,529.0,508.0
498.0,533.0,522.0,508.0
498.0,529.0,516.0,506.0
502.0,519.0,516.0,507.0
495.0,525.0,505.0,507.0
498.0,502.0,503.0,513.0
517.0,481.0,504.0,519.0
516.0,483.0,502.0,522.0
517.0,489.0,503.0,528.0
501.0,525.0,499.0,525.0
502.0,526.0,511.0,524.0
511.0,526.0,517.0,523.0
524.0,517.0,510.0,518.0
520.0,496.0,517.0,518.0
532.0,461.0,529.0,515.0
532.0,465.0,536.0,512.0
527.0,477.0,533.0,507.0
514.0,506.0,526.0,508.0
496.0,539.0,517.0,506.0
496.0,530.0,508.0,504.0
487.0,541.0,502.0,505.0
500.0,521.0,502.0,505.0
515.0,495.0,502.0,510.0
522.0,485.0,505.0,515.0
525.0,486.0,496.0,514.0
522.0,495.0,495.0,518.0
500.0,531.0,493.0,521.0
505.0,528.0,498.0,518.0
504.0,543.0,502.0,521.0
507.0,540.0,513.0,521.0
519.0,514.0,525.0,519.0
537.0,453.0,532.0,519.0
532.0,454.0,534.0,514.0
523.0,448.0,532.0,507.0
504.0,491.0,523.0,508.0
501.0,513.0,516.0,507.0
497.0,528.0,510.0,504.0
495.0,540.0,503.0,505.0
503.0,518.0,505.0,508.0
524.0,483.0,511.0,512.0
521.0,486.0,506.0,518.0
524.0,486.0,498.0,518.0
508.0,513.0,492.0,518.0
499.0,522.0,491.0,518.0
507.0,496.0,500.0,517.0
509.0,494.0,504.0,514.0
512.0,493.0,516.0,512.0
526.0,471.0,527.0,513.0
534.0,488.0,531.0,508.0
525.0,506.0,531.0,512.0
518.0,496.0,530.0,512.0
492.0,528.0,519.0,508.0
491.0,528.0,513.0,509.0
492.0,532.0,516.0,509.0
497.0,533.0,506.0,510.0
514.0,495.0,508.0,512.0
532.0,453.0,505.0,514.0
529.0,474.0,505.0,520.0
524.0,487.0,504.0,519.0
503.0,521.0,499.0,523.0
501.0,533.0,506.0,523.0
501.0,541.0,506.0,521.0
508.0,515.0,515.0,517.0
512.0,484.0,517.0,511.0
528.0,452.0,532.0,512.0
531.0,470.0,536.0,509.0
527.0,485.0,536.0,511.0
508.0,555.0,529.0,510.0
488.0,571.0,516.0,506.0
502.0,517.0,510.0,498.0
506.0,474.0,504.0,501.0
507.0,520.0,503.0,501.0
517.0,496.0,502.0,506.0
527.0,486.0,502.0,508.0
521.0,491.0,504.0,516.0
514.0,506.0,500.0,519.0
502.0,534.0,494.0,520.0
501.0,518.0,497.0,520.0
501.0,518.0,507.0,521.0
499.0,523.0,509.0,517.0
519.0,497.0,521.0,517.0
530.0,475.0,529.0,511.0
526.0,476.0,534.0,508.0
519.0,495.0,530.0,505.0
499.0,546.0,521.0,507.0
494.0,566.0,523.0,512.0
496.0,557.0,523.0,517.0
494.0,537.0,516.0,522.0
502.0,485.0,514.0,516.0
523.0,463.0,504.0,508.0
523.0,466.0,497.0,509.0
523.0,469.0,493.0,512.0
514.0,502.0,489.0,510.0
505.0,513.0,493.0,517.0
510.0,508.0,503.0,517.0
508.0,516.0,505.0,514.0
503.0,528.0,512.0,514.0
522.0,477.0,525.0,510.0
529.0,465.0,531.0,509.0
527.0,475.0,532.0,506.0
519.0,483.0,525.0,506.0
498.0,522.0,518.0,504.0
503.0,511.0,517.0,507.0
500.0,535.0,512.0,505.0
501.0,539.0,509.0,511.0
508.0,524.0,504.0,514.0
525.0,476.0,494.0,518.0
527.0,449.0,502.0,525.0
519.0,458.0,506.0,532.0
501.0,492.0,500.0,530.0
496.0,504.0,502.0,522.0
498.0,524.0,509.0,520.0
503.0,538.0,509.0,512.0
511.0,540.0,507.0,507.0
537.0,488.0,527.0,505.0
534.0,476.0,529.0,504.0
525.0,480.0,531.0,507.0
509.0,504.0,524.0,505.0
492.0,527.0,516.0,505.0
496.0,530.0,510.0,507.0
495.0,529.0,512.0,508.0
504.0,520.0,503.0,511.0
517.0,503.0,504.0,513.0
524.0,479.0,508.0,518.0
523.0,483.0,501.0,520.0
514.0,505.0,497.0,523.0
495.0,525.0,494.0,524.0
512.0,517.0,498.0,519.0
502.0,532.0,505.0,516.0
511.0,517.0,509.0,519.0
526.0,494.0,520.0,514.0
535.0,481.0,525.0,510.0
529.0,479.0,532.0,510.0
521.0,483.0,531.0,506.0
497.0,519.0,522.0,506.0
494.0,516.0,522.0,509.0
501.0,504.0,515.0,502.0
495.0,521.0,503.0,504.0
504.0,514.0,501.0,506.0
523.0,489.0,503.0,511.0
524.0,474.0,503.0,515.0
521.0,481.0,501.0,524.0
507.0,522.0,502.0,525.0
500.0,534.0,494.0,522.0
514.0,525.0,507.0,521.0
510.0,533.0,509.0,518.0
508.0,527.0,514.0,515.0
519.0,508.0,526.0,515.0
530.0,505.0,534.0,509.0
527.0,487.0,535.0,510.0
517.0,491.0,530.0,508.0
498.0,493.0,521.0,508.0
506.0,474.0,513.0,509.0
501.0,510.0,513.0,507.0
499.0,535.0,506.0,511.0
508.0,513.0,509.0,516.0
523.0,469.0,515.0,526.0
521.0,484.0,509.0,525.0
522.0,491.0,505.0,526.0
506.0,521.0,500.0,523.0
506.0,521.0,497.0,520.0
507.0,507.0,500.0,519.0
505.0,503.0,507.0,511.0
508.0,505.0,516.0,512.0
529.0,476.0,527.0,506.0
530.0,484.0,528.0,503.0
527.0,488.0,533.0,503.0
512.0,512.0,526.0,504.0
496.0,549.0,518.0,505.0
503.0,519.0,512.0,511.0
494.0,522.0,509.0,508.0
498.0,522.0,501.0,509.0
510.0,499.0,505.0,513.0
525.0,484.0,508.0,518.0
521.0,489.0,506.0,521.0
518.0,501.0,499.0,521.0
506.0,523.0,496.0,519.0
510.0,516.0,499.0,518.0
502.0,529.0,502.0,513.0
506.0,518.0,508.0,514.0
519.0,498.0,521.0,514.0
529.0,466.0,533.0,512.0
526.0,466.0,536.0,511.0
521.0,471.0,529.0,510.0
501.0,522.0,521.0,507.0
487.0,541.0,524.0,508.0
491.0,536.0,512.0,507.0
500.0,514.0,514.0,508.0
505.0,511.0,510.0,515.0
523.0,496.0,506.0,518.0
525.0,495.0,505.0,520.0
520.0,489.0,505.0,522.0
509.0,488.0,494.0,525.0
496.0,518.0,493.0,521.0
510.0,504.0,506.0,519.0
506.0,520.0,514.0,518.0
512.0,525.0,518.0,511.0
523.0,485.0,523.0,504.0
535.0,465.0,529.0,503.0
527.0,478.0,531.0,506.0
520.0,502.0,528.0,506.0
497.0,563.0,519.0,505.0
496.0,544.0,516.0,508.0
485.0,561.0,505.0,512.0
488.0,541.0,506.0,513.0
503.0,482.0,508.0,522.0
516.0,474.0,511.0,523.0
514.0,478.0,510.0,526.0
514.0,480.0,508.0,522.0
501.0,525.0,495.0,516.0
510.0,527.0,490.0,511.0
513.0,510.0,499.0,512.0
511.0,506.0,502.0,512.0
515.0,484.0,515.0,513.0
535.0,457.0,526.0,509.0
534.0,468.0,533.0,507.0
524.0,471.0,532.0,506.0
515.0,495.0,521.0,505.0
505.0,523.0,520.0,506.0
500.0,520.0,515.0,505.0
497.0,528.0,508.0,510.0
499.0,529.0,505.0,510.0
518.0,500.0,503.0,513.0
528.0,479.0,502.0,517.0
524.0,482.0,503.0,518.0
517.0,530.0,500.0,520.0
494.0,563.0,497.0,525.0
500.0,530.0,504.0,523.0
516.0,512.0,513.0,518.0
521.0,502.0,514.0,519.0
525.0,486.0,522.0,515.0
534.0,474.0,533.0,512.0
532.0,487.0,534.0,507.0
528.0,498.0,530.0,504.0
507.0,532.0,522.0,506.0
486.0,559.0,515.0,508.0
500.0,498.0,512.0,505.0
499.0,482.0,511.0,508.0
501.0,493.0,508.0,511.0
517.0,463.0,505.0,514.0
519.0,444.0,511.0,518.0
523.0,471.0,508.0,521.0
512.0,528.0,493.0,520.0
499.0,543.0,499.0,523.0
504.0,524.0,508.0,524.0
497.0,522.0,508.0,523.0
506.0,519.0,512.0,520.0
525.0,489.0,529.0,516.0
531.0,479.0,540.0,513.0
528.0,475.0,532.0,511.0
518.0,488.0,531.0,507.0
498.0,526.0,521.0,507.0
502.0,527.0,522.0,509.0
500.0,522.0,515.0,513.0
499.0,519.0,512.0,512.0
514.0,493.0,505.0,513.0
523.0,470.0,503.0,515.0
519.0,501.0,501.0,518.0
521.0,497.0,501.0,523.0
502.0,546.0,496.0,523.0
495.0,553.0,496.0,516.0
502.0,531.0,513.0,522.0
511.0,514.0,519.0,522.0
520.0,480.0,524.0,517.0
533.0,456.0,534.0,513.0
530.0,469.0,532.0,509.0
523.0,484.0,534.0,507.0
513.0,509.0,525.0,504.0
492.0,532.0,514.0,504.0
499.0,518.0,514.0,503.0
495.0,519.0,516.0,506.0
507.0,506.0,503.0,507.0
519.0,489.0,504.0,511.0
527.0,481.0,503.0,510.0
522.0,488.0,507.0,517.0
518.0,505.0,497.0,529.0
505.0,524.0,499.0,521.0
510.0,506.0,505.0,522.0
508.0,511.0,508.0,519.0
508.0,508.0,510.0,516.0
518.0,495.0,522.0,515.0
532.0,467.0,532.0,512.0
527.0,473.0,537.0,511.0
522.0,478.0,536.0,508.0
505.0,517.0,523.0,507.0
493.0,535.0,519.0,508.0
496.0,514.0,514.0,513.0
499.0,523.0,511.0,507.0
500.0,529.0,502.0,512.0
522.0,495.0,509.0,515.0
529.0,489.0,507.0,519.0
527.0,493.0,506.0,522.0
517.0,516.0,500.0,524.0
505.0,520.0,502.0,525.0
506.0,509.0,503.0,523.0
504.0,522.0,510.0,519.0
509.0,523.0,517.0,517.0
525.0,494.0,527.0,512.0
531.0,465.0,531.0,509.0
529.0,462.0,536.0,509.0
522.0,488.0,533.0,507.0
498.0,523.0,522.0,507.0
500.0,516.0,518.0,502.0
496.0,521.0,510.0,506.0
496.0,524.0,508.0,510.0
508.0,505.0,505.0,510.0
525.0,480.0,505.0,513.0
523.0,481.0,502.0,517.0
519.0,487.0,505.0,522.0
501.0,520.0,500.0,524.0
498.0,553.0,501.0,526.0
514.0,518.0,512.0,522.0
514.0,510.0,513.0,513.0
519.0,494.0,512.0,512.0
531.0,471.0,529.0,512.0
533.0,470.0,535.0,507.0
526.0,507.0,534.0,510.0
508.0,542.0,522.0,506.0
486.0,568.0,519.0,507.0
497.0,513.0,515.0,508.0
501.0,488.0,514.0,506.0
504.0,510.0,508.0,511.0
511.0,501.0,508.0,513.0
520.0,483.0,509.0,518.0
521.0,467.0,505.0,522.0
515.0,480.0,501.0,524.0
503.0,505.0,498.0,525.0
503.0,513.0,505.0,524.0
496.0,527.0,503.0,514.0
497.0,518.0,507.0,516.0
512.0,503.0,522.0,511.0
528.0,483.0,532.0,512.0
530.0,490.0,534.0,512.0
532.0,496.0,534.0,508.0
523.0,523.0,525.0,507.0
509.0,536.0,519.0,508.0
507.0,528.0,515.0,510.0
507.0,534.0,511.0,510.0
518.0,517.0,507.0,513.0
542.0,487.0,509.0,514.0
548.0,476.0,506.0,518.0
544.0,485.0,504.0,517.0
533.0,508.0,498.0,522.0
519.0,532.0,497.0,520.0
508.0,532.0,505.0,518.0
499.0,521.0,508.0,519.0
504.0,509.0,516.0,516.0
502.0,483.0,527.0,514.0
498.0,475.0,536.0,511.0
506.0,483.0,540.0,509.0
507.0,493.0,532.0,509.0
482.0,534.0,524.0,508.0
484.0,524.0,520.0,507.0
487.0,525.0,512.0,507.0
489.0,518.0,511.0,509.0
503.0,506.0,509.0,511.0
520.0,489.0,509.0,515.0
518.0,488.0,507.0,519.0
516.0,494.0,502.0,527.0
503.0,518.0,497.0,522.0
498.0,522.0,502.0,521.0
505.0,508.0,507.0,518.0
509.0,503.0,511.0,519.0
511.0,505.0,520.0,517.0
521.0,480.0,533.0,512.0
524.0,471.0,537.0,511.0
521.0,482.0,536.0,510.0
508.0,507.0,531.0,509.0
490.0,533.0,525.0,508.0
493.0,522.0,516.0,507.0
499.0,515.0,511.0,508.0
498.0,518.0,512.0,511.0
514.0,498.0,506.0,515.0
523.0,478.0,511.0,518.0
522.0,488.0,508.0,521.0
521.0,496.0,503.0,521.0
509.0,519.0,499.0,520.0
514.0,511.0,503.0,519.0
515.0,516.0,510.0,520.0
517.0,507.0,511.0,518.0
522.0,495.0,524.0,512.0
535.0,468.0,535.0,509.0
532.0,472.0,536.0,508.0
518.0,484.0,537.0,508.0
499.0,515.0,528.0,506.0
497.0,525.0,524.0,508.0
498.0,520.0,521.0,511.0
497.0,525.0,506.0,506.0
506.0,510.0,507.0,512.0
519.0,487.0,509.0,514.0
520.0,488.0,508.0,514.0
526.0,490.0,504.0,521.0
512.0,508.0,503.0,523.0
502.0,525.0,502.0,523.0
509.0,512.0,505.0,521.0
502.0,513.0,510.0,518.0
508.0,512.0,519.0,515.0
522.0,485.0,529.0,512.0
530.0,473.0,536.0,511.0
525.0,484.0,539.0,509.0
516.0,491.0,534.0,511.0
496.0,524.0,524.0,512.0
492.0,530.0,521.0,506.0
501.0,535.0,515.0,506.0
504.0,529.0,511.0,507.0
516.0,511.0,508.0,513.0
535.0,487.0,511.0,515.0
533.0,485.0,507.0,515.0
530.0,494.0,503.0,522.0
510.0,523.0,499.0,522.0
496.0,529.0,500.0,522.0
501.0,519.0,504.0,520.0
508.0,499.0,512.0,519.0
509.0,496.0,512.0,515.0
530.0,461.0,533.0,513.0
539.0,464.0,534.0,509.0
530.0,478.0,535.0,509.0
519.0,512.0,528.0,509.0
509.0,536.0,522.0,508.0
500.0,528.0,519.0,506.0
496.0,539.0,514.0,510.0
498.0,521.0,511.0,512.0
512.0,498.0,508.0,515.0
522.0,487.0,510.0,515.0
517.0,490.0,508.0,518.0
518.0,501.0,503.0,524.0
508.0,530.0,502.0,522.0
512.0,529.0,503.0,522.0
522.0,514.0,512.0,517.0
522.0,507.0,516.0,519.0
527.0,491.0,521.0,515.0
531.0,467.0,534.0,516.0
521.0,475.0,536.0,509.0
522.0,475.0,536.0,509.0
509.0,510.0,527.0,509.0
489.0,537.0,522.0,507.0
495.0,539.0,518.0,509.0
498.0,535.0,514.0,511.0
510.0,520.0,506.0,511.0
528.0,486.0,511.0,515.0
536.0,471.0,510.0,516.0
513.0,473.0,509.0,520.0
489.0,497.0,503.0,525.0
478.0,519.0,501.0,521.0
487.0,522.0,506.0,520.0
497.0,517.0,513.0,521.0
509.0,523.0,518.0,519.0
536.0,494.0,529.0,513.0
549.0,478.0,537.0,513.0
546.0,477.0,538.0,511.0
537.0,487.0,534.0,510.0
514.0,519.0,526.0,510.0
508.0,518.0,518.0,511.0
501.0,513.0,517.0,509.0
468.0,529.0,512.0,511.0
471.0,516.0,508.0,514.0
499.0,491.0,510.0,515.0
507.0,488.0,509.0,517.0
509.0,490.0,506.0,521.0
496.0,521.0,502.0,525.0
494.0,531.0,505.0,523.0
498.0,525.0,506.0,519.0
500.0,520.0,517.0,521.0
508.0,508.0,521.0,516.0
524.0,483.0,533.0,513.0
527.0,481.0,538.0,508.0
520.0,493.0,537.0,508.0
509.0,522.0,531.0,509.0
496.0,529.0,524.0,508.0
503.0,490.0,519.0,511.0
491.0,518.0,513.0,515.0
495.0,520.0,509.0,511.0
512.0,489.0,509.0,516.0
526.0,467.0,508.0,517.0
528.0,470.0,508.0,521.0
518.0,489.0,504.0,525.0
497.0,530.0,501.0,526.0
499.0,518.0,505.0,525.0
501.0,525.0,511.0,521.0
508.0,508.0,517.0,520.0
518.0,489.0,529.0,517.0
535.0,464.0,535.0,517.0
532.0,472.0,539.0,512.0
524.0,482.0,539.0,511.0
506.0,517.0,531.0,511.0
492.0,539.0,524.0,512.0
501.0,538.0,520.0,508.0
499.0,544.0,515.0,507.0
495.0,529.0,508.0,512.0
520.0,487.0,506.0,513.0
525.0,484.0,508.0,514.0
526.0,472.0,503.0,521.0
516.0,503.0,500.0,526.0
499.0,541.0,506.0,521.0
510.0,515.0,506.0,520.0
508.0,508.0,508.0,518.0
512.0,502.0,515.0,515.0
526.0,473.0,526.0,508.0
535.0,462.0,535.0,507.0
534.0,480.0,536.0,505.0
525.0,488.0,531.0,507.0
502.0,535.0,523.0,506.0
501.0,529.0,519.0,508.0
498.0,527.0,516.0,511.0
503.0,516.0,511.0,510.0
509.0,501.0,507.0,513.0
518.0,484.0,510.0,514.0
515.0,487.0,507.0,518.0
521.0,490.0,505.0,519.0
503.0,524.0,501.0,524.0
502.0,534.0,501.0,524.0
519.0,504.0,509.0,519.0
519.0,507.0,510.0,519.0
525.0,498.0,519.0,515.0
534.0,475.0,530.0,511.0
526.0,474.0,537.0,508.0
526.0,476.0,535.0,507.0
513.0,501.0,527.0,508.0
494.0,526.0,525.0,509.0
504.0,511.0,519.0,506.0
498.0,531.0,514.0,508.0
498.0,528.0,506.0,511.0
504.0,503.0,507.0,513.0
515.0,479.0,509.0,514.0
517.0,477.0,506.0,520.0
519.0,482.0,501.0,521.0
504.0,522.0,497.0,522.0
504.0,535.0,503.0,520.0
510.0,506.0,507.0,518.0
502.0,505.0,515.0,519.0
510.0,500.0,517.0,515.0
517.0,472.0,532.0,512.0
514.0,474.0,535.0,507.0
526.0,479.0,532.0,508.0
509.0,506.0,526.0,508.0
494.0,536.0,521.0,509.0
497.0,524.0,518.0,511.0
498.0,522.0,512.0,508.0
500.0,515.0,508.0,512.0
512.0,486.0,507.0,515.0
513.0,487.0,506.0,520.0
517.0,496.0,505.0,518.0
518.0,512.0,500.0,524.0
505.0,528.0,499.0,525.0
516.0,508.0,503.0,524.0
517.0,509.0,508.0,519.0
527.0,502.0,512.0,516.0
536.0,485.0,523.0,514.0
538.0,479.0,534.0,509.0
529.0,478.0,538.0,509.0
518.0,485.0,535.0,509.0
499.0,506.0,526.0,510.0
490.0,509.0,518.0,513.0
488.0,503.0,517.0,507.0
476.0,536.0,507.0,510.0
485.0,531.0,501.0,513.0
514.0,489.0,506.0,510.0
514.0,488.0,502.0,518.0
515.0,490.0,504.0,521.0
499.0,521.0,502.0,523.0
490.0,530.0,503.0,526.0
500.0,516.0,510.0,525.0
498.0,516.0,516.0,521.0
506.0,509.0,520.0,516.0
525.0,478.0,526.0,513.0
529.0,469.0,535.0,508.0
528.0,478.0,535.0,508.0
515.0,502.0,529.0,507.0
500.0,529.0,523.0,509.0
502.0,518.0,521.0,510.0
499.0,526.0,516.0,508.0
492.0,524.0,510.0,511.0
506.0,504.0,507.0,511.0
516.0,485.0,504.0,515.0
517.0,489.0,503.0,520.0
515.0,500.0,503.0,522.0
499.0,528.0,500.0,525.0
503.0,525.0,504.0,523.0
509.0,517.0,505.0,521.0
510.0,516.0,514.0,522.0
517.0,498.0,523.0,517.0
535.0,473.0,532.0,507.0
535.0,475.0,537.0,511.0
525.0,475.0,533.0,509.0
504.0,504.0,525.0,509.0
489.0,530.0,518.0,510.0
495.0,523.0,515.0,509.0
491.0,528.0,513.0,511.0
496.0,520.0,510.0,513.0
520.0,484.0,508.0,512.0
523.0,479.0,507.0,518.0
522.0,481.0,505.0,520.0
512.0,500.0,503.0,522.0
497.0,541.0,501.0,527.0
507.0,516.0,506.0,521.0
500.0,524.0,511.0,519.0
512.0,511.0,515.0,516.0
526.0,480.0,526.0,510.0
533.0,470.0,533.0,507.0
523.0,474.0,536.0,509.0
525.0,484.0,533.0,506.0
493.0,527.0,519.0,508.0
489.0,523.0,522.0,509.0
494.0,519.0,515.0,512.0
496.0,512.0,511.0,509.0
507.0,497.0,509.0,511.0
522.0,477.0,511.0,517.0
520.0,483.0,509.0,519.0
522.0,491.0,506.0,521.0
509.0,520.0,502.0,523.0
499.0,532.0,509.0,524.0
514.0,514.0,506.0,522.0
511.0,522.0,509.0,519.0
524.0,511.0,520.0,518.0
536.0,476.0,529.0,511.0
536.0,472.0,536.0,511.0
526.0,480.0,535.0,510.0
512.0,500.0,530.0,506.0
501.0,532.0,523.0,509.0
507.0,523.0,520.0,509.0
506.0,520.0,517.0,506.0
504.0,515.0,511.0,512.0
507.0,499.0,506.0,513.0
524.0,482.0,508.0,516.0
524.0,488.0,507.0,519.0
521.0,494.0,505.0,522.0
507.0,524.0,502.0,521.0
511.0,520.0,504.0,523.0
503.0,517.0,508.0,521.0
500.0,520.0,513.0,520.0
506.0,499.0,522.0,517.0
524.0,468.0,530.0,513.0
524.0,469.0,530.0,509.0
519.0,482.0,534.0,505.0
502.0,522.0,527.0,508.0
491.0,547.0,520.0,508.0
499.0,534.0,517.0,509.0
497.0,537.0,513.0,506.0
494.0,526.0,509.0,513.0
520.0,464.0,506.0,513.0
530.0,454.0,505.0,517.0
519.0,477.0,504.0,519.0
508.0,504.0,500.0,523.0
500.0,515.0,504.0,522.0
503.0,522.0,505.0,523.0
500.0,519.0,510.0,518.0
503.0,509.0,519.0,514.0
519.0,495.0,526.0,516.0
531.0,468.0,532.0,511.0
529.0,466.0,533.0,507.0
528.0,480.0,530.0,507.0
499.0,523.0,523.0,509.0
498.0,527.0,520.0,506.0
503.0,515.0,517.0,509.0
499.0,508.0,513.0,509.0
507.0,498.0,508.0,510.0
527.0,486.0,509.0,513.0
522.0,497.0,504.0,518.0
527.0,493.0,502.0,520.0
518.0,519.0,500.0,524.0
519.0,527.0,501.0,524.0
526.0,507.0,509.0,522.0
523.0,512.0,513.0,518.0
524.0,508.0,519.0,516.0
536.0,477.0,530.0,512.0
521.0,477.0,533.0,513.0
518.0,480.0,533.0,509.0
513.0,500.0,528.0,507.0
487.0,531.0,521.0,511.0
488.0,514.0,519.0,510.0
489.0,519.0,512.0,509.0
495.0,519.0,510.0,511.0
501.0,504.0,506.0,509.0
509.0,488.0,506.0,515.0
511.0,489.0,504.0,520.0
509.0,494.0,501.0,522.0
496.0,529.0,499.0,523.0
498.0,534.0,502.0,524.0
509.0,509.0,509.0,522.0
513.0,504.0,513.0,519.0
518.0,497.0,522.0,513.0
529.0,483.0,531.0,510.0
531.0,480.0,534.0,510.0
524.0,487.0,533.0,507.0
499.0,520.0,523.0,511.0
486.0,539.0,519.0,510.0
505.0,511.0,516.0,511.0
504.0,512.0,515.0,508.0
508.0,506.0,508.0,513.0
513.0,490.0,506.0,515.0
520.0,488.0,505.0,515.0
522.0,490.0,503.0,521.0
515.0,506.0,498.0,525.0
505.0,522.0,500.0,525.0
504.0,521.0,507.0,522.0
508.0,524.0,514.0,523.0
514.0,517.0,520.0,518.0
520.0,495.0,530.0,515.0
526.0,475.0,535.0,510.0
522.0,482.0,532.0,509.0
520.0,495.0,531.0,508.0
501.0,528.0,519.0,510.0
502.0,515.0,521.0,509.0
505.0,513.0,518.0,509.0
501.0,516.0,513.0,511.0
503.0,517.0,508.0,514.0
522.0,488.0,508.0,515.0
525.0,486.0,507.0,514.0
526.0,488.0,504.0,522.0
514.0,513.0,501.0,521.0
505.0,526.0,501.0,525.0
507.0,525.0,509.0,524.0
503.0,525.0,513.0,522.0
508.0,521.0,519.0,517.0
529.0,478.0,529.0,511.0
532.0,471.0,536.0,507.0
533.0,479.0,537.0,507.0
515.0,498.0,529.0,509.0
498.0,525.0,522.0,511.0
501.0,522.0,521.0,511.0
506.0,514.0,515.0,505.0
504.0,519.0,507.0,507.0
512.0,504.0,507.0,511.0
522.0,487.0,508.0,519.0
525.0,489.0,508.0,520.0
518.0,495.0,501.0,524.0
504.0,520.0,502.0,526.0
503.0,520.0,505.0,525.0
508.0,518.0,505.0,522.0
509.0,511.0,516.0,521.0
516.0,501.0,523.0,518.0
529.0,474.0,532.0,512.0
526.0,477.0,535.0,510.0
521.0,487.0,530.0,508.0
504.0,516.0,522.0,509.0
497.0,521.0,515.0,511.0
505.0,511.0,517.0,507.0
497.0,521.0,515.0,506.0
504.0,516.0,508.0,513.0
518.0,488.0,507.0,515.0
528.0,479.0,505.0,516.0
530.0,475.0,500.0,519.0
522.0,498.0,502.0,522.0
510.0,525.0,501.0,537.0
513.0,519.0,502.0,525.0
517.0,510.0,506.0,519.0
513.0,512.0,511.0,519.0
515.0,492.0,526.0,509.0
517.0,471.0,530.0,516.0
519.0,477.0,528.0,508.0
521.0,481.0,527.0,509.0
502.0,519.0,526.0,511.0
496.0,523.0,523.0,509.0
500.0,513.0,516.0,509.0
500.0,518.0,504.0,503.0
508.0,510.0,503.0,508.0
527.0,480.0,502.0,514.0
532.0,482.0,505.0,521.0
534.0,501.0,503.0,521.0
521.0,514.0,500.0,526.0
503.0,524.0,503.0,529.0
526.0,509.0,500.0,527.0
517.0,521.0,511.0,516.0
507.0,514.0,519.0,522.0
521.0,483.0,532.0,513.0
536.0,472.0,527.0,509.0
530.0,473.0,528.0,507.0
504.0,505.0,521.0,503.0
483.0,532.0,522.0,508.0
498.0,518.0,521.0,512.0
500.0,532.0,516.0,510.0
491.0,536.0,507.0,518.0
503.0,511.0,504.0,516.0
520.0,483.0,504.0,510.0
509.0,495.0,503.0,517.0
494.0,499.0,501.0,518.0
481.0,526.0,497.0,520.0
492.0,525.0,501.0,515.0
498.0,523.0,502.0,516.0
498.0,519.0,511.0,516.0
504.0,504.0,514.0,516.0
533.0,471.0,522.0,510.0
537.0,473.0,532.0,504.0
534.0,486.0,530.0,497.0
518.0,529.0,528.0,506.0
508.0,536.0,522.0,509.0
504.0,534.0,516.0,511.0
494.0,528.0,519.0,534.0
476.0,518.0,507.0,538.0
501.0,487.0,504.0,504.0
515.0,475.0,503.0,516.0
510.0,484.0,505.0,507.0
500.0,505.0,502.0,516.0
492.0,536.0,498.0,521.0
499.0,521.0,500.0,524.0
501.0,521.0,503.0,511.0
502.0,511.0,515.0,519.0
516.0,492.0,524.0,510.0
530.0,482.0,534.0,504.0
524.0,496.0,537.0,510.0
520.0,493.0,528.0,504.0
500.0,526.0,518.0,511.0
495.0,534.0,519.0,515.0
496.0,528.0,518.0,509.0
495.0,526.0,511.0,510.0
505.0,516.0,508.0,509.0
522.0,487.0,506.0,503.0
523.0,491.0,500.0,527.0
523.0,504.0,501.0,535.0
508.0,528.0,496.0,539.0
499.0,534.0,502.0,523.0
508.0,515.0,506.0,521.0
507.0,513.0,507.0,523.0
514.0,506.0,521.0,526.0
531.0,476.0,532.0,504.0
540.0,475.0,535.0,515.0
533.0,472.0,534.0,515.0
520.0,494.0,527.0,504.0
497.0,531.0,522.0,512.0
499.0,529.0,519.0,509.0
506.0,513.0,514.0,483.0
497.0,518.0,504.0,491.0
505.0,500.0,506.0,523.0
524.0,482.0,503.0,521.0
520.0,487.0,509.0,527.0
516.0,497.0,501.0,520.0
504.0,528.0,498.0,525.0
503.0,519.0,505.0,527.0
507.0,497.0,511.0,529.0
512.0,490.0,504.0,539.0
517.0,486.0,515.0,526.0
533.0,473.0,528.0,532.0
532.0,488.0,528.0,494.0
523.0,486.0,528.0,508.0
509.0,513.0,529.0,506.0
497.0,532.0,525.0,509.0
507.0,522.0,520.0,504.0
505.0,522.0,507.0,507.0
514.0,519.0,500.0,513.0
520.0,488.0,499.0,521.0
531.0,483.0,505.0,517.0
533.0,487.0,503.0,518.0
517.0,502.0,496.0,529.0
491.0,540.0,493.0,518.0
505.0,522.0,506.0,508.0
516.0,512.0,510.0,524.0
517.0,504.0,513.0,518.0
529.0,483.0,523.0,507.0
536.0,463.0,538.0,512.0
542.0,468.0,533.0,527.0
532.0,490.0,529.0,554.0
512.0,529.0,523.0,532.0
507.0,536.0,519.0,493.0
505.0,518.0,519.0,497.0
482.0,527.0,516.0,508.0
486.0,513.0,505.0,523.0
497.0,482.0,483.0,515.0
511.0,486.0,495.0,505.0
518.0,492.0,504.0,479.0
511.0,517.0,508.0,529.0
507.0,528.0,499.0,523.0
514.0,519.0,511.0,538.0
511.0,524.0,514.0,515.0
515.0,514.0,516.0,513.0
534.0,468.0,528.0,498.0
536.0,462.0,531.0,506.0
529.0,472.0,529.0,533.0
516.0,503.0,522.0,515.0
492.0,539.0,525.0,498.0
505.0,515.0,520.0,496.0
516.0,508.0,520.0,486.0
524.0,521.0,499.0,494.0
535.0,509.0,500.0,540.0
556.0,487.0,504.0,533.0
552.0,485.0,510.0,496.0
532.0,495.0,505.0,495.0
506.0,521.0,505.0,525.0
495.0,508.0,499.0,535.0
471.0,522.0,504.0,526.0
476.0,518.0,514.0,521.0
488.0,508.0,517.0,511.0
518.0,469.0,526.0,509.0
518.0,479.0,533.0,537.0
518.0,489.0,525.0,492.0
509.0,507.0,517.0,500.0
488.0,527.0,519.0,518.0
491.0,517.0,510.0,517.0
488.0,534.0,520.0,515.0
507.0,531.0,522.0,518.0
550.0,495.0,509.0,517.0
571.0,476.0,497.0,517.0
576.0,471.0,501.0,518.0
581.0,487.0,483.0,516.0
563.0,524.0,475.0,513.0
543.0,509.0,489.0,503.0
514.0,497.0,509.0,539.0
498.0,496.0,524.0,531.0
501.0,491.0,527.0,519.0
510.0,483.0,538.0,517.0
506.0,485.0,532.0,514.0
490.0,498.0,530.0,502.0
469.0,535.0,527.0,528.0
466.0,538.0,519.0,516.0
466.0,534.0,505.0,501.0
474.0,522.0,509.0,519.0
480.0,507.0,510.0,567.0
499.0,480.0,501.0,541.0
509.0,488.0,499.0,493.0
508.0,496.0,504.0,478.0
495.0,519.0,499.0,533.0
488.0,525.0,514.0,540.0
498.0,512.0,520.0,521.0
508.0,515.0,492.0,493.0
512.0,507.0,502.0,497.0
532.0,477.0,525.0,524.0
534.0,477.0,525.0,498.0
531.0,483.0,541.0,511.0
515.0,497.0,538.0,518.0
484.0,533.0,518.0,519.0
489.0,534.0,521.0,514.0
520.0,508.0,510.0,503.0
522.0,508.0,506.0,478.0
527.0,501.0,498.0,493.0
537.0,475.0,510.0,529.0
532.0,484.0,498.0,521.0
512.0,494.0,494.0,518.0
472.0,532.0,496.0,527.0
486.0,524.0,513.0,523.0
493.0,522.0,507.0,519.0
494.0,511.0,512.0,534.0
504.0,493.0,531.0,517.0
521.0,470.0,542.0,509.0
527.0,466.0,539.0,504.0
524.0,474.0,530.0,505.0
497.0,518.0,512.0,514.0
487.0,530.0,507.0,465.0
501.0,518.0,497.0,451.0
506.0,514.0,516.0,546.0
513.0,511.0,513.0,518.0
529.0,481.0,498.0,493.0
527.0,481.0,505.0,498.0
526.0,484.0,531.0,554.0
528.0,498.0,548.0,557.0
493.0,528.0,508.0,535.0
490.0,525.0,510.0,528.0
498.0,524.0,497.0,524.0
511.0,509.0,502.0,537.0
532.0,484.0,533.0,537.0
545.0,465.0,532.0,500.0
