CH1,CH2,CH3,CH4
510.0,522.0,477.0,499.0
503.0,510.0,469.0,497.0
507.0,507.0,472.0,495.0
508.0,504.0,480.0,499.0
507.0,498.0,495.0,508.0
513.0,501.0,521.0,514.0
522.0,494.0,531.0,501.0
529.0,489.0,531.0,499.0
527.0,490.0,531.0,500.0
519.0,525.0,527.0,495.0
513.0,528.0,525.0,489.0
501.0,517.0,515.0,491.0
496.0,507.0,499.0,489.0
502.0,501.0,490.0,489.0
516.0,482.0,494.0,502.0
520.0,505.0,489.0,515.0
517.0,510.0,492.0,522.0
505.0,537.0,486.0,526.0
499.0,530.0,491.0,528.0
501.0,521.0,510.0,523.0
503.0,539.0,497.0,511.0
508.0,527.0,502.0,511.0
520.0,492.0,518.0,510.0
526.0,484.0,524.0,508.0
527.0,444.0,533.0,506.0
519.0,480.0,526.0,499.0
498.0,523.0,520.0,503.0
498.0,536.0,518.0,501.0
500.0,516.0,523.0,501.0
491.0,543.0,515.0,498.0
504.0,477.0,505.0,496.0
528.0,402.0,497.0,494.0
523.0,472.0,490.0,499.0
517.0,518.0,480.0,500.0
507.0,527.0,473.0,499.0
507.0,518.0,472.0,503.0
509.0,509.0,482.0,502.0
519.0,491.0,489.0,499.0
521.0,487.0,499.0,501.0
534.0,475.0,514.0,503.0
533.0,501.0,519.0,501.0
519.0,528.0,526.0,498.0
498.0,552.0,524.0,503.0
495.0,511.0,524.0,505.0
508.0,451.0,523.0,514.0
503.0,471.0,523.0,520.0
501.0,484.0,517.0,523.0
520.0,473.0,516.0,524.0
531.0,475.0,510.0,521.0
522.0,485.0,498.0,518.0
516.0,485.0,496.0,517.0
504.0,504.0,490.0,514.0
504.0,536.0,489.0,506.0
493.0,580.0,483.0,502.0
499.0,573.0,490.0,499.0
515.0,514.0,494.0,493.0
523.0,503.0,518.0,494.0
522.0,485.0,527.0,499.0
520.0,502.0,527.0,498.0
497.0,543.0,528.0,499.0
494.0,492.0,518.0,498.0
499.0,473.0,510.0,497.0
496.0,509.0,506.0,504.0
506.0,509.0,509.0,510.0
529.0,483.0,505.0,509.0
528.0,474.0,502.0,510.0
529.0,474.0,496.0,513.0
517.0,525.0,482.0,513.0
499.0,562.0,476.0,513.0
490.0,563.0,480.0,512.0
498.0,544.0,488.0,513.0
505.0,528.0,495.0,519.0
525.0,495.0,513.0,512.0
528.0,467.0,531.0,510.0
528.0,436.0,545.0,512.0
514.0,516.0,539.0,516.0
502.0,480.0,531.0,519.0
502.0,511.0,526.0,518.0
497.0,543.0,517.0,515.0
503.0,537.0,508.0,513.0
522.0,510.0,510.0,520.0
529.0,486.0,512.0,523.0
530.0,494.0,506.0,516.0
519.0,517.0,494.0,517.0
494.0,560.0,482.0,515.0
497.0,540.0,473.0,512.0
503.0,511.0,478.0,509.0
514.0,460.0,484.0,516.0
524.0,434.0,501.0,527.0
541.0,417.0,522.0,523.0
532.0,458.0,536.0,521.0
518.0,494.0,539.0,519.0
499.0,524.0,537.0,519.0
486.0,552.0,531.0,510.0
489.0,531.0,521.0,501.0
497.0,515.0,506.0,494.0
508.0,521.0,495.0,498.0
533.0,533.0,485.0,498.0
525.0,522.0,484.0,503.0
519.0,517.0,488.0,513.0
510.0,504.0,485.0,521.0
498.0,531.0,483.0,517.0
504.0,511.0,483.0,514.0
507.0,511.0,497.0,516.0
511.0,518.0,504.0,513.0
521.0,491.0,507.0,511.0
530.0,477.0,513.0,510.0
526.0,475.0,522.0,509.0
523.0,452.0,522.0,509.0
510.0,481.0,524.0,506.0
504.0,514.0,529.0,512.0
501.0,530.0,532.0,511.0
499.0,533.0,524.0,509.0
512.0,525.0,521.0,513.0
524.0,496.0,514.0,512.0
520.0,478.0,503.0,509.0
518.0,475.0,486.0,511.0
504.0,504.0,474.0,516.0
502.0,526.0,476.0,515.0
505.0,535.0,485.0,516.0
506.0,524.0,495.0,521.0
514.0,506.0,502.0,521.0
532.0,477.0,522.0,514.0
533.0,456.0,530.0,513.0
529.0,460.0,534.0,509.0
515.0,497.0,528.0,502.0
495.0,537.0,521.0,499.0
497.0,522.0,522.0,498.0
499.0,511.0,521.0,509.0
495.0,512.0,514.0,513.0
515.0,497.0,504.0,515.0
518.0,499.0,507.0,516.0
514.0,506.0,497.0,521.0
510.0,530.0,486.0,522.0
494.0,553.0,478.0,520.0
490.0,551.0,482.0,519.0
498.0,503.0,489.0,514.0
510.0,502.0,492.0,516.0
526.0,522.0,502.0,515.0
538.0,495.0,524.0,509.0
532.0,494.0,537.0,511.0
531.0,470.0,533.0,506.0
510.0,511.0,540.0,519.0
500.0,528.0,534.0,521.0
502.0,516.0,524.0,513.0
499.0,494.0,523.0,518.0
502.0,493.0,515.0,516.0
519.0,468.0,510.0,516.0
527.0,463.0,498.0,521.0
525.0,484.0,494.0,521.0
510.0,516.0,485.0,524.0
493.0,555.0,485.0,524.0
497.0,567.0,486.0,515.0
502.0,507.0,484.0,513.0
517.0,491.0,495.0,513.0
528.0,478.0,510.0,510.0
532.0,460.0,525.0,507.0
530.0,455.0,528.0,507.0
523.0,475.0,530.0,507.0
500.0,527.0,525.0,508.0
496.0,538.0,521.0,507.0
498.0,522.0,518.0,513.0
502.0,513.0,510.0,514.0
504.0,509.0,502.0,514.0
517.0,451.0,504.0,517.0
527.0,447.0,497.0,516.0
529.0,464.0,497.0,523.0
515.0,507.0,489.0,524.0
496.0,499.0,484.0,522.0
510.0,513.0,484.0,523.0
505.0,541.0,491.0,520.0
507.0,539.0,501.0,516.0
522.0,508.0,519.0,513.0
530.0,498.0,528.0,514.0
526.0,507.0,532.0,511.0
512.0,520.0,531.0,510.0
499.0,527.0,524.0,508.0
498.0,528.0,520.0,514.0
493.0,549.0,515.0,512.0
496.0,546.0,505.0,519.0
511.0,507.0,508.0,524.0
521.0,474.0,505.0,527.0
515.0,490.0,507.0,532.0
517.0,513.0,503.0,533.0
506.0,537.0,496.0,527.0
503.0,536.0,484.0,524.0
500.0,526.0,482.0,514.0
505.0,493.0,490.0,515.0
512.0,476.0,505.0,509.0
530.0,458.0,523.0,507.0
530.0,467.0,530.0,505.0
522.0,465.0,531.0,504.0
499.0,510.0,525.0,510.0
493.0,541.0,523.0,511.0
501.0,530.0,516.0,513.0
502.0,542.0,511.0,515.0
492.0,569.0,504.0,522.0
513.0,513.0,509.0,524.0
522.0,499.0,503.0,527.0
523.0,470.0,502.0,526.0
507.0,462.0,489.0,525.0
491.0,509.0,485.0,524.0
496.0,509.0,492.0,521.0
502.0,498.0,490.0,519.0
513.0,503.0,493.0,516.0
532.0,499.0,512.0,514.0
541.0,481.0,526.0,518.0
532.0,482.0,535.0,518.0
524.0,487.0,537.0,514.0
504.0,531.0,527.0,506.0
502.0,520.0,519.0,506.0
501.0,512.0,517.0,506.0
502.0,522.0,509.0,504.0
508.0,508.0,502.0,507.0
527.0,497.0,503.0,512.0
524.0,493.0,501.0,518.0
520.0,498.0,493.0,526.0
509.0,529.0,485.0,523.0
493.0,533.0,483.0,525.0
502.0,511.0,488.0,527.0
506.0,505.0,493.0,521.0
514.0,499.0,502.0,516.0
529.0,471.0,523.0,512.0
533.0,472.0,531.0,509.0
520.0,475.0,534.0,509.0
506.0,503.0,531.0,510.0
484.0,529.0,529.0,511.0
484.0,533.0,523.0,507.0
498.0,528.0,519.0,506.0
505.0,538.0,511.0,512.0
517.0,520.0,505.0,512.0
533.0,449.0,500.0,521.0
525.0,458.0,492.0,520.0
519.0,496.0,493.0,523.0
505.0,534.0,489.0,527.0
508.0,502.0,492.0,526.0
518.0,493.0,497.0,521.0
518.0,497.0,505.0,526.0
517.0,491.0,516.0,523.0
536.0,461.0,532.0,520.0
533.0,487.0,532.0,517.0
522.0,508.0,530.0,515.0
508.0,530.0,530.0,513.0
501.0,531.0,525.0,509.0
500.0,501.0,519.0,506.0
504.0,510.0,516.0,502.0
500.0,533.0,511.0,506.0
513.0,516.0,513.0,512.0
519.0,497.0,505.0,516.0
519.0,497.0,499.0,520.0
509.0,521.0,487.0,524.0
496.0,536.0,486.0,521.0
505.0,508.0,487.0,524.0
500.0,520.0,492.0,519.0
506.0,499.0,500.0,517.0
518.0,479.0,512.0,513.0
533.0,486.0,526.0,512.0
530.0,469.0,533.0,509.0
524.0,479.0,536.0,510.0
510.0,508.0,530.0,511.0
500.0,497.0,525.0,509.0
499.0,518.0,522.0,513.0
499.0,524.0,516.0,516.0
505.0,507.0,511.0,514.0
522.0,474.0,507.0,517.0
529.0,477.0,499.0,518.0
523.0,494.0,497.0,522.0
503.0,523.0,487.0,523.0
497.0,530.0,486.0,525.0
503.0,514.0,497.0,526.0
502.0,516.0,502.0,525.0
509.0,520.0,499.0,519.0
531.0,487.0,516.0,516.0
533.0,493.0,528.0,514.0
530.0,483.0,539.0,515.0
517.0,492.0,533.0,513.0
504.0,517.0,521.0,508.0
498.0,504.0,526.0,512.0
492.0,535.0,516.0,515.0
491.0,534.0,513.0,514.0
505.0,498.0,497.0,513.0
530.0,479.0,502.0,513.0
523.0,477.0,503.0,520.0
517.0,488.0,489.0,522.0
501.0,516.0,487.0,524.0
496.0,531.0,484.0,523.0
499.0,530.0,488.0,519.0
508.0,511.0,495.0,518.0
521.0,475.0,510.0,518.0
538.0,450.0,522.0,515.0
536.0,491.0,533.0,511.0
522.0,510.0,535.0,510.0
506.0,521.0,529.0,511.0
497.0,539.0,524.0,513.0
490.0,551.0,523.0,512.0
491.0,547.0,517.0,515.0
498.0,540.0,512.0,516.0
519.0,483.0,511.0,518.0
524.0,480.0,506.0,518.0
523.0,494.0,501.0,522.0
512.0,515.0,499.0,521.0
499.0,522.0,490.0,529.0
503.0,508.0,487.0,527.0
502.0,516.0,491.0,524.0
514.0,512.0,502.0,525.0
523.0,495.0,517.0,522.0
530.0,471.0,532.0,519.0
530.0,464.0,537.0,518.0
521.0,476.0,534.0,522.0
499.0,505.0,529.0,516.0
493.0,503.0,525.0,518.0
491.0,509.0,524.0,516.0
492.0,505.0,517.0,515.0
497.0,511.0,509.0,515.0
519.0,481.0,509.0,514.0
528.0,506.0,504.0,515.0
533.0,495.0,493.0,519.0
521.0,511.0,486.0,522.0
507.0,528.0,483.0,524.0
500.0,520.0,489.0,522.0
506.0,507.0,495.0,521.0
513.0,497.0,504.0,520.0
527.0,458.0,520.0,518.0
533.0,459.0,524.0,514.0
530.0,470.0,529.0,520.0
520.0,487.0,528.0,519.0
499.0,518.0,536.0,523.0
500.0,517.0,541.0,528.0
502.0,522.0,535.0,520.0
498.0,547.0,532.0,523.0
508.0,551.0,522.0,515.0
520.0,525.0,510.0,514.0
519.0,491.0,494.0,506.0
521.0,464.0,482.0,507.0
501.0,518.0,476.0,515.0
497.0,518.0,483.0,519.0
498.0,516.0,492.0,519.0
505.0,498.0,500.0,515.0
513.0,487.0,513.0,520.0
531.0,467.0,531.0,517.0
532.0,469.0,540.0,520.0
525.0,477.0,547.0,515.0
507.0,505.0,534.0,510.0
502.0,537.0,526.0,506.0
504.0,521.0,521.0,503.0
503.0,509.0,516.0,502.0
504.0,521.0,506.0,503.0
510.0,490.0,505.0,508.0
517.0,499.0,503.0,516.0
512.0,501.0,496.0,520.0
517.0,488.0,492.0,528.0
504.0,510.0,488.0,529.0
500.0,537.0,491.0,524.0
498.0,537.0,498.0,527.0
509.0,525.0,505.0,521.0
515.0,515.0,514.0,517.0
528.0,439.0,527.0,514.0
531.0,414.0,533.0,511.0
528.0,491.0,534.0,514.0
494.0,537.0,527.0,514.0
498.0,535.0,526.0,513.0
498.0,531.0,525.0,515.0
502.0,505.0,529.0,518.0
508.0,497.0,521.0,522.0
520.0,498.0,512.0,518.0
522.0,514.0,500.0,512.0
524.0,489.0,489.0,513.0
513.0,503.0,482.0,517.0
500.0,511.0,485.0,520.0
502.0,525.0,488.0,520.0
506.0,506.0,494.0,517.0
510.0,491.0,504.0,511.0
525.0,470.0,521.0,513.0
528.0,458.0,531.0,511.0
523.0,470.0,536.0,510.0
516.0,499.0,529.0,509.0
499.0,528.0,525.0,510.0
498.0,522.0,524.0,511.0
502.0,523.0,521.0,509.0
502.0,515.0,517.0,513.0
511.0,523.0,509.0,519.0
517.0,495.0,511.0,519.0
520.0,491.0,501.0,524.0
516.0,503.0,493.0,522.0
500.0,530.0,486.0,526.0
500.0,532.0,486.0,524.0
503.0,514.0,496.0,524.0
507.0,512.0,497.0,523.0
512.0,504.0,511.0,522.0
529.0,470.0,529.0,521.0
528.0,472.0,541.0,518.0
524.0,474.0,541.0,514.0
508.0,510.0,534.0,515.0
496.0,534.0,527.0,510.0
501.0,515.0,524.0,510.0
497.0,518.0,520.0,514.0
498.0,515.0,516.0,517.0
512.0,490.0,509.0,520.0
518.0,478.0,506.0,522.0
515.0,489.0,498.0,525.0
512.0,502.0,489.0,523.0
498.0,514.0,483.0,525.0
497.0,510.0,487.0,523.0
505.0,510.0,494.0,525.0
506.0,507.0,503.0,525.0
522.0,485.0,519.0,522.0
532.0,470.0,530.0,515.0
524.0,475.0,536.0,516.0
520.0,493.0,536.0,515.0
504.0,521.0,525.0,513.0
496.0,524.0,520.0,510.0
494.0,547.0,521.0,506.0
490.0,543.0,517.0,513.0
510.0,511.0,512.0,521.0
523.0,484.0,513.0,520.0
523.0,484.0,514.0,526.0
522.0,488.0,504.0,527.0
504.0,519.0,497.0,519.0
493.0,533.0,486.0,521.0
498.0,506.0,486.0,521.0
501.0,501.0,490.0,515.0
513.0,486.0,506.0,518.0
523.0,467.0,520.0,513.0
533.0,498.0,531.0,508.0
517.0,528.0,548.0,509.0
518.0,542.0,541.0,519.0
506.0,511.0,531.0,521.0
503.0,486.0,526.0,515.0
501.0,510.0,524.0,512.0
499.0,513.0,514.0,509.0
509.0,499.0,505.0,508.0
523.0,480.0,500.0,508.0
522.0,477.0,490.0,515.0
516.0,486.0,486.0,516.0
505.0,501.0,479.0,519.0
503.0,503.0,480.0,522.0
507.0,504.0,485.0,519.0
509.0,491.0,491.0,518.0
516.0,477.0,508.0,519.0
532.0,465.0,528.0,513.0
533.0,466.0,537.0,515.0
527.0,489.0,543.0,512.0
512.0,526.0,533.0,513.0
493.0,521.0,489.0,532.0
496.0,520.0,500.0,532.0
502.0,522.0,503.0,529.0
510.0,505.0,521.0,531.0
517.0,490.0,534.0,527.0
529.0,474.0,538.0,517.0
525.0,472.0,542.0,511.0
523.0,477.0,538.0,505.0
508.0,516.0,526.0,499.0
499.0,520.0,519.0,491.0
501.0,522.0,512.0,491.0
503.0,512.0,513.0,493.0
505.0,517.0,506.0,494.0
519.0,483.0,504.0,501.0
523.0,478.0,497.0,508.0
519.0,489.0,492.0,511.0
503.0,510.0,486.0,518.0
482.0,546.0,482.0,518.0
491.0,529.0,489.0,519.0
503.0,497.0,491.0,518.0
509.0,521.0,501.0,523.0
524.0,489.0,520.0,523.0
535.0,471.0,528.0,524.0
533.0,474.0,528.0,525.0
528.0,491.0,532.0,523.0
504.0,537.0,537.0,527.0
495.0,555.0,527.0,520.0
498.0,539.0,525.0,515.0
498.0,553.0,530.0,516.0
504.0,545.0,530.0,526.0
523.0,478.0,532.0,523.0
528.0,459.0,514.0,517.0
523.0,504.0,497.0,509.0
505.0,530.0,484.0,506.0
496.0,531.0,486.0,508.0
500.0,518.0,490.0,509.0
514.0,498.0,493.0,508.0
514.0,494.0,502.0,506.0
527.0,480.0,523.0,501.0
528.0,480.0,514.0,495.0
523.0,483.0,526.0,492.0
512.0,504.0,521.0,486.0
499.0,516.0,517.0,489.0
502.0,519.0,515.0,488.0
496.0,528.0,513.0,492.0
489.0,547.0,503.0,495.0
505.0,541.0,500.0,501.0
516.0,518.0,501.0,506.0
519.0,506.0,495.0,512.0
519.0,470.0,488.0,521.0
504.0,498.0,485.0,519.0
496.0,518.0,488.0,521.0
505.0,513.0,491.0,518.0
506.0,513.0,501.0,518.0
517.0,490.0,518.0,515.0
530.0,462.0,534.0,514.0
529.0,468.0,538.0,510.0
525.0,478.0,536.0,509.0
508.0,502.0,529.0,508.0
499.0,519.0,527.0,509.0
498.0,529.0,518.0,511.0
496.0,521.0,519.0,509.0
499.0,520.0,512.0,514.0
521.0,485.0,510.0,512.0
524.0,481.0,508.0,514.0
524.0,488.0,496.0,513.0
512.0,509.0,487.0,518.0
498.0,525.0,483.0,519.0
505.0,512.0,490.0,522.0
508.0,515.0,494.0,515.0
514.0,515.0,505.0,515.0
522.0,494.0,517.0,514.0
531.0,476.0,529.0,510.0
529.0,478.0,538.0,509.0
521.0,482.0,532.0,502.0
501.0,508.0,530.0,508.0
494.0,528.0,529.0,510.0
495.0,525.0,525.0,508.0
499.0,514.0,520.0,509.0
505.0,509.0,507.0,510.0
520.0,487.0,508.0,513.0
522.0,490.0,499.0,517.0
518.0,495.0,496.0,518.0
504.0,521.0,486.0,521.0
497.0,530.0,490.0,520.0
503.0,517.0,495.0,520.0
506.0,509.0,501.0,516.0
511.0,501.0,512.0,516.0
534.0,477.0,522.0,511.0
530.0,476.0,527.0,512.0
525.0,481.0,534.0,512.0
518.0,499.0,532.0,509.0
494.0,531.0,524.0,508.0
490.0,526.0,524.0,508.0
500.0,519.0,521.0,507.0
499.0,514.0,514.0,513.0
513.0,483.0,514.0,513.0
522.0,471.0,508.0,512.0
519.0,481.0,502.0,516.0
516.0,503.0,492.0,519.0
491.0,563.0,488.0,521.0
499.0,549.0,492.0,521.0
516.0,505.0,493.0,514.0
519.0,498.0,501.0,516.0
524.0,496.0,513.0,517.0
533.0,477.0,526.0,513.0
538.0,472.0,535.0,511.0
526.0,481.0,536.0,509.0
504.0,519.0,528.0,509.0
494.0,528.0,526.0,508.0
494.0,523.0,522.0,506.0
498.0,522.0,519.0,509.0
504.0,522.0,512.0,514.0
519.0,486.0,508.0,513.0
525.0,501.0,504.0,518.0
521.0,497.0,497.0,519.0
511.0,533.0,493.0,526.0
499.0,532.0,491.0,520.0
505.0,519.0,496.0,518.0
505.0,502.0,496.0,517.0
507.0,492.0,504.0,522.0
519.0,481.0,520.0,521.0
522.0,461.0,536.0,516.0
516.0,464.0,535.0,504.0
511.0,477.0,529.0,500.0
495.0,506.0,524.0,501.0
505.0,525.0,528.0,501.0
505.0,537.0,525.0,506.0
505.0,530.0,516.0,506.0
508.0,518.0,510.0,512.0
523.0,494.0,510.0,519.0
523.0,502.0,507.0,523.0
523.0,503.0,502.0,524.0
507.0,522.0,492.0,525.0
502.0,506.0,489.0,523.0
505.0,497.0,489.0,519.0
511.0,490.0,494.0,515.0
518.0,494.0,503.0,517.0
530.0,486.0,525.0,515.0
529.0,493.0,535.0,513.0
529.0,479.0,538.0,509.0
516.0,484.0,535.0,506.0
493.0,534.0,531.0,505.0
496.0,533.0,527.0,504.0
507.0,527.0,519.0,502.0
508.0,524.0,514.0,504.0
513.0,517.0,503.0,503.0
525.0,487.0,496.0,507.0
523.0,488.0,490.0,511.0
518.0,498.0,488.0,515.0
504.0,520.0,488.0,510.0
502.0,516.0,491.0,512.0
505.0,518.0,488.0,506.0
507.0,495.0,491.0,506.0
521.0,490.0,506.0,508.0
531.0,472.0,516.0,507.0
529.0,473.0,522.0,503.0
520.0,522.0,532.0,506.0
496.0,566.0,526.0,513.0
491.0,555.0,531.0,513.0
493.0,547.0,544.0,511.0
501.0,516.0,527.0,510.0
505.0,493.0,507.0,508.0
522.0,476.0,502.0,507.0
526.0,480.0,501.0,507.0
523.0,486.0,498.0,517.0
510.0,511.0,494.0,521.0
497.0,535.0,482.0,522.0
501.0,521.0,490.0,516.0
507.0,513.0,497.0,515.0
509.0,504.0,505.0,512.0
526.0,480.0,514.0,507.0
530.0,467.0,530.0,508.0
530.0,478.0,538.0,506.0
517.0,493.0,533.0,506.0
498.0,525.0,527.0,504.0
490.0,529.0,526.0,504.0
494.0,527.0,520.0,502.0
499.0,515.0,518.0,509.0
508.0,501.0,507.0,516.0
517.0,479.0,509.0,522.0
518.0,482.0,501.0,520.0
519.0,486.0,492.0,520.0
503.0,519.0,487.0,522.0
496.0,527.0,490.0,519.0
500.0,522.0,503.0,519.0
512.0,506.0,504.0,513.0
516.0,497.0,508.0,508.0
530.0,471.0,521.0,506.0
531.0,470.0,528.0,508.0
524.0,475.0,536.0,507.0
514.0,513.0,530.0,511.0
492.0,547.0,529.0,514.0
496.0,532.0,533.0,520.0
499.0,525.0,532.0,521.0
496.0,530.0,527.0,521.0
515.0,507.0,519.0,514.0
525.0,493.0,514.0,510.0
522.0,497.0,500.0,510.0
517.0,505.0,482.0,507.0
502.0,534.0,475.0,506.0
501.0,533.0,484.0,508.0
505.0,509.0,488.0,506.0
512.0,506.0,494.0,509.0
517.0,497.0,509.0,510.0
533.0,470.0,522.0,507.0
530.0,470.0,529.0,508.0
522.0,470.0,536.0,507.0
509.0,496.0,528.0,505.0
500.0,507.0,526.0,505.0
499.0,503.0,526.0,506.0
500.0,506.0,519.0,505.0
505.0,514.0,510.0,507.0
518.0,502.0,508.0,509.0
519.0,505.0,504.0,513.0
519.0,505.0,496.0,516.0
509.0,529.0,489.0,515.0
502.0,537.0,488.0,517.0
507.0,506.0,492.0,519.0
516.0,506.0,497.0,517.0
515.0,507.0,505.0,517.0
525.0,491.0,517.0,514.0
535.0,466.0,529.0,509.0
531.0,479.0,535.0,510.0
523.0,496.0,535.0,507.0
508.0,509.0,532.0,511.0
496.0,507.0,530.0,511.0
496.0,518.0,524.0,509.0
501.0,529.0,516.0,510.0
504.0,526.0,511.0,513.0
524.0,491.0,511.0,517.0
521.0,484.0,503.0,520.0
522.0,482.0,497.0,521.0
510.0,499.0,491.0,522.0
500.0,520.0,488.0,525.0
501.0,532.0,488.0,519.0
505.0,521.0,506.0,517.0
512.0,522.0,515.0,517.0
532.0,498.0,524.0,508.0
533.0,489.0,531.0,500.0
526.0,506.0,532.0,500.0
512.0,495.0,531.0,498.0
499.0,500.0,522.0,499.0
491.0,534.0,523.0,505.0
488.0,541.0,516.0,507.0
494.0,527.0,512.0,504.0
515.0,492.0,512.0,511.0
525.0,476.0,505.0,514.0
527.0,472.0,502.0,517.0
524.0,472.0,493.0,519.0
504.0,517.0,489.0,518.0
501.0,504.0,489.0,519.0
506.0,505.0,494.0,518.0
511.0,530.0,504.0,516.0
512.0,522.0,519.0,517.0
528.0,486.0,529.0,514.0
529.0,480.0,536.0,509.0
523.0,479.0,533.0,507.0
509.0,498.0,534.0,507.0
497.0,519.0,529.0,505.0
496.0,521.0,523.0,506.0
495.0,528.0,520.0,508.0
496.0,522.0,514.0,511.0
512.0,490.0,514.0,515.0
516.0,483.0,508.0,518.0
517.0,489.0,499.0,521.0
512.0,510.0,493.0,522.0
500.0,539.0,488.0,522.0
504.0,534.0,495.0,518.0
507.0,531.0,503.0,520.0
508.0,528.0,494.0,512.0
523.0,502.0,512.0,511.0
524.0,506.0,529.0,512.0
522.0,501.0,541.0,512.0
516.0,498.0,541.0,514.0
506.0,478.0,537.0,511.0
498.0,488.0,529.0,507.0
503.0,512.0,524.0,505.0
508.0,513.0,513.0,502.0
511.0,503.0,501.0,498.0
526.0,475.0,505.0,505.0
521.0,473.0,503.0,517.0
520.0,478.0,494.0,519.0
508.0,517.0,486.0,518.0
498.0,528.0,488.0,519.0
498.0,524.0,491.0,519.0
505.0,538.0,501.0,517.0
507.0,539.0,509.0,521.0
533.0,484.0,522.0,512.0
535.0,449.0,533.0,509.0
527.0,467.0,535.0,505.0
515.0,498.0,532.0,503.0
497.0,536.0,526.0,507.0
498.0,509.0,527.0,506.0
497.0,519.0,522.0,507.0
498.0,525.0,513.0,511.0
511.0,507.0,507.0,517.0
522.0,491.0,503.0,522.0
523.0,485.0,500.0,517.0
519.0,487.0,491.0,518.0
502.0,518.0,486.0,520.0
500.0,512.0,497.0,522.0
504.0,529.0,503.0,520.0
508.0,525.0,509.0,520.0
516.0,509.0,517.0,513.0
529.0,477.0,522.0,506.0
528.0,478.0,528.0,500.0
523.0,488.0,529.0,498.0
509.0,514.0,529.0,500.0
493.0,534.0,521.0,504.0
490.0,540.0,521.0,503.0
496.0,531.0,518.0,505.0
499.0,508.0,511.0,504.0
518.0,476.0,510.0,511.0
518.0,480.0,506.0,513.0
519.0,482.0,503.0,522.0
508.0,495.0,494.0,524.0
496.0,522.0,490.0,525.0
499.0,516.0,498.0,523.0
506.0,502.0,500.0,517.0
511.0,515.0,500.0,513.0
524.0,488.0,513.0,508.0
532.0,474.0,526.0,506.0
526.0,476.0,533.0,507.0
521.0,483.0,533.0,506.0
498.0,523.0,530.0,511.0
498.0,510.0,525.0,506.0
500.0,510.0,519.0,504.0
498.0,520.0,516.0,501.0
506.0,509.0,509.0,506.0
520.0,486.0,508.0,511.0
521.0,483.0,504.0,516.0
521.0,489.0,502.0,520.0
501.0,524.0,498.0,520.0
491.0,532.0,486.0,515.0
496.0,512.0,487.0,515.0
506.0,519.0,497.0,515.0
510.0,521.0,502.0,511.0
533.0,466.0,520.0,511.0
531.0,472.0,531.0,509.0
525.0,475.0,535.0,509.0
513.0,505.0,535.0,509.0
501.0,525.0,532.0,509.0
499.0,518.0,526.0,505.0
501.0,515.0,520.0,508.0
499.0,523.0,512.0,508.0
510.0,502.0,506.0,510.0
519.0,484.0,501.0,517.0
520.0,486.0,496.0,519.0
520.0,492.0,494.0,521.0
504.0,514.0,494.0,525.0
502.0,516.0,495.0,524.0
504.0,514.0,500.0,520.0
502.0,515.0,506.0,516.0
510.0,513.0,513.0,508.0
531.0,487.0,523.0,504.0
524.0,479.0,533.0,500.0
519.0,482.0,534.0,505.0
507.0,512.0,528.0,507.0
503.0,544.0,524.0,506.0
504.0,537.0,521.0,504.0
505.0,524.0,513.0,505.0
506.0,505.0,508.0,510.0
522.0,483.0,512.0,515.0
524.0,483.0,508.0,519.0
524.0,484.0,499.0,527.0
515.0,501.0,488.0,519.0
498.0,535.0,488.0,519.0
504.0,515.0,490.0,514.0
505.0,518.0,495.0,513.0
510.0,475.0,502.0,511.0
525.0,469.0,516.0,509.0
532.0,471.0,529.0,506.0
527.0,493.0,535.0,516.0
519.0,497.0,536.0,510.0
501.0,531.0,530.0,510.0
496.0,538.0,526.0,510.0
497.0,530.0,524.0,508.0
504.0,517.0,518.0,506.0
510.0,508.0,513.0,508.0
520.0,487.0,506.0,512.0
524.0,489.0,500.0,515.0
519.0,489.0,499.0,515.0
504.0,513.0,489.0,521.0
495.0,532.0,485.0,519.0
506.0,520.0,492.0,518.0
510.0,517.0,495.0,519.0
513.0,505.0,508.0,516.0
528.0,473.0,530.0,514.0
529.0,468.0,534.0,508.0
525.0,473.0,542.0,509.0
513.0,493.0,534.0,509.0
494.0,512.0,526.0,502.0
490.0,516.0,523.0,508.0
503.0,499.0,522.0,507.0
504.0,515.0,514.0,509.0
517.0,514.0,506.0,513.0
523.0,501.0,506.0,518.0
519.0,495.0,506.0,521.0
518.0,499.0,492.0,523.0
504.0,543.0,494.0,520.0
505.0,554.0,500.0,524.0
503.0,549.0,506.0,525.0
509.0,535.0,499.0,516.0
516.0,519.0,513.0,516.0
534.0,436.0,525.0,511.0
533.0,436.0,526.0,504.0
523.0,460.0,532.0,506.0
506.0,498.0,532.0,509.0
491.0,518.0,524.0,503.0
490.0,525.0,520.0,499.0
492.0,514.0,516.0,505.0
500.0,525.0,510.0,506.0
517.0,495.0,508.0,516.0
520.0,493.0,505.0,519.0
525.0,493.0,496.0,524.0
515.0,516.0,486.0,524.0
495.0,542.0,486.0,522.0
497.0,524.0,490.0,524.0
503.0,514.0,502.0,522.0
521.0,490.0,508.0,523.0
530.0,485.0,531.0,520.0
534.0,468.0,540.0,518.0
529.0,471.0,540.0,512.0
526.0,482.0,535.0,508.0
502.0,507.0,532.0,506.0
495.0,513.0,524.0,500.0
499.0,522.0,517.0,499.0
496.0,518.0,511.0,502.0
505.0,513.0,496.0,496.0
523.0,474.0,498.0,502.0
525.0,457.0,497.0,509.0
524.0,472.0,491.0,513.0
506.0,511.0,486.0,520.0
497.0,546.0,490.0,519.0
502.0,523.0,493.0,523.0
506.0,520.0,497.0,520.0
509.0,533.0,510.0,519.0
527.0,500.0,520.0,513.0
527.0,486.0,530.0,509.0
527.0,469.0,533.0,502.0
521.0,484.0,535.0,501.0
502.0,526.0,534.0,506.0
500.0,524.0,526.0,504.0
495.0,526.0,516.0,501.0
496.0,526.0,505.0,502.0
512.0,500.0,506.0,508.0
523.0,484.0,501.0,509.0
525.0,490.0,497.0,509.0
520.0,505.0,499.0,515.0
500.0,532.0,487.0,521.0
499.0,525.0,487.0,519.0
501.0,508.0,491.0,517.0
510.0,502.0,500.0,517.0
514.0,492.0,514.0,518.0
522.0,483.0,530.0,516.0
524.0,497.0,537.0,509.0
515.0,507.0,536.0,505.0
505.0,458.0,524.0,506.0
490.0,501.0,521.0,509.0
506.0,506.0,518.0,507.0
510.0,516.0,519.0,508.0
513.0,520.0,515.0,512.0
525.0,500.0,517.0,516.0
525.0,493.0,510.0,515.0
522.0,494.0,497.0,519.0
511.0,517.0,490.0,519.0
497.0,543.0,489.0,521.0
499.0,536.0,496.0,520.0
514.0,514.0,499.0,516.0
515.0,506.0,502.0,512.0
523.0,477.0,515.0,508.0
529.0,461.0,529.0,507.0
527.0,465.0,532.0,502.0
522.0,472.0,532.0,505.0
504.0,528.0,528.0,503.0
495.0,545.0,527.0,504.0
490.0,538.0,526.0,507.0
496.0,520.0,513.0,508.0
503.0,507.0,509.0,510.0
520.0,486.0,504.0,513.0
521.0,484.0,499.0,519.0
521.0,479.0,494.0,520.0
504.0,509.0,490.0,526.0
495.0,525.0,490.0,526.0
501.0,533.0,497.0,524.0
506.0,520.0,506.0,522.0
511.0,508.0,512.0,510.0
534.0,481.0,522.0,506.0
530.0,478.0,529.0,507.0
526.0,483.0,538.0,504.0
514.0,502.0,530.0,506.0
498.0,527.0,525.0,502.0
498.0,524.0,524.0,501.0
496.0,522.0,516.0,499.0
500.0,527.0,509.0,503.0
510.0,508.0,508.0,505.0
517.0,491.0,512.0,511.0
524.0,482.0,497.0,512.0
521.0,490.0,493.0,515.0
507.0,511.0,490.0,518.0
506.0,503.0,490.0,517.0
501.0,509.0,497.0,516.0
510.0,499.0,500.0,513.0
516.0,495.0,512.0,513.0
532.0,482.0,535.0,517.0
530.0,485.0,536.0,509.0
527.0,481.0,533.0,503.0
506.0,518.0,530.0,506.0
497.0,536.0,527.0,502.0
497.0,549.0,521.0,505.0
491.0,557.0,517.0,508.0
500.0,541.0,512.0,514.0
517.0,496.0,510.0,516.0
522.0,465.0,501.0,518.0
524.0,487.0,496.0,516.0
514.0,511.0,490.0,519.0
499.0,560.0,486.0,521.0
498.0,541.0,491.0,519.0
504.0,485.0,491.0,518.0
515.0,480.0,504.0,518.0
526.0,468.0,526.0,517.0
531.0,455.0,535.0,511.0
528.0,477.0,537.0,512.0
519.0,500.0,539.0,508.0
498.0,523.0,531.0,506.0
498.0,522.0,527.0,507.0
498.0,519.0,520.0,509.0
511.0,513.0,517.0,507.0
509.0,504.0,511.0,506.0
522.0,482.0,507.0,512.0
520.0,490.0,503.0,514.0
516.0,495.0,496.0,519.0
502.0,523.0,493.0,522.0
501.0,552.0,485.0,519.0
513.0,507.0,492.0,517.0
517.0,503.0,496.0,522.0
518.0,502.0,510.0,513.0
529.0,483.0,526.0,511.0
534.0,478.0,532.0,509.0
524.0,474.0,534.0,505.0
510.0,495.0,536.0,503.0
494.0,526.0,523.0,501.0
496.0,508.0,521.0,500.0
498.0,519.0,520.0,507.0
502.0,517.0,517.0,510.0
513.0,490.0,511.0,512.0
523.0,482.0,506.0,516.0
522.0,475.0,501.0,517.0
515.0,511.0,488.0,518.0
496.0,548.0,487.0,523.0
492.0,535.0,487.0,522.0
506.0,529.0,494.0,522.0
507.0,521.0,501.0,519.0
515.0,493.0,517.0,514.0
531.0,467.0,523.0,507.0
524.0,466.0,530.0,514.0
520.0,474.0,536.0,515.0
503.0,510.0,533.0,508.0
495.0,523.0,533.0,507.0
495.0,538.0,526.0,507.0
501.0,538.0,517.0,505.0
505.0,541.0,513.0,514.0
521.0,510.0,505.0,510.0
523.0,500.0,504.0,512.0
520.0,494.0,501.0,518.0
516.0,500.0,490.0,519.0
502.0,504.0,482.0,516.0
503.0,512.0,488.0,512.0
507.0,521.0,491.0,507.0
511.0,515.0,497.0,509.0
521.0,504.0,514.0,507.0
533.0,486.0,526.0,504.0
529.0,487.0,531.0,499.0
520.0,498.0,532.0,507.0
502.0,492.0,527.0,505.0
499.0,488.0,526.0,509.0
497.0,516.0,522.0,509.0
496.0,520.0,517.0,510.0
504.0,511.0,509.0,510.0
521.0,487.0,510.0,513.0
520.0,503.0,503.0,515.0
521.0,497.0,498.0,519.0
510.0,524.0,490.0,522.0
500.0,533.0,486.0,515.0
497.0,529.0,490.0,517.0
505.0,511.0,498.0,515.0
509.0,511.0,507.0,513.0
527.0,482.0,522.0,514.0
528.0,476.0,531.0,514.0
529.0,478.0,534.0,507.0
510.0,497.0,531.0,507.0
499.0,521.0,524.0,505.0
500.0,520.0,521.0,500.0
499.0,521.0,521.0,503.0
500.0,517.0,511.0,505.0
510.0,493.0,515.0,510.0
525.0,470.0,506.0,514.0
527.0,467.0,498.0,516.0
524.0,481.0,493.0,518.0
505.0,524.0,488.0,520.0
504.0,536.0,489.0,518.0
505.0,532.0,489.0,518.0
508.0,516.0,499.0,516.0
520.0,500.0,509.0,513.0
528.0,477.0,526.0,509.0
519.0,482.0,533.0,507.0
518.0,479.0,536.0,508.0
499.0,505.0,527.0,506.0
486.0,522.0,525.0,506.0
498.0,517.0,523.0,507.0
502.0,536.0,526.0,511.0
499.0,529.0,514.0,509.0
515.0,510.0,507.0,510.0
520.0,478.0,497.0,512.0
521.0,479.0,495.0,516.0
509.0,509.0,490.0,520.0
492.0,533.0,485.0,517.0
496.0,522.0,489.0,520.0
503.0,504.0,497.0,515.0
500.0,503.0,501.0,518.0
517.0,478.0,518.0,515.0
533.0,464.0,531.0,513.0
536.0,492.0,537.0,510.0
530.0,504.0,537.0,505.0
507.0,527.0,532.0,504.0
500.0,527.0,532.0,504.0
500.0,531.0,524.0,506.0
497.0,526.0,518.0,508.0
508.0,527.0,508.0,509.0
523.0,506.0,508.0,511.0
520.0,491.0,504.0,516.0
521.0,485.0,498.0,520.0
504.0,513.0,492.0,521.0
492.0,520.0,490.0,521.0
503.0,510.0,500.0,520.0
505.0,512.0,497.0,518.0
508.0,502.0,507.0,516.0
527.0,484.0,521.0,512.0
530.0,458.0,531.0,510.0
527.0,469.0,537.0,507.0
513.0,515.0,538.0,510.0
498.0,531.0,526.0,505.0
495.0,536.0,527.0,507.0
497.0,514.0,525.0,509.0
499.0,515.0,516.0,508.0
509.0,496.0,506.0,511.0
523.0,476.0,508.0,514.0
523.0,489.0,502.0,514.0
517.0,497.0,496.0,519.0
501.0,527.0,492.0,521.0
499.0,529.0,493.0,520.0
508.0,514.0,495.0,520.0
518.0,499.0,502.0,522.0
518.0,489.0,515.0,514.0
526.0,461.0,528.0,513.0
528.0,460.0,531.0,511.0
527.0,460.0,535.0,504.0
510.0,496.0,533.0,505.0
497.0,529.0,526.0,507.0
498.0,538.0,523.0,505.0
503.0,528.0,517.0,508.0
510.0,516.0,513.0,509.0
525.0,484.0,506.0,508.0
524.0,480.0,501.0,515.0
526.0,477.0,498.0,520.0
518.0,494.0,492.0,521.0
493.0,527.0,486.0,523.0
494.0,540.0,490.0,522.0
500.0,559.0,497.0,518.0
504.0,528.0,503.0,515.0
519.0,498.0,516.0,512.0
527.0,483.0,526.0,510.0
528.0,480.0,536.0,508.0
520.0,494.0,535.0,506.0
499.0,525.0,530.0,507.0
495.0,532.0,527.0,509.0
498.0,538.0,523.0,512.0
506.0,529.0,520.0,512.0
511.0,513.0,511.0,510.0
527.0,483.0,508.0,513.0
526.0,487.0,501.0,515.0
518.0,491.0,494.0,517.0
503.0,518.0,494.0,519.0
501.0,529.0,488.0,515.0
508.0,522.0,487.0,517.0
521.0,505.0,493.0,515.0
527.0,499.0,504.0,515.0
528.0,472.0,520.0,509.0
528.0,469.0,531.0,510.0
523.0,474.0,536.0,509.0
504.0,500.0,532.0,507.0
481.0,537.0,523.0,506.0
489.0,524.0,526.0,505.0
493.0,533.0,520.0,505.0
491.0,538.0,510.0,506.0
505.0,512.0,510.0,512.0
518.0,493.0,506.0,514.0
523.0,456.0,498.0,515.0
517.0,470.0,494.0,517.0
499.0,513.0,486.0,520.0
501.0,520.0,489.0,519.0
508.0,516.0,492.0,515.0
508.0,512.0,502.0,519.0
525.0,493.0,515.0,514.0
543.0,468.0,527.0,509.0
542.0,470.0,533.0,510.0
540.0,471.0,537.0,507.0
521.0,508.0,533.0,508.0
505.0,524.0,530.0,508.0
507.0,518.0,531.0,506.0
506.0,517.0,518.0,503.0
497.0,517.0,505.0,508.0
508.0,490.0,508.0,514.0
517.0,484.0,505.0,515.0
525.0,486.0,500.0,518.0
520.0,502.0,492.0,520.0
503.0,524.0,488.0,522.0
501.0,521.0,490.0,520.0
504.0,512.0,498.0,518.0
507.0,504.0,505.0,516.0
515.0,484.0,518.0,517.0
529.0,465.0,532.0,511.0
529.0,463.0,535.0,508.0
526.0,475.0,538.0,507.0
501.0,506.0,531.0,508.0
492.0,510.0,528.0,508.0
489.0,523.0,523.0,508.0
490.0,528.0,520.0,507.0
490.0,539.0,518.0,512.0
508.0,501.0,510.0,513.0
515.0,489.0,501.0,516.0
518.0,489.0,496.0,520.0
503.0,520.0,495.0,522.0
495.0,535.0,492.0,520.0
500.0,520.0,496.0,518.0
511.0,512.0,502.0,519.0
512.0,500.0,510.0,513.0
527.0,474.0,521.0,515.0
533.0,476.0,532.0,509.0
530.0,486.0,536.0,510.0
521.0,504.0,535.0,505.0
494.0,533.0,530.0,504.0
500.0,523.0,527.0,506.0
502.0,529.0,520.0,506.0
505.0,512.0,514.0,508.0
524.0,494.0,511.0,512.0
535.0,484.0,506.0,514.0
533.0,492.0,498.0,517.0
531.0,497.0,493.0,518.0
520.0,523.0,488.0,522.0
513.0,524.0,491.0,521.0
504.0,522.0,496.0,519.0
501.0,504.0,501.0,517.0
511.0,494.0,511.0,513.0
523.0,464.0,534.0,512.0
515.0,476.0,533.0,509.0
515.0,480.0,536.0,507.0
511.0,509.0,533.0,505.0
505.0,516.0,529.0,506.0
495.0,517.0,529.0,507.0
495.0,517.0,518.0,504.0
498.0,527.0,513.0,507.0
520.0,492.0,511.0,512.0
529.0,486.0,507.0,514.0
515.0,496.0,499.0,514.0
493.0,516.0,487.0,516.0
489.0,540.0,482.0,520.0
498.0,529.0,490.0,522.0
498.0,523.0,495.0,516.0
513.0,513.0,504.0,516.0
527.0,491.0,518.0,512.0
534.0,475.0,527.0,511.0
528.0,475.0,536.0,509.0
521.0,488.0,535.0,508.0
501.0,524.0,531.0,507.0
496.0,522.0,525.0,507.0
491.0,515.0,524.0,506.0
487.0,523.0,515.0,509.0
501.0,515.0,507.0,510.0
523.0,483.0,507.0,514.0
522.0,488.0,503.0,516.0
524.0,493.0,495.0,520.0
508.0,517.0,487.0,521.0
501.0,529.0,488.0,521.0
506.0,518.0,492.0,517.0
503.0,513.0,497.0,518.0
505.0,509.0,508.0,515.0
518.0,476.0,523.0,513.0
526.0,473.0,532.0,507.0
521.0,482.0,538.0,507.0
510.0,500.0,536.0,504.0
489.0,535.0,530.0,507.0
497.0,525.0,528.0,509.0
499.0,521.0,518.0,510.0
499.0,518.0,515.0,510.0
511.0,499.0,514.0,512.0
521.0,481.0,507.0,513.0
520.0,484.0,496.0,516.0
515.0,495.0,491.0,520.0
500.0,534.0,490.0,521.0
498.0,533.0,490.0,522.0
502.0,520.0,490.0,513.0
511.0,511.0,500.0,515.0
522.0,498.0,513.0,517.0
534.0,476.0,527.0,513.0
534.0,474.0,533.0,510.0
533.0,473.0,534.0,507.0
518.0,504.0,533.0,507.0
512.0,513.0,529.0,506.0
511.0,511.0,530.0,508.0
500.0,524.0,521.0,505.0
513.0,516.0,512.0,510.0
530.0,486.0,507.0,512.0
531.0,486.0,503.0,516.0
532.0,494.0,499.0,517.0
529.0,499.0,493.0,518.0
516.0,514.0,491.0,521.0
503.0,514.0,490.0,519.0
491.0,520.0,496.0,519.0
494.0,512.0,504.0,516.0
521.0,494.0,516.0,514.0
544.0,469.0,530.0,511.0
551.0,468.0,536.0,506.0
546.0,482.0,536.0,506.0
527.0,502.0,531.0,507.0
516.0,503.0,521.0,507.0
514.0,503.0,523.0,506.0
500.0,501.0,514.0,511.0
479.0,501.0,513.0,511.0
487.0,495.0,508.0,512.0
491.0,502.0,504.0,516.0
497.0,501.0,496.0,516.0
494.0,524.0,487.0,518.0
494.0,531.0,489.0,520.0
503.0,518.0,493.0,519.0
505.0,509.0,498.0,517.0
506.0,506.0,511.0,517.0
521.0,478.0,523.0,512.0
525.0,478.0,529.0,508.0
514.0,482.0,533.0,506.0
503.0,495.0,530.0,508.0
488.0,517.0,529.0,508.0
488.0,528.0,526.0,507.0
493.0,528.0,521.0,509.0
497.0,533.0,517.0,510.0
515.0,505.0,506.0,509.0
520.0,484.0,506.0,516.0
517.0,484.0,497.0,517.0
515.0,494.0,491.0,519.0
500.0,523.0,490.0,521.0
486.0,526.0,491.0,517.0
495.0,521.0,498.0,519.0
512.0,501.0,502.0,514.0
517.0,491.0,511.0,513.0
533.0,469.0,525.0,514.0
528.0,477.0,534.0,506.0
524.0,480.0,539.0,508.0
511.0,498.0,532.0,506.0
500.0,523.0,525.0,505.0
488.0,524.0,520.0,506.0
488.0,520.0,518.0,507.0
498.0,513.0,512.0,509.0
514.0,491.0,508.0,511.0
519.0,488.0,504.0,515.0
517.0,489.0,498.0,518.0
512.0,506.0,487.0,520.0
493.0,532.0,487.0,522.0
499.0,524.0,492.0,516.0
503.0,521.0,494.0,518.0
507.0,508.0,504.0,516.0
520.0,488.0,517.0,513.0
527.0,469.0,530.0,509.0
528.0,468.0,535.0,509.0
522.0,482.0,534.0,508.0
502.0,519.0,530.0,509.0
497.0,534.0,527.0,508.0
500.0,528.0,525.0,508.0
500.0,525.0,518.0,510.0
513.0,505.0,510.0,507.0
529.0,477.0,505.0,512.0
529.0,484.0,506.0,516.0
523.0,487.0,494.0,515.0
508.0,514.0,487.0,520.0
497.0,530.0,488.0,523.0
506.0,526.0,493.0,521.0
517.0,507.0,500.0,518.0
510.0,506.0,505.0,515.0
526.0,478.0,521.0,515.0
530.0,465.0,533.0,517.0
524.0,477.0,535.0,509.0
512.0,501.0,527.0,505.0
491.0,521.0,532.0,507.0
496.0,515.0,526.0,504.0
488.0,538.0,517.0,502.0
492.0,528.0,515.0,512.0
509.0,502.0,508.0,510.0
522.0,481.0,506.0,513.0
522.0,481.0,503.0,513.0
518.0,492.0,496.0,519.0
502.0,522.0,487.0,522.0
502.0,522.0,495.0,528.0
507.0,522.0,493.0,519.0
512.0,511.0,487.0,514.0
520.0,501.0,514.0,523.0
538.0,470.0,525.0,513.0
538.0,470.0,527.0,504.0
535.0,471.0,538.0,510.0
509.0,504.0,536.0,518.0
489.0,522.0,530.0,513.0
484.0,523.0,525.0,505.0
492.0,524.0,521.0,514.0
494.0,527.0,513.0,512.0
517.0,494.0,507.0,509.0
521.0,481.0,513.0,521.0
524.0,483.0,500.0,519.0
515.0,505.0,488.0,513.0
501.0,527.0,489.0,517.0
505.0,516.0,493.0,524.0
505.0,517.0,499.0,523.0
507.0,513.0,504.0,526.0
518.0,487.0,520.0,530.0
529.0,462.0,531.0,516.0
528.0,468.0,531.0,500.0
520.0,483.0,536.0,503.0
501.0,521.0,533.0,513.0
498.0,525.0,528.0,508.0
496.0,528.0,520.0,497.0
497.0,529.0,514.0,506.0
507.0,514.0,510.0,522.0
522.0,480.0,504.0,511.0
524.0,483.0,500.0,514.0
522.0,486.0,493.0,525.0
509.0,521.0,486.0,522.0
504.0,534.0,491.0,522.0
509.0,523.0,495.0,522.0
513.0,515.0,504.0,520.0
517.0,498.0,507.0,513.0
532.0,472.0,524.0,510.0
533.0,469.0,531.0,510.0
519.0,478.0,536.0,509.0
511.0,493.0,534.0,507.0
499.0,520.0,525.0,509.0
497.0,522.0,522.0,508.0
492.0,525.0,519.0,514.0
507.0,513.0,514.0,509.0
521.0,497.0,507.0,511.0
535.0,480.0,505.0,515.0
532.0,477.0,497.0,527.0
524.0,496.0,494.0,524.0
512.0,523.0,491.0,516.0
509.0,520.0,490.0,526.0
489.0,526.0,493.0,515.0
499.0,509.0,500.0,505.0
507.0,501.0,511.0,512.0
529.0,475.0,525.0,514.0
534.0,473.0,534.0,511.0
529.0,477.0,535.0,509.0
517.0,499.0,529.0,512.0
516.0,511.0,529.0,509.0
518.0,510.0,528.0,516.0
518.0,514.0,521.0,506.0
514.0,516.0,512.0,499.0
523.0,487.0,512.0,519.0
516.0,487.0,501.0,510.0
515.0,488.0,493.0,516.0
506.0,499.0,487.0,528.0
482.0,539.0,491.0,536.0
498.0,523.0,494.0,510.0
502.0,514.0,495.0,519.0
498.0,513.0,509.0,525.0
509.0,494.0,521.0,533.0
512.0,481.0,525.0,492.0
514.0,483.0,531.0,494.0
513.0,491.0,534.0,503.0
487.0,517.0,530.0,510.0
472.0,528.0,532.0,514.0
481.0,523.0,528.0,514.0
491.0,521.0,509.0,504.0
495.0,512.0,508.0,508.0
513.0,484.0,520.0,521.0
519.0,482.0,511.0,525.0
519.0,490.0,496.0,535.0
506.0,515.0,485.0,536.0
500.0,532.0,481.0,511.0
502.0,518.0,495.0,511.0
502.0,510.0,507.0,510.0
519.0,506.0,521.0,525.0
556.0,478.0,529.0,526.0
568.0,472.0,530.0,506.0
564.0,473.0,524.0,515.0
532.0,504.0,528.0,553.0
516.0,535.0,520.0,499.0
512.0,533.0,528.0,500.0
496.0,521.0,543.0,519.0
482.0,506.0,527.0,523.0
495.0,493.0,509.0,524.0
506.0,475.0,503.0,515.0
508.0,481.0,504.0,519.0
504.0,491.0,503.0,525.0
487.0,520.0,488.0,520.0
484.0,531.0,490.0,526.0
491.0,514.0,502.0,524.0
504.0,502.0,507.0,515.0
512.0,500.0,515.0,517.0
528.0,470.0,534.0,532.0
524.0,479.0,536.0,530.0
520.0,485.0,529.0,493.0
503.0,514.0,526.0,482.0
497.0,528.0,528.0,515.0
496.0,533.0,538.0,519.0
502.0,518.0,531.0,522.0
506.0,508.0,513.0,507.0
526.0,489.0,510.0,511.0
529.0,484.0,511.0,501.0
527.0,488.0,500.0,524.0
499.0,515.0,509.0,517.0
488.0,542.0,499.0,513.0
499.0,522.0,475.0,554.0
490.0,519.0,499.0,586.0
501.0,505.0,498.0,513.0
520.0,485.0,527.0,484.0
535.0,470.0,542.0,506.0
529.0,479.0,543.0,516.0
524.0,488.0,542.0,519.0
504.0,514.0,537.0,506.0
499.0,523.0,533.0,506.0
505.0,519.0,531.0,511.0
494.0,521.0,516.0,534.0
485.0,515.0,503.0,543.0
508.0,489.0,515.0,508.0
515.0,491.0,503.0,485.0
516.0,498.0,486.0,486.0
511.0,528.0,493.0,522.0
502.0,544.0,495.0,527.0
517.0,526.0,501.0,524.0
524.0,517.0,503.0,516.0
536.0,495.0,504.0,505.0
548.0,446.0,521.0,515.0
538.0,461.0,528.0,492.0
530.0,471.0,530.0,496.0
512.0,491.0,529.0,500.0
490.0,516.0,532.0,509.0
488.0,519.0,530.0,499.0
486.0,519.0,525.0,514.0
494.0,525.0,512.0,518.0
517.0,504.0,503.0,507.0
531.0,485.0,500.0,494.0
536.0,485.0,498.0,512.0
535.0,504.0,495.0,517.0
509.0,535.0,486.0,512.0
511.0,524.0,491.0,521.0
502.0,513.0,494.0,517.0
503.0,494.0,509.0,511.0
520.0,481.0,532.0,507.0
514.0,456.0,545.0,507.0
524.0,474.0,528.0,511.0
537.0,498.0,515.0,507.0
520.0,514.0,527.0,495.0
513.0,520.0,527.0,494.0
495.0,526.0,526.0,503.0
495.0,523.0,511.0,495.0
492.0,479.0,504.0,504.0
510.0,449.0,517.0,521.0
516.0,472.0,513.0,513.0
514.0,502.0,484.0,503.0
509.0,524.0,479.0,505.0
503.0,550.0,489.0,515.0
498.0,560.0,487.0,513.0
504.0,555.0,489.0,523.0
511.0,526.0,501.0,524.0
528.0,491.0,516.0,518.0
544.0,482.0,529.0,514.0
519.0,483.0,539.0,512.0
507.0,441.0,529.0,509.0
493.0,487.0,515.0,508.0
499.0,501.0,519.0,508.0
514.0,490.0,524.0,510.0
510.0,502.0,520.0,508.0
504.0,498.0,505.0,502.0
518.0,497.0,502.0,498.0
515.0,505.0,498.0,511.0
522.0,486.0,494.0,519.0
519.0,500.0,489.0,530.0
510.0,524.0,492.0,526.0
525.0,530.0,491.0,523.0
527.0,530.0,494.0,519.0
537.0,522.0,507.0,512.0
550.0,493.0,524.0,508.0
527.0,496.0,530.0,505.0
537.0,491.0,525.0,498.0
517.0,509.0,526.0,508.0
512.0,527.0,516.0,502.0
529.0,514.0,525.0,516.0
517.0,517.0,516.0,501.0
512.0,512.0,518.0,511.0
515.0,496.0,513.0,528.0
546.0,475.0,494.0,496.0
564.0,485.0,502.0,530.0
554.0,490.0,509.0,541.0
527.0,531.0,475.0,525.0
530.0,523.0,473.0,491.0
539.0,510.0,531.0,529.0
490.0,512.0,570.0,553.0
475.0,507.0,592.0,543.0
503.0,481.0,489.0,430.0
519.0,481.0,434.0,462.0
541.0,480.0,551.0,542.0
528.0,504.0,570.0,548.0
509.0,524.0,527.0,505.0
490.0,523.0,553.0,504.0
479.0,526.0,557.0,540.0
497.0,511.0,491.0,516.0
512.0,488.0,495.0,523.0
471.0,499.0,517.0,523.0
447.0,517.0,496.0,538.0
468.0,521.0,471.0,510.0
467.0,546.0,487.0,539.0
469.0,506.0,478.0,523.0
496.0,506.0,482.0,507.0
524.0,504.0,512.0,545.0
543.0,471.0,531.0,526.0
553.0,458.0,522.0,485.0
536.0,473.0,503.0,502.0
537.0,478.0,528.0,499.0
488.0,532.0,530.0,503.0
451.0,550.0,527.0,548.0
460.0,538.0,507.0,554.0
484.0,536.0,507.0,507.0
489.0,532.0,479.0,510.0
499.0,495.0,517.0,498.0
497.0,460.0,532.0,507.0
485.0,470.0,513.0,511.0
488.0,494.0,491.0,478.0
485.0,516.0,506.0,496.0
510.0,513.0,522.0,521.0
520.0,508.0,523.0,569.0
527.0,497.0,502.0,535.0
549.0,468.0,481.0,557.0
556.0,463.0,542.0,508.0
546.0,467.0,560.0,480.0
504.0,491.0,535.0,506.0
474.0,504.0,534.0,497.0
471.0,497.0,536.0,503.0
495.0,495.0,491.0,515.0
505.0,488.0,499.0,504.0
521.0,498.0,536.0,489.0
536.0,484.0,494.0,516.0
539.0,495.0,484.0,469.0
537.0,514.0,482.0,507.0
514.0,533.0,480.0,544.0
515.0,533.0,495.0,541.0
531.0,534.0,549.0,561.0
541.0,517.0,524.0,525.0
563.0,494.0,481.0,514.0
577.0,474.0,525.0,510.0
538.0,496.0,546.0,502.0
520.0,495.0,514.0,503.0
473.0,532.0,523.0,501.0
484.0,541.0,520.0,497.0
490.0,522.0,508.0,486.0
465.0,498.0,532.0,489.0
449.0,525.0,505.0,496.0
483.0,509.0,518.0,515.0
497.0,491.0,508.0,521.0
521.0,481.0,501.0,563.0
552.0,490.0,485.0,522.0
533.0,515.0,509.0,529.0
534.0,520.0,480.0,528.0
538.0,523.0,495.0,501.0
562.0,508.0,547.0,546.0
548.0,490.0,534.0,527.0
527.0,473.0,603.0,512.0
534.0,476.0,530.0,475.0
559.0,490.0,450.0,468.0
562.0,528.0,500.0,474.0
564.0,486.0,520.0,446.0
564.0,472.0,526.0,536.0
458.0,512.0,545.0,524.0
414.0,519.0,520.0,454.0
483.0,473.0,540.0,532.0
486.0,476.0,501.0,506.0
490.0,488.0,517.0,511.0
502.0,508.0,564.0,534.0
524.0,532.0,494.0,598.0
554.0,518.0,486.0,543.0
596.0,505.0,574.0,542.0
670.0,488.0,475.0,539.0
735.0,458.0,452.0,501.0
675.0,476.0,604.0,543.0
621.0,487.0,598.0,522.0
578.0,486.0,541.0,542.0
507.0,501.0,491.0,515.0
430.0,507.0,525.0,506.0
340.0,540.0,596.0,529.0
361.0,531.0,542.0,514.0
422.0,510.0,451.0,525.0
453.0,478.0,494.0,513.0
469.0,487.0,512.0,520.0
478.0,485.0,429.0,476.0
470.0,514.0,471.0,523.0
485.0,513.0,569.0,537.0
492.0,500.0,628.0,539.0
512.0,483.0,541.0,529.0
502.0,495.0,510.0,541.0
492.0,498.0,633.0,476.0
507.0,488.0,620.0,466.0
525.0,492.0,458.0,498.0
515.0,528.0,489.0,509.0
525.0,519.0,537.0,504.0
559.0,528.0,505.0,524.0
598.0,534.0,497.0,518.0
626.0,520.0,497.0,462.0
661.0,480.0,484.0,494.0
634.0,474.0,455.0,504.0
555.0,440.0,478.0,488.0
529.0,450.0,623.0,544.0
491.0,496.0,627.0,547.0
390.0,535.0,406.0,529.0
368.0,551.0,372.0,529.0
423.0,524.0,520.0,507.0
453.0,507.0,596.0,549.0
493.0,481.0,566.0,459.0
505.0,476.0,498.0,466.0
503.0,491.0,477.0,544.0
477.0,527.0,519.0,490.0
476.0,496.0,543.0,489.0
477.0,498.0,500.0,493.0
475.0,514.0,517.0,502.0
477.0,499.0,572.0,540.0
495.0,490.0,567.0,517.0
479.0,495.0,479.0,494.0
511.0,497.0,498.0,493.0
536.0,508.0,511.0,537.0
535.0,522.0,504.0,554.0
539.0,533.0,511.0,524.0
523.0,540.0,547.0,525.0
518.0,519.0,542.0,569.0
529.0,490.0,512.0,445.0
511.0,481.0,496.0,389.0
530.0,470.0,529.0,508.0
537.0,478.0,531.0,534.0
527.0,507.0,551.0,500.0
505.0,517.0,526.0,519.0
485.0,534.0,486.0,479.0
486.0,533.0,509.0,539.0
506.0,516.0,499.0,612.0
495.0,469.0,591.0,502.0
502.0,484.0,594.0,503.0
539.0,472.0,432.0,514.0
521.0,518.0,468.0,521.0
538.0,540.0,477.0,545.0
583.0,513.0,496.0,535.0
619.0,477.0,527.0,491.0
613.0,467.0,497.0,487.0
549.0,479.0,473.0,389.0
565.0,465.0,499.0,398.0
502.0,483.0,522.0,482.0
468.0,512.0,543.0,535.0
486.0,520.0,723.0,604.0
465.0,516.0,766.0,563.0
467.0,515.0,332.0,496.0
471.0,519.0,390.0,523.0
494.0,501.0,499.0,544.0
502.0,489.0,485.0,532.0
518.0,497.0,550.0,485.0
526.0,508.0,495.0,440.0
488.0,539.0,460.0,507.0
494.0,557.0,494.0,511.0
530.0,535.0,635.0,564.0
558.0,512.0,503.0,516.0
609.0,510.0,467.0,507.0
662.0,482.0,583.0,498.0
685.0,475.0,532.0,449.0
728.0,443.0,499.0,398.0
705.0,451.0,632.0,579.0
678.0,476.0,488.0,546.0
605.0,493.0,469.0,487.0
525.0,479.0,495.0,501.0
500.0,479.0,485.0,485.0
451.0,483.0,562.0,526.0
415.0,478.0,757.0,543.0
416.0,494.0,465.0,472.0
477.0,507.0,344.0,483.0
528.0,511.0,506.0,525.0
534.0,501.0,562.0,511.0
469.0,511.0,473.0,518.0
441.0,495.0,473.0,441.0
470.0,477.0,647.0,488.0
368.0,505.0,560.0,499.0
377.0,501.0,475.0,515.0
421.0,507.0,512.0,521.0
448.0,528.0,539.0,554.0
479.0,554.0,490.0,560.0
486.0,556.0,556.0,462.0
533.0,530.0,506.0,421.0
581.0,509.0,477.0,525.0
574.0,489.0,505.0,548.0
573.0,484.0,461.0,553.0
582.0,477.0,538.0,490.0
561.0,499.0,471.0,505.0
502.0,510.0,366.0,523.0
443.0,521.0,689.0,576.0
449.0,529.0,569.0,515.0
446.0,510.0,523.0,496.0
434.0,479.0,524.0,436.0
480.0,463.0,541.0,483.0
481.0,486.0,521.0,439.0
489.0,508.0,448.0,418.0
569.0,515.0,527.0,479.0
605.0,529.0,756.0,580.0
627.0,539.0,418.0,544.0
652.0,515.0,421.0,495.0
691.0,438.0,571.0,495.0
654.0,391.0,509.0,507.0
556.0,479.0,395.0,523.0
486.0,518.0,489.0,501.0
454.0,527.0,497.0,444.0
455.0,507.0,527.0,418.0
421.0,499.0,542.0,475.0
412.0,500.0,455.0,544.0
431.0,524.0,472.0,513.0
461.0,493.0,479.0,441.0
445.0,490.0,739.0,481.0
429.0,498.0,564.0,493.0
455.0,532.0,532.0,538.0
498.0,543.0,457.0,511.0
535.0,537.0,446.0,513.0
551.0,512.0,486.0,541.0
590.0,466.0,579.0,474.0
588.0,451.0,527.0,436.0
535.0,480.0,495.0,523.0
458.0,514.0,475.0,592.0
435.0,520.0,485.0,538.0
432.0,545.0,572.0,507.0
464.0,532.0,488.0,502.0
506.0,509.0,554.0,567.0
552.0,504.0,605.0,635.0
662.0,467.0,481.0,456.0
689.0,461.0,665.0,428.0
698.0,466.0,453.0,439.0
697.0,473.0,417.0,357.0
580.0,520.0,473.0,523.0
503.0,539.0,628.0,567.0
409.0,542.0,551.0,507.0
383.0,538.0,486.0,486.0
385.0,510.0,515.0,453.0
404.0,477.0,493.0,458.0
412.0,474.0,456.0,510.0
447.0,474.0,527.0,538.0
487.0,493.0,551.0,557.0
538.0,531.0,438.0,537.0
572.0,546.0,419.0,483.0
596.0,522.0,489.0,518.0
663.0,486.0,501.0,482.0
671.0,468.0,543.0,486.0
639.0,446.0,549.0,464.0
594.0,491.0,486.0,396.0
622.0,483.0,467.0,500.0
534.0,519.0,581.0,483.0
392.0,551.0,587.0,480.0
363.0,508.0,495.0,469.0
355.0,500.0,478.0,507.0
342.0,509.0,534.0,465.0
380.0,496.0,615.0,550.0
405.0,486.0,520.0,554.0
430.0,503.0,484.0,432.0
433.0,535.0,525.0,497.0
449.0,538.0,471.0,493.0
472.0,500.0,493.0,525.0
489.0,514.0,520.0,522.0
487.0,539.0,501.0,520.0
514.0,503.0,670.0,548.0
523.0,470.0,447.0,455.0
528.0,449.0,441.0,542.0
492.0,490.0,542.0,509.0
462.0,515.0,562.0,418.0
470.0,518.0,609.0,348.0
509.0,524.0,477.0,446.0
524.0,505.0,600.0,505.0
546.0,465.0,389.0,470.0
530.0,468.0,476.0,473.0
546.0,494.0,550.0,428.0
591.0,514.0,475.0,607.0
652.0,505.0,480.0,585.0
678.0,485.0,488.0,505.0
672.0,484.0,542.0,495.0
624.0,488.0,561.0,496.0
562.0,459.0,519.0,519.0
456.0,482.0,478.0,514.0
455.0,507.0,525.0,547.0
465.0,510.0,567.0,542.0
469.0,531.0,571.0,443.0
434.0,523.0,496.0,438.0
417.0,530.0,531.0,485.0
412.0,531.0,541.0,470.0
432.0,512.0,480.0,475.0
495.0,469.0,462.0,509.0
554.0,477.0,624.0,586.0
588.0,486.0,462.0,490.0
568.0,501.0,452.0,458.0
562.0,514.0,509.0,575.0
554.0,519.0,462.0,441.0
533.0,523.0,490.0,527.0
549.0,501.0,486.0,479.0
595.0,489.0,553.0,420.0
734.0,465.0,546.0,445.0
733.0,456.0,589.0,454.0
636.0,468.0,441.0,369.0
630.0,477.0,435.0,454.0
593.0,492.0,535.0,532.0
413.0,567.0,615.0,476.0
344.0,583.0,504.0,547.0
446.0,505.0,554.0,565.0
436.0,467.0,486.0,495.0
399.0,495.0,465.0,479.0
437.0,507.0,517.0,487.0
465.0,481.0,458.0,505.0
521.0,486.0,797.0,510.0
556.0,498.0,481.0,376.0
568.0,512.0,308.0,407.0
596.0,444.0,512.0,540.0
469.0,502.0,510.0,550.0
440.0,496.0,480.0,531.0
473.0,468.0,586.0,532.0
478.0,523.0,707.0,526.0
575.0,516.0,518.0,504.0
610.0,525.0,423.0,496.0
669.0,495.0,587.0,521.0
705.0,474.0,674.0,516.0
649.0,456.0,413.0,468.0
565.0,480.0,404.0,482.0
501.0,503.0,458.0,491.0
524.0,511.0,481.0,498.0
395.0,524.0,404.0,485.0
303.0,539.0,435.0,402.0
279.0,578.0,516.0,452.0
338.0,552.0,505.0,684.0
392.0,476.0,515.0,505.0
424.0,462.0,668.0,492.0
427.0,528.0,505.0,482.0
435.0,565.0,440.0,429.0
455.0,577.0,573.0,452.0
472.0,590.0,548.0,519.0
489.0,586.0,530.0,430.0
549.0,515.0,490.0,476.0
576.0,433.0,474.0,543.0
586.0,447.0,414.0,543.0
646.0,482.0,449.0,552.0
649.0,481.0,537.0,565.0
645.0,484.0,524.0,497.0
647.0,466.0,484.0,507.0
585.0,473.0,568.0,503.0
375.0,509.0,656.0,493.0
403.0,501.0,459.0,324.0
459.0,497.0,401.0,483.0
487.0,494.0,583.0,547.0
492.0,516.0,560.0,469.0
468.0,562.0,480.0,454.0
408.0,630.0,526.0,522.0
395.0,552.0,541.0,518.0
413.0,470.0,554.0,533.0
423.0,510.0,546.0,530.0
458.0,501.0,525.0,456.0
478.0,490.0,492.0,478.0
474.0,506.0,534.0,480.0
463.0,554.0,398.0,422.0
457.0,582.0,632.0,435.0
461.0,563.0,457.0,507.0
470.0,532.0,398.0,528.0
509.0,502.0,541.0,514.0
541.0,497.0,638.0,491.0
528.0,478.0,458.0,506.0
529.0,473.0,457.0,522.0
521.0,492.0,463.0,500.0
522.0,513.0,547.0,535.0
525.0,510.0,566.0,506.0
529.0,503.0,519.0,501.0
513.0,517.0,483.0,511.0
499.0,511.0,615.0,509.0
523.0,470.0,460.0,463.0
528.0,464.0,390.0,474.0
525.0,476.0,484.0,459.0
510.0,529.0,545.0,498.0
517.0,543.0,460.0,530.0
549.0,514.0,489.0,506.0
571.0,502.0,534.0,500.0
596.0,497.0,506.0,460.0
626.0,461.0,466.0,413.0
679.0,413.0,526.0,586.0
623.0,426.0,567.0,570.0
676.0,472.0,548.0,567.0
767.0,501.0,567.0,454.0
765.0,488.0,528.0,417.0
626.0,512.0,478.0,495.0
530.0,503.0,533.0,437.0
458.0,502.0,507.0,466.0
299.0,514.0,516.0,459.0
427.0,499.0,486.0,498.0
613.0,482.0,548.0,565.0
668.0,525.0,432.0,555.0
714.0,520.0,467.0,494.0
639.0,484.0,523.0,564.0
535.0,495.0,469.0,602.0
339.0,527.0,686.0,473.0
347.0,489.0,433.0,436.0
361.0,501.0,392.0,519.0
311.0,514.0,685.0,512.0
299.0,532.0,554.0,505.0
332.0,527.0,499.0,472.0
370.0,514.0,527.0,538.0
382.0,521.0,530.0,463.0
396.0,522.0,515.0,475.0
433.0,521.0,466.0,502.0
461.0,514.0,441.0,533.0
505.0,511.0,495.0,493.0
542.0,523.0,624.0,496.0
559.0,549.0,469.0,492.0
587.0,485.0,434.0,456.0
632.0,419.0,412.0,443.0
640.0,421.0,469.0,534.0
615.0,489.0,545.0,570.0
573.0,484.0,577.0,531.0
577.0,502.0,486.0,461.0
509.0,523.0,604.0,474.0
381.0,563.0,740.0,454.0
393.0,546.0,389.0,365.0
451.0,533.0,449.0,554.0
506.0,505.0,496.0,615.0
525.0,513.0,432.0,554.0
521.0,497.0,379.0,427.0
486.0,493.0,568.0,499.0
459.0,510.0,584.0,458.0
450.0,530.0,530.0,550.0
432.0,555.0,551.0,559.0
484.0,530.0,450.0,490.0
493.0,526.0,503.0,537.0
553.0,504.0,521.0,495.0
582.0,476.0,532.0,472.0
555.0,507.0,574.0,545.0
596.0,503.0,428.0,457.0
625.0,503.0,476.0,440.0
599.0,517.0,584.0,476.0
499.0,502.0,569.0,495.0
510.0,500.0,616.0,531.0
571.0,502.0,471.0,471.0
457.0,510.0,575.0,535.0
417.0,477.0,543.0,501.0
419.0,504.0,456.0,450.0
439.0,503.0,476.0,480.0
449.0,531.0,498.0,423.0
459.0,550.0,476.0,466.0
499.0,518.0,450.0,624.0
517.0,501.0,546.0,594.0
524.0,479.0,567.0,523.0
494.0,484.0,594.0,497.0
467.0,498.0,480.0,514.0
495.0,506.0,493.0,459.0
519.0,521.0,565.0,493.0
543.0,526.0,483.0,485.0
569.0,502.0,449.0,451.0
565.0,511.0,578.0,532.0
547.0,509.0,506.0,511.0
520.0,474.0,424.0,420.0
506.0,443.0,472.0,443.0
467.0,500.0,605.0,571.0
486.0,520.0,393.0,581.0
457.0,573.0,356.0,468.0
440.0,589.0,433.0,461.0
461.0,584.0,541.0,554.0
467.0,559.0,631.0,544.0
496.0,488.0,496.0,486.0
546.0,414.0,515.0,520.0
582.0,375.0,505.0,512.0
590.0,414.0,485.0,479.0
581.0,462.0,570.0,529.0
597.0,492.0,540.0,544.0
612.0,489.0,565.0,532.0
559.0,539.0,539.0,494.0
564.0,572.0,657.0,513.0
655.0,507.0,470.0,487.0
635.0,478.0,389.0,463.0
569.0,451.0,516.0,505.0
443.0,531.0,358.0,487.0
466.0,528.0,402.0,481.0
453.0,522.0,604.0,523.0
449.0,533.0,500.0,523.0
503.0,512.0,471.0,495.0
545.0,473.0,520.0,473.0
518.0,481.0,499.0,487.0
473.0,493.0,566.0,502.0
441.0,515.0,552.0,425.0
492.0,532.0,530.0,480.0
538.0,511.0,546.0,491.0
547.0,525.0,484.0,397.0
579.0,501.0,503.0,514.0
560.0,526.0,451.0,559.0
580.0,474.0,455.0,489.0
594.0,447.0,477.0,473.0
629.0,446.0,465.0,505.0
615.0,482.0,519.0,614.0
496.0,517.0,525.0,551.0
464.0,537.0,520.0,511.0
431.0,530.0,719.0,520.0
342.0,530.0,427.0,558.0
332.0,522.0,307.0,491.0
426.0,486.0,510.0,440.0
499.0,475.0,572.0,487.0
536.0,473.0,619.0,503.0
525.0,494.0,569.0,450.0
518.0,521.0,561.0,525.0
428.0,558.0,482.0,405.0
409.0,556.0,439.0,470.0
466.0,495.0,478.0,486.0
506.0,498.0,503.0,503.0
556.0,490.0,566.0,523.0
534.0,499.0,470.0,433.0
509.0,519.0,478.0,464.0
455.0,511.0,450.0,505.0
447.0,522.0,483.0,571.0
473.0,524.0,484.0,568.0
475.0,512.0,535.0,561.0
486.0,502.0,546.0,487.0
508.0,509.0,521.0,536.0
507.0,516.0,568.0,527.0
447.0,561.0,532.0,473.0
430.0,572.0,550.0,497.0
457.0,574.0,513.0,492.0
473.0,526.0,551.0,455.0
498.0,474.0,419.0,460.0
533.0,425.0,466.0,531.0
524.0,458.0,725.0,575.0
510.0,482.0,426.0,479.0
488.0,530.0,401.0,470.0
490.0,505.0,531.0,389.0
528.0,479.0,451.0,549.0
553.0,473.0,382.0,510.0
562.0,459.0,525.0,557.0
607.0,458.0,516.0,505.0
615.0,471.0,595.0,500.0
562.0,476.0,584.0,425.0
467.0,490.0,423.0,460.0
470.0,500.0,636.0,535.0
492.0,583.0,475.0,427.0
505.0,579.0,522.0,498.0
532.0,517.0,529.0,552.0
504.0,510.0,476.0,558.0
544.0,516.0,527.0,523.0
612.0,497.0,698.0,520.0
626.0,486.0,456.0,522.0
620.0,489.0,467.0,538.0
612.0,487.0,433.0,430.0
474.0,530.0,413.0,412.0
402.0,536.0,471.0,451.0
446.0,535.0,535.0,576.0
495.0,493.0,514.0,549.0
523.0,455.0,563.0,552.0
591.0,446.0,512.0,461.0
628.0,506.0,537.0,463.0
670.0,524.0,508.0,418.0
749.0,477.0,494.0,467.0
718.0,459.0,551.0,561.0
572.0,500.0,536.0,548.0
507.0,493.0,569.0,544.0
492.0,479.0,528.0,537.0
420.0,495.0,497.0,530.0
367.0,545.0,486.0,481.0
442.0,550.0,414.0,428.0
444.0,557.0,453.0,557.0
447.0,548.0,468.0,464.0
445.0,512.0,452.0,450.0
479.0,489.0,517.0,527.0
456.0,458.0,548.0,520.0
420.0,501.0,484.0,485.0
453.0,509.0,635.0,553.0
462.0,515.0,484.0,506.0
444.0,544.0,514.0,551.0
443.0,559.0,604.0,535.0
458.0,533.0,523.0,489.0
466.0,526.0,517.0,470.0
526.0,470.0,524.0,485.0
527.0,437.0,539.0,506.0
549.0,462.0,462.0,488.0
605.0,469.0,491.0,518.0
626.0,462.0,598.0,510.0
617.0,499.0,336.0,490.0
610.0,575.0,470.0,499.0
663.0,505.0,559.0,526.0
610.0,495.0,448.0,481.0
572.0,463.0,583.0,514.0
461.0,433.0,548.0,519.0
364.0,505.0,534.0,468.0
350.0,529.0,566.0,445.0
330.0,580.0,601.0,476.0
386.0,550.0,445.0,475.0
437.0,516.0,577.0,515.0
450.0,489.0,446.0,489.0
460.0,497.0,382.0,493.0
443.0,517.0,429.0,498.0
462.0,529.0,572.0,521.0
477.0,574.0,463.0,451.0
488.0,571.0,570.0,483.0
479.0,595.0,421.0,491.0
480.0,571.0,474.0,477.0
487.0,538.0,483.0,519.0
521.0,456.0,485.0,478.0
540.0,439.0,508.0,477.0
530.0,474.0,560.0,457.0
507.0,487.0,516.0,515.0
485.0,498.0,587.0,405.0
507.0,490.0,543.0,482.0
521.0,496.0,465.0,509.0
526.0,500.0,535.0,534.0
543.0,505.0,508.0,619.0
560.0,483.0,529.0,613.0
552.0,465.0,510.0,509.0
513.0,499.0,441.0,510.0
476.0,566.0,382.0,546.0
481.0,543.0,489.0,467.0
510.0,496.0,489.0,510.0
525.0,470.0,646.0,543.0
512.0,494.0,574.0,525.0
519.0,491.0,519.0,518.0
550.0,455.0,560.0,509.0
558.0,483.0,525.0,485.0
552.0,544.0,555.0,505.0
557.0,532.0,540.0,523.0
578.0,528.0,606.0,549.0
551.0,534.0,517.0,436.0
525.0,527.0,454.0,477.0
599.0,456.0,453.0,435.0
763.0,454.0,489.0,437.0
807.0,455.0,516.0,483.0
855.0,453.0,383.0,572.0
800.0,477.0,443.0,552.0
703.0,439.0,527.0,495.0
373.0,514.0,458.0,491.0
216.0,538.0,594.0,515.0
296.0,505.0,539.0,501.0
325.0,497.0,474.0,465.0
322.0,503.0,589.0,525.0
376.0,510.0,535.0,489.0
394.0,518.0,450.0,427.0
422.0,516.0,476.0,361.0
442.0,543.0,529.0,468.0
446.0,525.0,482.0,554.0
481.0,528.0,608.0,597.0
516.0,481.0,548.0,503.0
529.0,491.0,690.0,544.0
529.0,515.0,411.0,521.0
527.0,544.0,458.0,572.0
521.0,515.0,422.0,529.0
494.0,524.0,501.0,512.0
496.0,524.0,550.0,535.0
520.0,482.0,480.0,566.0
502.0,472.0,481.0,484.0
474.0,471.0,570.0,456.0
440.0,485.0,554.0,519.0
459.0,482.0,526.0,539.0
452.0,510.0,511.0,534.0
460.0,515.0,492.0,418.0
486.0,528.0,468.0,439.0
500.0,533.0,502.0,490.0
528.0,521.0,500.0,529.0
546.0,490.0,491.0,487.0
564.0,478.0,466.0,507.0
547.0,522.0,477.0,509.0
548.0,518.0,448.0,485.0
609.0,482.0,560.0,516.0
622.0,498.0,495.0,485.0
646.0,513.0,500.0,538.0
626.0,495.0,570.0,557.0
602.0,471.0,492.0,458.0
483.0,490.0,553.0,498.0
330.0,532.0,628.0,553.0
347.0,562.0,407.0,472.0
420.0,536.0,501.0,405.0
448.0,545.0,566.0,517.0
466.0,549.0,473.0,483.0
457.0,582.0,586.0,438.0
487.0,550.0,479.0,512.0
502.0,534.0,483.0,545.0
517.0,504.0,502.0,555.0
499.0,484.0,463.0,540.0
490.0,521.0,520.0,541.0
465.0,513.0,512.0,486.0
481.0,521.0,426.0,492.0
494.0,513.0,566.0,493.0
521.0,474.0,384.0,459.0
547.0,445.0,526.0,531.0
568.0,424.0,585.0,423.0
556.0,475.0,505.0,390.0
543.0,500.0,540.0,511.0
522.0,503.0,538.0,511.0
478.0,507.0,537.0,480.0
458.0,518.0,582.0,548.0
498.0,506.0,419.0,450.0
521.0,505.0,511.0,532.0
540.0,481.0,524.0,537.0
552.0,478.0,490.0,534.0
550.0,509.0,495.0,559.0
542.0,526.0,444.0,480.0
563.0,502.0,496.0,476.0
629.0,460.0,516.0,507.0
605.0,480.0,584.0,435.0
658.0,450.0,559.0,529.0
685.0,417.0,745.0,580.0
644.0,427.0,379.0,451.0
575.0,453.0,512.0,480.0
418.0,540.0,525.0,538.0
316.0,574.0,510.0,460.0
401.0,546.0,552.0,467.0
484.0,544.0,660.0,557.0
528.0,508.0,401.0,448.0
631.0,467.0,514.0,521.0
662.0,469.0,454.0,573.0
566.0,515.0,361.0,471.0
572.0,522.0,513.0,572.0
606.0,501.0,533.0,498.0
532.0,493.0,571.0,537.0
312.0,559.0,469.0,542.0
334.0,523.0,464.0,491.0
426.0,500.0,557.0,512.0
475.0,511.0,538.0,442.0
504.0,489.0,497.0,360.0
494.0,502.0,455.0,493.0
483.0,551.0,559.0,599.0
456.0,584.0,504.0,530.0
420.0,563.0,469.0,531.0
401.0,555.0,484.0,552.0
431.0,522.0,610.0,484.0
456.0,493.0,507.0,559.0
468.0,508.0,511.0,479.0
476.0,516.0,606.0,514.0
474.0,499.0,419.0,557.0
482.0,496.0,309.0,450.0
495.0,513.0,516.0,494.0
526.0,474.0,651.0,603.0
528.0,447.0,530.0,532.0
531.0,457.0,526.0,466.0
547.0,456.0,550.0,465.0
506.0,469.0,513.0,496.0
467.0,504.0,498.0,507.0
491.0,493.0,583.0,504.0
484.0,534.0,536.0,471.0
483.0,548.0,502.0,505.0
494.0,534.0,469.0,472.0
510.0,517.0,498.0,492.0
519.0,505.0,512.0,539.0
517.0,502.0,502.0,514.0
508.0,499.0,460.0,505.0
515.0,519.0,483.0,490.0
542.0,505.0,489.0,407.0
540.0,517.0,507.0,555.0
542.0,507.0,611.0,596.0
554.0,477.0,465.0,494.0
551.0,453.0,495.0,471.0
507.0,466.0,549.0,488.0
514.0,489.0,648.0,506.0
514.0,497.0,503.0,497.0
537.0,529.0,468.0,481.0
554.0,520.0,532.0,469.0
514.0,539.0,548.0,442.0
562.0,495.0,506.0,553.0
611.0,475.0,468.0,525.0
606.0,500.0,469.0,453.0
564.0,512.0,456.0,508.0
556.0,514.0,448.0,528.0
548.0,496.0,561.0,594.0
382.0,586.0,808.0,486.0
355.0,570.0,277.0,448.0
407.0,471.0,254.0,475.0
475.0,466.0,561.0,463.0
482.0,472.0,558.0,432.0
483.0,474.0,524.0,576.0
465.0,509.0,522.0,562.0
465.0,534.0,568.0,530.0
469.0,561.0,511.0,457.0
499.0,561.0,438.0,432.0
545.0,549.0,552.0,540.0
594.0,486.0,546.0,499.0
621.0,487.0,498.0,489.0
652.0,463.0,498.0,492.0
613.0,465.0,556.0,522.0
584.0,496.0,471.0,531.0
555.0,505.0,444.0,442.0
544.0,510.0,457.0,532.0
460.0,505.0,532.0,560.0
465.0,472.0,549.0,532.0
465.0,471.0,433.0,479.0
504.0,484.0,602.0,509.0
531.0,497.0,553.0,510.0
532.0,516.0,522.0,553.0
577.0,516.0,516.0,515.0
627.0,507.0,535.0,491.0
559.0,528.0,531.0,499.0
586.0,471.0,491.0,503.0
554.0,428.0,504.0,422.0
524.0,457.0,449.0,400.0
394.0,519.0,481.0,495.0
359.0,559.0,521.0,602.0
384.0,546.0,478.0,547.0
392.0,534.0,534.0,507.0
404.0,544.0,468.0,545.0
435.0,533.0,529.0,532.0
493.0,488.0,558.0,517.0
545.0,456.0,499.0,505.0
564.0,446.0,522.0,486.0
552.0,472.0,539.0,477.0
470.0,520.0,522.0,521.0
417.0,517.0,499.0,481.0
426.0,518.0,507.0,445.0
415.0,586.0,458.0,507.0
462.0,536.0,514.0,518.0
486.0,500.0,531.0,483.0
509.0,495.0,485.0,486.0
516.0,519.0,472.0,480.0
511.0,533.0,515.0,520.0
497.0,540.0,483.0,523.0
505.0,528.0,479.0,529.0
501.0,511.0,454.0,520.0
512.0,499.0,520.0,488.0
534.0,472.0,538.0,492.0
532.0,441.0,510.0,519.0
529.0,469.0,546.0,523.0
512.0,506.0,519.0,481.0
493.0,515.0,518.0,515.0
476.0,519.0,527.0,526.0
498.0,519.0,568.0,515.0
532.0,485.0,544.0,503.0
541.0,480.0,449.0,499.0
527.0,525.0,500.0,488.0
529.0,521.0,686.0,507.0
494.0,529.0,421.0,478.0
453.0,547.0,479.0,520.0
480.0,541.0,480.0,485.0
505.0,520.0,464.0,507.0
522.0,491.0,500.0,546.0
541.0,473.0,494.0,502.0
553.0,464.0,531.0,507.0
557.0,458.0,522.0,483.0
539.0,473.0,537.0,468.0
537.0,469.0,663.0,499.0
509.0,515.0,512.0,460.0
484.0,558.0,439.0,486.0
473.0,547.0,486.0,563.0
473.0,522.0,532.0,529.0
508.0,500.0,564.0,503.0
514.0,508.0,521.0,507.0
514.0,498.0,425.0,466.0
503.0,501.0,412.0,504.0
515.0,492.0,514.0,483.0
548.0,466.0,570.0,469.0
549.0,499.0,465.0,552.0
576.0,474.0,486.0,446.0
618.0,463.0,532.0,515.0
603.0,478.0,511.0,524.0
633.0,466.0,561.0,517.0
602.0,503.0,525.0,500.0
576.0,534.0,512.0,479.0
586.0,477.0,526.0,498.0
484.0,484.0,533.0,482.0
405.0,525.0,484.0,463.0
419.0,502.0,488.0,380.0
451.0,494.0,551.0,600.0
460.0,507.0,488.0,535.0
458.0,514.0,452.0,591.0
438.0,544.0,518.0,554.0
444.0,521.0,514.0,449.0
476.0,507.0,439.0,525.0
495.0,496.0,499.0,487.0
510.0,482.0,524.0,452.0
523.0,463.0,528.0,524.0
514.0,503.0,560.0,522.0
508.0,552.0,540.0,520.0
515.0,539.0,548.0,537.0
549.0,469.0,520.0,511.0
551.0,502.0,526.0,514.0
568.0,496.0,539.0,508.0
554.0,513.0,519.0,502.0
572.0,462.0,512.0,466.0
465.0,494.0,504.0,456.0
421.0,520.0,496.0,586.0
459.0,542.0,399.0,467.0
456.0,547.0,462.0,456.0
476.0,514.0,512.0,536.0
528.0,505.0,542.0,586.0
597.0,503.0,505.0,527.0
630.0,478.0,512.0,520.0
617.0,477.0,543.0,499.0
639.0,461.0,519.0,497.0
595.0,490.0,508.0,488.0
508.0,543.0,505.0,430.0
503.0,531.0,473.0,439.0
540.0,530.0,526.0,504.0
567.0,518.0,525.0,511.0
473.0,512.0,479.0,497.0
409.0,495.0,534.0,544.0
340.0,478.0,518.0,561.0
365.0,475.0,496.0,493.0
433.0,534.0,513.0,447.0
443.0,571.0,532.0,522.0
467.0,535.0,422.0,523.0
504.0,506.0,458.0,527.0
514.0,502.0,514.0,550.0
499.0,466.0,573.0,521.0
514.0,433.0,606.0,523.0
496.0,476.0,630.0,488.0
465.0,499.0,432.0,453.0
474.0,514.0,562.0,602.0
500.0,498.0,559.0,506.0
500.0,533.0,466.0,478.0
479.0,553.0,533.0,482.0
490.0,499.0,479.0,512.0
510.0,510.0,490.0,502.0
504.0,519.0,501.0,469.0
493.0,519.0,486.0,477.0
477.0,549.0,502.0,502.0
494.0,533.0,454.0,524.0
507.0,505.0,488.0,515.0
515.0,499.0,520.0,501.0
517.0,492.0,515.0,525.0
538.0,501.0,514.0,510.0
524.0,516.0,548.0,506.0
520.0,509.0,515.0,487.0
506.0,504.0,562.0,502.0
505.0,487.0,601.0,491.0
498.0,521.0,705.0,489.0
504.0,516.0,346.0,424.0
516.0,516.0,436.0,449.0
536.0,468.0,557.0,605.0
523.0,448.0,501.0,542.0
519.0,459.0,470.0,531.0
503.0,505.0,422.0,517.0
500.0,510.0,489.0,545.0
510.0,498.0,542.0,537.0
507.0,522.0,518.0,534.0
531.0,498.0,505.0,516.0
547.0,472.0,489.0,488.0
526.0,476.0,513.0,485.0
558.0,485.0,631.0,431.0
541.0,504.0,449.0,461.0
556.0,509.0,471.0,528.0
562.0,511.0,515.0,526.0
540.0,528.0,566.0,527.0
503.0,538.0,535.0,501.0
518.0,507.0,533.0,487.0
535.0,503.0,473.0,480.0
514.0,528.0,521.0,549.0
501.0,525.0,492.0,465.0
484.0,534.0,449.0,483.0
518.0,520.0,508.0,554.0
518.0,486.0,520.0,527.0
507.0,491.0,521.0,508.0
602.0,489.0,543.0,497.0
667.0,444.0,494.0,520.0
664.0,459.0,513.0,511.0
655.0,459.0,528.0,494.0
598.0,477.0,545.0,545.0
360.0,556.0,521.0,488.0
348.0,574.0,544.0,490.0
428.0,533.0,498.0,486.0
421.0,498.0,462.0,498.0
429.0,495.0,526.0,502.0
440.0,483.0,509.0,511.0
440.0,503.0,474.0,490.0
461.0,506.0,460.0,500.0
455.0,526.0,505.0,530.0
467.0,514.0,501.0,518.0
476.0,531.0,485.0,503.0
503.0,524.0,498.0,516.0
530.0,508.0,528.0,551.0
538.0,473.0,522.0,496.0
536.0,498.0,555.0,469.0
560.0,496.0,530.0,491.0
559.0,486.0,483.0,498.0
547.0,518.0,527.0,498.0
532.0,521.0,547.0,499.0
518.0,543.0,487.0,490.0
478.0,529.0,531.0,491.0
483.0,490.0,497.0,494.0
451.0,497.0,491.0,470.0
469.0,504.0,549.0,491.0
464.0,529.0,518.0,537.0
468.0,535.0,444.0,588.0
488.0,505.0,478.0,506.0
492.0,503.0,496.0,513.0
501.0,521.0,509.0,484.0
523.0,485.0,508.0,478.0
524.0,461.0,523.0,508.0
520.0,466.0,528.0,488.0
515.0,484.0,532.0,542.0
489.0,526.0,518.0,518.0
496.0,543.0,483.0,483.0
505.0,550.0,520.0,492.0
501.0,554.0,471.0,517.0
515.0,532.0,537.0,509.0
528.0,505.0,522.0,502.0
518.0,499.0,511.0,531.0
522.0,482.0,507.0,535.0
481.0,522.0,496.0,507.0
493.0,523.0,495.0,495.0
504.0,518.0,498.0,520.0
514.0,515.0,504.0,513.0
530.0,499.0,491.0,507.0
532.0,462.0,482.0,504.0
524.0,475.0,520.0,500.0
524.0,476.0,559.0,504.0
517.0,482.0,545.0,501.0
504.0,507.0,535.0,504.0
493.0,520.0,551.0,522.0
490.0,539.0,510.0,470.0
492.0,532.0,488.0,473.0
519.0,490.0,524.0,534.0
528.0,479.0,497.0,526.0
524.0,486.0,482.0,501.0
520.0,524.0,503.0,525.0
502.0,540.0,506.0,514.0
490.0,551.0,544.0,520.0
504.0,529.0,455.0,504.0
526.0,486.0,468.0,495.0
534.0,474.0,522.0,507.0
535.0,467.0,528.0,488.0
516.0,476.0,523.0,472.0
518.0,480.0,529.0,476.0
499.0,524.0,538.0,500.0
510.0,514.0,525.0,526.0
501.0,536.0,537.0,517.0
493.0,542.0,521.0,510.0
505.0,526.0,505.0,523.0
522.0,490.0,498.0,495.0
525.0,441.0,474.0,510.0
522.0,467.0,491.0,516.0
520.0,497.0,489.0,515.0
513.0,517.0,473.0,512.0
524.0,511.0,498.0,514.0
524.0,504.0,490.0,498.0
540.0,504.0,492.0,507.0
538.0,469.0,525.0,513.0
532.0,481.0,537.0,517.0
537.0,489.0,536.0,512.0
556.0,491.0,527.0,505.0
585.0,503.0,526.0,500.0
590.0,520.0,526.0,504.0
572.0,517.0,517.0,501.0
592.0,500.0,527.0,502.0
568.0,480.0,504.0,503.0
448.0,500.0,503.0,504.0
398.0,517.0,495.0,504.0
431.0,508.0,488.0,511.0
455.0,521.0,477.0,509.0
465.0,527.0,475.0,502.0
472.0,522.0,488.0,506.0
491.0,520.0,496.0,521.0
505.0,509.0,507.0,510.0
540.0,478.0,523.0,502.0
550.0,478.0,534.0,494.0
533.0,489.0,533.0,486.0
522.0,506.0,527.0,492.0
490.0,527.0,522.0,496.0
481.0,529.0,524.0,506.0
467.0,528.0,521.0,514.0
453.0,531.0,512.0,507.0
470.0,502.0,507.0,510.0
492.0,498.0,498.0,512.0
492.0,511.0,493.0,508.0
493.0,515.0,483.0,508.0
486.0,524.0,477.0,509.0
484.0,525.0,483.0,507.0
486.0,531.0,489.0,506.0
501.0,518.0,496.0,511.0
511.0,496.0,510.0,506.0
527.0,474.0,537.0,506.0
526.0,475.0,540.0,508.0
514.0,484.0,531.0,490.0
500.0,516.0,531.0,497.0
490.0,529.0,530.0,506.0
487.0,531.0,526.0,504.0
500.0,521.0,520.0,505.0
506.0,521.0,512.0,508.0
522.0,496.0,504.0,509.0
520.0,493.0,497.0,510.0
520.0,492.0,492.0,513.0
503.0,509.0,485.0,514.0
503.0,512.0,480.0,514.0
512.0,503.0,488.0,518.0
507.0,510.0,492.0,517.0
514.0,504.0,500.0,516.0
525.0,488.0,519.0,513.0
528.0,474.0,529.0,508.0
526.0,476.0,539.0,501.0
522.0,494.0,533.0,501.0
505.0,522.0,526.0,499.0
500.0,526.0,524.0,500.0
488.0,530.0,525.0,517.0
492.0,526.0,515.0,518.0
505.0,513.0,508.0,512.0
519.0,490.0,496.0,506.0
524.0,486.0,495.0,514.0
522.0,491.0,490.0,522.0
507.0,521.0,484.0,521.0
499.0,530.0,483.0,519.0
502.0,527.0,489.0,519.0
505.0,518.0,496.0,522.0
513.0,506.0,506.0,518.0
535.0,477.0,514.0,510.0
533.0,478.0,533.0,506.0
525.0,488.0,517.0,503.0
512.0,509.0,539.0,508.0
498.0,532.0,539.0,507.0
491.0,526.0,526.0,508.0
496.0,520.0,520.0,507.0
495.0,517.0,512.0,512.0
516.0,498.0,506.0,514.0
523.0,492.0,501.0,513.0
519.0,496.0,494.0,515.0
516.0,507.0,484.0,519.0
497.0,527.0,485.0,522.0
493.0,526.0,486.0,522.0
499.0,525.0,494.0,521.0
505.0,509.0,499.0,519.0
528.0,494.0,515.0,516.0
535.0,472.0,526.0,508.0
532.0,476.0,532.0,508.0
525.0,481.0,534.0,503.0
500.0,506.0,529.0,504.0
495.0,518.0,523.0,505.0
497.0,512.0,523.0,505.0
495.0,508.0,514.0,507.0
498.0,505.0,507.0,509.0
523.0,490.0,503.0,512.0
527.0,502.0,498.0,522.0
518.0,518.0,492.0,524.0
506.0,519.0,489.0,530.0
502.0,518.0,488.0,527.0
504.0,521.0,492.0,530.0
500.0,529.0,497.0,523.0
512.0,499.0,504.0,519.0
531.0,465.0,516.0,513.0
535.0,455.0,525.0,507.0
529.0,462.0,531.0,503.0
515.0,480.0,530.0,507.0
501.0,516.0,526.0,503.0
493.0,529.0,523.0,505.0
502.0,527.0,522.0,509.0
499.0,526.0,517.0,512.0
508.0,509.0,509.0,514.0
520.0,498.0,503.0,516.0
515.0,495.0,496.0,519.0
506.0,517.0,488.0,524.0
502.0,527.0,484.0,528.0
506.0,517.0,482.0,530.0
506.0,528.0,487.0,527.0
511.0,519.0,493.0,524.0
522.0,505.0,504.0,519.0
543.0,473.0,517.0,512.0
540.0,475.0,527.0,511.0
534.0,475.0,532.0,508.0
517.0,521.0,526.0,505.0
492.0,547.0,523.0,513.0
492.0,523.0,521.0,514.0
488.0,513.0,513.0,518.0
491.0,506.0,507.0,514.0
513.0,490.0,500.0,511.0
519.0,497.0,493.0,510.0
525.0,513.0,487.0,514.0
517.0,527.0,479.0,521.0
505.0,540.0,476.0,524.0
504.0,526.0,480.0,524.0
503.0,525.0,486.0,524.0
510.0,512.0,492.0,520.0
506.0,501.0,508.0,515.0
510.0,487.0,521.0,507.0
514.0,489.0,530.0,510.0
518.0,499.0,528.0,509.0
502.0,527.0,526.0,511.0
488.0,533.0,519.0,511.0
494.0,516.0,515.0,510.0
496.0,509.0,513.0,509.0
501.0,510.0,505.0,513.0
508.0,488.0,498.0,512.0
506.0,491.0,498.0,518.0
513.0,493.0,483.0,517.0
506.0,511.0,478.0,520.0
493.0,531.0,478.0,526.0
500.0,518.0,483.0,524.0
503.0,513.0,489.0,523.0
507.0,505.0,499.0,521.0
524.0,471.0,515.0,516.0
529.0,459.0,527.0,511.0
529.0,467.0,532.0,509.0
519.0,492.0,530.0,511.0
502.0,518.0,524.0,513.0
492.0,532.0,522.0,514.0
495.0,534.0,519.0,511.0
505.0,513.0,511.0,508.0
517.0,505.0,502.0,508.0
524.0,492.0,499.0,514.0
520.0,502.0,490.0,515.0
520.0,507.0,485.0,516.0
507.0,524.0,478.0,526.0
501.0,528.0,487.0,529.0
503.0,529.0,488.0,527.0
505.0,535.0,497.0,526.0
514.0,516.0,505.0,520.0
529.0,480.0,521.0,516.0
529.0,476.0,530.0,511.0
527.0,481.0,534.0,509.0
509.0,506.0,531.0,509.0
488.0,513.0,525.0,509.0
493.0,509.0,521.0,513.0
493.0,514.0,517.0,504.0
503.0,505.0,506.0,508.0
516.0,502.0,503.0,508.0
523.0,502.0,499.0,513.0
517.0,508.0,493.0,515.0
510.0,533.0,485.0,525.0
496.0,554.0,481.0,527.0
498.0,544.0,488.0,526.0
505.0,484.0,492.0,521.0
505.0,502.0,500.0,518.0
521.0,482.0,514.0,516.0
536.0,470.0,522.0,507.0
533.0,474.0,531.0,502.0
527.0,477.0,534.0,502.0
504.0,508.0,530.0,507.0
501.0,517.0,524.0,514.0
502.0,528.0,523.0,509.0
484.0,527.0,520.0,510.0
495.0,516.0,510.0,515.0
516.0,479.0,505.0,514.0
512.0,471.0,501.0,517.0
513.0,480.0,495.0,519.0
508.0,506.0,482.0,521.0
507.0,539.0,480.0,523.0
501.0,566.0,489.0,520.0
494.0,536.0,493.0,521.0
501.0,515.0,502.0,510.0
518.0,469.0,516.0,509.0
524.0,449.0,530.0,505.0
528.0,450.0,536.0,502.0
519.0,495.0,537.0,504.0
507.0,538.0,528.0,507.0
503.0,524.0,523.0,506.0
501.0,534.0,523.0,509.0
492.0,566.0,515.0,509.0
503.0,535.0,508.0,514.0
516.0,501.0,507.0,512.0
518.0,500.0,496.0,515.0
520.0,502.0,488.0,518.0
507.0,504.0,483.0,522.0
504.0,504.0,488.0,520.0
508.0,502.0,492.0,519.0
508.0,517.0,500.0,520.0
516.0,515.0,510.0,515.0
531.0,482.0,525.0,509.0
529.0,482.0,533.0,504.0
523.0,481.0,534.0,504.0
505.0,500.0,530.0,504.0
492.0,522.0,526.0,505.0
490.0,536.0,521.0,504.0
489.0,530.0,514.0,504.0
501.0,534.0,512.0,508.0
511.0,513.0,505.0,505.0
524.0,507.0,499.0,506.0
525.0,475.0,490.0,516.0
516.0,474.0,493.0,517.0
508.0,482.0,484.0,518.0
501.0,510.0,487.0,518.0
501.0,532.0,489.0,516.0
507.0,532.0,500.0,514.0
518.0,505.0,511.0,508.0
530.0,477.0,526.0,502.0
528.0,471.0,533.0,499.0
525.0,467.0,535.0,504.0
512.0,514.0,531.0,504.0
511.0,527.0,527.0,502.0
496.0,547.0,522.0,508.0
497.0,534.0,514.0,508.0
506.0,521.0,512.0,509.0
524.0,500.0,507.0,511.0
521.0,497.0,502.0,510.0
522.0,500.0,492.0,514.0
507.0,530.0,491.0,520.0
502.0,533.0,485.0,519.0
505.0,520.0,489.0,517.0
499.0,530.0,495.0,513.0
509.0,515.0,505.0,512.0
523.0,486.0,516.0,507.0
525.0,482.0,530.0,502.0
531.0,478.0,536.0,502.0
520.0,489.0,533.0,501.0
500.0,528.0,529.0,506.0
496.0,528.0,525.0,505.0
497.0,510.0,521.0,504.0
504.0,497.0,516.0,506.0
519.0,508.0,510.0,503.0
525.0,504.0,505.0,507.0
523.0,499.0,497.0,515.0
518.0,507.0,490.0,515.0
500.0,528.0,485.0,523.0
496.0,532.0,487.0,522.0
494.0,532.0,490.0,521.0
508.0,508.0,496.0,516.0
514.0,495.0,508.0,516.0
518.0,483.0,525.0,509.0
516.0,488.0,532.0,505.0
514.0,497.0,537.0,505.0
506.0,482.0,534.0,505.0
492.0,500.0,529.0,504.0
494.0,516.0,525.0,506.0
502.0,518.0,519.0,505.0
510.0,509.0,511.0,506.0
525.0,497.0,506.0,509.0
530.0,502.0,501.0,511.0
529.0,502.0,494.0,514.0
522.0,494.0,489.0,519.0
512.0,514.0,484.0,522.0
511.0,508.0,489.0,520.0
515.0,505.0,495.0,519.0
517.0,495.0,501.0,514.0
524.0,494.0,511.0,511.0
533.0,484.0,524.0,504.0
531.0,484.0,529.0,497.0
526.0,486.0,529.0,501.0
506.0,514.0,528.0,502.0
504.0,506.0,523.0,501.0
494.0,532.0,523.0,500.0
489.0,551.0,516.0,500.0
495.0,556.0,509.0,506.0
516.0,514.0,502.0,508.0
521.0,479.0,503.0,515.0
526.0,477.0,495.0,524.0
513.0,501.0,490.0,529.0
505.0,534.0,487.0,529.0
502.0,554.0,490.0,520.0
498.0,553.0,492.0,525.0
503.0,528.0,499.0,516.0
520.0,485.0,514.0,509.0
528.0,453.0,524.0,501.0
530.0,427.0,528.0,503.0
525.0,461.0,528.0,503.0
508.0,510.0,525.0,507.0
504.0,519.0,520.0,505.0
503.0,521.0,519.0,508.0
503.0,513.0,509.0,509.0
511.0,483.0,504.0,513.0
523.0,456.0,501.0,512.0
518.0,475.0,497.0,515.0
517.0,493.0,494.0,519.0
511.0,534.0,489.0,521.0
506.0,555.0,488.0,516.0
508.0,546.0,498.0,516.0
509.0,525.0,495.0,512.0
514.0,480.0,503.0,505.0
525.0,449.0,516.0,503.0
520.0,457.0,521.0,500.0
523.0,467.0,528.0,499.0
514.0,492.0,525.0,499.0
502.0,513.0,521.0,496.0
507.0,531.0,521.0,501.0
499.0,545.0,517.0,503.0
508.0,539.0,502.0,504.0
523.0,504.0,502.0,509.0
523.0,499.0,496.0,509.0
520.0,469.0,489.0,513.0
513.0,490.0,486.0,517.0
501.0,509.0,487.0,521.0
502.0,497.0,489.0,525.0
498.0,510.0,497.0,519.0
502.0,504.0,503.0,516.0
510.0,491.0,512.0,509.0
526.0,466.0,522.0,507.0
524.0,472.0,532.0,502.0
518.0,489.0,533.0,507.0
503.0,508.0,531.0,507.0
507.0,523.0,532.0,506.0
493.0,588.0,523.0,509.0
492.0,590.0,518.0,506.0
501.0,586.0,507.0,509.0
516.0,561.0,503.0,509.0
517.0,538.0,499.0,510.0
519.0,494.0,491.0,515.0
510.0,466.0,490.0,519.0
511.0,487.0,488.0,516.0
504.0,510.0,491.0,517.0
501.0,510.0,497.0,516.0
517.0,507.0,502.0,510.0
528.0,487.0,522.0,506.0
530.0,474.0,531.0,503.0
525.0,474.0,540.0,510.0
510.0,504.0,523.0,506.0
494.0,522.0,523.0,511.0
496.0,507.0,523.0,509.0
495.0,496.0,520.0,506.0
492.0,516.0,513.0,509.0
502.0,497.0,505.0,510.0
515.0,499.0,504.0,511.0
525.0,494.0,493.0,516.0
526.0,506.0,488.0,520.0
513.0,523.0,485.0,525.0
513.0,517.0,489.0,527.0
507.0,538.0,495.0,521.0
498.0,531.0,498.0,522.0
501.0,535.0,510.0,521.0
525.0,509.0,528.0,514.0
524.0,497.0,542.0,509.0
517.0,488.0,542.0,515.0
505.0,510.0,538.0,510.0
506.0,502.0,531.0,508.0
504.0,482.0,523.0,503.0
493.0,504.0,515.0,506.0
495.0,502.0,508.0,506.0
509.0,475.0,502.0,504.0
518.0,467.0,495.0,507.0
515.0,475.0,492.0,510.0
510.0,498.0,489.0,514.0
507.0,520.0,488.0,517.0
518.0,514.0,489.0,517.0
509.0,525.0,494.0,515.0
512.0,524.0,500.0,512.0
522.0,506.0,511.0,510.0
538.0,489.0,520.0,503.0
533.0,483.0,525.0,501.0
525.0,482.0,531.0,502.0
513.0,492.0,526.0,501.0
510.0,478.0,524.0,507.0
497.0,499.0,521.0,514.0
492.0,501.0,519.0,520.0
503.0,501.0,523.0,524.0
521.0,466.0,518.0,524.0
524.0,499.0,509.0,529.0
517.0,545.0,509.0,521.0
504.0,565.0,488.0,514.0
498.0,576.0,494.0,514.0
504.0,541.0,495.0,512.0
503.0,529.0,492.0,517.0
510.0,499.0,499.0,523.0
527.0,478.0,515.0,507.0
529.0,472.0,526.0,504.0
528.0,451.0,531.0,501.0
522.0,482.0,528.0,501.0
500.0,527.0,521.0,503.0
496.0,494.0,517.0,502.0
500.0,522.0,513.0,499.0
488.0,560.0,505.0,501.0
504.0,513.0,500.0,498.0
520.0,490.0,498.0,500.0
516.0,503.0,494.0,506.0
518.0,487.0,487.0,513.0
504.0,521.0,481.0,521.0
509.0,500.0,483.0,518.0
508.0,520.0,488.0,517.0
510.0,531.0,492.0,517.0
511.0,514.0,503.0,514.0
530.0,472.0,522.0,510.0
531.0,480.0,533.0,509.0
527.0,497.0,542.0,504.0
509.0,530.0,536.0,504.0
494.0,533.0,524.0,501.0
490.0,513.0,517.0,500.0
482.0,506.0,514.0,500.0
495.0,487.0,509.0,498.0
509.0,490.0,503.0,500.0
522.0,476.0,497.0,507.0
526.0,456.0,491.0,519.0
518.0,512.0,483.0,526.0
498.0,590.0,477.0,535.0
498.0,578.0,483.0,530.0
501.0,552.0,489.0,526.0
504.0,527.0,501.0,529.0
518.0,474.0,522.0,518.0
533.0,430.0,538.0,510.0
539.0,432.0,551.0,501.0
526.0,494.0,547.0,494.0
504.0,536.0,529.0,487.0
506.0,534.0,514.0,479.0
508.0,502.0,505.0,476.0
504.0,518.0,500.0,480.0
500.0,516.0,494.0,488.0
515.0,484.0,494.0,497.0
511.0,511.0,492.0,501.0
514.0,472.0,488.0,511.0
513.0,473.0,486.0,517.0
502.0,516.0,485.0,517.0
505.0,535.0,491.0,514.0
513.0,535.0,495.0,510.0
517.0,518.0,504.0,505.0
527.0,478.0,516.0,495.0
531.0,460.0,524.0,488.0
529.0,472.0,532.0,492.0
526.0,499.0,525.0,493.0
508.0,545.0,520.0,501.0
510.0,530.0,523.0,505.0
497.0,525.0,519.0,511.0
488.0,556.0,510.0,514.0
500.0,532.0,502.0,521.0
516.0,486.0,501.0,512.0
520.0,473.0,494.0,515.0
515.0,477.0,481.0,509.0
500.0,523.0,475.0,506.0
502.0,523.0,474.0,506.0
494.0,550.0,486.0,497.0
500.0,529.0,498.0,498.0
513.0,495.0,503.0,498.0
537.0,434.0,521.0,500.0
539.0,457.0,532.0,499.0
530.0,475.0,538.0,502.0
516.0,507.0,528.0,505.0
508.0,517.0,525.0,505.0
503.0,529.0,526.0,514.0
501.0,534.0,521.0,517.0
506.0,521.0,523.0,509.0
517.0,483.0,515.0,507.0
526.0,471.0,508.0,506.0
527.0,478.0,492.0,506.0
519.0,488.0,486.0,513.0
506.0,514.0,482.0,513.0
506.0,500.0,483.0,512.0
502.0,506.0,483.0,510.0
511.0,537.0,493.0,507.0
513.0,522.0,506.0,503.0
523.0,495.0,526.0,502.0
520.0,477.0,533.0,500.0
520.0,475.0,535.0,497.0
502.0,513.0,535.0,497.0
503.0,526.0,529.0,497.0
496.0,534.0,522.0,495.0
497.0,534.0,502.0,495.0
502.0,517.0,489.0,496.0
517.0,509.0,493.0,506.0
517.0,527.0,492.0,509.0
517.0,518.0,495.0,511.0
502.0,535.0,495.0,523.0
502.0,488.0,490.0,522.0
504.0,478.0,491.0,519.0
499.0,479.0,494.0,515.0
512.0,456.0,496.0,506.0
533.0,477.0,514.0,508.0
534.0,479.0,528.0,505.0
528.0,489.0,540.0,497.0
517.0,507.0,535.0,497.0
507.0,524.0,522.0,491.0
502.0,534.0,510.0,489.0
497.0,547.0,514.0,496.0
499.0,524.0,509.0,496.0
504.0,516.0,501.0,504.0
517.0,484.0,495.0,502.0
519.0,484.0,487.0,506.0
518.0,492.0,487.0,518.0
499.0,545.0,478.0,524.0
506.0,540.0,479.0,523.0
504.0,530.0,484.0,520.0
503.0,536.0,498.0,521.0
518.0,500.0,512.0,521.0
529.0,475.0,531.0,516.0
532.0,474.0,539.0,511.0
526.0,448.0,544.0,512.0
513.0,463.0,535.0,506.0
497.0,493.0,522.0,503.0
500.0,512.0,515.0,499.0
499.0,553.0,512.0,501.0
500.0,534.0,502.0,503.0
520.0,460.0,503.0,512.0
522.0,468.0,503.0,518.0
519.0,506.0,495.0,516.0
505.0,528.0,488.0,519.0
487.0,542.0,481.0,521.0
499.0,526.0,489.0,515.0
501.0,513.0,493.0,515.0
515.0,557.0,499.0,509.0
534.0,465.0,511.0,505.0
532.0,445.0,524.0,502.0
523.0,456.0,527.0,501.0
524.0,471.0,525.0,500.0
512.0,519.0,517.0,499.0
503.0,567.0,509.0,504.0
496.0,569.0,513.0,507.0
500.0,564.0,517.0,511.0
502.0,540.0,526.0,519.0
515.0,518.0,523.0,521.0
522.0,487.0,506.0,522.0
515.0,483.0,496.0,524.0
508.0,480.0,487.0,523.0
512.0,492.0,485.0,526.0
516.0,490.0,480.0,518.0
504.0,517.0,484.0,516.0
510.0,513.0,492.0,510.0
522.0,462.0,524.0,510.0
526.0,506.0,532.0,505.0
529.0,492.0,533.0,503.0
516.0,472.0,537.0,499.0
495.0,525.0,529.0,501.0
497.0,514.0,517.0,497.0
500.0,523.0,509.0,495.0
501.0,519.0,501.0,498.0
511.0,495.0,498.0,503.0
524.0,474.0,499.0,513.0
520.0,493.0,496.0,515.0
519.0,505.0,495.0,516.0
506.0,528.0,488.0,517.0
507.0,512.0,487.0,520.0
503.0,516.0,493.0,520.0
506.0,523.0,497.0,517.0
513.0,518.0,504.0,517.0
529.0,483.0,518.0,516.0
531.0,471.0,525.0,514.0
525.0,473.0,530.0,510.0
509.0,495.0,528.0,511.0
498.0,502.0,524.0,511.0
500.0,512.0,525.0,510.0
493.0,523.0,526.0,505.0
496.0,527.0,512.0,507.0
512.0,497.0,512.0,511.0
517.0,483.0,503.0,515.0
515.0,484.0,495.0,525.0
505.0,492.0,503.0,528.0
489.0,518.0,492.0,528.0
500.0,510.0,485.0,529.0
495.0,501.0,492.0,525.0
499.0,507.0,498.0,521.0
514.0,487.0,501.0,515.0
552.0,476.0,511.0,510.0
547.0,513.0,522.0,514.0
529.0,522.0,526.0,516.0
509.0,510.0,530.0,508.0
511.0,489.0,538.0,506.0
504.0,489.0,535.0,494.0
503.0,504.0,521.0,493.0
505.0,522.0,499.0,501.0
523.0,505.0,497.0,503.0
522.0,511.0,501.0,515.0
519.0,505.0,502.0,530.0
508.0,531.0,492.0,529.0
502.0,520.0,487.0,533.0
502.0,499.0,479.0,520.0
499.0,510.0,483.0,509.0
511.0,502.0,492.0,503.0
530.0,498.0,503.0,497.0
537.0,484.0,513.0,495.0
529.0,481.0,522.0,500.0
512.0,504.0,522.0,503.0
495.0,544.0,520.0,506.0
497.0,530.0,522.0,507.0
494.0,532.0,517.0,507.0
502.0,516.0,520.0,509.0
510.0,498.0,515.0,513.0
522.0,483.0,511.0,516.0
524.0,503.0,500.0,510.0
518.0,516.0,490.0,519.0
500.0,513.0,480.0,522.0
503.0,492.0,485.0,518.0
502.0,469.0,485.0,517.0
500.0,525.0,489.0,514.0
509.0,531.0,500.0,513.0
526.0,522.0,518.0,509.0
524.0,496.0,530.0,512.0
528.0,503.0,536.0,509.0
516.0,501.0,530.0,510.0
501.0,492.0,526.0,513.0
498.0,496.0,522.0,507.0
495.0,503.0,513.0,511.0
502.0,474.0,504.0,513.0
517.0,460.0,503.0,513.0
520.0,441.0,513.0,523.0
519.0,422.0,505.0,522.0
521.0,496.0,492.0,520.0
494.0,598.0,483.0,520.0
500.0,522.0,483.0,515.0
492.0,516.0,481.0,513.0
500.0,499.0,496.0,513.0
515.0,485.0,513.0,514.0
539.0,479.0,533.0,511.0
547.0,483.0,532.0,506.0
541.0,503.0,528.0,506.0
510.0,528.0,516.0,506.0
511.0,505.0,511.0,507.0
502.0,501.0,509.0,513.0
504.0,488.0,509.0,509.0
507.0,558.0,507.0,514.0
504.0,581.0,514.0,521.0
499.0,579.0,511.0,532.0
507.0,560.0,499.0,542.0
504.0,531.0,481.0,536.0
493.0,462.0,483.0,530.0
506.0,465.0,487.0,529.0
510.0,507.0,486.0,520.0
521.0,486.0,499.0,521.0
538.0,448.0,526.0,520.0
544.0,449.0,538.0,519.0
533.0,460.0,544.0,518.0
514.0,486.0,538.0,513.0
496.0,529.0,523.0,506.0
500.0,522.0,514.0,499.0
497.0,527.0,519.0,491.0
491.0,543.0,501.0,492.0
504.0,533.0,496.0,493.0
524.0,507.0,495.0,500.0
525.0,506.0,487.0,505.0
523.0,497.0,485.0,512.0
506.0,510.0,477.0,519.0
503.0,517.0,480.0,519.0
503.0,516.0,486.0,513.0
508.0,512.0,492.0,510.0
517.0,502.0,502.0,508.0
533.0,475.0,517.0,503.0
532.0,473.0,530.0,510.0
528.0,479.0,532.0,507.0
507.0,522.0,523.0,501.0
500.0,533.0,530.0,512.0
502.0,519.0,526.0,514.0
496.0,501.0,519.0,515.0
504.0,479.0,505.0,517.0
516.0,496.0,509.0,528.0
512.0,522.0,518.0,533.0
510.0,509.0,508.0,528.0
509.0,506.0,489.0,524.0
499.0,511.0,481.0,518.0
502.0,502.0,477.0,513.0
495.0,529.0,480.0,513.0
502.0,529.0,492.0,511.0
511.0,497.0,507.0,510.0
533.0,435.0,531.0,513.0
540.0,445.0,545.0,518.0
540.0,455.0,540.0,514.0
515.0,511.0,528.0,508.0
506.0,535.0,523.0,502.0
500.0,554.0,511.0,500.0
500.0,539.0,504.0,500.0
505.0,529.0,503.0,497.0
524.0,497.0,493.0,498.0
525.0,489.0,490.0,503.0
527.0,489.0,487.0,512.0
513.0,511.0,483.0,516.0
503.0,529.0,483.0,514.0
504.0,522.0,488.0,515.0
502.0,521.0,492.0,517.0
512.0,503.0,501.0,514.0
527.0,476.0,514.0,512.0
529.0,463.0,526.0,512.0
527.0,452.0,531.0,509.0
520.0,461.0,530.0,510.0
497.0,504.0,527.0,508.0
503.0,505.0,529.0,513.0
494.0,585.0,521.0,514.0
493.0,583.0,511.0,518.0
511.0,542.0,507.0,515.0
538.0,468.0,505.0,521.0
526.0,496.0,496.0,523.0
518.0,514.0,490.0,527.0
499.0,525.0,487.0,529.0
500.0,509.0,495.0,536.0
506.0,507.0,503.0,536.0
517.0,486.0,510.0,531.0
520.0,472.0,518.0,519.0
537.0,417.0,518.0,513.0
539.0,426.0,520.0,503.0
522.0,482.0,523.0,497.0
508.0,504.0,518.0,499.0
490.0,527.0,521.0,504.0
497.0,549.0,519.0,506.0
494.0,568.0,514.0,502.0
499.0,546.0,510.0,505.0
519.0,511.0,498.0,503.0
526.0,487.0,495.0,506.0
521.0,487.0,490.0,513.0
515.0,494.0,483.0,518.0
497.0,526.0,482.0,522.0
505.0,525.0,489.0,522.0
507.0,521.0,503.0,521.0
508.0,515.0,504.0,516.0
518.0,472.0,508.0,511.0
531.0,457.0,516.0,508.0
533.0,455.0,527.0,508.0
523.0,486.0,527.0,506.0
503.0,511.0,523.0,506.0
501.0,520.0,521.0,505.0
498.0,530.0,517.0,506.0
491.0,540.0,513.0,507.0
498.0,531.0,506.0,510.0
515.0,497.0,503.0,513.0
524.0,512.0,496.0,520.0
523.0,508.0,492.0,521.0
507.0,544.0,484.0,523.0
499.0,566.0,486.0,525.0
504.0,552.0,498.0,524.0
500.0,560.0,501.0,520.0
508.0,493.0,504.0,519.0
529.0,437.0,515.0,515.0
534.0,459.0,523.0,513.0
531.0,450.0,527.0,514.0
517.0,484.0,526.0,507.0
502.0,514.0,525.0,511.0
501.0,513.0,522.0,513.0
496.0,521.0,520.0,504.0
494.0,523.0,514.0,502.0
511.0,501.0,504.0,508.0
531.0,481.0,499.0,518.0
525.0,483.0,499.0,524.0
521.0,490.0,492.0,529.0
509.0,521.0,484.0,526.0
509.0,515.0,486.0,522.0
502.0,529.0,496.0,523.0
505.0,531.0,496.0,518.0
507.0,519.0,509.0,514.0
525.0,481.0,527.0,511.0
525.0,460.0,531.0,510.0
525.0,482.0,530.0,504.0
513.0,510.0,525.0,508.0
496.0,518.0,523.0,507.0
496.0,499.0,521.0,509.0
488.0,513.0,512.0,508.0
493.0,509.0,507.0,513.0
519.0,482.0,506.0,516.0
538.0,478.0,507.0,521.0
531.0,497.0,502.0,525.0
518.0,515.0,491.0,526.0
495.0,547.0,483.0,526.0
503.0,521.0,491.0,525.0
503.0,509.0,493.0,518.0
504.0,504.0,502.0,521.0
518.0,497.0,518.0,516.0
532.0,473.0,531.0,510.0
528.0,479.0,529.0,507.0
522.0,482.0,525.0,508.0
501.0,522.0,516.0,506.0
498.0,518.0,521.0,507.0
497.0,540.0,518.0,504.0
501.0,518.0,509.0,509.0
509.0,508.0,503.0,509.0
527.0,484.0,504.0,513.0
523.0,489.0,499.0,515.0
522.0,483.0,492.0,517.0
513.0,501.0,484.0,523.0
508.0,505.0,485.0,525.0
513.0,506.0,486.0,525.0
501.0,532.0,492.0,520.0
509.0,517.0,503.0,518.0
518.0,479.0,520.0,514.0
531.0,443.0,538.0,512.0
528.0,431.0,531.0,509.0
527.0,465.0,524.0,508.0
507.0,552.0,519.0,504.0
501.0,553.0,520.0,509.0
489.0,550.0,522.0,508.0
493.0,527.0,514.0,509.0
506.0,519.0,504.0,509.0
520.0,493.0,504.0,515.0
522.0,491.0,495.0,515.0
520.0,522.0,493.0,522.0
503.0,543.0,485.0,526.0
498.0,531.0,486.0,520.0
505.0,522.0,495.0,519.0
507.0,518.0,504.0,519.0
516.0,508.0,518.0,516.0
531.0,473.0,526.0,514.0
527.0,478.0,529.0,509.0
520.0,495.0,530.0,512.0
504.0,522.0,526.0,504.0
500.0,519.0,521.0,509.0
508.0,503.0,522.0,505.0
506.0,479.0,517.0,507.0
500.0,497.0,507.0,508.0
511.0,505.0,500.0,508.0
518.0,492.0,499.0,512.0
516.0,507.0,496.0,518.0
513.0,527.0,496.0,523.0
497.0,540.0,496.0,523.0
511.0,530.0,496.0,519.0
507.0,505.0,492.0,514.0
512.0,490.0,499.0,517.0
518.0,506.0,517.0,513.0
528.0,489.0,533.0,513.0
528.0,481.0,537.0,508.0
524.0,419.0,533.0,513.0
504.0,476.0,526.0,507.0
499.0,488.0,525.0,510.0
505.0,497.0,522.0,507.0
504.0,531.0,518.0,510.0
500.0,537.0,515.0,515.0
515.0,514.0,512.0,513.0
520.0,494.0,501.0,518.0
522.0,483.0,495.0,516.0
512.0,509.0,488.0,519.0
493.0,536.0,492.0,521.0
496.0,531.0,489.0,521.0
486.0,550.0,497.0,522.0
501.0,520.0,505.0,520.0
517.0,479.0,518.0,516.0
528.0,454.0,529.0,511.0
524.0,465.0,536.0,508.0
513.0,481.0,536.0,507.0
492.0,520.0,523.0,505.0
490.0,482.0,520.0,502.0
496.0,496.0,515.0,504.0
514.0,532.0,508.0,507.0
515.0,561.0,503.0,514.0
535.0,517.0,502.0,518.0
530.0,489.0,498.0,523.0
524.0,503.0,494.0,527.0
505.0,534.0,491.0,524.0
501.0,527.0,498.0,526.0
499.0,533.0,499.0,521.0
503.0,518.0,498.0,517.0
511.0,514.0,508.0,513.0
532.0,476.0,520.0,508.0
532.0,472.0,524.0,507.0
528.0,477.0,530.0,503.0
513.0,498.0,526.0,503.0
499.0,522.0,521.0,505.0
499.0,524.0,520.0,502.0
492.0,531.0,516.0,506.0
496.0,530.0,507.0,508.0
515.0,504.0,505.0,512.0
525.0,493.0,503.0,514.0
522.0,493.0,500.0,520.0
519.0,507.0,495.0,523.0
504.0,512.0,490.0,526.0
507.0,509.0,495.0,526.0
504.0,523.0,492.0,524.0
505.0,535.0,496.0,522.0
518.0,498.0,505.0,515.0
531.0,469.0,522.0,513.0
530.0,449.0,533.0,512.0
523.0,452.0,546.0,515.0
503.0,497.0,540.0,517.0
499.0,514.0,524.0,505.0
499.0,521.0,519.0,504.0
500.0,520.0,513.0,506.0
506.0,516.0,508.0,509.0
518.0,498.0,507.0,514.0
519.0,498.0,499.0,516.0
518.0,492.0,494.0,516.0
508.0,530.0,485.0,518.0
506.0,552.0,483.0,520.0
505.0,546.0,490.0,523.0
507.0,487.0,495.0,516.0
509.0,487.0,503.0,516.0
524.0,473.0,521.0,512.0
527.0,465.0,534.0,512.0
525.0,468.0,540.0,511.0
513.0,490.0,532.0,509.0
486.0,528.0,523.0,506.0
490.0,523.0,523.0,507.0
500.0,523.0,521.0,507.0
506.0,517.0,512.0,508.0
503.0,520.0,506.0,510.0
520.0,488.0,507.0,512.0
521.0,479.0,499.0,519.0
517.0,490.0,493.0,521.0
502.0,527.0,487.0,525.0
497.0,532.0,488.0,525.0
498.0,539.0,490.0,521.0
499.0,529.0,500.0,519.0
513.0,492.0,510.0,514.0
528.0,462.0,528.0,513.0
531.0,461.0,529.0,510.0
527.0,470.0,534.0,509.0
509.0,508.0,529.0,506.0
496.0,531.0,524.0,510.0
498.0,526.0,528.0,513.0
494.0,528.0,520.0,513.0
499.0,511.0,510.0,512.0
514.0,467.0,507.0,520.0
522.0,445.0,498.0,521.0
520.0,449.0,488.0,528.0
513.0,488.0,483.0,521.0
500.0,534.0,485.0,520.0
497.0,555.0,497.0,521.0
495.0,550.0,514.0,524.0
504.0,515.0,512.0,521.0
515.0,495.0,510.0,509.0
531.0,475.0,525.0,505.0
530.0,481.0,535.0,504.0
522.0,497.0,529.0,503.0
498.0,541.0,519.0,506.0
490.0,544.0,519.0,506.0
489.0,523.0,516.0,502.0
491.0,520.0,509.0,507.0
502.0,507.0,514.0,506.0
523.0,473.0,516.0,514.0
529.0,470.0,498.0,515.0
527.0,506.0,494.0,522.0
506.0,562.0,490.0,524.0
496.0,566.0,485.0,524.0
508.0,532.0,494.0,520.0
508.0,506.0,497.0,516.0
513.0,488.0,502.0,512.0
522.0,480.0,517.0,511.0
531.0,459.0,529.0,510.0
525.0,469.0,535.0,508.0
515.0,486.0,531.0,511.0
499.0,510.0,521.0,510.0
494.0,535.0,513.0,507.0
487.0,566.0,511.0,510.0
490.0,563.0,510.0,512.0
504.0,530.0,515.0,521.0
527.0,440.0,525.0,529.0
530.0,440.0,516.0,529.0
518.0,479.0,501.0,528.0
495.0,507.0,485.0,520.0
494.0,513.0,483.0,515.0
496.0,509.0,489.0,513.0
503.0,497.0,490.0,514.0
519.0,522.0,501.0,507.0
540.0,506.0,519.0,505.0
536.0,480.0,527.0,505.0
527.0,483.0,531.0,508.0
512.0,515.0,529.0,507.0
494.0,533.0,521.0,509.0
509.0,508.0,521.0,507.0
502.0,514.0,519.0,509.0
503.0,513.0,506.0,510.0
511.0,516.0,507.0,511.0
518.0,503.0,500.0,515.0
520.0,490.0,497.0,517.0
511.0,498.0,495.0,525.0
495.0,533.0,497.0,526.0
507.0,521.0,503.0,528.0
507.0,509.0,505.0,526.0
510.0,509.0,511.0,530.0
511.0,493.0,513.0,522.0
528.0,464.0,520.0,512.0
526.0,465.0,529.0,503.0
516.0,492.0,532.0,504.0
496.0,516.0,526.0,502.0
492.0,523.0,520.0,502.0
494.0,518.0,515.0,502.0
502.0,532.0,513.0,501.0
508.0,522.0,506.0,506.0
523.0,491.0,506.0,510.0
524.0,491.0,506.0,516.0
522.0,479.0,498.0,519.0
510.0,494.0,490.0,519.0
497.0,512.0,487.0,518.0
506.0,503.0,490.0,519.0
502.0,506.0,497.0,519.0
508.0,512.0,506.0,514.0
522.0,486.0,521.0,516.0
534.0,475.0,528.0,514.0
528.0,475.0,533.0,512.0
519.0,477.0,532.0,510.0
503.0,507.0,525.0,504.0
504.0,510.0,522.0,508.0
491.0,535.0,519.0,506.0
502.0,519.0,515.0,507.0
509.0,507.0,509.0,511.0
525.0,490.0,506.0,513.0
523.0,499.0,502.0,521.0
524.0,504.0,495.0,523.0
509.0,533.0,488.0,523.0
507.0,532.0,486.0,521.0
502.0,527.0,493.0,517.0
505.0,519.0,494.0,517.0
509.0,508.0,503.0,517.0
528.0,484.0,527.0,515.0
534.0,476.0,534.0,518.0
528.0,490.0,540.0,520.0
509.0,502.0,536.0,518.0
491.0,505.0,518.0,511.0
497.0,507.0,515.0,506.0
500.0,530.0,511.0,508.0
499.0,530.0,518.0,511.0
515.0,489.0,524.0,521.0
521.0,479.0,516.0,524.0
520.0,475.0,495.0,518.0
517.0,488.0,485.0,516.0
494.0,536.0,477.0,518.0
504.0,533.0,485.0,516.0
505.0,521.0,494.0,518.0
508.0,506.0,505.0,516.0
522.0,501.0,512.0,511.0
533.0,480.0,524.0,507.0
529.0,482.0,529.0,507.0
521.0,493.0,529.0,504.0
499.0,511.0,521.0,502.0
491.0,509.0,519.0,504.0
504.0,478.0,518.0,503.0
506.0,496.0,517.0,510.0
501.0,525.0,510.0,509.0
522.0,489.0,509.0,514.0
526.0,488.0,507.0,517.0
523.0,505.0,503.0,520.0
506.0,548.0,484.0,521.0
497.0,522.0,484.0,520.0
510.0,508.0,489.0,519.0
495.0,524.0,495.0,515.0
506.0,505.0,502.0,514.0
529.0,479.0,525.0,515.0
530.0,474.0,531.0,515.0
527.0,470.0,531.0,507.0
516.0,477.0,530.0,510.0
495.0,518.0,523.0,508.0
497.0,521.0,525.0,506.0
500.0,516.0,526.0,509.0
503.0,511.0,516.0,512.0
509.0,513.0,507.0,515.0
523.0,493.0,507.0,517.0
521.0,487.0,497.0,518.0
517.0,492.0,491.0,513.0
499.0,527.0,482.0,516.0
503.0,521.0,482.0,520.0
503.0,521.0,489.0,521.0
503.0,519.0,506.0,524.0
511.0,499.0,518.0,523.0
526.0,463.0,533.0,520.0
527.0,473.0,532.0,509.0
521.0,479.0,536.0,505.0
507.0,494.0,524.0,499.0
491.0,523.0,518.0,504.0
494.0,546.0,515.0,502.0
489.0,563.0,512.0,504.0
490.0,557.0,506.0,505.0
510.0,519.0,503.0,506.0
533.0,465.0,500.0,513.0
538.0,458.0,497.0,513.0
522.0,490.0,492.0,518.0
508.0,519.0,486.0,521.0
507.0,517.0,495.0,520.0
502.0,533.0,491.0,517.0
513.0,504.0,500.0,521.0
520.0,489.0,514.0,519.0
533.0,475.0,522.0,513.0
529.0,477.0,529.0,512.0
523.0,473.0,532.0,508.0
504.0,507.0,526.0,506.0
498.0,503.0,522.0,508.0
505.0,512.0,515.0,507.0
496.0,504.0,509.0,511.0
496.0,493.0,504.0,518.0
519.0,463.0,513.0,522.0
524.0,504.0,521.0,529.0
518.0,531.0,525.0,532.0
508.0,530.0,500.0,525.0
494.0,549.0,486.0,520.0
503.0,534.0,484.0,521.0
502.0,533.0,490.0,517.0
508.0,510.0,497.0,515.0
523.0,491.0,513.0,509.0
533.0,472.0,528.0,507.0
527.0,473.0,537.0,504.0
518.0,497.0,535.0,507.0
495.0,538.0,529.0,508.0
497.0,522.0,521.0,508.0
499.0,534.0,517.0,511.0
503.0,512.0,513.0,506.0
513.0,489.0,507.0,513.0
524.0,489.0,505.0,516.0
526.0,486.0,497.0,512.0
522.0,482.0,489.0,515.0
504.0,513.0,484.0,517.0
505.0,506.0,489.0,516.0
504.0,507.0,492.0,518.0
502.0,510.0,489.0,518.0
510.0,512.0,504.0,519.0
528.0,480.0,522.0,513.0
530.0,483.0,533.0,512.0
524.0,495.0,538.0,519.0
508.0,540.0,539.0,514.0
493.0,566.0,538.0,513.0
496.0,543.0,528.0,508.0
502.0,477.0,511.0,500.0
499.0,500.0,501.0,505.0
512.0,488.0,505.0,505.0
517.0,470.0,496.0,507.0
519.0,476.0,497.0,516.0
515.0,492.0,490.0,519.0
496.0,521.0,483.0,519.0
508.0,518.0,489.0,518.0
505.0,511.0,492.0,519.0
509.0,502.0,500.0,518.0
522.0,492.0,510.0,515.0
531.0,472.0,531.0,512.0
529.0,467.0,539.0,510.0
524.0,475.0,535.0,514.0
502.0,511.0,525.0,506.0
497.0,524.0,523.0,507.0
501.0,518.0,519.0,508.0
493.0,519.0,519.0,508.0
502.0,518.0,511.0,508.0
520.0,503.0,506.0,512.0
523.0,485.0,499.0,515.0
524.0,497.0,498.0,521.0
512.0,520.0,495.0,523.0
499.0,548.0,484.0,522.0
503.0,538.0,489.0,518.0
502.0,490.0,497.0,519.0
509.0,483.0,511.0,520.0
523.0,478.0,527.0,520.0
529.0,478.0,537.0,519.0
524.0,483.0,542.0,512.0
520.0,501.0,535.0,509.0
501.0,514.0,526.0,507.0
503.0,501.0,520.0,502.0
502.0,504.0,516.0,503.0
501.0,515.0,509.0,502.0
501.0,549.0,503.0,505.0
520.0,511.0,505.0,513.0
524.0,506.0,497.0,516.0
519.0,511.0,496.0,521.0
502.0,535.0,490.0,522.0
504.0,526.0,490.0,521.0
507.0,521.0,493.0,516.0
505.0,525.0,498.0,515.0
507.0,513.0,506.0,518.0
522.0,493.0,523.0,513.0
520.0,487.0,531.0,511.0
518.0,467.0,531.0,507.0
510.0,502.0,527.0,502.0
504.0,502.0,525.0,508.0
499.0,502.0,523.0,507.0
491.0,538.0,517.0,516.0
497.0,524.0,515.0,522.0
519.0,490.0,510.0,520.0
526.0,483.0,508.0,525.0
522.0,465.0,505.0,520.0
518.0,490.0,496.0,522.0
502.0,518.0,490.0,520.0
504.0,512.0,489.0,513.0
506.0,516.0,490.0,511.0
506.0,510.0,496.0,509.0
516.0,494.0,509.0,509.0
524.0,480.0,522.0,513.0
523.0,479.0,530.0,507.0
517.0,491.0,534.0,506.0
502.0,514.0,525.0,508.0
500.0,524.0,520.0,501.0
502.0,511.0,519.0,499.0
498.0,522.0,511.0,503.0
503.0,506.0,504.0,505.0
518.0,474.0,505.0,511.0
517.0,468.0,504.0,517.0
514.0,471.0,498.0,523.0
504.0,503.0,491.0,528.0
501.0,519.0,490.0,530.0
510.0,519.0,495.0,525.0
504.0,527.0,497.0,518.0
521.0,523.0,503.0,509.0
536.0,500.0,519.0,511.0
536.0,478.0,530.0,510.0
528.0,485.0,538.0,512.0
522.0,494.0,537.0,510.0
504.0,515.0,529.0,509.0
504.0,512.0,524.0,506.0
488.0,540.0,516.0,503.0
489.0,541.0,508.0,504.0
499.0,529.0,505.0,507.0
522.0,491.0,506.0,512.0
524.0,481.0,497.0,516.0
521.0,488.0,491.0,524.0
504.0,518.0,480.0,525.0
504.0,514.0,484.0,521.0
515.0,499.0,495.0,517.0
506.0,509.0,500.0,518.0
512.0,495.0,519.0,516.0
528.0,479.0,533.0,511.0
519.0,503.0,532.0,511.0
516.0,506.0,534.0,510.0
503.0,519.0,532.0,508.0
493.0,458.0,529.0,514.0
502.0,450.0,527.0,513.0
499.0,492.0,521.0,514.0
501.0,518.0,514.0,518.0
522.0,535.0,522.0,520.0
530.0,525.0,511.0,523.0
527.0,495.0,498.0,528.0
520.0,500.0,495.0,527.0
499.0,521.0,490.0,521.0
499.0,526.0,496.0,523.0
509.0,508.0,500.0,522.0
518.0,506.0,505.0,516.0
519.0,501.0,521.0,515.0
525.0,486.0,520.0,505.0
526.0,475.0,526.0,504.0
524.0,471.0,532.0,504.0
498.0,528.0,529.0,503.0
493.0,531.0,521.0,503.0
506.0,517.0,521.0,499.0
506.0,520.0,515.0,502.0
505.0,511.0,505.0,500.0
518.0,492.0,503.0,506.0
523.0,486.0,500.0,511.0
524.0,487.0,494.0,517.0
514.0,512.0,493.0,517.0
495.0,526.0,488.0,522.0
508.0,508.0,491.0,520.0
499.0,507.0,494.0,519.0
503.0,478.0,506.0,519.0
524.0,446.0,525.0,511.0
538.0,461.0,521.0,512.0
529.0,506.0,529.0,513.0
517.0,531.0,538.0,517.0
499.0,539.0,533.0,519.0
497.0,533.0,529.0,513.0
493.0,542.0,531.0,518.0
496.0,526.0,523.0,517.0
506.0,503.0,515.0,513.0
524.0,475.0,504.0,510.0
522.0,460.0,494.0,511.0
525.0,502.0,487.0,510.0
504.0,547.0,483.0,513.0
500.0,536.0,485.0,515.0
503.0,515.0,490.0,515.0
509.0,502.0,499.0,516.0
515.0,493.0,508.0,516.0
531.0,459.0,524.0,514.0
531.0,476.0,529.0,513.0
522.0,504.0,532.0,511.0
511.0,516.0,532.0,509.0
504.0,513.0,529.0,511.0
502.0,520.0,525.0,515.0
495.0,529.0,521.0,506.0
500.0,506.0,512.0,510.0
514.0,469.0,507.0,510.0
524.0,466.0,503.0,511.0
524.0,477.0,496.0,515.0
520.0,509.0,492.0,520.0
500.0,541.0,486.0,521.0
505.0,521.0,490.0,519.0
503.0,526.0,492.0,518.0
510.0,516.0,500.0,516.0
525.0,506.0,515.0,514.0
529.0,495.0,526.0,511.0
527.0,481.0,531.0,508.0
519.0,493.0,534.0,506.0
499.0,547.0,527.0,506.0
488.0,554.0,524.0,507.0
499.0,494.0,521.0,506.0
497.0,499.0,509.0,508.0
504.0,510.0,509.0,512.0
522.0,476.0,507.0,514.0
524.0,482.0,506.0,517.0
522.0,484.0,501.0,523.0
507.0,502.0,491.0,526.0
500.0,513.0,490.0,524.0
504.0,505.0,494.0,522.0
502.0,514.0,497.0,520.0
507.0,504.0,504.0,518.0
525.0,485.0,521.0,518.0
528.0,477.0,531.0,514.0
528.0,481.0,536.0,514.0
520.0,496.0,539.0,510.0
502.0,522.0,532.0,507.0
509.0,507.0,526.0,507.0
505.0,506.0,520.0,510.0
506.0,509.0,511.0,509.0
509.0,509.0,503.0,506.0
524.0,483.0,500.0,512.0
524.0,480.0,498.0,516.0
521.0,488.0,496.0,518.0
497.0,522.0,490.0,520.0
497.0,523.0,493.0,520.0
505.0,523.0,497.0,519.0
504.0,523.0,498.0,517.0
517.0,514.0,506.0,518.0
527.0,474.0,526.0,523.0
534.0,454.0,549.0,523.0
526.0,468.0,552.0,521.0
503.0,517.0,533.0,511.0
492.0,537.0,531.0,506.0
497.0,524.0,524.0,499.0
493.0,541.0,514.0,491.0
497.0,513.0,505.0,500.0
514.0,478.0,504.0,507.0
525.0,476.0,503.0,512.0
527.0,483.0,493.0,516.0
517.0,489.0,489.0,519.0
501.0,516.0,482.0,521.0
502.0,510.0,489.0,520.0
498.0,509.0,495.0,523.0
508.0,490.0,513.0,523.0
515.0,484.0,520.0,520.0
527.0,482.0,528.0,517.0
524.0,459.0,533.0,504.0
534.0,481.0,529.0,504.0
504.0,556.0,520.0,502.0
498.0,533.0,522.0,501.0
501.0,523.0,525.0,505.0
497.0,536.0,521.0,506.0
501.0,539.0,510.0,508.0
517.0,509.0,503.0,513.0
521.0,508.0,499.0,515.0
525.0,479.0,494.0,519.0
513.0,503.0,487.0,524.0
498.0,536.0,489.0,521.0
507.0,495.0,493.0,519.0
508.0,474.0,497.0,517.0
509.0,470.0,506.0,515.0
531.0,467.0,518.0,512.0
530.0,494.0,531.0,512.0
527.0,517.0,536.0,509.0
516.0,495.0,534.0,510.0
498.0,508.0,526.0,508.0
497.0,519.0,521.0,512.0
496.0,521.0,524.0,511.0
496.0,534.0,518.0,509.0
502.0,516.0,513.0,517.0
520.0,491.0,515.0,518.0
519.0,491.0,508.0,523.0
517.0,495.0,495.0,523.0
504.0,517.0,494.0,525.0
501.0,515.0,494.0,523.0
502.0,510.0,492.0,517.0
505.0,530.0,496.0,513.0
511.0,503.0,502.0,509.0
529.0,475.0,514.0,508.0
531.0,472.0,527.0,511.0
525.0,478.0,532.0,509.0
509.0,511.0,530.0,510.0
496.0,535.0,529.0,509.0
501.0,520.0,532.0,507.0
492.0,528.0,521.0,505.0
493.0,532.0,506.0,506.0
514.0,487.0,500.0,506.0
524.0,480.0,498.0,510.0
524.0,484.0,492.0,517.0
518.0,493.0,488.0,521.0
499.0,529.0,489.0,520.0
501.0,521.0,496.0,525.0
505.0,517.0,499.0,516.0
507.0,519.0,502.0,515.0
520.0,505.0,516.0,513.0
529.0,479.0,536.0,515.0
531.0,475.0,542.0,513.0
525.0,475.0,535.0,511.0
504.0,499.0,526.0,505.0
494.0,520.0,522.0,504.0
497.0,526.0,520.0,509.0
496.0,522.0,519.0,506.0
502.0,507.0,510.0,513.0
521.0,480.0,508.0,509.0
522.0,484.0,507.0,511.0
518.0,487.0,498.0,524.0
508.0,515.0,488.0,524.0
504.0,525.0,488.0,517.0
510.0,521.0,492.0,521.0
504.0,529.0,497.0,515.0
513.0,497.0,505.0,516.0
532.0,445.0,519.0,509.0
535.0,457.0,527.0,510.0
531.0,472.0,536.0,509.0
521.0,486.0,532.0,511.0
496.0,528.0,525.0,512.0
495.0,542.0,526.0,509.0
495.0,528.0,523.0,507.0
493.0,517.0,514.0,510.0
502.0,506.0,509.0,512.0
519.0,476.0,507.0,516.0
519.0,485.0,499.0,519.0
515.0,489.0,493.0,520.0
506.0,512.0,485.0,521.0
507.0,535.0,487.0,520.0
512.0,518.0,493.0,521.0
509.0,506.0,503.0,521.0
514.0,498.0,511.0,520.0
536.0,467.0,528.0,512.0
528.0,477.0,536.0,511.0
526.0,476.0,537.0,510.0
513.0,493.0,532.0,510.0
492.0,528.0,527.0,508.0
497.0,504.0,521.0,507.0
496.0,515.0,518.0,506.0
502.0,505.0,511.0,507.0
517.0,505.0,513.0,513.0
526.0,514.0,506.0,516.0
524.0,502.0,498.0,518.0
516.0,499.0,489.0,521.0
500.0,525.0,483.0,523.0
509.0,525.0,486.0,520.0
505.0,534.0,495.0,520.0
511.0,515.0,505.0,519.0
522.0,494.0,521.0,518.0
535.0,473.0,536.0,512.0
533.0,481.0,534.0,508.0
531.0,488.0,532.0,503.0
507.0,533.0,523.0,501.0
499.0,551.0,520.0,503.0
498.0,528.0,519.0,502.0
484.0,540.0,512.0,504.0
491.0,466.0,508.0,510.0
511.0,452.0,506.0,512.0
511.0,478.0,498.0,515.0
522.0,492.0,495.0,521.0
509.0,514.0,493.0,520.0
508.0,543.0,497.0,527.0
515.0,519.0,500.0,530.0
508.0,520.0,502.0,525.0
509.0,504.0,509.0,524.0
526.0,473.0,524.0,518.0
531.0,484.0,529.0,512.0
524.0,484.0,529.0,509.0
515.0,493.0,528.0,505.0
489.0,533.0,523.0,503.0
497.0,529.0,521.0,501.0
499.0,520.0,518.0,503.0
498.0,516.0,516.0,507.0
504.0,505.0,508.0,509.0
519.0,486.0,504.0,517.0
526.0,489.0,501.0,523.0
524.0,491.0,494.0,522.0
498.0,534.0,484.0,525.0
501.0,511.0,491.0,527.0
508.0,499.0,495.0,524.0
504.0,511.0,494.0,517.0
511.0,498.0,510.0,515.0
528.0,475.0,525.0,510.0
526.0,477.0,532.0,509.0
521.0,485.0,535.0,508.0
505.0,517.0,529.0,508.0
493.0,535.0,521.0,507.0
504.0,517.0,518.0,506.0
503.0,521.0,518.0,509.0
495.0,527.0,512.0,511.0
513.0,452.0,516.0,513.0
520.0,461.0,512.0,520.0
524.0,500.0,504.0,521.0
521.0,518.0,489.0,520.0
506.0,522.0,483.0,517.0
506.0,506.0,483.0,515.0
507.0,500.0,491.0,516.0
503.0,515.0,501.0,514.0
516.0,495.0,513.0,510.0
532.0,467.0,532.0,510.0
532.0,479.0,529.0,509.0
521.0,491.0,530.0,505.0
502.0,523.0,522.0,506.0
500.0,529.0,521.0,505.0
502.0,526.0,520.0,503.0
499.0,525.0,515.0,509.0
501.0,517.0,512.0,512.0
519.0,489.0,514.0,516.0
521.0,492.0,502.0,521.0
521.0,496.0,497.0,521.0
510.0,519.0,490.0,522.0
503.0,528.0,491.0,522.0
507.0,516.0,497.0,522.0
502.0,518.0,498.0,515.0
506.0,502.0,507.0,516.0
526.0,475.0,519.0,515.0
529.0,467.0,533.0,511.0
523.0,484.0,539.0,514.0
515.0,502.0,539.0,512.0
500.0,520.0,533.0,507.0
499.0,522.0,525.0,504.0
503.0,516.0,517.0,504.0
497.0,532.0,510.0,507.0
503.0,523.0,503.0,513.0
521.0,489.0,506.0,520.0
525.0,494.0,502.0,525.0
527.0,510.0,497.0,527.0
509.0,516.0,493.0,522.0
500.0,523.0,494.0,517.0
499.0,517.0,493.0,517.0
505.0,505.0,493.0,517.0
515.0,498.0,502.0,516.0
531.0,470.0,516.0,516.0
531.0,468.0,528.0,514.0
523.0,485.0,535.0,516.0
509.0,510.0,534.0,514.0
496.0,539.0,539.0,514.0
503.0,521.0,531.0,507.0
493.0,539.0,513.0,505.0
494.0,526.0,505.0,504.0
512.0,512.0,504.0,506.0
520.0,506.0,503.0,506.0
517.0,500.0,497.0,506.0
508.0,516.0,490.0,516.0
498.0,520.0,484.0,519.0
504.0,496.0,488.0,513.0
504.0,502.0,494.0,516.0
502.0,506.0,500.0,517.0
512.0,495.0,516.0,513.0
525.0,488.0,530.0,512.0
522.0,508.0,536.0,509.0
513.0,520.0,542.0,511.0
506.0,497.0,529.0,510.0
498.0,505.0,527.0,508.0
502.0,467.0,520.0,508.0
501.0,493.0,512.0,511.0
505.0,512.0,508.0,509.0
523.0,482.0,508.0,512.0
521.0,489.0,500.0,519.0
521.0,490.0,497.0,518.0
511.0,509.0,495.0,525.0
498.0,527.0,492.0,520.0
501.0,519.0,490.0,514.0
502.0,522.0,501.0,517.0
508.0,506.0,506.0,513.0
527.0,476.0,520.0,510.0
531.0,471.0,534.0,511.0
525.0,475.0,538.0,510.0
521.0,487.0,534.0,506.0
501.0,516.0,527.0,511.0
502.0,508.0,524.0,514.0
498.0,512.0,520.0,514.0
490.0,515.0,518.0,517.0
497.0,510.0,512.0,518.0
515.0,490.0,510.0,517.0
520.0,483.0,506.0,521.0
517.0,484.0,507.0,525.0
501.0,520.0,501.0,527.0
505.0,529.0,502.0,530.0
508.0,535.0,497.0,523.0
497.0,532.0,502.0,515.0
507.0,508.0,505.0,511.0
526.0,493.0,520.0,505.0
534.0,489.0,523.0,500.0
536.0,481.0,526.0,495.0
518.0,500.0,525.0,500.0
502.0,516.0,527.0,506.0
505.0,505.0,520.0,504.0
507.0,523.0,518.0,509.0
506.0,532.0,517.0,512.0
518.0,507.0,508.0,515.0
527.0,491.0,507.0,513.0
523.0,493.0,502.0,515.0
515.0,502.0,490.0,517.0
498.0,539.0,482.0,515.0
501.0,528.0,488.0,516.0
506.0,519.0,493.0,510.0
505.0,511.0,499.0,513.0
516.0,498.0,515.0,510.0
529.0,466.0,526.0,511.0
531.0,460.0,533.0,509.0
527.0,491.0,535.0,509.0
507.0,517.0,529.0,509.0
501.0,520.0,523.0,511.0
502.0,522.0,526.0,515.0
497.0,535.0,522.0,522.0
502.0,524.0,518.0,523.0
519.0,496.0,514.0,520.0
518.0,501.0,503.0,514.0
519.0,499.0,490.0,514.0
503.0,529.0,483.0,515.0
489.0,549.0,482.0,515.0
506.0,501.0,491.0,515.0
503.0,533.0,492.0,515.0
510.0,518.0,510.0,516.0
528.0,474.0,523.0,512.0
533.0,444.0,528.0,509.0
529.0,451.0,532.0,508.0
523.0,473.0,532.0,507.0
506.0,505.0,526.0,508.0
505.0,511.0,525.0,508.0
502.0,504.0,518.0,509.0
502.0,507.0,513.0,512.0
510.0,492.0,514.0,513.0
523.0,490.0,508.0,516.0
526.0,486.0,501.0,518.0
518.0,506.0,492.0,520.0
499.0,536.0,489.0,523.0
492.0,543.0,490.0,522.0
498.0,519.0,504.0,524.0
503.0,521.0,502.0,521.0
505.0,513.0,513.0,519.0
527.0,476.0,527.0,514.0
527.0,479.0,529.0,504.0
521.0,484.0,536.0,505.0
504.0,526.0,534.0,507.0
491.0,525.0,524.0,505.0
500.0,520.0,528.0,506.0
503.0,504.0,523.0,511.0
502.0,512.0,514.0,516.0
513.0,509.0,511.0,518.0
522.0,484.0,508.0,517.0
519.0,477.0,498.0,519.0
518.0,487.0,490.0,520.0
498.0,517.0,486.0,521.0
500.0,515.0,484.0,518.0
506.0,507.0,493.0,518.0
504.0,502.0,501.0,519.0
514.0,492.0,515.0,517.0
526.0,473.0,529.0,517.0
525.0,484.0,541.0,519.0
523.0,493.0,543.0,515.0
504.0,513.0,541.0,514.0
493.0,529.0,534.0,511.0
499.0,518.0,526.0,508.0
497.0,520.0,517.0,504.0
503.0,505.0,507.0,507.0
522.0,485.0,505.0,510.0
518.0,492.0,499.0,511.0
520.0,489.0,492.0,516.0
508.0,526.0,487.0,517.0
494.0,528.0,488.0,519.0
503.0,484.0,491.0,517.0
503.0,492.0,493.0,515.0
513.0,510.0,502.0,512.0
526.0,496.0,516.0,508.0
531.0,491.0,528.0,507.0
529.0,480.0,533.0,505.0
518.0,494.0,531.0,503.0
497.0,522.0,526.0,506.0
493.0,516.0,523.0,507.0
496.0,525.0,520.0,506.0
495.0,526.0,514.0,506.0
505.0,510.0,509.0,509.0
520.0,491.0,509.0,511.0
524.0,492.0,501.0,529.0
522.0,496.0,493.0,526.0
503.0,534.0,489.0,527.0
501.0,537.0,492.0,528.0
511.0,518.0,497.0,526.0
513.0,526.0,503.0,522.0
525.0,477.0,513.0,519.0
534.0,454.0,530.0,512.0
529.0,460.0,533.0,506.0
521.0,465.0,531.0,502.0
507.0,487.0,527.0,503.0
499.0,530.0,523.0,506.0
505.0,522.0,519.0,505.0
498.0,528.0,522.0,508.0
500.0,540.0,515.0,511.0
515.0,525.0,515.0,517.0
523.0,512.0,508.0,517.0
519.0,492.0,498.0,518.0
515.0,489.0,491.0,518.0
502.0,520.0,483.0,514.0
502.0,526.0,486.0,515.0
498.0,522.0,491.0,517.0
510.0,506.0,502.0,513.0
523.0,489.0,512.0,509.0
530.0,467.0,523.0,511.0
531.0,472.0,530.0,508.0
524.0,490.0,536.0,509.0
499.0,530.0,528.0,510.0
497.0,530.0,522.0,511.0
500.0,526.0,520.0,516.0
499.0,523.0,512.0,517.0
508.0,515.0,506.0,518.0
524.0,486.0,508.0,516.0
526.0,479.0,516.0,522.0
524.0,480.0,505.0,521.0
511.0,504.0,491.0,525.0
497.0,521.0,489.0,522.0
502.0,515.0,495.0,523.0
510.0,507.0,497.0,518.0
515.0,499.0,505.0,509.0
528.0,474.0,522.0,509.0
534.0,462.0,528.0,508.0
527.0,467.0,525.0,501.0
520.0,480.0,536.0,507.0
499.0,513.0,525.0,508.0
498.0,514.0,523.0,509.0
496.0,518.0,522.0,507.0
496.0,520.0,515.0,509.0
506.0,512.0,512.0,511.0
518.0,507.0,511.0,513.0
522.0,510.0,503.0,510.0
519.0,513.0,489.0,512.0
491.0,564.0,482.0,520.0
495.0,504.0,486.0,516.0
504.0,509.0,491.0,518.0
500.0,523.0,497.0,516.0
513.0,510.0,508.0,515.0
532.0,467.0,524.0,511.0
530.0,473.0,530.0,513.0
531.0,476.0,541.0,512.0
510.0,492.0,535.0,512.0
493.0,519.0,533.0,512.0
498.0,510.0,534.0,511.0
500.0,521.0,515.0,503.0
506.0,521.0,508.0,505.0
516.0,499.0,501.0,506.0
522.0,480.0,502.0,506.0
518.0,495.0,498.0,516.0
510.0,520.0,487.0,518.0
500.0,542.0,485.0,520.0
501.0,531.0,488.0,521.0
501.0,519.0,495.0,519.0
504.0,508.0,502.0,518.0
519.0,495.0,513.0,518.0
528.0,471.0,530.0,516.0
530.0,469.0,539.0,516.0
524.0,489.0,539.0,512.0
497.0,537.0,531.0,511.0
501.0,546.0,527.0,512.0
499.0,536.0,522.0,510.0
503.0,501.0,514.0,508.0
507.0,472.0,509.0,510.0
521.0,465.0,504.0,513.0
522.0,469.0,500.0,514.0
525.0,467.0,492.0,518.0
509.0,518.0,487.0,522.0
493.0,536.0,486.0,523.0
500.0,517.0,486.0,520.0
502.0,536.0,497.0,519.0
506.0,534.0,507.0,517.0
527.0,491.0,522.0,513.0
535.0,478.0,534.0,513.0
529.0,486.0,544.0,520.0
517.0,495.0,539.0,515.0
500.0,518.0,526.0,510.0
496.0,513.0,522.0,508.0
506.0,496.0,520.0,513.0
508.0,503.0,513.0,508.0
512.0,507.0,508.0,507.0
522.0,489.0,504.0,511.0
522.0,492.0,497.0,514.0
520.0,494.0,493.0,515.0
502.0,517.0,488.0,518.0
505.0,512.0,489.0,519.0
502.0,514.0,495.0,517.0
507.0,510.0,496.0,515.0
510.0,507.0,507.0,511.0
530.0,477.0,521.0,511.0
530.0,474.0,536.0,512.0
526.0,483.0,538.0,511.0
507.0,511.0,533.0,512.0
497.0,523.0,530.0,515.0
497.0,522.0,523.0,511.0
499.0,525.0,519.0,508.0
499.0,520.0,509.0,506.0
516.0,490.0,506.0,507.0
523.0,478.0,499.0,515.0
524.0,479.0,498.0,519.0
515.0,505.0,492.0,520.0
502.0,520.0,491.0,523.0
505.0,515.0,495.0,518.0
510.0,510.0,490.0,512.0
513.0,507.0,504.0,517.0
521.0,485.0,517.0,516.0
527.0,462.0,527.0,513.0
528.0,465.0,538.0,508.0
522.0,475.0,539.0,513.0
501.0,505.0,533.0,511.0
495.0,534.0,528.0,513.0
499.0,527.0,526.0,515.0
494.0,532.0,519.0,510.0
503.0,520.0,513.0,513.0
522.0,496.0,511.0,519.0
522.0,490.0,504.0,520.0
520.0,496.0,495.0,520.0
510.0,516.0,488.0,518.0
498.0,530.0,483.0,513.0
500.0,519.0,484.0,511.0
505.0,516.0,492.0,509.0
513.0,508.0,504.0,511.0
526.0,478.0,515.0,512.0
526.0,464.0,534.0,512.0
526.0,470.0,535.0,510.0
517.0,479.0,532.0,509.0
505.0,521.0,524.0,502.0
504.0,520.0,523.0,503.0
504.0,509.0,518.0,503.0
498.0,523.0,509.0,505.0
502.0,536.0,503.0,508.0
513.0,523.0,511.0,516.0
520.0,527.0,499.0,520.0
513.0,546.0,497.0,520.0
507.0,453.0,490.0,522.0
501.0,482.0,492.0,523.0
506.0,490.0,494.0,516.0
513.0,484.0,496.0,517.0
520.0,524.0,510.0,517.0
535.0,470.0,524.0,521.0
531.0,480.0,535.0,518.0
523.0,481.0,541.0,516.0
508.0,506.0,535.0,511.0
499.0,522.0,523.0,507.0
506.0,535.0,517.0,507.0
499.0,530.0,512.0,510.0
500.0,527.0,512.0,512.0
508.0,501.0,510.0,514.0
519.0,490.0,510.0,521.0
520.0,497.0,506.0,520.0
513.0,514.0,496.0,524.0
496.0,529.0,491.0,523.0
502.0,516.0,488.0,519.0
504.0,515.0,492.0,510.0
501.0,522.0,493.0,509.0
509.0,503.0,507.0,513.0
525.0,480.0,522.0,510.0
524.0,480.0,534.0,510.0
529.0,476.0,535.0,507.0
518.0,492.0,526.0,505.0
502.0,502.0,517.0,504.0
497.0,519.0,517.0,505.0
496.0,507.0,514.0,506.0
507.0,493.0,509.0,509.0
521.0,476.0,505.0,514.0
520.0,490.0,498.0,516.0
522.0,502.0,499.0,521.0
514.0,550.0,486.0,517.0
498.0,556.0,484.0,522.0
502.0,531.0,495.0,523.0
501.0,527.0,500.0,519.0
508.0,515.0,503.0,517.0
528.0,485.0,521.0,513.0
531.0,480.0,531.0,509.0
528.0,483.0,536.0,514.0
519.0,499.0,535.0,513.0
499.0,526.0,527.0,511.0
493.0,533.0,525.0,515.0
503.0,509.0,525.0,509.0
496.0,522.0,517.0,515.0
509.0,511.0,511.0,519.0
523.0,483.0,503.0,520.0
523.0,486.0,501.0,520.0
521.0,492.0,496.0,524.0
505.0,521.0,488.0,521.0
501.0,520.0,492.0,518.0
504.0,514.0,492.0,512.0
506.0,511.0,496.0,515.0
509.0,501.0,505.0,513.0
526.0,474.0,520.0,512.0
525.0,472.0,532.0,508.0
526.0,473.0,535.0,509.0
507.0,508.0,529.0,511.0
492.0,536.0,526.0,508.0
498.0,521.0,527.0,510.0
506.0,511.0,518.0,510.0
500.0,514.0,512.0,508.0
514.0,487.0,508.0,512.0
521.0,484.0,500.0,512.0
520.0,486.0,494.0,516.0
520.0,498.0,488.0,515.0
503.0,527.0,486.0,518.0
506.0,521.0,488.0,518.0
505.0,517.0,493.0,517.0
505.0,516.0,506.0,519.0
517.0,490.0,517.0,516.0
531.0,473.0,528.0,512.0
528.0,479.0,535.0,512.0
521.0,502.0,539.0,512.0
509.0,529.0,529.0,510.0
496.0,552.0,529.0,512.0
497.0,541.0,524.0,504.0
496.0,495.0,525.0,510.0
503.0,500.0,510.0,512.0
521.0,485.0,508.0,513.0
520.0,490.0,502.0,514.0
523.0,486.0,497.0,515.0
511.0,502.0,490.0,519.0
498.0,512.0,490.0,522.0
505.0,512.0,496.0,520.0
509.0,501.0,501.0,518.0
512.0,490.0,504.0,518.0
529.0,472.0,519.0,513.0
530.0,468.0,530.0,510.0
530.0,493.0,535.0,504.0
512.0,518.0,533.0,506.0
492.0,548.0,524.0,505.0
499.0,527.0,524.0,504.0
505.0,509.0,519.0,503.0
501.0,504.0,512.0,508.0
511.0,469.0,507.0,508.0
522.0,454.0,507.0,516.0
524.0,478.0,502.0,525.0
520.0,504.0,495.0,527.0
503.0,534.0,492.0,530.0
493.0,527.0,498.0,527.0
494.0,536.0,505.0,520.0
507.0,519.0,504.0,519.0
512.0,514.0,510.0,517.0
530.0,492.0,524.0,515.0
533.0,434.0,525.0,510.0
537.0,453.0,530.0,511.0
521.0,498.0,528.0,506.0
500.0,559.0,521.0,509.0
499.0,560.0,523.0,504.0
503.0,525.0,525.0,508.0
498.0,516.0,514.0,507.0
511.0,496.0,510.0,516.0
522.0,478.0,505.0,519.0
525.0,497.0,501.0,521.0
515.0,511.0,489.0,517.0
497.0,535.0,484.0,519.0
498.0,517.0,485.0,518.0
505.0,512.0,493.0,516.0
510.0,491.0,498.0,516.0
522.0,471.0,511.0,513.0
533.0,452.0,526.0,508.0
533.0,457.0,532.0,508.0
525.0,481.0,537.0,511.0
499.0,555.0,528.0,512.0
488.0,559.0,530.0,514.0
496.0,549.0,528.0,515.0
491.0,568.0,524.0,518.0
497.0,528.0,512.0,517.0
519.0,457.0,517.0,517.0
521.0,479.0,507.0,515.0
520.0,489.0,488.0,509.0
511.0,523.0,479.0,512.0
502.0,546.0,484.0,516.0
508.0,521.0,490.0,519.0
510.0,502.0,494.0,518.0
510.0,486.0,503.0,514.0
528.0,456.0,516.0,511.0
532.0,458.0,530.0,508.0
527.0,496.0,535.0,506.0
520.0,501.0,537.0,507.0
496.0,532.0,527.0,503.0
498.0,545.0,525.0,505.0
499.0,548.0,519.0,506.0
503.0,520.0,509.0,509.0
510.0,501.0,507.0,511.0
524.0,478.0,513.0,515.0
525.0,481.0,505.0,515.0
521.0,489.0,499.0,521.0
503.0,525.0,491.0,524.0
499.0,526.0,492.0,525.0
503.0,515.0,498.0,519.0
505.0,511.0,499.0,514.0
513.0,501.0,507.0,508.0
530.0,470.0,525.0,510.0
526.0,467.0,533.0,512.0
516.0,476.0,536.0,508.0
501.0,504.0,529.0,507.0
490.0,517.0,521.0,504.0
492.0,509.0,523.0,505.0
495.0,512.0,518.0,505.0
495.0,513.0,504.0,507.0
519.0,496.0,501.0,508.0
531.0,486.0,499.0,518.0
524.0,483.0,495.0,521.0
520.0,521.0,492.0,525.0
503.0,552.0,492.0,525.0
500.0,534.0,497.0,527.0
504.0,516.0,514.0,526.0
509.0,514.0,519.0,521.0
520.0,494.0,518.0,515.0
534.0,471.0,523.0,510.0
532.0,480.0,530.0,507.0
520.0,488.0,529.0,504.0
496.0,528.0,523.0,501.0
485.0,538.0,518.0,504.0
497.0,517.0,520.0,502.0
505.0,513.0,512.0,506.0
505.0,509.0,510.0,509.0
522.0,491.0,507.0,509.0
520.0,491.0,503.0,518.0
523.0,491.0,497.0,523.0
505.0,517.0,491.0,524.0
499.0,528.0,491.0,526.0
502.0,525.0,490.0,520.0
507.0,518.0,497.0,519.0
507.0,508.0,505.0,517.0
526.0,474.0,520.0,513.0
532.0,468.0,532.0,513.0
529.0,474.0,536.0,512.0
522.0,489.0,533.0,509.0
502.0,529.0,526.0,505.0
495.0,529.0,528.0,505.0
495.0,520.0,517.0,503.0
495.0,523.0,511.0,509.0
507.0,507.0,507.0,507.0
528.0,487.0,505.0,514.0
522.0,481.0,496.0,518.0
521.0,490.0,493.0,519.0
501.0,521.0,490.0,523.0
498.0,512.0,490.0,523.0
506.0,499.0,494.0,522.0
512.0,495.0,504.0,522.0
513.0,493.0,512.0,519.0
528.0,504.0,526.0,515.0
522.0,507.0,532.0,514.0
520.0,505.0,537.0,511.0
511.0,539.0,531.0,509.0
501.0,514.0,527.0,511.0
506.0,483.0,523.0,512.0
498.0,511.0,517.0,515.0
495.0,532.0,507.0,513.0
513.0,496.0,511.0,519.0
523.0,484.0,513.0,523.0
524.0,482.0,509.0,526.0
515.0,499.0,504.0,523.0
496.0,523.0,492.0,522.0
504.0,511.0,491.0,516.0
508.0,505.0,492.0,517.0
510.0,511.0,499.0,519.0
520.0,495.0,509.0,506.0
531.0,472.0,525.0,505.0
527.0,487.0,530.0,502.0
521.0,495.0,532.0,502.0
498.0,523.0,524.0,505.0
492.0,535.0,521.0,504.0
500.0,519.0,520.0,505.0
499.0,515.0,516.0,504.0
501.0,516.0,507.0,507.0
522.0,471.0,504.0,513.0
522.0,457.0,497.0,515.0
524.0,487.0,496.0,516.0
508.0,515.0,490.0,520.0
495.0,520.0,491.0,525.0
502.0,530.0,496.0,522.0
509.0,507.0,501.0,523.0
507.0,504.0,504.0,517.0
528.0,484.0,515.0,514.0
532.0,479.0,528.0,509.0
525.0,476.0,534.0,504.0
518.0,487.0,532.0,506.0
499.0,518.0,530.0,507.0
491.0,533.0,526.0,509.0
488.0,520.0,524.0,508.0
499.0,528.0,518.0,508.0
510.0,522.0,512.0,515.0
520.0,489.0,507.0,519.0
520.0,491.0,502.0,522.0
517.0,491.0,493.0,521.0
494.0,518.0,481.0,518.0
498.0,508.0,488.0,517.0
504.0,531.0,492.0,515.0
508.0,520.0,498.0,516.0
513.0,500.0,508.0,516.0
528.0,470.0,523.0,513.0
528.0,477.0,533.0,511.0
517.0,498.0,540.0,510.0
508.0,514.0,528.0,503.0
488.0,527.0,530.0,510.0
499.0,505.0,527.0,512.0
505.0,499.0,519.0,512.0
508.0,501.0,510.0,512.0
516.0,498.0,510.0,512.0
523.0,495.0,506.0,514.0
518.0,497.0,497.0,517.0
513.0,510.0,497.0,520.0
495.0,529.0,494.0,522.0
503.0,509.0,493.0,522.0
509.0,508.0,491.0,513.0
514.0,503.0,501.0,519.0
519.0,497.0,518.0,522.0
534.0,480.0,532.0,516.0
529.0,479.0,539.0,513.0
520.0,501.0,540.0,509.0
500.0,543.0,532.0,507.0
493.0,552.0,529.0,505.0
495.0,539.0,525.0,502.0
501.0,493.0,517.0,507.0
507.0,486.0,509.0,508.0
522.0,475.0,510.0,513.0
521.0,476.0,507.0,520.0
517.0,478.0,503.0,522.0
507.0,516.0,491.0,519.0
495.0,531.0,490.0,522.0
503.0,511.0,489.0,519.0
506.0,512.0,489.0,516.0
513.0,506.0,505.0,517.0
529.0,485.0,516.0,513.0
535.0,473.0,530.0,510.0
528.0,476.0,531.0,507.0
516.0,491.0,537.0,507.0
496.0,518.0,535.0,507.0
493.0,518.0,527.0,504.0
494.0,511.0,518.0,504.0
496.0,532.0,515.0,508.0
505.0,520.0,506.0,511.0
521.0,495.0,507.0,511.0
519.0,492.0,501.0,518.0
524.0,479.0,494.0,520.0
506.0,495.0,491.0,523.0
504.0,506.0,488.0,522.0
505.0,513.0,492.0,520.0
515.0,504.0,502.0,518.0
518.0,504.0,510.0,517.0
523.0,485.0,525.0,514.0
522.0,483.0,534.0,513.0
515.0,487.0,540.0,510.0
498.0,507.0,538.0,505.0
490.0,518.0,524.0,507.0
498.0,529.0,520.0,508.0
503.0,514.0,515.0,507.0
510.0,533.0,507.0,513.0
521.0,504.0,505.0,515.0
524.0,485.0,503.0,517.0
525.0,490.0,502.0,517.0
519.0,503.0,501.0,525.0
500.0,528.0,496.0,524.0
502.0,519.0,497.0,520.0
507.0,522.0,493.0,517.0
504.0,521.0,499.0,514.0
521.0,501.0,513.0,509.0
534.0,469.0,528.0,514.0
534.0,481.0,533.0,511.0
523.0,486.0,534.0,509.0
507.0,517.0,531.0,507.0
497.0,526.0,524.0,509.0
498.0,517.0,519.0,510.0
501.0,517.0,516.0,509.0
505.0,504.0,510.0,512.0
523.0,474.0,510.0,512.0
522.0,478.0,503.0,515.0
525.0,489.0,498.0,518.0
513.0,522.0,489.0,522.0
496.0,547.0,484.0,524.0
498.0,534.0,493.0,520.0
505.0,520.0,495.0,518.0
510.0,500.0,507.0,515.0
529.0,467.0,521.0,510.0
533.0,465.0,534.0,512.0
529.0,476.0,539.0,510.0
516.0,492.0,533.0,507.0
503.0,517.0,528.0,507.0
495.0,532.0,524.0,506.0
492.0,552.0,520.0,507.0
493.0,543.0,510.0,506.0
503.0,523.0,507.0,515.0
518.0,480.0,502.0,514.0
520.0,476.0,500.0,520.0
518.0,507.0,496.0,523.0
507.0,516.0,491.0,524.0
507.0,496.0,497.0,526.0
505.0,501.0,499.0,524.0
504.0,493.0,501.0,528.0
512.0,481.0,510.0,524.0
533.0,468.0,522.0,519.0
534.0,481.0,531.0,512.0
531.0,493.0,535.0,506.0
517.0,517.0,533.0,508.0
497.0,538.0,526.0,508.0
491.0,540.0,524.0,512.0
501.0,525.0,518.0,507.0
499.0,542.0,513.0,507.0
516.0,482.0,505.0,508.0
528.0,477.0,504.0,513.0
525.0,478.0,497.0,517.0
513.0,501.0,488.0,516.0
499.0,532.0,486.0,520.0
501.0,525.0,490.0,516.0
507.0,528.0,493.0,515.0
512.0,516.0,503.0,514.0
523.0,493.0,516.0,512.0
532.0,468.0,528.0,513.0
532.0,466.0,534.0,509.0
520.0,477.0,536.0,507.0
502.0,514.0,526.0,511.0
493.0,537.0,520.0,508.0
496.0,526.0,521.0,505.0
499.0,516.0,516.0,509.0
504.0,515.0,508.0,509.0
520.0,498.0,505.0,513.0
520.0,496.0,505.0,516.0
517.0,486.0,499.0,523.0
509.0,507.0,492.0,523.0
499.0,540.0,487.0,525.0
503.0,507.0,496.0,524.0
508.0,515.0,500.0,518.0
507.0,511.0,506.0,517.0
523.0,481.0,522.0,510.0
529.0,473.0,531.0,511.0
527.0,463.0,532.0,508.0
519.0,483.0,529.0,508.0
500.0,510.0,525.0,505.0
494.0,521.0,525.0,504.0
498.0,518.0,522.0,510.0
501.0,522.0,517.0,511.0
509.0,505.0,511.0,514.0
521.0,488.0,507.0,517.0
525.0,494.0,503.0,518.0
516.0,503.0,496.0,521.0
499.0,535.0,489.0,522.0
499.0,533.0,492.0,521.0
506.0,514.0,496.0,520.0
513.0,497.0,501.0,518.0
516.0,490.0,512.0,516.0
529.0,471.0,527.0,513.0
526.0,478.0,535.0,512.0
518.0,483.0,539.0,508.0
504.0,507.0,534.0,509.0
499.0,519.0,529.0,512.0
498.0,518.0,525.0,508.0
494.0,528.0,519.0,509.0
498.0,522.0,509.0,510.0
516.0,489.0,508.0,516.0
521.0,476.0,507.0,515.0
521.0,481.0,502.0,520.0
515.0,492.0,497.0,525.0
499.0,534.0,492.0,526.0
492.0,557.0,496.0,526.0
498.0,548.0,499.0,524.0
502.0,555.0,507.0,518.0
524.0,476.0,516.0,513.0
533.0,413.0,528.0,509.0
526.0,468.0,535.0,510.0
522.0,490.0,531.0,509.0
501.0,523.0,522.0,502.0
492.0,529.0,522.0,506.0
491.0,526.0,525.0,506.0
503.0,501.0,517.0,507.0
512.0,500.0,515.0,512.0
524.0,485.0,514.0,513.0
523.0,489.0,497.0,515.0
522.0,492.0,494.0,515.0
511.0,519.0,486.0,521.0
504.0,529.0,490.0,518.0
505.0,521.0,491.0,517.0
507.0,513.0,495.0,517.0
510.0,508.0,506.0,514.0
526.0,489.0,526.0,516.0
533.0,483.0,533.0,515.0
529.0,487.0,538.0,514.0
515.0,504.0,535.0,514.0
498.0,512.0,527.0,509.0
498.0,514.0,520.0,507.0
496.0,516.0,521.0,507.0
497.0,512.0,515.0,508.0
507.0,491.0,508.0,509.0
519.0,467.0,511.0,512.0
522.0,496.0,501.0,515.0
518.0,501.0,494.0,517.0
501.0,533.0,489.0,521.0
500.0,522.0,488.0,521.0
507.0,507.0,493.0,518.0
510.0,509.0,500.0,516.0
515.0,498.0,508.0,514.0
529.0,468.0,524.0,513.0
528.0,473.0,534.0,511.0
528.0,472.0,536.0,509.0
508.0,512.0,535.0,506.0
501.0,532.0,526.0,506.0
500.0,527.0,525.0,510.0
502.0,517.0,522.0,510.0
502.0,512.0,514.0,511.0
512.0,488.0,507.0,514.0
526.0,479.0,505.0,517.0
527.0,486.0,499.0,519.0
523.0,491.0,494.0,526.0
507.0,518.0,491.0,524.0
515.0,510.0,490.0,520.0
519.0,512.0,499.0,520.0
521.0,511.0,503.0,515.0
523.0,496.0,515.0,512.0
532.0,467.0,529.0,513.0
533.0,479.0,534.0,510.0
518.0,494.0,539.0,509.0
494.0,518.0,532.0,509.0
499.0,518.0,527.0,508.0
505.0,510.0,525.0,506.0
499.0,510.0,517.0,508.0
504.0,509.0,510.0,509.0
511.0,495.0,510.0,514.0
514.0,494.0,505.0,517.0
511.0,506.0,497.0,519.0
498.0,523.0,490.0,520.0
492.0,535.0,487.0,522.0
501.0,515.0,493.0,519.0
505.0,515.0,503.0,521.0
508.0,512.0,513.0,516.0
524.0,478.0,519.0,511.0
530.0,478.0,525.0,512.0
523.0,490.0,533.0,509.0
514.0,500.0,533.0,506.0
492.0,538.0,527.0,510.0
489.0,542.0,524.0,509.0
506.0,519.0,520.0,508.0
504.0,517.0,515.0,510.0
507.0,492.0,510.0,509.0
521.0,481.0,507.0,513.0
519.0,487.0,501.0,517.0
519.0,492.0,493.0,521.0
501.0,522.0,488.0,522.0
497.0,526.0,488.0,520.0
499.0,520.0,492.0,518.0
510.0,504.0,498.0,520.0
514.0,502.0,510.0,515.0
531.0,482.0,524.0,515.0
534.0,477.0,538.0,514.0
532.0,482.0,535.0,508.0
517.0,516.0,529.0,507.0
506.0,538.0,526.0,508.0
508.0,533.0,524.0,507.0
504.0,547.0,517.0,507.0
509.0,516.0,512.0,509.0
523.0,465.0,510.0,515.0
523.0,474.0,505.0,517.0
530.0,479.0,500.0,519.0
518.0,492.0,492.0,522.0
502.0,525.0,487.0,529.0
505.0,528.0,490.0,522.0
498.0,517.0,493.0,520.0
498.0,517.0,505.0,519.0
510.0,491.0,517.0,514.0
527.0,470.0,531.0,514.0
530.0,472.0,536.0,512.0
532.0,481.0,535.0,510.0
506.0,517.0,531.0,509.0
510.0,516.0,527.0,507.0
514.0,514.0,520.0,506.0
514.0,518.0,518.0,510.0
513.0,507.0,511.0,510.0
532.0,473.0,510.0,512.0
502.0,495.0,505.0,520.0
488.0,499.0,499.0,519.0
484.0,523.0,488.0,520.0
479.0,528.0,489.0,523.0
489.0,512.0,491.0,520.0
493.0,499.0,497.0,522.0
499.0,496.0,508.0,517.0
516.0,475.0,525.0,516.0
524.0,469.0,533.0,511.0
523.0,499.0,538.0,509.0
516.0,521.0,536.0,507.0
496.0,523.0,528.0,507.0
492.0,516.0,527.0,505.0
500.0,515.0,524.0,506.0
498.0,516.0,519.0,510.0
508.0,498.0,513.0,513.0
520.0,484.0,507.0,515.0
519.0,487.0,501.0,515.0
518.0,499.0,497.0,524.0
505.0,516.0,493.0,520.0
497.0,524.0,491.0,522.0
503.0,515.0,495.0,518.0
508.0,511.0,499.0,520.0
514.0,515.0,514.0,517.0
531.0,487.0,526.0,515.0
529.0,482.0,534.0,510.0
521.0,480.0,539.0,507.0
511.0,499.0,534.0,510.0
500.0,519.0,529.0,506.0
497.0,528.0,527.0,508.0
497.0,526.0,519.0,509.0
497.0,520.0,515.0,509.0
515.0,493.0,510.0,516.0
520.0,482.0,514.0,517.0
518.0,485.0,502.0,520.0
518.0,503.0,491.0,522.0
499.0,537.0,487.0,520.0
502.0,534.0,492.0,519.0
502.0,521.0,499.0,519.0
505.0,500.0,506.0,517.0
521.0,480.0,519.0,514.0
528.0,460.0,532.0,515.0
529.0,470.0,537.0,510.0
527.0,478.0,538.0,513.0
506.0,510.0,529.0,510.0
499.0,537.0,529.0,510.0
497.0,549.0,524.0,508.0
499.0,535.0,521.0,511.0
506.0,519.0,512.0,512.0
523.0,489.0,511.0,512.0
524.0,484.0,505.0,517.0
522.0,490.0,499.0,519.0
509.0,508.0,492.0,523.0
500.0,524.0,490.0,519.0
506.0,525.0,494.0,520.0
507.0,517.0,497.0,520.0
515.0,506.0,508.0,517.0
525.0,478.0,525.0,514.0
536.0,472.0,534.0,508.0
528.0,477.0,538.0,510.0
515.0,499.0,533.0,509.0
495.0,532.0,529.0,508.0
500.0,527.0,524.0,509.0
503.0,513.0,520.0,509.0
503.0,511.0,516.0,512.0
512.0,503.0,512.0,513.0
525.0,485.0,507.0,516.0
526.0,483.0,503.0,517.0
520.0,495.0,496.0,521.0
502.0,528.0,489.0,523.0
499.0,535.0,490.0,522.0
502.0,522.0,495.0,520.0
505.0,504.0,502.0,518.0
515.0,492.0,517.0,518.0
530.0,465.0,525.0,514.0
