CH1,CH2,CH3,CH4
530.0,486.0,529.0,510.0
517.0,509.0,522.0,505.0
488.0,542.0,509.0,505.0
495.0,513.0,507.0,507.0
494.0,523.0,504.0,504.0
504.0,529.0,503.0,505.0
511.0,515.0,508.0,511.0
524.0,488.0,506.0,513.0
526.0,483.0,504.0,513.0
525.0,484.0,500.0,515.0
516.0,501.0,490.0,512.0
507.0,507.0,487.0,514.0
504.0,506.0,494.0,509.0
500.0,520.0,499.0,515.0
509.0,493.0,506.0,508.0
526.0,454.0,520.0,508.0
530.0,439.0,529.0,514.0
527.0,454.0,529.0,512.0
518.0,500.0,523.0,509.0
503.0,553.0,517.0,508.0
500.0,522.0,513.0,509.0
497.0,519.0,511.0,505.0
495.0,521.0,499.0,502.0
510.0,503.0,493.0,507.0
527.0,477.0,498.0,514.0
521.0,515.0,503.0,524.0
515.0,509.0,498.0,528.0
504.0,509.0,503.0,527.0
510.0,520.0,509.0,526.0
506.0,539.0,511.0,531.0
511.0,533.0,512.0,529.0
515.0,534.0,515.0,521.0
525.0,496.0,523.0,513.0
526.0,488.0,524.0,507.0
519.0,490.0,528.0,506.0
508.0,512.0,526.0,501.0
496.0,512.0,520.0,496.0
505.0,503.0,513.0,494.0
503.0,513.0,495.0,493.0
504.0,515.0,489.0,491.0
517.0,494.0,486.0,493.0
525.0,489.0,490.0,501.0
519.0,485.0,492.0,511.0
509.0,517.0,494.0,517.0
497.0,538.0,497.0,518.0
506.0,546.0,503.0,519.0
504.0,539.0,503.0,517.0
508.0,509.0,502.0,516.0
527.0,471.0,511.0,510.0
542.0,460.0,517.0,504.0
536.0,487.0,521.0,502.0
529.0,470.0,517.0,501.0
508.0,488.0,522.0,511.0
504.0,508.0,529.0,510.0
495.0,531.0,516.0,511.0
499.0,523.0,506.0,514.0
510.0,531.0,505.0,512.0
524.0,489.0,504.0,515.0
526.0,486.0,500.0,511.0
525.0,487.0,487.0,508.0
514.0,524.0,485.0,514.0
501.0,558.0,493.0,521.0
501.0,563.0,497.0,521.0
500.0,564.0,502.0,524.0
516.0,515.0,513.0,525.0
530.0,448.0,531.0,523.0
532.0,463.0,542.0,521.0
529.0,460.0,543.0,517.0
521.0,470.0,527.0,509.0
498.0,506.0,519.0,505.0
496.0,500.0,507.0,500.0
495.0,511.0,503.0,501.0
499.0,510.0,497.0,505.0
515.0,481.0,499.0,512.0
527.0,501.0,499.0,511.0
521.0,503.0,496.0,518.0
515.0,496.0,499.0,521.0
502.0,519.0,490.0,520.0
502.0,517.0,495.0,514.0
500.0,512.0,499.0,514.0
508.0,505.0,505.0,516.0
509.0,502.0,515.0,516.0
530.0,452.0,528.0,517.0
526.0,473.0,533.0,515.0
520.0,496.0,531.0,511.0
507.0,512.0,519.0,511.0
504.0,505.0,511.0,504.0
498.0,500.0,504.0,504.0
499.0,521.0,505.0,507.0
501.0,535.0,500.0,515.0
513.0,500.0,504.0,515.0
520.0,487.0,503.0,521.0
521.0,484.0,508.0,526.0
515.0,501.0,502.0,527.0
500.0,527.0,496.0,529.0
502.0,528.0,498.0,531.0
512.0,520.0,508.0,519.0
518.0,513.0,515.0,524.0
527.0,492.0,524.0,520.0
530.0,480.0,532.0,510.0
526.0,481.0,532.0,505.0
514.0,501.0,524.0,499.0
492.0,547.0,516.0,509.0
499.0,522.0,513.0,517.0
502.0,486.0,512.0,519.0
506.0,501.0,510.0,521.0
513.0,478.0,507.0,521.0
532.0,489.0,506.0,517.0
532.0,497.0,502.0,519.0
527.0,497.0,490.0,511.0
506.0,521.0,478.0,509.0
504.0,528.0,484.0,511.0
505.0,526.0,489.0,518.0
506.0,525.0,506.0,514.0
516.0,513.0,504.0,509.0
530.0,479.0,513.0,506.0
528.0,475.0,521.0,503.0
525.0,482.0,525.0,503.0
513.0,506.0,526.0,503.0
489.0,553.0,519.0,504.0
497.0,544.0,509.0,502.0
495.0,576.0,505.0,504.0
496.0,567.0,502.0,510.0
511.0,502.0,496.0,509.0
522.0,476.0,503.0,519.0
521.0,467.0,511.0,528.0
518.0,503.0,498.0,527.0
501.0,548.0,492.0,525.0
505.0,512.0,495.0,522.0
513.0,482.0,497.0,516.0
515.0,475.0,507.0,515.0
519.0,472.0,525.0,515.0
533.0,466.0,538.0,512.0
529.0,478.0,531.0,510.0
521.0,508.0,517.0,500.0
503.0,518.0,515.0,506.0
493.0,512.0,512.0,503.0
492.0,504.0,512.0,514.0
483.0,525.0,516.0,513.0
488.0,543.0,510.0,514.0
525.0,494.0,506.0,515.0
530.0,484.0,501.0,518.0
529.0,447.0,496.0,525.0
524.0,477.0,486.0,527.0
507.0,527.0,481.0,525.0
504.0,536.0,488.0,523.0
501.0,510.0,506.0,522.0
512.0,465.0,522.0,525.0
535.0,444.0,540.0,524.0
534.0,449.0,548.0,518.0
529.0,473.0,539.0,503.0
527.0,502.0,521.0,494.0
504.0,544.0,502.0,485.0
502.0,547.0,500.0,485.0
500.0,556.0,485.0,494.0
506.0,500.0,491.0,498.0
506.0,500.0,494.0,503.0
518.0,485.0,499.0,509.0
521.0,499.0,498.0,515.0
522.0,513.0,495.0,523.0
505.0,537.0,481.0,529.0
500.0,540.0,485.0,521.0
502.0,535.0,497.0,520.0
512.0,510.0,501.0,513.0
510.0,525.0,511.0,507.0
524.0,484.0,530.0,508.0
529.0,473.0,529.0,506.0
524.0,478.0,515.0,505.0
510.0,486.0,524.0,505.0
494.0,526.0,524.0,515.0
492.0,559.0,521.0,520.0
489.0,545.0,504.0,515.0
487.0,542.0,499.0,516.0
511.0,483.0,494.0,520.0
526.0,453.0,494.0,520.0
532.0,502.0,501.0,516.0
523.0,506.0,499.0,517.0
506.0,517.0,494.0,516.0
511.0,515.0,501.0,515.0
515.0,516.0,503.0,515.0
507.0,516.0,503.0,516.0
514.0,488.0,509.0,514.0
526.0,454.0,527.0,510.0
520.0,462.0,530.0,504.0
518.0,477.0,526.0,501.0
501.0,514.0,516.0,502.0
488.0,529.0,507.0,501.0
506.0,506.0,508.0,500.0
506.0,509.0,500.0,503.0
512.0,497.0,495.0,507.0
526.0,463.0,500.0,511.0
528.0,472.0,499.0,519.0
529.0,506.0,500.0,520.0
514.0,525.0,495.0,521.0
501.0,529.0,488.0,522.0
500.0,517.0,497.0,522.0
499.0,541.0,498.0,518.0
507.0,528.0,508.0,517.0
521.0,479.0,523.0,509.0
537.0,461.0,536.0,508.0
528.0,502.0,539.0,516.0
515.0,535.0,529.0,514.0
494.0,592.0,512.0,515.0
504.0,494.0,510.0,516.0
505.0,478.0,511.0,513.0
498.0,520.0,515.0,520.0
504.0,504.0,513.0,520.0
522.0,506.0,508.0,520.0
517.0,525.0,503.0,521.0
529.0,454.0,495.0,514.0
510.0,500.0,485.0,514.0
502.0,523.0,489.0,516.0
507.0,521.0,497.0,512.0
503.0,491.0,500.0,513.0
509.0,479.0,512.0,513.0
527.0,445.0,525.0,511.0
525.0,435.0,528.0,512.0
523.0,470.0,527.0,506.0
512.0,497.0,520.0,507.0
506.0,538.0,514.0,504.0
507.0,549.0,512.0,507.0
497.0,540.0,510.0,512.0
505.0,542.0,508.0,513.0
519.0,530.0,501.0,519.0
527.0,470.0,501.0,524.0
523.0,472.0,498.0,523.0
517.0,492.0,497.0,521.0
500.0,515.0,489.0,521.0
511.0,518.0,502.0,526.0
504.0,529.0,514.0,534.0
498.0,549.0,533.0,534.0
509.0,514.0,526.0,521.0
529.0,472.0,521.0,506.0
529.0,482.0,515.0,495.0
528.0,464.0,514.0,498.0
504.0,488.0,510.0,499.0
497.0,532.0,508.0,496.0
497.0,534.0,505.0,496.0
495.0,523.0,505.0,505.0
505.0,502.0,504.0,514.0
523.0,479.0,506.0,523.0
521.0,468.0,506.0,525.0
521.0,502.0,497.0,523.0
507.0,532.0,486.0,511.0
507.0,511.0,483.0,511.0
518.0,501.0,502.0,512.0
518.0,508.0,504.0,510.0
517.0,501.0,505.0,513.0
518.0,525.0,511.0,513.0
527.0,506.0,521.0,511.0
524.0,502.0,528.0,508.0
518.0,495.0,528.0,507.0
509.0,475.0,523.0,502.0
504.0,485.0,519.0,501.0
498.0,521.0,509.0,496.0
504.0,520.0,491.0,496.0
513.0,505.0,493.0,502.0
525.0,479.0,495.0,511.0
523.0,486.0,498.0,516.0
520.0,491.0,495.0,521.0
503.0,537.0,494.0,520.0
506.0,531.0,493.0,516.0
506.0,520.0,499.0,514.0
504.0,513.0,497.0,515.0
514.0,503.0,515.0,509.0
533.0,465.0,523.0,503.0
534.0,465.0,523.0,500.0
529.0,465.0,524.0,502.0
512.0,492.0,521.0,506.0
488.0,519.0,508.0,509.0
496.0,516.0,505.0,504.0
499.0,533.0,506.0,508.0
501.0,541.0,500.0,509.0
519.0,504.0,501.0,512.0
527.0,486.0,500.0,513.0
527.0,482.0,498.0,523.0
515.0,497.0,494.0,527.0
500.0,528.0,495.0,528.0
503.0,526.0,498.0,520.0
499.0,521.0,500.0,518.0
505.0,514.0,503.0,510.0
516.0,493.0,519.0,511.0
538.0,472.0,533.0,514.0
534.0,469.0,534.0,521.0
526.0,475.0,531.0,508.0
508.0,511.0,519.0,503.0
493.0,528.0,496.0,518.0
494.0,549.0,505.0,516.0
499.0,533.0,506.0,517.0
506.0,528.0,514.0,517.0
524.0,444.0,529.0,530.0
520.0,488.0,525.0,534.0
517.0,502.0,509.0,528.0
506.0,507.0,490.0,520.0
500.0,507.0,486.0,517.0
502.0,514.0,491.0,509.0
504.0,511.0,488.0,503.0
521.0,494.0,504.0,505.0
528.0,497.0,523.0,506.0
532.0,488.0,530.0,505.0
527.0,507.0,527.0,500.0
516.0,522.0,520.0,502.0
495.0,530.0,509.0,503.0
503.0,501.0,512.0,503.0
500.0,500.0,511.0,505.0
505.0,492.0,507.0,510.0
514.0,492.0,500.0,509.0
525.0,480.0,505.0,515.0
524.0,496.0,500.0,515.0
518.0,524.0,497.0,518.0
503.0,535.0,493.0,520.0
499.0,523.0,497.0,522.0
507.0,502.0,502.0,522.0
512.0,477.0,510.0,522.0
517.0,531.0,517.0,518.0
529.0,520.0,528.0,516.0
524.0,503.0,533.0,516.0
513.0,491.0,534.0,516.0
507.0,498.0,530.0,520.0
492.0,507.0,525.0,520.0
510.0,505.0,527.0,516.0
503.0,512.0,520.0,508.0
498.0,513.0,499.0,505.0
514.0,482.0,494.0,506.0
523.0,471.0,495.0,507.0
521.0,498.0,494.0,512.0
516.0,530.0,491.0,511.0
500.0,550.0,489.0,518.0
508.0,515.0,496.0,516.0
502.0,509.0,500.0,512.0
497.0,516.0,505.0,513.0
511.0,479.0,519.0,510.0
524.0,464.0,527.0,510.0
525.0,470.0,530.0,510.0
533.0,476.0,531.0,512.0
516.0,512.0,523.0,513.0
509.0,510.0,520.0,515.0
498.0,511.0,522.0,516.0
496.0,526.0,517.0,515.0
506.0,523.0,508.0,514.0
523.0,507.0,502.0,514.0
525.0,502.0,502.0,514.0
525.0,494.0,499.0,516.0
513.0,514.0,496.0,520.0
501.0,534.0,494.0,521.0
511.0,514.0,500.0,517.0
510.0,514.0,505.0,516.0
511.0,514.0,511.0,509.0
525.0,475.0,525.0,506.0
525.0,481.0,534.0,509.0
522.0,489.0,534.0,505.0
515.0,502.0,530.0,506.0
497.0,541.0,515.0,504.0
502.0,515.0,513.0,507.0
509.0,513.0,509.0,506.0
507.0,517.0,507.0,512.0
512.0,492.0,506.0,519.0
526.0,482.0,507.0,521.0
523.0,520.0,507.0,521.0
519.0,532.0,503.0,524.0
503.0,557.0,492.0,523.0
507.0,505.0,497.0,519.0
509.0,492.0,504.0,521.0
515.0,488.0,510.0,522.0
518.0,477.0,521.0,515.0
531.0,455.0,532.0,508.0
535.0,467.0,531.0,507.0
520.0,505.0,528.0,505.0
510.0,524.0,523.0,504.0
495.0,534.0,515.0,500.0
505.0,516.0,515.0,500.0
498.0,529.0,508.0,503.0
501.0,508.0,499.0,503.0
518.0,473.0,500.0,508.0
523.0,466.0,503.0,516.0
520.0,475.0,504.0,518.0
517.0,527.0,500.0,522.0
497.0,553.0,498.0,524.0
505.0,518.0,501.0,518.0
499.0,522.0,503.0,519.0
510.0,514.0,507.0,521.0
524.0,482.0,521.0,520.0
531.0,470.0,534.0,521.0
529.0,470.0,542.0,520.0
524.0,483.0,544.0,518.0
505.0,510.0,533.0,521.0
502.0,506.0,525.0,512.0
504.0,491.0,511.0,504.0
501.0,497.0,497.0,501.0
505.0,500.0,499.0,511.0
516.0,496.0,510.0,518.0
516.0,503.0,514.0,525.0
523.0,500.0,521.0,528.0
509.0,522.0,502.0,524.0
494.0,539.0,494.0,520.0
510.0,517.0,503.0,517.0
503.0,522.0,500.0,509.0
503.0,515.0,504.0,506.0
529.0,479.0,523.0,507.0
533.0,466.0,534.0,508.0
526.0,473.0,538.0,506.0
516.0,483.0,525.0,502.0
501.0,519.0,512.0,500.0
496.0,512.0,510.0,502.0
492.0,527.0,505.0,502.0
489.0,559.0,502.0,506.0
508.0,540.0,498.0,509.0
525.0,493.0,509.0,515.0
530.0,509.0,514.0,525.0
518.0,502.0,513.0,525.0
508.0,512.0,503.0,521.0
501.0,520.0,500.0,521.0
502.0,517.0,502.0,515.0
504.0,521.0,505.0,514.0
513.0,526.0,513.0,510.0
527.0,505.0,529.0,510.0
533.0,466.0,529.0,508.0
525.0,476.0,534.0,513.0
512.0,491.0,525.0,514.0
496.0,514.0,516.0,515.0
497.0,518.0,523.0,512.0
489.0,523.0,523.0,509.0
495.0,510.0,511.0,512.0
515.0,497.0,509.0,517.0
521.0,497.0,506.0,520.0
527.0,501.0,502.0,520.0
524.0,499.0,496.0,519.0
507.0,521.0,490.0,516.0
512.0,505.0,497.0,515.0
506.0,523.0,506.0,515.0
504.0,532.0,514.0,517.0
514.0,486.0,531.0,513.0
528.0,452.0,537.0,508.0
524.0,456.0,532.0,509.0
519.0,482.0,531.0,506.0
502.0,550.0,523.0,505.0
495.0,551.0,516.0,505.0
499.0,518.0,511.0,506.0
503.0,512.0,510.0,511.0
504.0,516.0,504.0,513.0
524.0,480.0,506.0,515.0
519.0,489.0,510.0,516.0
522.0,498.0,504.0,517.0
518.0,491.0,495.0,520.0
503.0,500.0,493.0,516.0
505.0,501.0,505.0,517.0
503.0,504.0,508.0,515.0
510.0,511.0,511.0,514.0
525.0,494.0,522.0,509.0
534.0,470.0,528.0,509.0
527.0,481.0,531.0,507.0
515.0,491.0,528.0,506.0
502.0,517.0,516.0,501.0
501.0,516.0,512.0,503.0
497.0,525.0,508.0,502.0
497.0,529.0,503.0,504.0
506.0,520.0,499.0,509.0
520.0,488.0,501.0,515.0
519.0,484.0,500.0,520.0
513.0,493.0,499.0,522.0
499.0,514.0,499.0,525.0
490.0,533.0,495.0,524.0
505.0,537.0,498.0,514.0
504.0,507.0,503.0,515.0
516.0,470.0,519.0,514.0
532.0,473.0,534.0,515.0
535.0,477.0,537.0,515.0
529.0,499.0,537.0,514.0
516.0,511.0,530.0,514.0
496.0,522.0,522.0,511.0
498.0,508.0,513.0,504.0
496.0,514.0,506.0,503.0
497.0,513.0,507.0,503.0
512.0,497.0,501.0,505.0
524.0,478.0,500.0,509.0
524.0,479.0,499.0,514.0
516.0,491.0,496.0,513.0
506.0,529.0,492.0,516.0
502.0,534.0,499.0,515.0
501.0,528.0,500.0,512.0
508.0,509.0,506.0,509.0
519.0,485.0,517.0,512.0
532.0,460.0,526.0,509.0
529.0,465.0,530.0,507.0
522.0,473.0,528.0,502.0
507.0,503.0,519.0,504.0
492.0,530.0,513.0,502.0
494.0,516.0,508.0,507.0
492.0,512.0,505.0,509.0
497.0,505.0,500.0,506.0
517.0,471.0,507.0,516.0
525.0,474.0,503.0,515.0
522.0,491.0,500.0,518.0
515.0,523.0,501.0,523.0
501.0,552.0,500.0,525.0
506.0,534.0,511.0,522.0
507.0,515.0,509.0,518.0
513.0,494.0,515.0,506.0
523.0,462.0,523.0,506.0
531.0,451.0,529.0,506.0
527.0,476.0,530.0,504.0
522.0,498.0,526.0,504.0
500.0,530.0,513.0,505.0
489.0,556.0,509.0,507.0
493.0,550.0,507.0,502.0
498.0,526.0,505.0,509.0
504.0,509.0,498.0,510.0
519.0,475.0,502.0,511.0
521.0,485.0,501.0,514.0
518.0,497.0,500.0,516.0
505.0,514.0,496.0,518.0
500.0,522.0,495.0,518.0
501.0,519.0,500.0,524.0
504.0,509.0,506.0,515.0
510.0,504.0,512.0,515.0
528.0,469.0,528.0,513.0
528.0,469.0,535.0,510.0
525.0,475.0,536.0,512.0
514.0,492.0,524.0,511.0
495.0,519.0,517.0,510.0
497.0,512.0,512.0,509.0
496.0,513.0,509.0,509.0
497.0,528.0,504.0,511.0
508.0,505.0,506.0,515.0
516.0,491.0,511.0,517.0
514.0,500.0,506.0,515.0
517.0,484.0,498.0,515.0
508.0,501.0,493.0,514.0
507.0,509.0,497.0,511.0
506.0,518.0,504.0,512.0
507.0,514.0,508.0,512.0
514.0,504.0,519.0,512.0
528.0,480.0,530.0,510.0
528.0,472.0,531.0,505.0
524.0,477.0,529.0,506.0
510.0,493.0,517.0,511.0
500.0,505.0,511.0,508.0
501.0,514.0,507.0,510.0
495.0,525.0,506.0,508.0
500.0,509.0,507.0,515.0
517.0,484.0,506.0,523.0
521.0,477.0,503.0,521.0
523.0,478.0,504.0,522.0
514.0,494.0,498.0,522.0
500.0,514.0,496.0,521.0
500.0,512.0,504.0,514.0
506.0,507.0,507.0,514.0
504.0,504.0,509.0,508.0
524.0,476.0,517.0,508.0
532.0,486.0,530.0,506.0
525.0,482.0,532.0,506.0
518.0,489.0,530.0,504.0
500.0,532.0,518.0,503.0
498.0,528.0,514.0,502.0
496.0,524.0,507.0,508.0
501.0,520.0,502.0,505.0
508.0,506.0,500.0,509.0
521.0,478.0,503.0,511.0
525.0,473.0,502.0,516.0
523.0,476.0,500.0,518.0
515.0,515.0,496.0,521.0
502.0,528.0,498.0,519.0
508.0,530.0,502.0,515.0
508.0,531.0,505.0,508.0
513.0,508.0,515.0,513.0
530.0,467.0,528.0,512.0
525.0,465.0,530.0,505.0
523.0,463.0,530.0,504.0
509.0,486.0,523.0,504.0
492.0,508.0,515.0,505.0
498.0,513.0,512.0,502.0
489.0,523.0,508.0,507.0
496.0,519.0,500.0,507.0
513.0,503.0,502.0,510.0
527.0,486.0,503.0,513.0
527.0,483.0,501.0,517.0
522.0,491.0,499.0,520.0
504.0,517.0,496.0,521.0
500.0,520.0,496.0,520.0
500.0,508.0,506.0,520.0
506.0,508.0,513.0,519.0
513.0,484.0,524.0,518.0
527.0,461.0,533.0,509.0
524.0,477.0,540.0,512.0
525.0,482.0,533.0,505.0
510.0,526.0,517.0,506.0
494.0,570.0,513.0,507.0
494.0,567.0,502.0,505.0
493.0,554.0,496.0,501.0
499.0,522.0,500.0,508.0
523.0,444.0,504.0,512.0
524.0,446.0,507.0,518.0
520.0,467.0,502.0,521.0
513.0,498.0,496.0,521.0
506.0,518.0,501.0,522.0
506.0,510.0,504.0,520.0
500.0,525.0,503.0,517.0
500.0,518.0,512.0,513.0
520.0,479.0,521.0,508.0
525.0,469.0,527.0,509.0
521.0,472.0,534.0,509.0
519.0,494.0,529.0,510.0
506.0,519.0,521.0,504.0
503.0,519.0,521.0,507.0
499.0,532.0,510.0,504.0
494.0,549.0,505.0,510.0
503.0,523.0,501.0,509.0
523.0,489.0,505.0,513.0
520.0,490.0,501.0,512.0
520.0,474.0,499.0,515.0
508.0,502.0,492.0,519.0
504.0,516.0,496.0,514.0
507.0,512.0,501.0,515.0
510.0,508.0,506.0,514.0
517.0,497.0,516.0,510.0
532.0,470.0,526.0,508.0
528.0,470.0,532.0,511.0
521.0,472.0,535.0,509.0
508.0,486.0,520.0,511.0
490.0,520.0,515.0,511.0
495.0,512.0,516.0,510.0
495.0,537.0,507.0,509.0
499.0,532.0,504.0,513.0
516.0,492.0,506.0,514.0
525.0,489.0,505.0,519.0
520.0,493.0,504.0,516.0
516.0,497.0,495.0,516.0
498.0,517.0,495.0,517.0
498.0,515.0,500.0,514.0
503.0,510.0,509.0,511.0
516.0,497.0,509.0,516.0
521.0,500.0,516.0,514.0
526.0,493.0,530.0,508.0
521.0,483.0,528.0,509.0
519.0,491.0,529.0,508.0
503.0,516.0,521.0,507.0
501.0,519.0,516.0,504.0
504.0,506.0,512.0,505.0
504.0,508.0,508.0,504.0
506.0,513.0,502.0,509.0
522.0,484.0,505.0,513.0
519.0,491.0,504.0,516.0
521.0,489.0,496.0,518.0
510.0,510.0,496.0,519.0
495.0,526.0,494.0,518.0
506.0,511.0,501.0,514.0
505.0,515.0,504.0,515.0
513.0,504.0,513.0,513.0
522.0,480.0,525.0,511.0
530.0,471.0,532.0,505.0
526.0,479.0,533.0,505.0
515.0,507.0,527.0,506.0
493.0,528.0,514.0,511.0
488.0,529.0,511.0,504.0
495.0,507.0,512.0,509.0
499.0,495.0,506.0,509.0
505.0,488.0,502.0,513.0
521.0,482.0,504.0,515.0
523.0,503.0,501.0,512.0
524.0,474.0,496.0,519.0
507.0,501.0,495.0,518.0
507.0,510.0,498.0,517.0
508.0,517.0,500.0,515.0
513.0,498.0,507.0,516.0
516.0,493.0,514.0,516.0
527.0,483.0,526.0,514.0
527.0,476.0,530.0,510.0
525.0,476.0,532.0,509.0
514.0,501.0,527.0,506.0
500.0,522.0,523.0,507.0
499.0,519.0,514.0,508.0
495.0,524.0,510.0,508.0
501.0,519.0,497.0,509.0
517.0,491.0,503.0,510.0
524.0,478.0,503.0,512.0
521.0,473.0,500.0,513.0
516.0,476.0,493.0,515.0
500.0,497.0,498.0,516.0
499.0,506.0,497.0,512.0
500.0,524.0,501.0,513.0
503.0,540.0,504.0,512.0
514.0,509.0,520.0,509.0
531.0,481.0,530.0,511.0
531.0,487.0,532.0,509.0
526.0,492.0,529.0,515.0
507.0,514.0,520.0,510.0
496.0,519.0,513.0,512.0
497.0,512.0,514.0,511.0
501.0,523.0,509.0,509.0
505.0,512.0,505.0,507.0
520.0,479.0,496.0,504.0
524.0,472.0,497.0,507.0
521.0,475.0,496.0,517.0
510.0,493.0,492.0,520.0
502.0,527.0,490.0,521.0
502.0,529.0,498.0,516.0
507.0,518.0,505.0,516.0
514.0,497.0,516.0,514.0
525.0,473.0,526.0,512.0
529.0,468.0,538.0,507.0
521.0,474.0,540.0,508.0
518.0,495.0,526.0,506.0
503.0,522.0,515.0,505.0
497.0,530.0,508.0,506.0
495.0,533.0,508.0,504.0
499.0,523.0,504.0,507.0
510.0,501.0,505.0,510.0
526.0,467.0,503.0,511.0
524.0,469.0,501.0,517.0
516.0,487.0,502.0,520.0
501.0,516.0,495.0,521.0
500.0,500.0,495.0,518.0
505.0,496.0,504.0,517.0
512.0,519.0,508.0,515.0
513.0,513.0,518.0,514.0
528.0,487.0,529.0,512.0
524.0,501.0,533.0,511.0
520.0,494.0,533.0,510.0
506.0,525.0,528.0,514.0
493.0,527.0,522.0,513.0
495.0,496.0,517.0,513.0
493.0,512.0,509.0,506.0
498.0,506.0,501.0,507.0
512.0,481.0,500.0,506.0
519.0,476.0,499.0,512.0
519.0,481.0,495.0,516.0
514.0,495.0,491.0,519.0
507.0,514.0,490.0,518.0
509.0,510.0,502.0,515.0
510.0,523.0,508.0,514.0
511.0,514.0,509.0,510.0
520.0,478.0,520.0,512.0
532.0,463.0,528.0,508.0
534.0,472.0,530.0,507.0
521.0,489.0,525.0,507.0
507.0,527.0,516.0,508.0
494.0,541.0,517.0,509.0
495.0,523.0,509.0,511.0
502.0,516.0,506.0,508.0
502.0,514.0,507.0,513.0
518.0,500.0,506.0,514.0
517.0,506.0,500.0,512.0
523.0,505.0,498.0,516.0
510.0,513.0,493.0,517.0
505.0,516.0,494.0,519.0
507.0,491.0,501.0,516.0
510.0,506.0,509.0,516.0
513.0,506.0,520.0,518.0
527.0,480.0,529.0,512.0
530.0,472.0,530.0,509.0
524.0,469.0,527.0,504.0
517.0,478.0,523.0,503.0
499.0,509.0,512.0,503.0
495.0,524.0,508.0,502.0
497.0,550.0,505.0,504.0
495.0,573.0,501.0,506.0
505.0,521.0,501.0,508.0
520.0,470.0,502.0,519.0
521.0,459.0,502.0,517.0
520.0,472.0,499.0,519.0
511.0,509.0,499.0,523.0
498.0,527.0,502.0,522.0
501.0,538.0,499.0,518.0
511.0,515.0,511.0,521.0
519.0,498.0,515.0,512.0
531.0,468.0,524.0,509.0
531.0,467.0,525.0,505.0
523.0,472.0,531.0,504.0
512.0,499.0,523.0,509.0
496.0,529.0,518.0,510.0
495.0,525.0,517.0,513.0
495.0,521.0,517.0,511.0
499.0,506.0,508.0,515.0
514.0,480.0,509.0,515.0
525.0,477.0,504.0,515.0
518.0,482.0,498.0,515.0
517.0,498.0,494.0,511.0
501.0,541.0,494.0,512.0
498.0,539.0,497.0,513.0
498.0,528.0,501.0,509.0
507.0,511.0,507.0,511.0
520.0,489.0,517.0,507.0
533.0,464.0,527.0,507.0
528.0,466.0,529.0,504.0
525.0,482.0,524.0,506.0
506.0,515.0,516.0,505.0
495.0,534.0,511.0,506.0
487.0,550.0,508.0,506.0
491.0,530.0,507.0,506.0
500.0,509.0,504.0,508.0
513.0,492.0,503.0,509.0
517.0,503.0,501.0,511.0
521.0,484.0,500.0,508.0
516.0,504.0,492.0,515.0
508.0,510.0,492.0,519.0
505.0,509.0,501.0,517.0
505.0,510.0,501.0,514.0
511.0,495.0,513.0,513.0
526.0,464.0,527.0,510.0
530.0,459.0,529.0,507.0
524.0,458.0,531.0,508.0
514.0,478.0,523.0,507.0
494.0,517.0,514.0,514.0
488.0,509.0,512.0,509.0
493.0,523.0,507.0,510.0
497.0,515.0,507.0,516.0
509.0,496.0,507.0,514.0
522.0,482.0,505.0,520.0
522.0,485.0,503.0,523.0
520.0,499.0,509.0,523.0
508.0,537.0,501.0,524.0
503.0,532.0,498.0,521.0
504.0,522.0,503.0,512.0
511.0,511.0,506.0,513.0
511.0,502.0,512.0,506.0
526.0,476.0,524.0,501.0
526.0,475.0,528.0,501.0
521.0,480.0,525.0,505.0
503.0,512.0,516.0,502.0
498.0,521.0,511.0,504.0
497.0,525.0,507.0,504.0
496.0,522.0,504.0,506.0
505.0,509.0,502.0,509.0
518.0,485.0,502.0,513.0
524.0,478.0,504.0,514.0
522.0,486.0,503.0,518.0
516.0,516.0,496.0,520.0
499.0,536.0,497.0,518.0
500.0,531.0,498.0,515.0
501.0,519.0,506.0,515.0
507.0,496.0,511.0,514.0
522.0,467.0,523.0,514.0
532.0,453.0,531.0,512.0
533.0,461.0,532.0,507.0
525.0,486.0,528.0,504.0
507.0,509.0,513.0,505.0
494.0,531.0,513.0,505.0
494.0,525.0,511.0,507.0
497.0,517.0,507.0,510.0
501.0,514.0,499.0,513.0
521.0,481.0,502.0,515.0
524.0,481.0,499.0,515.0
521.0,480.0,504.0,518.0
510.0,497.0,491.0,518.0
499.0,512.0,493.0,518.0
502.0,499.0,498.0,516.0
503.0,507.0,505.0,515.0
509.0,514.0,515.0,514.0
520.0,507.0,524.0,512.0
525.0,508.0,530.0,510.0
527.0,499.0,532.0,507.0
520.0,487.0,531.0,508.0
503.0,505.0,519.0,507.0
503.0,508.0,518.0,508.0
498.0,523.0,511.0,504.0
496.0,523.0,500.0,507.0
512.0,498.0,500.0,509.0
525.0,482.0,500.0,512.0
521.0,494.0,501.0,517.0
516.0,508.0,499.0,522.0
505.0,523.0,498.0,524.0
500.0,533.0,499.0,526.0
501.0,522.0,506.0,521.0
510.0,494.0,511.0,516.0
515.0,485.0,519.0,514.0
530.0,462.0,533.0,508.0
528.0,471.0,536.0,503.0
522.0,482.0,530.0,503.0
510.0,500.0,523.0,503.0
492.0,521.0,512.0,502.0
488.0,521.0,511.0,500.0
489.0,524.0,505.0,505.0
498.0,515.0,500.0,511.0
521.0,487.0,504.0,509.0
526.0,487.0,501.0,512.0
525.0,483.0,507.0,517.0
515.0,502.0,488.0,516.0
504.0,517.0,493.0,519.0
506.0,508.0,503.0,524.0
507.0,511.0,510.0,516.0
509.0,499.0,515.0,509.0
518.0,497.0,523.0,515.0
526.0,485.0,533.0,509.0
522.0,489.0,535.0,505.0
521.0,502.0,526.0,506.0
503.0,528.0,519.0,508.0
498.0,529.0,513.0,508.0
496.0,539.0,511.0,507.0
495.0,520.0,501.0,506.0
514.0,465.0,502.0,506.0
528.0,461.0,502.0,506.0
527.0,472.0,499.0,510.0
526.0,495.0,499.0,518.0
509.0,514.0,493.0,521.0
495.0,528.0,497.0,521.0
502.0,515.0,506.0,527.0
500.0,526.0,516.0,524.0
503.0,522.0,526.0,523.0
522.0,485.0,536.0,517.0
527.0,474.0,534.0,515.0
523.0,475.0,532.0,505.0
512.0,497.0,516.0,500.0
495.0,526.0,510.0,497.0
488.0,529.0,506.0,497.0
496.0,520.0,506.0,500.0
495.0,518.0,499.0,503.0
508.0,496.0,496.0,506.0
520.0,474.0,502.0,512.0
521.0,480.0,498.0,514.0
522.0,498.0,498.0,517.0
505.0,532.0,495.0,516.0
508.0,525.0,497.0,516.0
513.0,513.0,503.0,515.0
517.0,500.0,511.0,511.0
513.0,501.0,514.0,508.0
529.0,466.0,530.0,507.0
529.0,469.0,530.0,511.0
519.0,480.0,532.0,511.0
506.0,510.0,521.0,510.0
496.0,528.0,517.0,505.0
493.0,537.0,512.0,507.0
494.0,528.0,513.0,510.0
501.0,520.0,503.0,510.0
518.0,495.0,500.0,513.0
525.0,478.0,501.0,515.0
526.0,477.0,500.0,518.0
520.0,498.0,499.0,519.0
505.0,523.0,502.0,522.0
500.0,523.0,509.0,520.0
497.0,540.0,505.0,516.0
508.0,521.0,515.0,514.0
523.0,498.0,524.0,512.0
524.0,480.0,527.0,506.0
525.0,448.0,531.0,506.0
524.0,458.0,528.0,506.0
504.0,500.0,518.0,504.0
496.0,516.0,513.0,510.0
494.0,523.0,511.0,507.0
496.0,524.0,504.0,508.0
505.0,510.0,495.0,509.0
522.0,479.0,498.0,511.0
522.0,476.0,499.0,516.0
521.0,488.0,500.0,518.0
512.0,507.0,497.0,521.0
505.0,525.0,498.0,522.0
502.0,522.0,509.0,520.0
509.0,489.0,509.0,516.0
517.0,481.0,518.0,519.0
529.0,474.0,529.0,511.0
531.0,476.0,526.0,508.0
522.0,486.0,530.0,505.0
510.0,507.0,526.0,505.0
494.0,545.0,514.0,502.0
501.0,525.0,511.0,503.0
497.0,530.0,506.0,506.0
498.0,525.0,499.0,508.0
512.0,505.0,499.0,510.0
521.0,483.0,503.0,512.0
522.0,474.0,499.0,516.0
515.0,489.0,497.0,526.0
503.0,522.0,497.0,518.0
501.0,524.0,500.0,519.0
502.0,515.0,505.0,517.0
507.0,505.0,509.0,514.0
516.0,489.0,521.0,510.0
526.0,459.0,524.0,511.0
524.0,467.0,529.0,509.0
520.0,467.0,529.0,506.0
505.0,507.0,522.0,510.0
492.0,552.0,516.0,511.0
490.0,553.0,514.0,506.0
503.0,523.0,510.0,506.0
509.0,515.0,501.0,510.0
524.0,484.0,502.0,511.0
524.0,487.0,506.0,515.0
523.0,492.0,500.0,520.0
517.0,508.0,495.0,519.0
501.0,528.0,496.0,520.0
507.0,520.0,507.0,519.0
508.0,517.0,508.0,516.0
513.0,505.0,516.0,513.0
522.0,482.0,529.0,513.0
531.0,466.0,535.0,511.0
526.0,474.0,535.0,505.0
517.0,483.0,527.0,506.0
504.0,509.0,519.0,505.0
498.0,502.0,513.0,505.0
495.0,511.0,508.0,505.0
497.0,509.0,508.0,507.0
505.0,499.0,503.0,513.0
523.0,494.0,509.0,518.0
519.0,483.0,510.0,520.0
520.0,472.0,509.0,525.0
511.0,489.0,503.0,525.0
501.0,516.0,499.0,520.0
507.0,531.0,500.0,516.0
510.0,528.0,507.0,511.0
515.0,504.0,514.0,513.0
531.0,484.0,525.0,509.0
528.0,485.0,532.0,504.0
524.0,485.0,528.0,504.0
513.0,505.0,522.0,501.0
499.0,530.0,511.0,497.0
499.0,531.0,511.0,500.0
495.0,531.0,506.0,503.0
496.0,549.0,504.0,505.0
507.0,512.0,503.0,508.0
518.0,497.0,501.0,513.0
521.0,504.0,498.0,514.0
524.0,447.0,498.0,514.0
509.0,502.0,499.0,517.0
509.0,508.0,502.0,514.0
503.0,516.0,503.0,513.0
503.0,519.0,510.0,514.0
512.0,497.0,518.0,509.0
527.0,471.0,530.0,508.0
523.0,474.0,536.0,508.0
519.0,475.0,533.0,507.0
511.0,506.0,522.0,506.0
500.0,517.0,513.0,507.0
493.0,526.0,513.0,506.0
491.0,528.0,506.0,507.0
497.0,519.0,497.0,510.0
519.0,482.0,503.0,513.0
522.0,477.0,500.0,513.0
522.0,475.0,498.0,516.0
516.0,492.0,495.0,521.0
506.0,512.0,495.0,523.0
501.0,514.0,501.0,520.0
499.0,514.0,509.0,521.0
507.0,500.0,522.0,519.0
524.0,477.0,535.0,515.0
530.0,472.0,535.0,516.0
524.0,473.0,537.0,504.0
517.0,495.0,525.0,501.0
493.0,530.0,513.0,498.0
496.0,513.0,514.0,505.0
493.0,515.0,506.0,505.0
493.0,512.0,504.0,504.0
506.0,497.0,501.0,505.0
523.0,476.0,504.0,512.0
527.0,482.0,501.0,512.0
528.0,482.0,500.0,516.0
510.0,509.0,495.0,516.0
502.0,518.0,495.0,517.0
502.0,516.0,502.0,515.0
506.0,511.0,506.0,514.0
511.0,503.0,515.0,513.0
529.0,474.0,528.0,511.0
529.0,481.0,535.0,507.0
524.0,489.0,532.0,506.0
515.0,502.0,526.0,504.0
501.0,521.0,513.0,505.0
501.0,523.0,510.0,504.0
497.0,529.0,506.0,507.0
495.0,539.0,502.0,510.0
508.0,526.0,502.0,512.0
520.0,514.0,504.0,515.0
524.0,490.0,502.0,517.0
515.0,467.0,499.0,519.0
504.0,501.0,495.0,528.0
502.0,506.0,501.0,517.0
505.0,511.0,508.0,518.0
509.0,504.0,514.0,516.0
520.0,491.0,523.0,516.0
530.0,466.0,528.0,510.0
526.0,467.0,527.0,509.0
524.0,470.0,532.0,512.0
505.0,500.0,518.0,507.0
501.0,514.0,515.0,508.0
501.0,505.0,515.0,509.0
500.0,515.0,513.0,507.0
502.0,510.0,503.0,508.0
515.0,484.0,503.0,508.0
524.0,484.0,500.0,513.0
521.0,490.0,499.0,517.0
519.0,510.0,496.0,520.0
507.0,521.0,495.0,520.0
508.0,517.0,503.0,516.0
507.0,518.0,505.0,516.0
513.0,514.0,513.0,511.0
522.0,493.0,525.0,508.0
525.0,480.0,533.0,508.0
522.0,462.0,534.0,506.0
507.0,472.0,530.0,509.0
491.0,505.0,520.0,507.0
494.0,506.0,513.0,502.0
498.0,561.0,506.0,510.0
500.0,539.0,500.0,509.0
509.0,519.0,501.0,508.0
525.0,486.0,504.0,513.0
527.0,487.0,499.0,519.0
527.0,494.0,499.0,520.0
508.0,524.0,497.0,517.0
503.0,528.0,498.0,519.0
507.0,525.0,507.0,517.0
508.0,517.0,513.0,516.0
513.0,499.0,521.0,514.0
533.0,474.0,531.0,513.0
527.0,472.0,529.0,508.0
525.0,474.0,529.0,508.0
513.0,505.0,522.0,505.0
495.0,531.0,510.0,504.0
494.0,526.0,510.0,502.0
495.0,532.0,506.0,503.0
495.0,519.0,502.0,507.0
507.0,490.0,505.0,510.0
519.0,481.0,505.0,513.0
521.0,485.0,497.0,515.0
516.0,488.0,494.0,517.0
504.0,516.0,492.0,517.0
505.0,520.0,499.0,515.0
499.0,528.0,499.0,516.0
506.0,514.0,505.0,512.0
515.0,487.0,520.0,514.0
528.0,464.0,534.0,510.0
527.0,467.0,536.0,506.0
523.0,473.0,527.0,507.0
501.0,521.0,521.0,505.0
503.0,524.0,513.0,508.0
500.0,524.0,515.0,509.0
497.0,524.0,509.0,503.0
508.0,507.0,504.0,516.0
521.0,487.0,505.0,520.0
522.0,488.0,505.0,522.0
521.0,492.0,499.0,520.0
513.0,507.0,495.0,517.0
503.0,525.0,495.0,515.0
505.0,520.0,499.0,509.0
502.0,521.0,500.0,511.0
511.0,506.0,512.0,507.0
523.0,475.0,523.0,508.0
530.0,469.0,535.0,507.0
530.0,477.0,533.0,504.0
527.0,493.0,526.0,502.0
513.0,517.0,517.0,501.0
504.0,520.0,515.0,505.0
505.0,523.0,510.0,504.0
503.0,516.0,504.0,504.0
513.0,502.0,501.0,512.0
526.0,484.0,504.0,512.0
524.0,485.0,497.0,515.0
520.0,483.0,498.0,519.0
511.0,512.0,495.0,520.0
501.0,510.0,498.0,520.0
492.0,510.0,503.0,524.0
499.0,508.0,508.0,515.0
506.0,495.0,518.0,512.0
528.0,470.0,529.0,511.0
529.0,472.0,533.0,506.0
527.0,481.0,533.0,505.0
509.0,514.0,520.0,507.0
500.0,525.0,519.0,507.0
498.0,516.0,512.0,505.0
495.0,514.0,511.0,503.0
500.0,513.0,504.0,507.0
514.0,495.0,504.0,513.0
518.0,494.0,502.0,518.0
511.0,514.0,508.0,518.0
511.0,519.0,497.0,519.0
501.0,531.0,495.0,515.0
498.0,526.0,500.0,520.0
507.0,488.0,506.0,517.0
512.0,472.0,514.0,514.0
517.0,480.0,524.0,514.0
530.0,462.0,533.0,510.0
521.0,468.0,538.0,508.0
513.0,481.0,528.0,505.0
494.0,521.0,519.0,505.0
501.0,509.0,517.0,510.0
495.0,514.0,511.0,507.0
497.0,512.0,507.0,508.0
501.0,508.0,503.0,508.0
516.0,489.0,504.0,513.0
520.0,489.0,501.0,519.0
521.0,483.0,501.0,517.0
511.0,499.0,496.0,519.0
502.0,506.0,502.0,519.0
509.0,502.0,508.0,521.0
499.0,526.0,504.0,514.0
504.0,522.0,513.0,513.0
521.0,503.0,524.0,514.0
528.0,487.0,532.0,507.0
525.0,481.0,532.0,506.0
519.0,489.0,526.0,506.0
507.0,509.0,517.0,503.0
507.0,512.0,515.0,507.0
504.0,519.0,509.0,507.0
503.0,517.0,503.0,508.0
509.0,506.0,500.0,511.0
528.0,482.0,504.0,513.0
522.0,486.0,502.0,518.0
521.0,490.0,501.0,519.0
516.0,514.0,498.0,518.0
513.0,518.0,504.0,518.0
514.0,524.0,500.0,516.0
523.0,512.0,512.0,511.0
523.0,510.0,525.0,511.0
532.0,480.0,526.0,510.0
521.0,476.0,531.0,507.0
511.0,474.0,534.0,508.0
501.0,496.0,524.0,507.0
484.0,512.0,513.0,506.0
488.0,515.0,512.0,508.0
488.0,548.0,508.0,505.0
495.0,540.0,502.0,506.0
508.0,502.0,504.0,511.0
517.0,491.0,506.0,518.0
518.0,479.0,502.0,518.0
511.0,482.0,498.0,520.0
491.0,525.0,498.0,520.0
499.0,524.0,500.0,518.0
502.0,522.0,505.0,514.0
503.0,524.0,511.0,513.0
513.0,502.0,521.0,513.0
524.0,474.0,532.0,512.0
526.0,467.0,534.0,505.0
521.0,480.0,531.0,506.0
500.0,517.0,521.0,508.0
498.0,523.0,517.0,507.0
494.0,532.0,510.0,506.0
495.0,526.0,507.0,507.0
497.0,521.0,499.0,509.0
522.0,485.0,503.0,513.0
530.0,488.0,502.0,512.0
531.0,492.0,498.0,516.0
523.0,513.0,495.0,518.0
516.0,522.0,497.0,518.0
522.0,511.0,502.0,517.0
513.0,522.0,507.0,518.0
519.0,509.0,513.0,513.0
514.0,480.0,525.0,510.0
513.0,477.0,532.0,505.0
514.0,484.0,533.0,505.0
507.0,496.0,526.0,509.0
487.0,522.0,517.0,505.0
489.0,515.0,516.0,504.0
491.0,519.0,510.0,505.0
494.0,516.0,504.0,509.0
504.0,504.0,503.0,509.0
517.0,485.0,505.0,511.0
517.0,487.0,501.0,515.0
516.0,489.0,499.0,518.0
499.0,528.0,495.0,520.0
498.0,527.0,496.0,519.0
501.0,519.0,506.0,516.0
507.0,512.0,508.0,513.0
517.0,496.0,518.0,511.0
530.0,467.0,531.0,509.0
527.0,475.0,535.0,505.0
522.0,480.0,533.0,504.0
509.0,502.0,528.0,510.0
496.0,521.0,512.0,505.0
489.0,528.0,507.0,504.0
492.0,527.0,505.0,509.0
502.0,512.0,502.0,509.0
520.0,490.0,501.0,513.0
525.0,483.0,505.0,512.0
525.0,485.0,499.0,515.0
518.0,497.0,501.0,521.0
511.0,516.0,498.0,517.0
512.0,520.0,498.0,518.0
503.0,528.0,505.0,513.0
504.0,518.0,509.0,511.0
518.0,492.0,523.0,513.0
529.0,468.0,534.0,509.0
529.0,468.0,534.0,504.0
511.0,478.0,531.0,509.0
501.0,513.0,523.0,508.0
496.0,520.0,516.0,505.0
488.0,532.0,512.0,507.0
496.0,533.0,506.0,506.0
502.0,516.0,500.0,509.0
519.0,483.0,505.0,520.0
522.0,483.0,504.0,514.0
520.0,483.0,503.0,519.0
511.0,513.0,500.0,519.0
502.0,518.0,498.0,523.0
501.0,515.0,504.0,519.0
509.0,509.0,510.0,513.0
516.0,504.0,518.0,514.0
531.0,479.0,530.0,509.0
533.0,472.0,534.0,508.0
533.0,478.0,531.0,507.0
524.0,489.0,528.0,503.0
509.0,512.0,519.0,507.0
506.0,517.0,516.0,506.0
502.0,520.0,512.0,507.0
499.0,516.0,506.0,506.0
499.0,506.0,501.0,510.0
518.0,487.0,506.0,513.0
523.0,491.0,503.0,513.0
525.0,499.0,498.0,519.0
512.0,524.0,493.0,519.0
509.0,515.0,502.0,516.0
510.0,510.0,507.0,517.0
513.0,509.0,509.0,516.0
520.0,498.0,521.0,514.0
529.0,473.0,533.0,509.0
529.0,475.0,533.0,506.0
518.0,483.0,533.0,506.0
512.0,509.0,523.0,506.0
507.0,516.0,515.0,506.0
504.0,518.0,512.0,506.0
500.0,520.0,509.0,509.0
497.0,513.0,499.0,507.0
496.0,493.0,505.0,513.0
508.0,491.0,504.0,517.0
514.0,493.0,502.0,518.0
510.0,503.0,495.0,519.0
498.0,524.0,496.0,519.0
505.0,520.0,501.0,518.0
501.0,526.0,504.0,516.0
501.0,513.0,514.0,515.0
519.0,486.0,525.0,510.0
526.0,472.0,530.0,509.0
525.0,471.0,533.0,510.0
530.0,480.0,529.0,508.0
512.0,518.0,520.0,506.0
520.0,508.0,518.0,504.0
517.0,507.0,516.0,505.0
510.0,511.0,509.0,506.0
505.0,520.0,501.0,507.0
516.0,490.0,504.0,511.0
502.0,493.0,503.0,516.0
507.0,489.0,498.0,516.0
502.0,506.0,499.0,520.0
504.0,518.0,498.0,520.0
503.0,519.0,502.0,518.0
494.0,523.0,514.0,516.0
505.0,507.0,515.0,513.0
520.0,483.0,529.0,510.0
522.0,482.0,535.0,507.0
521.0,478.0,536.0,506.0
509.0,486.0,527.0,507.0
489.0,519.0,518.0,505.0
486.0,519.0,517.0,506.0
477.0,538.0,504.0,505.0
480.0,527.0,504.0,508.0
502.0,498.0,502.0,508.0
513.0,482.0,503.0,513.0
517.0,484.0,503.0,515.0
512.0,497.0,501.0,518.0
496.0,530.0,495.0,519.0
499.0,523.0,497.0,518.0
504.0,511.0,506.0,517.0
507.0,506.0,511.0,512.0
513.0,495.0,518.0,510.0
527.0,468.0,528.0,511.0
526.0,468.0,533.0,508.0
523.0,474.0,533.0,507.0
509.0,502.0,524.0,505.0
497.0,514.0,516.0,506.0
493.0,516.0,517.0,507.0
498.0,522.0,510.0,506.0
505.0,524.0,503.0,510.0
515.0,492.0,503.0,510.0
525.0,484.0,504.0,517.0
530.0,481.0,499.0,516.0
525.0,501.0,497.0,515.0
506.0,535.0,498.0,518.0
510.0,523.0,500.0,518.0
505.0,523.0,506.0,514.0
508.0,507.0,513.0,514.0
515.0,495.0,524.0,511.0
524.0,473.0,534.0,507.0
525.0,480.0,533.0,506.0
523.0,487.0,530.0,509.0
505.0,521.0,523.0,504.0
500.0,515.0,520.0,506.0
498.0,536.0,512.0,506.0
489.0,535.0,509.0,509.0
505.0,514.0,504.0,511.0
518.0,488.0,506.0,512.0
513.0,487.0,506.0,516.0
513.0,470.0,500.0,518.0
508.0,497.0,499.0,518.0
497.0,518.0,501.0,520.0
502.0,514.0,505.0,518.0
508.0,515.0,513.0,516.0
513.0,504.0,516.0,513.0
526.0,476.0,528.0,509.0
527.0,472.0,534.0,508.0
525.0,479.0,532.0,506.0
521.0,494.0,525.0,506.0
499.0,515.0,519.0,505.0
502.0,505.0,517.0,507.0
494.0,524.0,509.0,506.0
500.0,522.0,504.0,505.0
511.0,499.0,504.0,512.0
526.0,479.0,505.0,514.0
527.0,483.0,505.0,515.0
527.0,493.0,501.0,519.0
512.0,520.0,495.0,518.0
510.0,516.0,508.0,519.0
511.0,512.0,509.0,514.0
506.0,516.0,509.0,514.0
515.0,499.0,522.0,512.0
526.0,470.0,533.0,507.0
527.0,476.0,538.0,507.0
526.0,481.0,534.0,507.0
514.0,502.0,525.0,508.0
493.0,529.0,514.0,505.0
491.0,526.0,515.0,506.0
479.0,528.0,509.0,507.0
486.0,519.0,506.0,508.0
512.0,486.0,506.0,512.0
521.0,482.0,500.0,512.0
520.0,492.0,503.0,519.0
516.0,500.0,497.0,518.0
504.0,518.0,496.0,520.0
505.0,509.0,504.0,515.0
499.0,520.0,506.0,516.0
504.0,509.0,518.0,515.0
519.0,487.0,525.0,511.0
527.0,472.0,531.0,511.0
525.0,476.0,533.0,507.0
517.0,491.0,528.0,506.0
504.0,517.0,523.0,504.0
511.0,510.0,518.0,504.0
513.0,506.0,512.0,506.0
506.0,514.0,501.0,506.0
506.0,521.0,501.0,510.0
522.0,487.0,505.0,510.0
513.0,492.0,501.0,515.0
514.0,495.0,502.0,517.0
505.0,509.0,495.0,518.0
497.0,520.0,500.0,518.0
504.0,516.0,506.0,514.0
508.0,509.0,509.0,515.0
514.0,498.0,517.0,512.0
536.0,473.0,535.0,511.0
536.0,466.0,532.0,506.0
531.0,470.0,534.0,506.0
519.0,497.0,523.0,506.0
505.0,520.0,514.0,505.0
514.0,508.0,515.0,503.0
498.0,523.0,513.0,508.0
486.0,523.0,507.0,507.0
496.0,504.0,504.0,510.0
512.0,484.0,506.0,513.0
513.0,486.0,500.0,516.0
509.0,495.0,503.0,519.0
500.0,526.0,499.0,518.0
502.0,521.0,503.0,516.0
499.0,521.0,511.0,517.0
508.0,513.0,512.0,516.0
514.0,498.0,523.0,511.0
528.0,467.0,530.0,508.0
525.0,475.0,531.0,507.0
516.0,485.0,534.0,506.0
507.0,508.0,520.0,506.0
498.0,521.0,518.0,506.0
492.0,527.0,512.0,503.0
491.0,528.0,510.0,507.0
499.0,525.0,505.0,513.0
519.0,485.0,506.0,514.0
519.0,480.0,503.0,522.0
513.0,481.0,501.0,515.0
510.0,499.0,498.0,526.0
502.0,516.0,496.0,518.0
507.0,509.0,502.0,509.0
500.0,528.0,506.0,513.0
505.0,518.0,515.0,518.0
516.0,492.0,528.0,511.0
531.0,472.0,534.0,506.0
524.0,479.0,534.0,505.0
523.0,486.0,533.0,506.0
507.0,509.0,522.0,507.0
511.0,508.0,516.0,505.0
505.0,512.0,516.0,506.0
504.0,513.0,510.0,511.0
505.0,513.0,502.0,506.0
518.0,486.0,505.0,511.0
516.0,489.0,501.0,513.0
518.0,493.0,500.0,517.0
507.0,511.0,495.0,521.0
502.0,517.0,499.0,515.0
506.0,513.0,503.0,518.0
503.0,520.0,511.0,526.0
507.0,512.0,517.0,511.0
526.0,478.0,524.0,506.0
525.0,473.0,534.0,505.0
531.0,478.0,535.0,505.0
508.0,497.0,526.0,506.0
499.0,517.0,519.0,504.0
503.0,505.0,516.0,510.0
491.0,522.0,510.0,507.0
497.0,520.0,506.0,508.0
508.0,499.0,504.0,512.0
521.0,484.0,504.0,515.0
522.0,487.0,500.0,515.0
518.0,496.0,499.0,518.0
505.0,519.0,496.0,519.0
510.0,509.0,503.0,524.0
512.0,504.0,508.0,522.0
511.0,505.0,510.0,516.0
521.0,491.0,516.0,512.0
528.0,472.0,531.0,506.0
523.0,485.0,534.0,506.0
523.0,487.0,532.0,505.0
502.0,518.0,520.0,506.0
500.0,515.0,519.0,506.0
502.0,518.0,512.0,507.0
504.0,515.0,511.0,507.0
506.0,511.0,505.0,509.0
522.0,483.0,508.0,516.0
524.0,477.0,503.0,528.0
520.0,485.0,499.0,523.0
512.0,509.0,499.0,513.0
499.0,526.0,499.0,516.0
508.0,511.0,503.0,516.0
506.0,521.0,508.0,513.0
513.0,515.0,513.0,512.0
524.0,492.0,527.0,509.0
534.0,478.0,534.0,506.0
533.0,479.0,532.0,509.0
522.0,494.0,528.0,513.0
499.0,529.0,520.0,507.0
505.0,517.0,518.0,507.0
505.0,518.0,508.0,507.0
499.0,531.0,503.0,503.0
503.0,506.0,502.0,510.0
518.0,486.0,503.0,512.0
517.0,491.0,500.0,513.0
503.0,493.0,501.0,516.0
498.0,520.0,497.0,519.0
495.0,520.0,510.0,522.0
507.0,508.0,502.0,517.0
501.0,510.0,504.0,512.0
506.0,501.0,518.0,514.0
526.0,476.0,529.0,508.0
525.0,473.0,532.0,508.0
520.0,475.0,530.0,505.0
513.0,498.0,525.0,505.0
500.0,512.0,516.0,507.0
507.0,505.0,513.0,512.0
496.0,520.0,508.0,509.0
503.0,512.0,505.0,508.0
516.0,488.0,501.0,508.0
518.0,479.0,500.0,518.0
520.0,488.0,494.0,516.0
511.0,502.0,492.0,509.0
494.0,530.0,492.0,519.0
499.0,526.0,499.0,521.0
512.0,504.0,512.0,521.0
516.0,499.0,516.0,519.0
519.0,495.0,522.0,511.0
530.0,474.0,534.0,509.0
527.0,480.0,534.0,507.0
525.0,483.0,528.0,503.0
504.0,514.0,523.0,502.0
492.0,520.0,514.0,509.0
485.0,529.0,513.0,508.0
488.0,528.0,506.0,510.0
498.0,518.0,495.0,517.0
516.0,490.0,503.0,512.0
516.0,483.0,505.0,514.0
520.0,483.0,506.0,511.0
510.0,505.0,504.0,525.0
499.0,525.0,504.0,530.0
508.0,508.0,504.0,506.0
504.0,516.0,506.0,503.0
508.0,507.0,516.0,515.0
524.0,481.0,522.0,515.0
531.0,475.0,528.0,507.0
530.0,482.0,534.0,505.0
524.0,495.0,531.0,508.0
509.0,520.0,521.0,501.0
506.0,512.0,514.0,491.0
507.0,502.0,509.0,503.0
497.0,509.0,505.0,519.0
492.0,508.0,505.0,513.0
508.0,481.0,509.0,512.0
516.0,480.0,505.0,510.0
517.0,488.0,501.0,519.0
505.0,512.0,498.0,521.0
505.0,508.0,502.0,520.0
503.0,528.0,506.0,522.0
508.0,524.0,516.0,521.0
514.0,513.0,522.0,523.0
530.0,482.0,530.0,507.0
527.0,482.0,532.0,495.0
526.0,483.0,532.0,499.0
516.0,506.0,526.0,507.0
497.0,533.0,520.0,509.0
500.0,521.0,518.0,509.0
495.0,526.0,508.0,507.0
499.0,514.0,507.0,512.0
523.0,461.0,504.0,512.0
533.0,469.0,505.0,513.0
524.0,482.0,502.0,513.0
517.0,491.0,498.0,519.0
506.0,522.0,499.0,517.0
511.0,511.0,501.0,518.0
506.0,513.0,508.0,516.0
501.0,503.0,518.0,514.0
517.0,485.0,520.0,511.0
534.0,463.0,528.0,507.0
537.0,460.0,534.0,504.0
534.0,466.0,531.0,501.0
520.0,500.0,523.0,506.0
515.0,504.0,516.0,499.0
512.0,527.0,505.0,501.0
483.0,544.0,507.0,521.0
489.0,528.0,504.0,511.0
512.0,488.0,507.0,509.0
520.0,489.0,500.0,503.0
514.0,492.0,499.0,510.0
508.0,509.0,506.0,523.0
494.0,532.0,496.0,520.0
496.0,517.0,499.0,518.0
499.0,512.0,515.0,516.0
509.0,501.0,518.0,512.0
520.0,481.0,527.0,509.0
528.0,473.0,537.0,511.0
527.0,479.0,525.0,499.0
523.0,496.0,523.0,504.0
504.0,530.0,521.0,517.0
511.0,527.0,519.0,503.0
520.0,516.0,517.0,503.0
509.0,513.0,500.0,505.0
520.0,505.0,503.0,507.0
533.0,484.0,511.0,515.0
529.0,487.0,503.0,505.0
525.0,490.0,496.0,496.0
482.0,521.0,497.0,521.0
483.0,521.0,501.0,518.0
492.0,520.0,503.0,517.0
493.0,515.0,512.0,520.0
499.0,508.0,517.0,514.0
511.0,478.0,528.0,508.0
512.0,478.0,536.0,506.0
514.0,482.0,531.0,506.0
504.0,500.0,525.0,506.0
494.0,518.0,518.0,507.0
496.0,516.0,517.0,505.0
489.0,525.0,510.0,508.0
495.0,515.0,501.0,509.0
508.0,495.0,502.0,510.0
516.0,487.0,502.0,511.0
514.0,486.0,504.0,513.0
513.0,499.0,497.0,515.0
506.0,529.0,487.0,519.0
510.0,508.0,498.0,525.0
513.0,501.0,513.0,524.0
522.0,502.0,516.0,506.0
532.0,492.0,525.0,508.0
545.0,466.0,535.0,496.0
541.0,477.0,530.0,499.0
524.0,490.0,522.0,510.0
512.0,515.0,524.0,515.0
505.0,517.0,520.0,513.0
495.0,516.0,518.0,522.0
485.0,530.0,475.0,487.0
483.0,525.0,495.0,498.0
505.0,493.0,514.0,528.0
515.0,488.0,514.0,532.0
517.0,492.0,501.0,523.0
506.0,509.0,495.0,542.0
499.0,518.0,501.0,538.0
509.0,504.0,503.0,499.0
501.0,513.0,502.0,505.0
508.0,498.0,522.0,523.0
524.0,482.0,534.0,521.0
527.0,484.0,540.0,534.0
525.0,484.0,532.0,504.0
517.0,494.0,532.0,520.0
495.0,523.0,524.0,511.0
500.0,520.0,519.0,494.0
497.0,517.0,522.0,531.0
501.0,514.0,501.0,501.0
512.0,503.0,491.0,509.0
519.0,480.0,491.0,521.0
526.0,477.0,504.0,507.0
526.0,489.0,495.0,525.0
505.0,533.0,483.0,539.0
499.0,528.0,506.0,528.0
512.0,513.0,516.0,506.0
513.0,515.0,521.0,514.0
514.0,503.0,520.0,512.0
526.0,477.0,535.0,516.0
528.0,473.0,536.0,505.0
519.0,479.0,539.0,498.0
506.0,502.0,531.0,520.0
500.0,524.0,510.0,506.0
502.0,517.0,519.0,513.0
497.0,527.0,518.0,516.0
510.0,522.0,510.0,514.0
528.0,493.0,498.0,510.0
535.0,486.0,504.0,513.0
527.0,493.0,501.0,514.0
525.0,504.0,496.0,504.0
517.0,527.0,500.0,522.0
517.0,519.0,503.0,513.0
509.0,523.0,498.0,509.0
512.0,511.0,514.0,527.0
521.0,495.0,524.0,515.0
541.0,475.0,536.0,506.0
534.0,482.0,536.0,509.0
531.0,492.0,530.0,509.0
501.0,523.0,524.0,498.0
494.0,534.0,518.0,490.0
494.0,524.0,505.0,487.0
477.0,507.0,507.0,510.0
472.0,510.0,505.0,524.0
494.0,483.0,511.0,512.0
506.0,483.0,504.0,514.0
511.0,489.0,498.0,512.0
503.0,513.0,509.0,522.0
491.0,532.0,505.0,525.0
510.0,522.0,495.0,524.0
516.0,519.0,507.0,521.0
534.0,506.0,517.0,516.0
551.0,482.0,529.0,502.0
552.0,469.0,534.0,500.0
549.0,469.0,529.0,503.0
535.0,482.0,534.0,509.0
488.0,517.0,523.0,511.0
478.0,529.0,516.0,505.0
470.0,530.0,498.0,503.0
487.0,522.0,502.0,496.0
501.0,507.0,509.0,512.0
516.0,484.0,503.0,517.0
515.0,484.0,511.0,514.0
517.0,491.0,503.0,522.0
490.0,523.0,502.0,513.0
486.0,536.0,496.0,505.0
503.0,508.0,511.0,525.0
506.0,501.0,516.0,503.0
515.0,486.0,519.0,498.0
526.0,465.0,533.0,522.0
527.0,465.0,534.0,510.0
523.0,479.0,535.0,517.0
507.0,512.0,529.0,512.0
499.0,527.0,509.0,486.0
500.0,523.0,510.0,492.0
496.0,529.0,519.0,525.0
504.0,521.0,511.0,524.0
517.0,493.0,504.0,518.0
519.0,486.0,495.0,518.0
516.0,486.0,484.0,534.0
514.0,496.0,488.0,532.0
510.0,528.0,497.0,513.0
506.0,518.0,497.0,505.0
507.0,518.0,510.0,519.0
518.0,514.0,517.0,529.0
521.0,497.0,507.0,522.0
522.0,475.0,530.0,515.0
507.0,480.0,541.0,476.0
508.0,486.0,535.0,499.0
498.0,512.0,506.0,498.0
491.0,517.0,511.0,516.0
494.0,512.0,520.0,514.0
488.0,525.0,512.0,505.0
501.0,509.0,504.0,509.0
525.0,480.0,509.0,521.0
521.0,492.0,501.0,508.0
513.0,493.0,497.0,507.0
507.0,516.0,490.0,503.0
494.0,527.0,491.0,510.0
506.0,518.0,505.0,534.0
518.0,519.0,516.0,521.0
527.0,508.0,513.0,517.0
543.0,472.0,533.0,505.0
543.0,469.0,548.0,515.0
541.0,475.0,529.0,501.0
533.0,488.0,516.0,507.0
517.0,522.0,525.0,493.0
511.0,513.0,513.0,484.0
513.0,517.0,509.0,516.0
527.0,511.0,508.0,507.0
528.0,499.0,477.0,475.0
535.0,485.0,519.0,543.0
516.0,481.0,516.0,529.0
503.0,493.0,502.0,519.0
490.0,522.0,503.0,544.0
481.0,530.0,499.0,519.0
495.0,523.0,493.0,502.0
488.0,514.0,489.0,520.0
511.0,499.0,537.0,515.0
545.0,469.0,552.0,506.0
569.0,469.0,529.0,513.0
586.0,468.0,514.0,502.0
571.0,497.0,517.0,537.0
559.0,508.0,516.0,530.0
546.0,507.0,530.0,500.0
519.0,514.0,525.0,506.0
483.0,520.0,514.0,505.0
447.0,502.0,511.0,507.0
479.0,489.0,505.0,534.0
512.0,470.0,518.0,523.0
540.0,494.0,520.0,519.0
537.0,532.0,488.0,511.0
553.0,520.0,480.0,504.0
560.0,496.0,519.0,523.0
554.0,494.0,524.0,531.0
548.0,472.0,519.0,523.0
523.0,472.0,523.0,515.0
480.0,490.0,566.0,507.0
481.0,501.0,534.0,505.0
479.0,524.0,508.0,516.0
495.0,518.0,468.0,522.0
460.0,527.0,513.0,538.0
444.0,542.0,533.0,506.0
471.0,518.0,506.0,478.0
492.0,485.0,499.0,503.0
497.0,485.0,509.0,526.0
489.0,489.0,515.0,543.0
480.0,506.0,498.0,535.0
489.0,518.0,487.0,515.0
515.0,505.0,501.0,516.0
510.0,518.0,524.0,513.0
526.0,518.0,514.0,510.0
563.0,482.0,500.0,474.0
579.0,477.0,538.0,529.0
573.0,468.0,536.0,530.0
556.0,485.0,531.0,508.0
510.0,526.0,528.0,515.0
495.0,517.0,536.0,522.0
449.0,534.0,506.0,500.0
431.0,536.0,506.0,525.0
460.0,506.0,513.0,525.0
495.0,485.0,493.0,509.0
502.0,488.0,519.0,511.0
504.0,492.0,505.0,472.0
496.0,520.0,489.0,457.0
487.0,523.0,457.0,482.0
483.0,522.0,496.0,578.0
494.0,499.0,525.0,535.0
519.0,485.0,532.0,483.0
537.0,459.0,529.0,497.0
519.0,473.0,532.0,533.0
493.0,493.0,543.0,521.0
478.0,524.0,538.0,519.0
462.0,542.0,519.0,515.0
483.0,522.0,515.0,508.0
483.0,519.0,537.0,489.0
492.0,514.0,554.0,493.0
519.0,492.0,483.0,494.0
525.0,490.0,456.0,540.0
522.0,489.0,523.0,540.0
518.0,499.0,523.0,542.0
492.0,528.0,506.0,546.0
498.0,519.0,498.0,530.0
494.0,514.0,512.0,542.0
492.0,511.0,523.0,516.0
504.0,489.0,518.0,487.0
517.0,475.0,563.0,502.0
517.0,477.0,567.0,522.0
519.0,478.0,519.0,504.0
510.0,507.0,523.0,515.0
510.0,504.0,529.0,508.0
522.0,515.0,517.0,497.0
534.0,512.0,522.0,480.0
543.0,502.0,551.0,485.0
554.0,481.0,487.0,537.0
551.0,476.0,469.0,594.0
545.0,488.0,508.0,532.0
508.0,509.0,507.0,489.0
469.0,534.0,490.0,523.0
505.0,513.0,555.0,555.0
508.0,506.0,530.0,539.0
514.0,501.0,525.0,526.0
521.0,486.0,533.0,508.0
517.0,476.0,513.0,514.0
528.0,475.0,592.0,444.0
523.0,495.0,533.0,491.0
480.0,530.0,490.0,641.0
473.0,527.0,534.0,571.0
477.0,526.0,502.0,525.0
503.0,511.0,528.0,492.0
532.0,492.0,495.0,448.0
552.0,480.0,480.0,508.0
558.0,482.0,516.0,576.0
558.0,485.0,517.0,539.0
570.0,509.0,501.0,494.0
561.0,503.0,512.0,510.0
517.0,497.0,519.0,533.0
512.0,488.0,515.0,529.0
519.0,483.0,470.0,473.0
518.0,473.0,544.0,492.0
478.0,481.0,556.0,509.0
466.0,492.0,553.0,531.0
480.0,515.0,528.0,499.0
497.0,524.0,509.0,498.0
512.0,515.0,557.0,533.0
516.0,525.0,549.0,448.0
542.0,509.0,464.0,418.0
576.0,473.0,452.0,456.0
594.0,470.0,501.0,540.0
598.0,472.0,529.0,513.0
593.0,496.0,526.0,576.0
548.0,522.0,511.0,546.0
510.0,515.0,507.0,556.0
459.0,516.0,538.0,557.0
452.0,507.0,546.0,556.0
495.0,478.0,495.0,500.0
478.0,483.0,476.0,461.0
487.0,480.0,555.0,520.0
492.0,486.0,560.0,543.0
487.0,527.0,540.0,563.0
474.0,514.0,565.0,516.0
478.0,505.0,493.0,477.0
473.0,518.0,496.0,516.0
495.0,509.0,545.0,534.0
568.0,476.0,497.0,543.0
619.0,474.0,519.0,537.0
633.0,473.0,452.0,499.0
619.0,490.0,509.0,535.0
614.0,500.0,509.0,520.0
600.0,495.0,523.0,468.0
530.0,497.0,523.0,476.0
401.0,521.0,509.0,548.0
447.0,496.0,546.0,544.0
485.0,483.0,523.0,498.0
502.0,486.0,516.0,508.0
503.0,504.0,529.0,538.0
455.0,527.0,516.0,508.0
432.0,509.0,552.0,467.0
440.0,517.0,592.0,570.0
427.0,538.0,599.0,561.0
461.0,521.0,471.0,530.0
489.0,501.0,487.0,505.0
503.0,500.0,491.0,497.0
480.0,516.0,497.0,545.0
453.0,543.0,461.0,523.0
462.0,552.0,505.0,473.0
492.0,512.0,487.0,466.0
515.0,492.0,522.0,578.0
518.0,484.0,512.0,514.0
525.0,473.0,542.0,510.0
531.0,471.0,549.0,508.0
521.0,476.0,602.0,545.0
481.0,520.0,510.0,483.0
459.0,533.0,474.0,530.0
474.0,518.0,536.0,527.0
481.0,521.0,517.0,472.0
492.0,509.0,466.0,480.0
511.0,487.0,527.0,552.0
516.0,491.0,527.0,493.0
511.0,496.0,498.0,537.0
505.0,513.0,479.0,493.0
507.0,522.0,488.0,470.0
508.0,509.0,515.0,539.0
507.0,492.0,539.0,487.0
507.0,504.0,498.0,433.0
516.0,489.0,478.0,483.0
535.0,463.0,581.0,585.0
525.0,472.0,543.0,425.0
521.0,487.0,541.0,518.0
500.0,519.0,590.0,614.0
504.0,527.0,498.0,498.0
500.0,522.0,489.0,479.0
507.0,521.0,557.0,549.0
524.0,519.0,481.0,491.0
538.0,491.0,499.0,521.0
568.0,480.0,543.0,535.0
585.0,469.0,464.0,513.0
590.0,495.0,507.0,480.0
553.0,522.0,535.0,550.0
537.0,512.0,498.0,423.0
521.0,512.0,510.0,593.0
518.0,504.0,511.0,605.0
530.0,462.0,540.0,554.0
484.0,479.0,483.0,511.0
516.0,490.0,605.0,507.0
546.0,520.0,708.0,542.0
553.0,532.0,505.0,513.0
567.0,507.0,424.0,508.0
585.0,492.0,544.0,557.0
558.0,493.0,478.0,460.0
501.0,495.0,504.0,492.0
505.0,472.0,516.0,563.0
511.0,490.0,518.0,564.0
488.0,521.0,501.0,500.0
478.0,546.0,473.0,413.0
494.0,535.0,510.0,563.0
506.0,520.0,502.0,572.0
546.0,500.0,487.0,598.0
566.0,485.0,522.0,530.0
630.0,446.0,572.0,434.0
670.0,426.0,530.0,458.0
679.0,436.0,470.0,344.0
632.0,483.0,507.0,426.0
589.0,502.0,553.0,587.0
541.0,531.0,708.0,556.0
494.0,539.0,556.0,525.0
423.0,523.0,521.0,505.0
427.0,503.0,491.0,375.0
475.0,478.0,607.0,645.0
475.0,483.0,469.0,606.0
473.0,514.0,468.0,508.0
469.0,544.0,511.0,580.0
486.0,532.0,486.0,484.0
498.0,528.0,644.0,538.0
592.0,502.0,621.0,555.0
755.0,448.0,450.0,450.0
836.0,421.0,458.0,526.0
837.0,438.0,468.0,637.0
761.0,461.0,562.0,552.0
651.0,478.0,627.0,543.0
430.0,497.0,474.0,457.0
275.0,531.0,499.0,484.0
237.0,559.0,534.0,539.0
250.0,560.0,448.0,473.0
338.0,513.0,492.0,498.0
380.0,505.0,511.0,542.0
393.0,501.0,567.0,561.0
395.0,547.0,671.0,472.0
420.0,551.0,459.0,435.0
439.0,528.0,405.0,575.0
466.0,524.0,490.0,498.0
487.0,503.0,505.0,540.0
517.0,482.0,499.0,499.0
509.0,489.0,581.0,480.0
483.0,486.0,503.0,452.0
412.0,533.0,454.0,382.0
402.0,564.0,611.0,506.0
438.0,550.0,496.0,506.0
451.0,539.0,499.0,496.0
454.0,554.0,493.0,460.0
471.0,536.0,509.0,549.0
489.0,518.0,510.0,472.0
495.0,510.0,503.0,524.0
500.0,495.0,488.0,550.0
493.0,502.0,481.0,453.0
498.0,501.0,472.0,401.0
500.0,509.0,505.0,566.0
497.0,529.0,443.0,467.0
511.0,477.0,501.0,470.0
530.0,436.0,508.0,565.0
527.0,461.0,514.0,524.0
522.0,475.0,525.0,482.0
511.0,502.0,569.0,599.0
505.0,497.0,511.0,498.0
509.0,503.0,528.0,509.0
504.0,511.0,581.0,544.0
504.0,532.0,459.0,495.0
525.0,506.0,401.0,498.0
523.0,503.0,503.0,528.0
516.0,507.0,517.0,442.0
518.0,507.0,515.0,621.0
516.0,514.0,486.0,612.0
523.0,510.0,429.0,456.0
528.0,503.0,424.0,480.0
535.0,496.0,542.0,485.0
551.0,478.0,702.0,556.0
565.0,463.0,722.0,530.0
563.0,463.0,530.0,477.0
531.0,488.0,432.0,519.0
507.0,524.0,631.0,515.0
498.0,521.0,625.0,539.0
520.0,518.0,433.0,584.0
540.0,506.0,428.0,522.0
537.0,501.0,498.0,509.0
543.0,494.0,576.0,470.0
522.0,481.0,493.0,462.0
512.0,510.0,561.0,550.0
516.0,544.0,555.0,568.0
524.0,527.0,508.0,501.0
536.0,519.0,420.0,499.0
519.0,522.0,446.0,448.0
530.0,516.0,527.0,496.0
550.0,479.0,565.0,509.0
546.0,482.0,494.0,448.0
569.0,478.0,555.0,499.0
567.0,498.0,538.0,459.0
572.0,510.0,460.0,483.0
576.0,511.0,531.0,599.0
603.0,506.0,529.0,535.0
580.0,516.0,528.0,454.0
569.0,497.0,437.0,424.0
593.0,489.0,475.0,522.0
585.0,491.0,452.0,420.0
584.0,495.0,416.0,615.0
529.0,514.0,487.0,589.0
539.0,501.0,522.0,529.0
506.0,504.0,535.0,504.0
442.0,525.0,538.0,521.0
495.0,500.0,589.0,547.0
513.0,496.0,539.0,489.0
527.0,490.0,491.0,480.0
509.0,495.0,533.0,512.0
490.0,508.0,510.0,511.0
491.0,510.0,510.0,537.0
514.0,500.0,509.0,496.0
516.0,512.0,489.0,484.0
502.0,528.0,445.0,493.0
520.0,487.0,515.0,495.0
490.0,490.0,531.0,534.0
469.0,487.0,492.0,505.0
493.0,513.0,479.0,447.0
521.0,537.0,494.0,545.0
569.0,553.0,438.0,550.0
604.0,528.0,381.0,524.0
623.0,500.0,480.0,507.0
620.0,451.0,626.0,519.0
551.0,453.0,584.0,500.0
402.0,483.0,538.0,503.0
363.0,503.0,561.0,513.0
342.0,558.0,503.0,452.0
367.0,565.0,551.0,503.0
413.0,539.0,528.0,504.0
436.0,539.0,504.0,505.0
463.0,504.0,501.0,425.0
481.0,476.0,501.0,480.0
497.0,492.0,489.0,530.0
545.0,500.0,527.0,571.0
560.0,514.0,451.0,521.0
545.0,512.0,429.0,474.0
569.0,480.0,504.0,529.0
556.0,474.0,546.0,498.0
473.0,503.0,703.0,511.0
442.0,507.0,650.0,507.0
421.0,522.0,450.0,499.0
450.0,508.0,592.0,529.0
461.0,525.0,528.0,573.0
443.0,552.0,498.0,502.0
445.0,534.0,534.0,500.0
469.0,522.0,591.0,535.0
484.0,523.0,535.0,524.0
501.0,515.0,295.0,515.0
516.0,501.0,487.0,497.0
516.0,504.0,549.0,503.0
510.0,515.0,535.0,502.0
471.0,566.0,500.0,531.0
479.0,549.0,448.0,552.0
496.0,517.0,480.0,527.0
495.0,524.0,515.0,525.0
508.0,502.0,528.0,481.0
517.0,482.0,549.0,353.0
541.0,467.0,510.0,340.0
539.0,469.0,551.0,654.0
511.0,500.0,519.0,599.0
499.0,534.0,385.0,491.0
497.0,547.0,510.0,557.0
498.0,534.0,518.0,584.0
527.0,505.0,541.0,493.0
536.0,485.0,558.0,466.0
545.0,485.0,554.0,495.0
536.0,494.0,461.0,567.0
534.0,500.0,456.0,519.0
510.0,505.0,597.0,492.0
492.0,513.0,464.0,486.0
499.0,513.0,458.0,407.0
515.0,521.0,506.0,501.0
529.0,488.0,440.0,596.0
538.0,474.0,620.0,567.0
545.0,480.0,510.0,530.0
542.0,471.0,557.0,512.0
513.0,524.0,509.0,488.0
509.0,545.0,494.0,435.0
527.0,528.0,486.0,445.0
520.0,533.0,534.0,523.0
546.0,517.0,494.0,506.0
611.0,493.0,498.0,592.0
621.0,464.0,439.0,509.0
643.0,443.0,408.0,525.0
621.0,474.0,500.0,489.0
621.0,501.0,490.0,510.0
578.0,527.0,485.0,489.0
585.0,528.0,502.0,543.0
637.0,494.0,536.0,550.0
689.0,420.0,548.0,544.0
606.0,426.0,528.0,471.0
514.0,469.0,568.0,508.0
434.0,528.0,599.0,521.0
376.0,556.0,499.0,510.0
409.0,529.0,530.0,510.0
427.0,512.0,500.0,476.0
402.0,528.0,487.0,526.0
485.0,491.0,466.0,489.0
515.0,497.0,579.0,466.0
518.0,501.0,562.0,431.0
532.0,494.0,499.0,611.0
494.0,502.0,360.0,518.0
454.0,511.0,485.0,561.0
409.0,530.0,818.0,586.0
418.0,554.0,611.0,546.0
474.0,525.0,316.0,436.0
512.0,485.0,613.0,499.0
523.0,462.0,557.0,411.0
510.0,481.0,475.0,371.0
481.0,522.0,487.0,480.0
498.0,509.0,502.0,537.0
529.0,506.0,547.0,536.0
499.0,524.0,476.0,551.0
485.0,528.0,461.0,475.0
511.0,500.0,531.0,500.0
533.0,486.0,543.0,520.0
536.0,488.0,463.0,500.0
526.0,512.0,540.0,602.0
555.0,502.0,495.0,514.0
632.0,476.0,502.0,511.0
614.0,510.0,478.0,468.0
599.0,520.0,545.0,524.0
557.0,454.0,541.0,456.0
557.0,426.0,540.0,537.0
534.0,455.0,563.0,543.0
414.0,508.0,629.0,506.0
423.0,518.0,501.0,514.0
412.0,557.0,486.0,530.0
401.0,553.0,458.0,522.0
403.0,550.0,426.0,628.0
412.0,556.0,467.0,566.0
458.0,513.0,473.0,446.0
474.0,522.0,527.0,518.0
485.0,522.0,530.0,528.0
495.0,515.0,483.0,498.0
492.0,509.0,447.0,484.0
482.0,503.0,454.0,479.0
467.0,510.0,482.0,536.0
481.0,509.0,546.0,486.0
497.0,497.0,535.0,507.0
504.0,486.0,532.0,511.0
510.0,500.0,544.0,509.0
502.0,524.0,552.0,474.0
493.0,531.0,500.0,431.0
491.0,531.0,436.0,537.0
490.0,537.0,499.0,560.0
488.0,525.0,522.0,442.0
502.0,497.0,559.0,500.0
514.0,485.0,495.0,471.0
517.0,476.0,425.0,452.0
521.0,496.0,383.0,476.0
503.0,537.0,540.0,635.0
515.0,529.0,530.0,530.0
532.0,500.0,459.0,433.0
554.0,498.0,558.0,450.0
585.0,486.0,448.0,379.0
623.0,468.0,546.0,554.0
616.0,463.0,563.0,491.0
568.0,471.0,570.0,541.0
527.0,496.0,513.0,517.0
506.0,499.0,579.0,624.0
455.0,517.0,562.0,556.0
484.0,519.0,538.0,489.0
509.0,525.0,503.0,497.0
527.0,506.0,513.0,584.0
533.0,486.0,514.0,492.0
475.0,498.0,550.0,514.0
498.0,506.0,517.0,505.0
533.0,513.0,541.0,642.0
559.0,505.0,435.0,412.0
562.0,510.0,378.0,382.0
591.0,499.0,454.0,554.0
586.0,453.0,566.0,595.0
523.0,476.0,561.0,528.0
556.0,480.0,533.0,544.0
656.0,473.0,536.0,506.0
685.0,501.0,505.0,421.0
680.0,500.0,529.0,530.0
644.0,484.0,526.0,539.0
610.0,481.0,565.0,550.0
408.0,487.0,885.0,533.0
347.0,489.0,388.0,477.0
416.0,514.0,258.0,528.0
426.0,517.0,446.0,515.0
437.0,512.0,494.0,420.0
411.0,510.0,491.0,447.0
411.0,504.0,503.0,573.0
469.0,504.0,490.0,524.0
466.0,513.0,506.0,504.0
464.0,508.0,470.0,521.0
508.0,501.0,479.0,582.0
523.0,500.0,499.0,545.0
526.0,516.0,592.0,501.0
505.0,532.0,581.0,512.0
524.0,530.0,519.0,513.0
550.0,534.0,454.0,513.0
545.0,514.0,466.0,526.0
558.0,490.0,508.0,482.0
557.0,486.0,551.0,494.0
555.0,468.0,525.0,525.0
491.0,504.0,464.0,464.0
433.0,552.0,471.0,508.0
445.0,552.0,484.0,495.0
512.0,508.0,531.0,494.0
552.0,496.0,550.0,514.0
578.0,472.0,545.0,545.0
560.0,464.0,493.0,499.0
569.0,476.0,581.0,584.0
519.0,500.0,519.0,492.0
358.0,539.0,464.0,413.0
384.0,532.0,431.0,460.0
381.0,547.0,533.0,449.0
411.0,531.0,580.0,505.0
450.0,518.0,478.0,466.0
488.0,507.0,548.0,515.0
497.0,503.0,597.0,593.0
520.0,478.0,434.0,540.0
505.0,516.0,446.0,493.0
481.0,544.0,486.0,517.0
494.0,502.0,429.0,448.0
462.0,513.0,516.0,455.0
462.0,522.0,535.0,471.0
499.0,486.0,544.0,479.0
512.0,478.0,574.0,642.0
518.0,486.0,545.0,605.0
494.0,509.0,518.0,519.0
488.0,530.0,559.0,498.0
494.0,529.0,504.0,504.0
506.0,509.0,509.0,575.0
498.0,517.0,466.0,543.0
517.0,505.0,514.0,520.0
526.0,493.0,533.0,546.0
525.0,495.0,590.0,485.0
535.0,490.0,410.0,509.0
521.0,515.0,448.0,507.0
516.0,512.0,497.0,498.0
531.0,500.0,506.0,448.0
539.0,490.0,458.0,447.0
536.0,484.0,644.0,584.0
525.0,478.0,452.0,536.0
526.0,494.0,428.0,442.0
541.0,488.0,541.0,460.0
537.0,504.0,815.0,576.0
550.0,525.0,653.0,527.0
587.0,507.0,372.0,458.0
602.0,467.0,443.0,471.0
624.0,448.0,446.0,428.0
605.0,431.0,497.0,547.0
554.0,473.0,509.0,598.0
452.0,528.0,533.0,531.0
434.0,561.0,616.0,533.0
429.0,581.0,445.0,532.0
438.0,554.0,113.0,415.0
477.0,521.0,343.0,326.0
490.0,527.0,701.0,493.0
542.0,502.0,599.0,509.0
607.0,468.0,579.0,600.0
627.0,469.0,555.0,574.0
640.0,471.0,517.0,559.0
566.0,513.0,571.0,515.0
529.0,500.0,531.0,500.0
456.0,527.0,513.0,535.0
443.0,533.0,474.0,533.0
481.0,523.0,513.0,522.0
545.0,473.0,592.0,544.0
565.0,464.0,529.0,544.0
535.0,489.0,467.0,491.0
490.0,517.0,459.0,516.0
498.0,513.0,490.0,563.0
402.0,562.0,493.0,503.0
458.0,542.0,508.0,469.0
569.0,489.0,473.0,456.0
641.0,439.0,526.0,522.0
634.0,450.0,511.0,485.0
610.0,466.0,567.0,542.0
562.0,471.0,529.0,539.0
475.0,514.0,476.0,492.0
446.0,542.0,460.0,463.0
432.0,565.0,566.0,505.0
438.0,531.0,543.0,491.0
388.0,538.0,354.0,436.0
365.0,540.0,568.0,589.0
419.0,536.0,608.0,409.0
451.0,526.0,382.0,435.0
448.0,541.0,446.0,501.0
449.0,542.0,528.0,652.0
477.0,539.0,496.0,611.0
516.0,501.0,537.0,489.0
529.0,474.0,554.0,495.0
529.0,452.0,547.0,514.0
527.0,468.0,641.0,415.0
492.0,491.0,505.0,383.0
473.0,535.0,399.0,590.0
490.0,529.0,498.0,608.0
520.0,511.0,489.0,584.0
547.0,481.0,528.0,495.0
577.0,451.0,498.0,393.0
592.0,442.0,445.0,385.0
579.0,460.0,469.0,482.0
489.0,483.0,478.0,542.0
455.0,509.0,482.0,540.0
482.0,526.0,508.0,538.0
504.0,527.0,498.0,567.0
505.0,531.0,576.0,577.0
503.0,523.0,581.0,553.0
495.0,492.0,417.0,527.0
506.0,475.0,475.0,489.0
514.0,475.0,740.0,481.0
516.0,488.0,664.0,481.0
490.0,532.0,398.0,515.0
482.0,533.0,450.0,526.0
476.0,533.0,482.0,497.0
469.0,541.0,472.0,400.0
516.0,509.0,514.0,523.0
547.0,450.0,484.0,551.0
569.0,451.0,464.0,507.0
578.0,488.0,453.0,519.0
532.0,534.0,546.0,619.0
499.0,559.0,567.0,527.0
512.0,531.0,439.0,448.0
489.0,502.0,493.0,413.0
483.0,488.0,564.0,557.0
504.0,480.0,523.0,560.0
519.0,471.0,570.0,457.0
513.0,464.0,480.0,390.0
507.0,499.0,437.0,546.0
501.0,533.0,489.0,541.0
502.0,529.0,543.0,561.0
512.0,519.0,527.0,488.0
470.0,545.0,546.0,488.0
482.0,514.0,521.0,477.0
518.0,486.0,433.0,516.0
556.0,485.0,404.0,519.0
561.0,486.0,599.0,564.0
532.0,522.0,569.0,541.0
510.0,523.0,567.0,499.0
488.0,536.0,588.0,546.0
498.0,517.0,405.0,502.0
506.0,499.0,488.0,465.0
544.0,463.0,530.0,529.0
563.0,461.0,520.0,496.0
581.0,470.0,561.0,530.0
580.0,485.0,518.0,536.0
520.0,518.0,476.0,488.0
501.0,532.0,556.0,472.0
541.0,524.0,556.0,507.0
614.0,506.0,509.0,486.0
648.0,475.0,520.0,535.0
630.0,466.0,539.0,523.0
630.0,461.0,599.0,533.0
536.0,496.0,474.0,490.0
401.0,550.0,393.0,448.0
364.0,548.0,487.0,526.0
428.0,495.0,509.0,501.0
459.0,480.0,456.0,514.0
500.0,466.0,438.0,474.0
544.0,468.0,507.0,463.0
556.0,476.0,488.0,553.0
544.0,494.0,536.0,502.0
519.0,536.0,613.0,514.0
509.0,529.0,500.0,526.0
460.0,505.0,602.0,521.0
402.0,551.0,525.0,533.0
368.0,545.0,454.0,501.0
450.0,502.0,528.0,487.0
504.0,506.0,494.0,488.0
507.0,502.0,362.0,443.0
486.0,510.0,521.0,536.0
463.0,529.0,518.0,547.0
463.0,536.0,541.0,522.0
472.0,521.0,510.0,479.0
503.0,510.0,489.0,460.0
565.0,459.0,493.0,496.0
554.0,467.0,504.0,510.0
524.0,491.0,558.0,548.0
513.0,488.0,532.0,518.0
485.0,504.0,518.0,516.0
453.0,513.0,506.0,514.0
474.0,505.0,532.0,523.0
504.0,523.0,507.0,512.0
529.0,513.0,469.0,439.0
524.0,508.0,470.0,529.0
478.0,495.0,461.0,545.0
487.0,492.0,504.0,464.0
481.0,533.0,437.0,509.0
473.0,553.0,486.0,450.0
481.0,540.0,605.0,594.0
504.0,512.0,522.0,496.0
514.0,491.0,494.0,534.0
523.0,466.0,512.0,500.0
514.0,478.0,605.0,502.0
505.0,496.0,536.0,517.0
491.0,527.0,467.0,521.0
484.0,531.0,602.0,491.0
495.0,528.0,483.0,562.0
497.0,518.0,475.0,458.0
503.0,510.0,506.0,436.0
523.0,485.0,626.0,494.0
519.0,501.0,513.0,573.0
516.0,507.0,378.0,538.0
510.0,519.0,524.0,510.0
509.0,533.0,509.0,507.0
518.0,507.0,356.0,483.0
512.0,501.0,490.0,494.0
515.0,496.0,604.0,552.0
529.0,474.0,499.0,538.0
532.0,471.0,482.0,523.0
538.0,470.0,565.0,508.0
533.0,479.0,495.0,512.0
515.0,520.0,477.0,518.0
513.0,529.0,549.0,541.0
519.0,523.0,497.0,523.0
517.0,524.0,571.0,465.0
499.0,508.0,459.0,457.0
531.0,484.0,476.0,496.0
557.0,480.0,507.0,507.0
561.0,485.0,501.0,484.0
545.0,520.0,528.0,546.0
566.0,529.0,522.0,555.0
598.0,515.0,452.0,519.0
611.0,499.0,525.0,526.0
634.0,493.0,522.0,492.0
707.0,449.0,487.0,475.0
699.0,443.0,674.0,518.0
567.0,468.0,780.0,517.0
533.0,488.0,383.0,488.0
521.0,508.0,414.0,442.0
407.0,534.0,459.0,448.0
377.0,533.0,456.0,503.0
386.0,538.0,525.0,547.0
410.0,513.0,533.0,548.0
427.0,493.0,490.0,535.0
434.0,495.0,490.0,476.0
422.0,509.0,438.0,466.0
449.0,521.0,441.0,406.0
508.0,512.0,645.0,608.0
533.0,511.0,636.0,632.0
548.0,513.0,363.0,504.0
579.0,496.0,484.0,500.0
600.0,459.0,513.0,514.0
558.0,456.0,569.0,536.0
537.0,460.0,618.0,499.0
525.0,511.0,534.0,498.0
553.0,529.0,517.0,529.0
606.0,523.0,476.0,494.0
651.0,498.0,531.0,503.0
610.0,493.0,504.0,491.0
621.0,456.0,497.0,542.0
569.0,456.0,459.0,466.0
346.0,550.0,504.0,534.0
275.0,587.0,495.0,548.0
338.0,577.0,482.0,499.0
402.0,530.0,398.0,407.0
416.0,514.0,431.0,525.0
434.0,527.0,590.0,582.0
466.0,489.0,568.0,515.0
485.0,472.0,554.0,466.0
489.0,480.0,535.0,529.0
483.0,510.0,600.0,497.0
454.0,543.0,532.0,499.0
442.0,530.0,515.0,464.0
453.0,532.0,457.0,516.0
476.0,518.0,470.0,537.0
499.0,480.0,498.0,503.0
527.0,463.0,521.0,518.0
516.0,481.0,510.0,530.0
497.0,512.0,478.0,510.0
495.0,535.0,459.0,516.0
504.0,535.0,489.0,526.0
505.0,518.0,545.0,537.0
503.0,497.0,543.0,521.0
506.0,498.0,409.0,434.0
531.0,474.0,524.0,522.0
528.0,473.0,566.0,499.0
521.0,478.0,558.0,466.0
514.0,510.0,504.0,400.0
503.0,536.0,487.0,484.0
501.0,537.0,558.0,555.0
504.0,513.0,507.0,579.0
510.0,508.0,502.0,495.0
521.0,482.0,471.0,538.0
534.0,484.0,510.0,551.0
523.0,485.0,553.0,528.0
517.0,509.0,542.0,538.0
502.0,544.0,428.0,387.0
510.0,531.0,413.0,394.0
525.0,519.0,507.0,555.0
531.0,513.0,557.0,588.0
535.0,509.0,548.0,525.0
546.0,483.0,547.0,498.0
545.0,483.0,529.0,541.0
534.0,468.0,570.0,539.0
532.0,486.0,525.0,487.0
507.0,521.0,595.0,426.0
506.0,521.0,403.0,372.0
495.0,519.0,425.0,596.0
489.0,510.0,560.0,587.0
509.0,496.0,554.0,574.0
507.0,502.0,496.0,544.0
515.0,491.0,466.0,526.0
509.0,512.0,490.0,574.0
499.0,530.0,498.0,500.0
500.0,530.0,493.0,509.0
514.0,511.0,523.0,528.0
562.0,492.0,515.0,515.0
611.0,470.0,557.0,551.0
626.0,458.0,522.0,484.0
616.0,463.0,530.0,471.0
605.0,470.0,541.0,478.0
566.0,492.0,529.0,497.0
418.0,531.0,514.0,521.0
428.0,523.0,506.0,483.0
469.0,526.0,487.0,505.0
489.0,523.0,482.0,516.0
538.0,511.0,508.0,517.0
582.0,489.0,499.0,477.0
607.0,472.0,478.0,539.0
614.0,489.0,487.0,525.0
596.0,490.0,538.0,518.0
482.0,514.0,512.0,498.0
425.0,525.0,513.0,516.0
369.0,541.0,506.0,548.0
453.0,501.0,498.0,493.0
533.0,486.0,541.0,485.0
544.0,503.0,585.0,480.0
517.0,514.0,563.0,478.0
513.0,531.0,467.0,497.0
521.0,512.0,494.0,507.0
432.0,523.0,498.0,524.0
420.0,548.0,442.0,479.0
449.0,530.0,463.0,465.0
475.0,511.0,517.0,537.0
473.0,500.0,555.0,505.0
489.0,485.0,469.0,479.0
473.0,525.0,427.0,528.0
491.0,522.0,500.0,619.0
512.0,509.0,505.0,496.0
537.0,501.0,542.0,479.0
567.0,472.0,512.0,507.0
558.0,465.0,488.0,500.0
537.0,463.0,479.0,486.0
525.0,479.0,536.0,494.0
503.0,495.0,541.0,505.0
443.0,534.0,579.0,503.0
459.0,525.0,518.0,487.0
494.0,507.0,465.0,488.0
495.0,511.0,539.0,527.0
502.0,510.0,456.0,514.0
505.0,510.0,475.0,527.0
501.0,507.0,497.0,498.0
491.0,520.0,501.0,523.0
474.0,534.0,497.0,515.0
487.0,526.0,477.0,521.0
496.0,526.0,503.0,525.0
506.0,513.0,509.0,481.0
505.0,491.0,501.0,450.0
510.0,481.0,543.0,551.0
520.0,478.0,558.0,501.0
514.0,494.0,506.0,301.0
498.0,524.0,482.0,490.0
497.0,533.0,524.0,580.0
487.0,548.0,510.0,550.0
494.0,519.0,536.0,490.0
501.0,511.0,483.0,506.0
516.0,488.0,507.0,502.0
518.0,484.0,477.0,509.0
525.0,491.0,521.0,532.0
512.0,525.0,513.0,551.0
502.0,529.0,505.0,539.0
507.0,508.0,512.0,534.0
507.0,511.0,508.0,520.0
516.0,500.0,497.0,510.0
534.0,472.0,539.0,518.0
531.0,475.0,504.0,483.0
530.0,478.0,503.0,480.0
516.0,507.0,544.0,517.0
499.0,531.0,485.0,498.0
495.0,533.0,513.0,499.0
495.0,526.0,505.0,516.0
506.0,516.0,534.0,479.0
541.0,479.0,492.0,494.0
552.0,473.0,448.0,526.0
556.0,476.0,540.0,551.0
550.0,492.0,521.0,500.0
542.0,510.0,491.0,478.0
482.0,531.0,490.0,508.0
470.0,528.0,494.0,499.0
505.0,499.0,500.0,485.0
528.0,486.0,518.0,482.0
551.0,477.0,547.0,538.0
558.0,471.0,559.0,528.0
540.0,487.0,523.0,497.0
522.0,512.0,482.0,518.0
484.0,530.0,523.0,519.0
472.0,522.0,508.0,533.0
479.0,515.0,509.0,525.0
487.0,514.0,510.0,522.0
515.0,485.0,495.0,503.0
520.0,481.0,462.0,505.0
514.0,500.0,472.0,514.0
519.0,523.0,531.0,522.0
525.0,535.0,499.0,518.0
584.0,506.0,482.0,506.0
604.0,499.0,539.0,504.0
599.0,494.0,560.0,493.0
620.0,474.0,516.0,486.0
578.0,470.0,506.0,504.0
513.0,481.0,519.0,521.0
427.0,517.0,532.0,501.0
432.0,522.0,542.0,506.0
435.0,531.0,518.0,497.0
442.0,531.0,494.0,513.0
460.0,531.0,503.0,532.0
486.0,506.0,492.0,471.0
472.0,497.0,492.0,496.0
462.0,505.0,477.0,526.0
474.0,504.0,472.0,524.0
483.0,517.0,498.0,517.0
490.0,527.0,505.0,512.0
498.0,508.0,516.0,521.0
506.0,501.0,505.0,508.0
500.0,506.0,512.0,505.0
503.0,485.0,525.0,512.0
514.0,484.0,526.0,504.0
504.0,489.0,523.0,497.0
496.0,512.0,506.0,493.0
483.0,533.0,519.0,499.0
479.0,527.0,524.0,505.0
489.0,513.0,496.0,500.0
502.0,506.0,478.0,499.0
518.0,495.0,470.0,499.0
527.0,484.0,484.0,519.0
524.0,500.0,487.0,502.0
529.0,507.0,522.0,520.0
502.0,533.0,509.0,504.0
501.0,514.0,490.0,492.0
506.0,518.0,514.0,520.0
518.0,504.0,513.0,512.0
538.0,478.0,522.0,498.0
539.0,457.0,534.0,502.0
514.0,489.0,538.0,508.0
508.0,494.0,540.0,498.0
497.0,514.0,529.0,500.0
495.0,509.0,512.0,492.0
496.0,506.0,516.0,512.0
496.0,507.0,523.0,522.0
507.0,511.0,481.0,521.0
524.0,492.0,478.0,510.0
519.0,489.0,526.0,504.0
517.0,495.0,490.0,520.0
509.0,521.0,500.0,520.0
496.0,527.0,507.0,501.0
498.0,519.0,509.0,518.0
495.0,525.0,468.0,498.0
504.0,510.0,556.0,519.0
522.0,479.0,552.0,501.0
530.0,480.0,502.0,495.0
534.0,477.0,523.0,492.0
521.0,499.0,531.0,519.0
500.0,525.0,514.0,517.0
496.0,527.0,526.0,512.0
500.0,520.0,519.0,513.0
497.0,515.0,497.0,505.0
515.0,505.0,492.0,528.0
528.0,487.0,502.0,514.0
529.0,488.0,504.0,507.0
516.0,498.0,500.0,511.0
504.0,525.0,489.0,518.0
509.0,520.0,499.0,521.0
507.0,518.0,503.0,502.0
507.0,504.0,512.0,469.0
513.0,493.0,520.0,522.0
535.0,471.0,532.0,529.0
523.0,478.0,536.0,533.0
520.0,486.0,513.0,487.0
511.0,508.0,534.0,510.0
495.0,532.0,518.0,510.0
502.0,516.0,516.0,499.0
500.0,517.0,512.0,494.0
502.0,512.0,495.0,528.0
516.0,494.0,498.0,526.0
525.0,486.0,506.0,508.0
524.0,483.0,500.0,515.0
515.0,497.0,494.0,513.0
494.0,539.0,492.0,519.0
503.0,521.0,500.0,522.0
511.0,511.0,506.0,519.0
516.0,513.0,513.0,516.0
519.0,497.0,524.0,512.0
534.0,472.0,534.0,507.0
530.0,482.0,533.0,503.0
523.0,484.0,532.0,502.0
512.0,506.0,524.0,507.0
510.0,515.0,514.0,504.0
501.0,526.0,515.0,506.0
495.0,527.0,506.0,506.0
503.0,517.0,501.0,510.0
518.0,484.0,502.0,507.0
525.0,484.0,498.0,508.0
527.0,490.0,495.0,513.0
513.0,512.0,493.0,516.0
488.0,544.0,492.0,513.0
497.0,522.0,499.0,514.0
498.0,525.0,506.0,509.0
506.0,513.0,511.0,511.0
529.0,477.0,527.0,507.0
537.0,471.0,531.0,505.0
538.0,478.0,531.0,502.0
536.0,490.0,525.0,503.0
526.0,514.0,519.0,501.0
521.0,519.0,515.0,501.0
511.0,515.0,512.0,507.0
512.0,510.0,504.0,507.0
522.0,504.0,499.0,507.0
533.0,484.0,500.0,513.0
515.0,492.0,498.0,516.0
511.0,494.0,494.0,515.0
530.0,504.0,489.0,518.0
525.0,518.0,495.0,517.0
499.0,518.0,503.0,517.0
499.0,514.0,509.0,513.0
517.0,496.0,517.0,507.0
496.0,482.0,528.0,504.0
493.0,489.0,533.0,501.0
502.0,495.0,530.0,503.0
493.0,520.0,523.0,506.0
481.0,540.0,513.0,507.0
481.0,533.0,512.0,508.0
480.0,531.0,511.0,507.0
472.0,519.0,505.0,509.0
486.0,500.0,502.0,510.0
497.0,489.0,497.0,513.0
506.0,498.0,494.0,514.0
502.0,504.0,489.0,516.0
487.0,533.0,488.0,517.0
487.0,531.0,495.0,516.0
490.0,520.0,505.0,514.0
494.0,511.0,510.0,514.0
507.0,489.0,525.0,510.0
516.0,471.0,532.0,506.0
521.0,472.0,533.0,504.0
515.0,482.0,531.0,502.0
493.0,520.0,520.0,508.0
489.0,527.0,514.0,507.0
493.0,522.0,512.0,506.0
498.0,513.0,505.0,508.0
503.0,513.0,499.0,515.0
523.0,482.0,500.0,518.0
523.0,488.0,496.0,519.0
520.0,492.0,495.0,516.0
511.0,506.0,492.0,521.0
497.0,522.0,492.0,521.0
506.0,510.0,498.0,515.0
509.0,518.0,503.0,516.0
515.0,504.0,510.0,514.0
530.0,479.0,522.0,509.0
533.0,475.0,532.0,503.0
526.0,478.0,533.0,505.0
512.0,512.0,525.0,505.0
499.0,523.0,521.0,511.0
498.0,527.0,515.0,511.0
498.0,523.0,513.0,505.0
502.0,515.0,504.0,511.0
516.0,504.0,499.0,512.0
521.0,489.0,500.0,510.0
519.0,490.0,498.0,514.0
516.0,497.0,494.0,518.0
504.0,529.0,491.0,528.0
511.0,519.0,498.0,518.0
515.0,514.0,500.0,518.0
508.0,511.0,507.0,515.0
512.0,502.0,519.0,512.0
527.0,467.0,526.0,505.0
536.0,472.0,532.0,507.0
523.0,482.0,537.0,506.0
508.0,512.0,524.0,508.0
497.0,539.0,516.0,510.0
500.0,532.0,510.0,510.0
501.0,525.0,508.0,507.0
500.0,519.0,499.0,512.0
514.0,488.0,501.0,513.0
518.0,489.0,501.0,512.0
524.0,488.0,496.0,515.0
521.0,503.0,492.0,517.0
510.0,529.0,490.0,520.0
498.0,533.0,496.0,518.0
495.0,525.0,497.0,519.0
512.0,506.0,509.0,513.0
522.0,487.0,521.0,511.0
532.0,468.0,530.0,507.0
530.0,477.0,536.0,504.0
533.0,469.0,531.0,504.0
500.0,520.0,515.0,504.0
496.0,519.0,514.0,505.0
508.0,516.0,511.0,504.0
507.0,512.0,505.0,506.0
514.0,499.0,500.0,510.0
517.0,496.0,505.0,507.0
518.0,496.0,502.0,512.0
520.0,499.0,497.0,514.0
508.0,526.0,494.0,517.0
509.0,550.0,495.0,518.0
505.0,530.0,496.0,515.0
496.0,534.0,500.0,513.0
512.0,509.0,512.0,510.0
536.0,463.0,524.0,509.0
527.0,467.0,527.0,501.0
521.0,466.0,530.0,499.0
513.0,489.0,526.0,503.0
498.0,515.0,519.0,507.0
501.0,514.0,519.0,505.0
501.0,514.0,519.0,510.0
489.0,525.0,510.0,511.0
505.0,509.0,507.0,517.0
517.0,495.0,502.0,512.0
515.0,506.0,501.0,515.0
514.0,507.0,495.0,517.0
504.0,534.0,495.0,518.0
505.0,541.0,497.0,516.0
510.0,537.0,504.0,515.0
507.0,526.0,509.0,513.0
512.0,478.0,517.0,511.0
533.0,427.0,526.0,505.0
535.0,442.0,530.0,500.0
534.0,462.0,525.0,499.0
512.0,492.0,521.0,501.0
494.0,517.0,512.0,506.0
492.0,525.0,511.0,504.0
494.0,518.0,507.0,507.0
503.0,519.0,499.0,506.0
515.0,504.0,503.0,507.0
521.0,489.0,499.0,508.0
521.0,497.0,496.0,508.0
514.0,531.0,494.0,517.0
500.0,537.0,494.0,517.0
500.0,528.0,500.0,515.0
504.0,519.0,504.0,515.0
510.0,519.0,514.0,514.0
525.0,501.0,522.0,512.0
529.0,484.0,536.0,505.0
525.0,492.0,533.0,502.0
524.0,475.0,528.0,502.0
511.0,510.0,518.0,506.0
499.0,535.0,515.0,506.0
496.0,522.0,508.0,505.0
504.0,508.0,505.0,505.0
511.0,498.0,502.0,506.0
523.0,481.0,500.0,511.0
520.0,485.0,502.0,513.0
522.0,500.0,498.0,514.0
510.0,523.0,493.0,519.0
500.0,528.0,496.0,521.0
506.0,525.0,504.0,517.0
510.0,522.0,507.0,518.0
516.0,525.0,516.0,514.0
535.0,496.0,525.0,508.0
531.0,504.0,531.0,506.0
521.0,499.0,530.0,505.0
512.0,502.0,524.0,502.0
495.0,512.0,517.0,507.0
491.0,510.0,512.0,508.0
501.0,496.0,511.0,506.0
499.0,505.0,504.0,507.0
511.0,482.0,501.0,507.0
519.0,467.0,499.0,511.0
517.0,476.0,499.0,513.0
511.0,490.0,501.0,516.0
500.0,512.0,494.0,519.0
504.0,510.0,498.0,516.0
505.0,521.0,506.0,516.0
511.0,514.0,509.0,514.0
517.0,498.0,519.0,512.0
533.0,467.0,530.0,508.0
528.0,464.0,534.0,503.0
524.0,463.0,531.0,506.0
508.0,500.0,522.0,510.0
498.0,524.0,514.0,508.0
504.0,518.0,514.0,506.0
501.0,525.0,507.0,510.0
500.0,522.0,502.0,508.0
517.0,497.0,501.0,508.0
520.0,487.0,500.0,510.0
525.0,472.0,497.0,513.0
511.0,497.0,494.0,516.0
500.0,507.0,499.0,518.0
510.0,509.0,505.0,523.0
514.0,522.0,509.0,521.0
510.0,519.0,516.0,518.0
525.0,480.0,524.0,515.0
534.0,476.0,532.0,509.0
529.0,502.0,535.0,507.0
518.0,514.0,529.0,503.0
503.0,525.0,524.0,507.0
507.0,526.0,515.0,510.0
487.0,513.0,509.0,507.0
497.0,495.0,504.0,508.0
504.0,499.0,500.0,509.0
521.0,469.0,501.0,509.0
522.0,477.0,497.0,510.0
519.0,495.0,497.0,512.0
503.0,530.0,494.0,517.0
495.0,523.0,496.0,518.0
496.0,511.0,503.0,518.0
505.0,503.0,505.0,517.0
515.0,505.0,518.0,510.0
530.0,474.0,528.0,507.0
532.0,455.0,531.0,502.0
519.0,459.0,532.0,504.0
511.0,490.0,527.0,509.0
502.0,515.0,517.0,506.0
503.0,503.0,513.0,506.0
502.0,504.0,511.0,506.0
501.0,530.0,502.0,511.0
517.0,513.0,500.0,510.0
522.0,506.0,500.0,510.0
518.0,501.0,497.0,514.0
517.0,509.0,492.0,515.0
502.0,527.0,493.0,521.0
507.0,514.0,501.0,516.0
508.0,506.0,504.0,518.0
515.0,495.0,514.0,525.0
522.0,490.0,523.0,511.0
533.0,479.0,526.0,509.0
535.0,481.0,531.0,506.0
522.0,502.0,530.0,506.0
504.0,522.0,522.0,509.0
494.0,527.0,522.0,508.0
496.0,520.0,510.0,510.0
500.0,499.0,511.0,506.0
504.0,494.0,501.0,509.0
518.0,474.0,499.0,507.0
521.0,479.0,497.0,509.0
518.0,485.0,497.0,511.0
512.0,508.0,491.0,517.0
501.0,522.0,493.0,516.0
506.0,514.0,499.0,515.0
507.0,519.0,503.0,514.0
509.0,522.0,512.0,511.0
515.0,508.0,522.0,510.0
520.0,494.0,526.0,505.0
517.0,499.0,528.0,505.0
508.0,514.0,523.0,505.0
494.0,547.0,515.0,507.0
489.0,531.0,509.0,505.0
493.0,525.0,508.0,505.0
506.0,516.0,506.0,507.0
517.0,524.0,503.0,507.0
537.0,499.0,503.0,510.0
538.0,481.0,500.0,510.0
532.0,479.0,498.0,518.0
516.0,506.0,497.0,522.0
507.0,517.0,498.0,524.0
513.0,516.0,504.0,520.0
513.0,516.0,506.0,516.0
523.0,506.0,515.0,509.0
541.0,486.0,528.0,506.0
534.0,484.0,528.0,506.0
528.0,488.0,529.0,503.0
517.0,510.0,519.0,504.0
504.0,525.0,514.0,503.0
500.0,496.0,508.0,506.0
492.0,513.0,505.0,509.0
493.0,526.0,499.0,510.0
507.0,497.0,499.0,512.0
517.0,483.0,498.0,514.0
521.0,483.0,496.0,519.0
517.0,486.0,495.0,523.0
511.0,514.0,495.0,523.0
506.0,512.0,499.0,520.0
505.0,520.0,513.0,521.0
513.0,499.0,516.0,518.0
524.0,477.0,525.0,511.0
535.0,463.0,532.0,506.0
529.0,471.0,531.0,504.0
526.0,472.0,526.0,504.0
511.0,506.0,515.0,502.0
497.0,534.0,513.0,502.0
495.0,536.0,512.0,504.0
490.0,532.0,505.0,508.0
502.0,519.0,502.0,505.0
520.0,485.0,500.0,508.0
528.0,494.0,499.0,513.0
529.0,471.0,496.0,518.0
517.0,493.0,493.0,526.0
504.0,517.0,492.0,520.0
505.0,509.0,501.0,521.0
500.0,529.0,507.0,521.0
513.0,526.0,513.0,518.0
524.0,500.0,521.0,511.0
524.0,499.0,530.0,503.0
525.0,453.0,532.0,504.0
523.0,472.0,522.0,506.0
504.0,511.0,518.0,506.0
494.0,510.0,514.0,508.0
496.0,501.0,506.0,508.0
499.0,508.0,503.0,508.0
507.0,508.0,498.0,508.0
518.0,486.0,500.0,508.0
522.0,480.0,499.0,509.0
530.0,485.0,495.0,514.0
518.0,525.0,495.0,519.0
507.0,535.0,499.0,519.0
507.0,527.0,500.0,519.0
509.0,521.0,518.0,521.0
514.0,522.0,525.0,519.0
534.0,478.0,530.0,512.0
527.0,490.0,527.0,506.0
523.0,508.0,525.0,502.0
507.0,539.0,518.0,505.0
496.0,524.0,512.0,503.0
490.0,510.0,507.0,504.0
494.0,492.0,504.0,507.0
500.0,494.0,499.0,510.0
517.0,476.0,501.0,516.0
530.0,465.0,503.0,518.0
531.0,494.0,501.0,521.0
521.0,510.0,501.0,524.0
508.0,533.0,498.0,525.0
497.0,548.0,500.0,522.0
504.0,536.0,498.0,516.0
508.0,531.0,509.0,512.0
517.0,493.0,516.0,509.0
531.0,462.0,527.0,506.0
528.0,463.0,525.0,502.0
524.0,471.0,525.0,504.0
508.0,504.0,515.0,506.0
495.0,520.0,513.0,505.0
496.0,510.0,512.0,508.0
501.0,498.0,507.0,506.0
505.0,510.0,504.0,511.0
520.0,490.0,498.0,513.0
522.0,486.0,496.0,516.0
521.0,495.0,495.0,518.0
515.0,514.0,495.0,523.0
498.0,546.0,496.0,526.0
503.0,531.0,497.0,525.0
505.0,519.0,504.0,522.0
513.0,504.0,509.0,515.0
529.0,474.0,521.0,512.0
536.0,464.0,528.0,509.0
528.0,468.0,533.0,510.0
519.0,487.0,529.0,511.0
507.0,509.0,521.0,518.0
501.0,514.0,522.0,511.0
498.0,517.0,515.0,511.0
499.0,516.0,506.0,509.0
504.0,512.0,502.0,514.0
519.0,487.0,500.0,511.0
517.0,486.0,496.0,519.0
519.0,489.0,494.0,525.0
507.0,511.0,488.0,530.0
500.0,515.0,491.0,521.0
502.0,526.0,501.0,519.0
512.0,512.0,505.0,518.0
520.0,499.0,513.0,515.0
529.0,490.0,528.0,510.0
536.0,501.0,534.0,506.0
531.0,498.0,534.0,506.0
516.0,521.0,521.0,505.0
503.0,530.0,516.0,506.0
504.0,487.0,514.0,506.0
503.0,480.0,511.0,509.0
507.0,486.0,505.0,509.0
515.0,483.0,491.0,503.0
522.0,492.0,493.0,505.0
517.0,503.0,490.0,507.0
513.0,507.0,490.0,511.0
506.0,530.0,487.0,516.0
507.0,543.0,492.0,517.0
514.0,541.0,499.0,513.0
516.0,517.0,508.0,512.0
524.0,486.0,514.0,510.0
528.0,473.0,528.0,506.0
527.0,481.0,530.0,506.0
522.0,491.0,526.0,502.0
508.0,523.0,517.0,506.0
500.0,521.0,512.0,506.0
498.0,519.0,508.0,507.0
498.0,503.0,502.0,506.0
505.0,489.0,499.0,510.0
525.0,456.0,500.0,508.0
523.0,454.0,499.0,515.0
526.0,469.0,498.0,514.0
514.0,515.0,495.0,523.0
499.0,530.0,494.0,523.0
502.0,512.0,502.0,521.0
505.0,522.0,509.0,525.0
517.0,522.0,516.0,521.0
524.0,494.0,525.0,512.0
533.0,470.0,531.0,510.0
532.0,468.0,529.0,507.0
517.0,496.0,523.0,508.0
497.0,543.0,520.0,508.0
495.0,551.0,515.0,509.0
499.0,534.0,506.0,509.0
506.0,535.0,503.0,509.0
506.0,533.0,499.0,513.0
515.0,505.0,497.0,513.0
521.0,499.0,499.0,514.0
517.0,496.0,501.0,518.0
510.0,511.0,499.0,524.0
508.0,491.0,499.0,524.0
501.0,513.0,498.0,522.0
508.0,522.0,500.0,520.0
512.0,517.0,509.0,512.0
526.0,494.0,520.0,505.0
522.0,479.0,521.0,504.0
513.0,481.0,525.0,501.0
507.0,508.0,524.0,501.0
505.0,529.0,523.0,506.0
506.0,509.0,516.0,505.0
503.0,540.0,506.0,508.0
497.0,562.0,497.0,515.0
517.0,496.0,501.0,516.0
527.0,470.0,504.0,523.0
526.0,473.0,506.0,533.0
521.0,509.0,510.0,530.0
504.0,525.0,507.0,525.0
502.0,484.0,498.0,515.0
500.0,483.0,506.0,510.0
508.0,485.0,510.0,502.0
521.0,491.0,519.0,497.0
527.0,480.0,525.0,496.0
530.0,481.0,523.0,494.0
524.0,486.0,520.0,494.0
513.0,487.0,511.0,493.0
504.0,501.0,504.0,498.0
506.0,517.0,501.0,498.0
503.0,513.0,495.0,501.0
498.0,516.0,495.0,510.0
511.0,494.0,499.0,513.0
515.0,486.0,505.0,517.0
516.0,490.0,507.0,521.0
513.0,500.0,496.0,517.0
513.0,499.0,499.0,514.0
516.0,493.0,500.0,510.0
521.0,512.0,507.0,510.0
523.0,521.0,514.0,512.0
534.0,486.0,518.0,510.0
537.0,468.0,526.0,508.0
534.0,470.0,523.0,503.0
521.0,477.0,520.0,505.0
503.0,499.0,513.0,508.0
501.0,513.0,507.0,504.0
499.0,528.0,503.0,503.0
495.0,542.0,498.0,502.0
509.0,516.0,492.0,498.0
522.0,507.0,496.0,501.0
516.0,512.0,498.0,511.0
517.0,517.0,497.0,514.0
503.0,544.0,500.0,516.0
499.0,545.0,500.0,513.0
505.0,537.0,501.0,517.0
495.0,542.0,496.0,505.0
507.0,522.0,506.0,496.0
527.0,473.0,520.0,497.0
527.0,485.0,528.0,503.0
526.0,501.0,522.0,498.0
509.0,510.0,514.0,498.0
500.0,509.0,509.0,499.0
495.0,521.0,504.0,502.0
496.0,506.0,503.0,496.0
498.0,518.0,496.0,496.0
510.0,495.0,502.0,502.0
517.0,475.0,496.0,515.0
515.0,503.0,496.0,517.0
522.0,505.0,490.0,520.0
519.0,478.0,492.0,524.0
504.0,517.0,494.0,522.0
513.0,505.0,507.0,520.0
514.0,483.0,515.0,521.0
518.0,493.0,522.0,518.0
525.0,486.0,527.0,511.0
521.0,479.0,531.0,511.0
511.0,492.0,530.0,516.0
491.0,537.0,522.0,523.0
490.0,531.0,518.0,519.0
502.0,504.0,528.0,522.0
503.0,496.0,522.0,520.0
519.0,481.0,507.0,516.0
536.0,461.0,514.0,506.0
528.0,479.0,509.0,503.0
519.0,510.0,476.0,501.0
510.0,534.0,477.0,503.0
505.0,524.0,476.0,506.0
503.0,512.0,491.0,505.0
507.0,508.0,490.0,505.0
516.0,499.0,503.0,504.0
532.0,477.0,520.0,498.0
529.0,500.0,520.0,494.0
525.0,497.0,526.0,502.0
517.0,513.0,519.0,499.0
505.0,544.0,508.0,494.0
496.0,546.0,501.0,493.0
496.0,526.0,502.0,493.0
494.0,521.0,492.0,499.0
509.0,507.0,489.0,507.0
521.0,465.0,512.0,517.0
531.0,470.0,514.0,523.0
521.0,472.0,509.0,526.0
509.0,497.0,499.0,524.0
505.0,513.0,485.0,513.0
500.0,537.0,490.0,519.0
509.0,513.0,499.0,518.0
512.0,496.0,511.0,518.0
528.0,472.0,528.0,518.0
526.0,463.0,539.0,518.0
522.0,482.0,551.0,513.0
512.0,516.0,545.0,509.0
511.0,539.0,518.0,496.0
507.0,529.0,506.0,492.0
502.0,539.0,496.0,485.0
503.0,533.0,480.0,484.0
518.0,499.0,483.0,484.0
523.0,467.0,485.0,491.0
523.0,458.0,487.0,496.0
515.0,503.0,485.0,508.0
505.0,522.0,481.0,513.0
506.0,509.0,483.0,514.0
500.0,515.0,493.0,513.0
506.0,510.0,503.0,515.0
517.0,492.0,527.0,516.0
523.0,473.0,549.0,524.0
527.0,463.0,554.0,524.0
522.0,497.0,553.0,521.0
507.0,525.0,520.0,511.0
501.0,491.0,506.0,508.0
495.0,517.0,505.0,506.0
494.0,537.0,498.0,502.0
498.0,524.0,494.0,500.0
517.0,496.0,495.0,501.0
522.0,511.0,493.0,509.0
516.0,457.0,491.0,516.0
510.0,483.0,492.0,520.0
507.0,522.0,490.0,521.0
509.0,535.0,502.0,521.0
508.0,525.0,506.0,521.0
511.0,506.0,517.0,518.0
527.0,469.0,533.0,512.0
535.0,432.0,533.0,511.0
532.0,485.0,531.0,506.0
516.0,517.0,523.0,504.0
497.0,525.0,521.0,505.0
488.0,521.0,506.0,501.0
491.0,525.0,500.0,501.0
491.0,531.0,491.0,504.0
511.0,498.0,486.0,508.0
519.0,469.0,488.0,517.0
516.0,470.0,488.0,516.0
519.0,462.0,494.0,518.0
513.0,470.0,496.0,521.0
515.0,504.0,503.0,524.0
506.0,537.0,524.0,524.0
503.0,529.0,524.0,517.0
515.0,514.0,518.0,519.0
528.0,482.0,522.0,511.0
526.0,493.0,525.0,506.0
519.0,513.0,522.0,503.0
503.0,526.0,515.0,510.0
498.0,536.0,510.0,507.0
500.0,549.0,510.0,504.0
495.0,567.0,507.0,499.0
503.0,518.0,502.0,505.0
521.0,491.0,498.0,512.0
525.0,489.0,504.0,519.0
524.0,497.0,503.0,523.0
517.0,501.0,493.0,527.0
503.0,534.0,488.0,529.0
503.0,544.0,496.0,531.0
505.0,535.0,506.0,523.0
508.0,531.0,504.0,508.0
524.0,460.0,507.0,504.0
533.0,428.0,520.0,494.0
525.0,474.0,527.0,497.0
521.0,489.0,523.0,497.0
503.0,513.0,514.0,503.0
485.0,545.0,509.0,504.0
483.0,545.0,502.0,501.0
490.0,534.0,495.0,500.0
492.0,551.0,489.0,501.0
523.0,430.0,492.0,512.0
524.0,417.0,488.0,511.0
522.0,460.0,492.0,514.0
525.0,517.0,496.0,521.0
513.0,509.0,501.0,525.0
508.0,499.0,510.0,520.0
506.0,516.0,507.0,518.0
516.0,537.0,513.0,510.0
532.0,518.0,521.0,509.0
536.0,479.0,519.0,499.0
531.0,453.0,523.0,504.0
520.0,485.0,522.0,513.0
501.0,518.0,522.0,517.0
502.0,523.0,532.0,526.0
497.0,528.0,514.0,525.0
498.0,528.0,498.0,517.0
511.0,502.0,497.0,510.0
526.0,481.0,498.0,508.0
525.0,486.0,500.0,507.0
524.0,491.0,488.0,509.0
515.0,513.0,485.0,511.0
507.0,518.0,490.0,515.0
509.0,513.0,500.0,518.0
515.0,504.0,503.0,519.0
516.0,497.0,517.0,515.0
525.0,474.0,533.0,514.0
525.0,474.0,531.0,511.0
522.0,475.0,520.0,508.0
514.0,484.0,518.0,512.0
508.0,492.0,509.0,509.0
503.0,505.0,503.0,506.0
496.0,520.0,498.0,511.0
503.0,523.0,498.0,517.0
519.0,509.0,506.0,519.0
523.0,495.0,513.0,524.0
521.0,489.0,505.0,525.0
511.0,499.0,499.0,526.0
504.0,489.0,499.0,528.0
510.0,484.0,494.0,522.0
504.0,503.0,492.0,517.0
513.0,526.0,501.0,512.0
524.0,518.0,512.0,512.0
526.0,497.0,521.0,508.0
525.0,502.0,532.0,505.0
521.0,463.0,529.0,512.0
497.0,487.0,515.0,506.0
482.0,547.0,504.0,507.0
495.0,522.0,497.0,506.0
499.0,516.0,505.0,511.0
509.0,518.0,501.0,514.0
517.0,494.0,504.0,513.0
520.0,502.0,501.0,512.0
517.0,504.0,500.0,515.0
502.0,531.0,494.0,516.0
496.0,525.0,492.0,522.0
503.0,499.0,495.0,521.0
500.0,507.0,497.0,526.0
516.0,489.0,508.0,525.0
531.0,470.0,520.0,517.0
530.0,490.0,527.0,513.0
523.0,509.0,534.0,508.0
509.0,496.0,523.0,504.0
493.0,510.0,514.0,499.0
494.0,524.0,510.0,498.0
496.0,536.0,498.0,493.0
497.0,523.0,489.0,498.0
503.0,505.0,495.0,508.0
523.0,452.0,500.0,517.0
525.0,438.0,497.0,524.0
519.0,461.0,504.0,529.0
508.0,505.0,496.0,527.0
511.0,519.0,503.0,528.0
514.0,502.0,512.0,533.0
514.0,503.0,518.0,524.0
516.0,467.0,518.0,519.0
533.0,461.0,520.0,506.0
533.0,487.0,526.0,502.0
525.0,503.0,525.0,496.0
503.0,533.0,514.0,500.0
501.0,520.0,509.0,502.0
497.0,504.0,509.0,500.0
497.0,520.0,504.0,510.0
506.0,523.0,500.0,517.0
523.0,534.0,505.0,522.0
520.0,515.0,506.0,525.0
521.0,483.0,496.0,521.0
511.0,492.0,487.0,518.0
501.0,523.0,491.0,517.0
503.0,522.0,502.0,518.0
506.0,519.0,499.0,515.0
509.0,511.0,506.0,513.0
522.0,495.0,517.0,510.0
523.0,489.0,528.0,506.0
521.0,472.0,528.0,507.0
521.0,483.0,518.0,505.0
505.0,517.0,515.0,503.0
499.0,506.0,510.0,501.0
488.0,529.0,506.0,500.0
493.0,538.0,495.0,501.0
507.0,511.0,495.0,505.0
521.0,500.0,500.0,513.0
518.0,502.0,498.0,517.0
520.0,476.0,493.0,517.0
513.0,487.0,490.0,515.0
512.0,502.0,491.0,520.0
514.0,521.0,492.0,519.0
509.0,520.0,503.0,523.0
516.0,501.0,515.0,520.0
529.0,468.0,532.0,524.0
530.0,471.0,540.0,525.0
525.0,478.0,554.0,529.0
511.0,497.0,543.0,522.0
495.0,531.0,518.0,509.0
489.0,534.0,507.0,497.0
497.0,522.0,495.0,491.0
502.0,528.0,488.0,490.0
512.0,477.0,488.0,497.0
523.0,468.0,491.0,503.0
519.0,499.0,490.0,510.0
514.0,519.0,486.0,520.0
504.0,529.0,485.0,521.0
500.0,534.0,492.0,527.0
498.0,523.0,509.0,535.0
507.0,500.0,535.0,528.0
518.0,480.0,535.0,519.0
530.0,450.0,529.0,507.0
527.0,449.0,532.0,504.0
522.0,455.0,538.0,500.0
508.0,500.0,508.0,494.0
498.0,518.0,501.0,501.0
499.0,506.0,502.0,502.0
498.0,510.0,499.0,505.0
504.0,513.0,496.0,508.0
520.0,504.0,499.0,506.0
516.0,502.0,495.0,509.0
517.0,488.0,497.0,513.0
514.0,499.0,492.0,518.0
512.0,521.0,494.0,520.0
507.0,521.0,499.0,522.0
502.0,533.0,505.0,522.0
505.0,522.0,511.0,521.0
523.0,472.0,520.0,518.0
520.0,497.0,528.0,516.0
514.0,490.0,528.0,514.0
516.0,494.0,519.0,514.0
496.0,542.0,525.0,513.0
496.0,521.0,519.0,510.0
498.0,506.0,520.0,517.0
500.0,498.0,521.0,516.0
504.0,498.0,508.0,516.0
519.0,479.0,502.0,516.0
521.0,470.0,497.0,514.0
521.0,494.0,490.0,508.0
506.0,515.0,479.0,506.0
503.0,531.0,491.0,507.0
506.0,528.0,498.0,509.0
511.0,528.0,502.0,510.0
516.0,514.0,516.0,508.0
530.0,460.0,523.0,505.0
532.0,445.0,523.0,504.0
533.0,467.0,525.0,504.0
520.0,484.0,526.0,504.0
497.0,512.0,513.0,501.0
496.0,544.0,499.0,501.0
494.0,550.0,504.0,514.0
497.0,539.0,498.0,517.0
512.0,505.0,495.0,518.0
519.0,481.0,504.0,523.0
515.0,487.0,520.0,532.0
502.0,511.0,521.0,533.0
494.0,532.0,520.0,528.0
498.0,535.0,501.0,517.0
506.0,526.0,490.0,513.0
514.0,518.0,493.0,504.0
523.0,514.0,505.0,506.0
536.0,444.0,520.0,503.0
529.0,440.0,522.0,501.0
523.0,449.0,523.0,505.0
503.0,498.0,514.0,509.0
508.0,522.0,512.0,516.0
497.0,549.0,509.0,515.0
499.0,531.0,513.0,517.0
502.0,527.0,497.0,512.0
517.0,497.0,494.0,511.0
517.0,491.0,501.0,511.0
518.0,495.0,502.0,518.0
517.0,491.0,498.0,519.0
509.0,507.0,505.0,521.0
509.0,518.0,506.0,519.0
507.0,510.0,501.0,510.0
510.0,496.0,500.0,501.0
521.0,486.0,514.0,503.0
526.0,472.0,525.0,503.0
521.0,478.0,529.0,505.0
513.0,504.0,526.0,510.0
498.0,527.0,515.0,513.0
495.0,542.0,509.0,510.0
493.0,536.0,506.0,510.0
500.0,505.0,500.0,510.0
513.0,492.0,499.0,510.0
523.0,478.0,505.0,516.0
523.0,492.0,498.0,514.0
516.0,494.0,495.0,513.0
507.0,518.0,487.0,507.0
510.0,515.0,496.0,518.0
507.0,522.0,500.0,520.0
504.0,535.0,500.0,519.0
510.0,520.0,514.0,513.0
523.0,498.0,528.0,515.0
529.0,451.0,545.0,520.0
533.0,460.0,538.0,516.0
511.0,506.0,521.0,506.0
504.0,525.0,508.0,504.0
503.0,518.0,504.0,504.0
496.0,521.0,503.0,503.0
496.0,525.0,496.0,506.0
512.0,507.0,497.0,512.0
517.0,500.0,499.0,514.0
521.0,475.0,499.0,518.0
519.0,467.0,497.0,522.0
500.0,524.0,496.0,518.0
499.0,522.0,506.0,520.0
509.0,516.0,505.0,514.0
511.0,501.0,504.0,508.0
517.0,488.0,520.0,510.0
531.0,455.0,525.0,506.0
531.0,452.0,527.0,506.0
521.0,483.0,525.0,502.0
500.0,510.0,516.0,504.0
507.0,496.0,510.0,510.0
502.0,520.0,508.0,507.0
497.0,518.0,509.0,514.0
500.0,524.0,507.0,516.0
514.0,509.0,511.0,519.0
516.0,487.0,504.0,519.0
518.0,500.0,502.0,520.0
508.0,496.0,498.0,523.0
500.0,529.0,493.0,522.0
506.0,533.0,498.0,517.0
503.0,552.0,507.0,518.0
512.0,535.0,522.0,520.0
526.0,496.0,530.0,525.0
535.0,462.0,541.0,518.0
532.0,459.0,535.0,515.0
524.0,490.0,521.0,511.0
495.0,527.0,511.0,503.0
494.0,516.0,505.0,499.0
497.0,506.0,499.0,499.0
503.0,516.0,494.0,502.0
507.0,490.0,495.0,508.0
520.0,459.0,498.0,516.0
520.0,459.0,499.0,517.0
520.0,470.0,496.0,518.0
508.0,535.0,489.0,514.0
498.0,539.0,497.0,515.0
500.0,546.0,500.0,517.0
502.0,526.0,505.0,516.0
506.0,522.0,510.0,515.0
523.0,464.0,526.0,515.0
524.0,462.0,530.0,513.0
514.0,477.0,530.0,512.0
510.0,502.0,524.0,509.0
500.0,525.0,515.0,510.0
497.0,539.0,514.0,512.0
496.0,530.0,507.0,513.0
499.0,519.0,504.0,521.0
515.0,498.0,511.0,525.0
523.0,501.0,505.0,525.0
519.0,505.0,498.0,520.0
516.0,529.0,498.0,518.0
507.0,508.0,490.0,519.0
512.0,472.0,495.0,518.0
505.0,504.0,505.0,517.0
511.0,512.0,509.0,516.0
519.0,500.0,514.0,514.0
531.0,481.0,524.0,505.0
529.0,482.0,528.0,505.0
521.0,492.0,523.0,504.0
498.0,515.0,519.0,506.0
494.0,522.0,512.0,511.0
498.0,516.0,515.0,514.0
503.0,522.0,505.0,516.0
503.0,511.0,507.0,517.0
519.0,482.0,512.0,517.0
519.0,501.0,509.0,513.0
518.0,493.0,506.0,510.0
510.0,508.0,495.0,512.0
491.0,528.0,484.0,510.0
500.0,517.0,486.0,508.0
518.0,485.0,505.0,515.0
520.0,487.0,512.0,514.0
529.0,463.0,527.0,515.0
531.0,467.0,527.0,508.0
526.0,481.0,532.0,515.0
518.0,501.0,519.0,506.0
499.0,542.0,507.0,503.0
503.0,524.0,511.0,505.0
504.0,523.0,520.0,511.0
507.0,500.0,518.0,516.0
513.0,497.0,503.0,513.0
523.0,480.0,499.0,512.0
518.0,489.0,495.0,512.0
510.0,496.0,495.0,514.0
495.0,534.0,489.0,514.0
501.0,476.0,494.0,514.0
516.0,478.0,500.0,513.0
511.0,541.0,504.0,516.0
515.0,536.0,517.0,516.0
538.0,505.0,524.0,515.0
535.0,500.0,527.0,513.0
526.0,479.0,529.0,512.0
511.0,468.0,522.0,513.0
499.0,493.0,520.0,511.0
497.0,506.0,519.0,506.0
502.0,541.0,505.0,501.0
504.0,545.0,497.0,506.0
518.0,506.0,500.0,510.0
524.0,497.0,500.0,512.0
522.0,491.0,512.0,523.0
518.0,505.0,515.0,535.0
508.0,533.0,496.0,527.0
505.0,520.0,503.0,521.0
504.0,519.0,508.0,516.0
505.0,511.0,505.0,508.0
519.0,490.0,516.0,513.0
531.0,469.0,529.0,512.0
531.0,468.0,526.0,508.0
520.0,483.0,523.0,508.0
499.0,498.0,521.0,514.0
494.0,508.0,511.0,510.0
492.0,512.0,511.0,506.0
494.0,521.0,503.0,507.0
501.0,527.0,502.0,512.0
521.0,506.0,512.0,518.0
523.0,511.0,509.0,517.0
520.0,516.0,504.0,518.0
510.0,534.0,499.0,521.0
508.0,522.0,499.0,520.0
505.0,531.0,499.0,515.0
504.0,515.0,506.0,516.0
512.0,491.0,514.0,516.0
530.0,473.0,524.0,509.0
533.0,470.0,530.0,511.0
526.0,479.0,531.0,508.0
513.0,488.0,526.0,506.0
498.0,504.0,516.0,507.0
499.0,497.0,514.0,505.0
494.0,493.0,513.0,508.0
501.0,492.0,506.0,513.0
510.0,487.0,501.0,513.0
518.0,480.0,506.0,513.0
525.0,495.0,501.0,514.0
519.0,543.0,503.0,513.0
501.0,558.0,496.0,517.0
501.0,525.0,503.0,522.0
505.0,516.0,511.0,517.0
505.0,517.0,515.0,514.0
513.0,519.0,512.0,510.0
523.0,479.0,526.0,509.0
526.0,464.0,529.0,505.0
522.0,453.0,529.0,507.0
503.0,489.0,516.0,506.0
496.0,505.0,514.0,508.0
504.0,501.0,507.0,508.0
515.0,529.0,508.0,508.0
502.0,546.0,501.0,508.0
516.0,492.0,502.0,511.0
521.0,476.0,507.0,513.0
520.0,487.0,506.0,518.0
513.0,510.0,500.0,522.0
499.0,563.0,500.0,524.0
502.0,542.0,504.0,525.0
506.0,518.0,504.0,522.0
517.0,503.0,507.0,520.0
523.0,494.0,516.0,514.0
527.0,500.0,533.0,514.0
526.0,509.0,544.0,516.0
522.0,524.0,546.0,517.0
499.0,490.0,526.0,512.0
499.0,492.0,515.0,510.0
498.0,523.0,510.0,505.0
500.0,516.0,505.0,504.0
503.0,509.0,500.0,504.0
524.0,480.0,502.0,505.0
528.0,480.0,501.0,516.0
520.0,477.0,504.0,520.0
513.0,501.0,498.0,519.0
497.0,517.0,497.0,519.0
505.0,515.0,504.0,523.0
503.0,521.0,507.0,520.0
515.0,507.0,514.0,517.0
528.0,483.0,525.0,511.0
532.0,486.0,526.0,506.0
527.0,478.0,537.0,513.0
519.0,479.0,540.0,514.0
499.0,506.0,527.0,512.0
502.0,513.0,514.0,506.0
494.0,528.0,504.0,506.0
497.0,535.0,498.0,502.0
510.0,511.0,491.0,503.0
529.0,470.0,495.0,507.0
524.0,483.0,497.0,513.0
522.0,496.0,495.0,514.0
504.0,530.0,490.0,518.0
505.0,521.0,494.0,521.0
510.0,510.0,501.0,522.0
511.0,500.0,509.0,512.0
515.0,504.0,523.0,515.0
530.0,471.0,538.0,515.0
528.0,474.0,534.0,508.0
521.0,495.0,526.0,505.0
512.0,487.0,522.0,508.0
496.0,518.0,511.0,507.0
497.0,547.0,508.0,506.0
496.0,524.0,506.0,506.0
507.0,508.0,500.0,508.0
517.0,496.0,497.0,511.0
520.0,495.0,505.0,519.0
523.0,490.0,496.0,519.0
516.0,505.0,495.0,520.0
505.0,507.0,505.0,528.0
503.0,501.0,525.0,536.0
496.0,515.0,527.0,527.0
498.0,517.0,514.0,512.0
511.0,495.0,514.0,509.0
523.0,463.0,529.0,516.0
524.0,475.0,535.0,514.0
519.0,475.0,528.0,511.0
508.0,505.0,522.0,509.0
508.0,507.0,514.0,506.0
503.0,531.0,505.0,503.0
495.0,540.0,500.0,506.0
506.0,501.0,500.0,509.0
520.0,480.0,502.0,514.0
523.0,506.0,501.0,514.0
517.0,503.0,498.0,519.0
509.0,524.0,504.0,515.0
501.0,530.0,503.0,515.0
503.0,521.0,504.0,513.0
509.0,510.0,513.0,520.0
515.0,518.0,515.0,515.0
524.0,485.0,527.0,514.0
525.0,455.0,535.0,509.0
523.0,461.0,541.0,512.0
513.0,500.0,531.0,517.0
499.0,524.0,513.0,511.0
505.0,534.0,507.0,512.0
498.0,536.0,515.0,511.0
500.0,535.0,512.0,517.0
514.0,490.0,510.0,517.0
521.0,483.0,509.0,516.0
513.0,506.0,504.0,512.0
515.0,471.0,500.0,516.0
500.0,532.0,492.0,515.0
502.0,526.0,498.0,513.0
506.0,527.0,501.0,511.0
517.0,517.0,503.0,512.0
520.0,504.0,515.0,509.0
533.0,478.0,529.0,507.0
529.0,489.0,529.0,509.0
523.0,480.0,527.0,509.0
511.0,503.0,526.0,509.0
497.0,514.0,523.0,510.0
499.0,520.0,514.0,504.0
501.0,518.0,504.0,497.0
509.0,507.0,498.0,504.0
522.0,488.0,501.0,510.0
521.0,497.0,499.0,513.0
523.0,508.0,498.0,515.0
516.0,518.0,500.0,519.0
498.0,534.0,500.0,524.0
501.0,538.0,506.0,523.0
500.0,548.0,516.0,517.0
503.0,530.0,519.0,515.0
517.0,498.0,516.0,510.0
525.0,457.0,528.0,514.0
528.0,437.0,529.0,515.0
524.0,453.0,532.0,514.0
502.0,500.0,526.0,512.0
498.0,512.0,531.0,514.0
498.0,534.0,520.0,511.0
496.0,529.0,503.0,505.0
502.0,514.0,496.0,501.0
516.0,482.0,494.0,505.0
523.0,476.0,497.0,510.0
524.0,493.0,494.0,513.0
518.0,503.0,495.0,517.0
504.0,521.0,499.0,518.0
508.0,543.0,500.0,521.0
504.0,546.0,504.0,517.0
508.0,549.0,512.0,516.0
527.0,493.0,526.0,514.0
532.0,442.0,544.0,518.0
525.0,452.0,537.0,521.0
518.0,472.0,533.0,517.0
504.0,499.0,515.0,511.0
506.0,509.0,508.0,503.0
501.0,521.0,507.0,502.0
496.0,538.0,496.0,504.0
506.0,510.0,498.0,507.0
516.0,487.0,502.0,513.0
515.0,491.0,503.0,522.0
517.0,476.0,500.0,522.0
507.0,511.0,496.0,524.0
517.0,518.0,507.0,516.0
510.0,522.0,509.0,525.0
508.0,527.0,519.0,522.0
514.0,508.0,525.0,522.0
528.0,473.0,535.0,514.0
526.0,471.0,531.0,505.0
523.0,467.0,525.0,507.0
507.0,500.0,516.0,506.0
493.0,528.0,509.0,506.0
497.0,526.0,511.0,506.0
495.0,528.0,508.0,505.0
496.0,525.0,505.0,507.0
512.0,504.0,506.0,511.0
521.0,482.0,506.0,513.0
521.0,472.0,508.0,520.0
514.0,485.0,504.0,522.0
498.0,503.0,496.0,517.0
505.0,514.0,503.0,520.0
505.0,539.0,506.0,519.0
504.0,522.0,510.0,511.0
528.0,491.0,522.0,509.0
531.0,459.0,532.0,509.0
526.0,478.0,530.0,508.0
525.0,492.0,526.0,508.0
508.0,531.0,517.0,507.0
500.0,517.0,515.0,507.0
498.0,525.0,510.0,504.0
497.0,541.0,505.0,507.0
504.0,533.0,506.0,503.0
519.0,498.0,503.0,514.0
524.0,472.0,507.0,519.0
519.0,517.0,508.0,518.0
505.0,551.0,495.0,516.0
498.0,549.0,503.0,515.0
506.0,521.0,504.0,516.0
507.0,500.0,507.0,514.0
510.0,482.0,513.0,520.0
523.0,463.0,533.0,518.0
526.0,467.0,537.0,516.0
523.0,480.0,535.0,515.0
515.0,496.0,527.0,513.0
497.0,516.0,516.0,512.0
499.0,514.0,511.0,510.0
501.0,512.0,509.0,511.0
505.0,513.0,512.0,516.0
514.0,512.0,511.0,514.0
526.0,494.0,511.0,512.0
519.0,493.0,510.0,516.0
519.0,496.0,500.0,519.0
508.0,515.0,502.0,518.0
511.0,511.0,503.0,519.0
508.0,515.0,505.0,514.0
506.0,513.0,504.0,506.0
511.0,497.0,524.0,509.0
527.0,470.0,532.0,510.0
529.0,479.0,529.0,507.0
523.0,465.0,526.0,507.0
500.0,523.0,521.0,506.0
483.0,527.0,514.0,504.0
487.0,484.0,514.0,506.0
489.0,489.0,508.0,506.0
493.0,490.0,503.0,509.0
518.0,474.0,506.0,512.0
531.0,507.0,504.0,519.0
530.0,518.0,496.0,519.0
520.0,513.0,498.0,522.0
503.0,541.0,501.0,525.0
505.0,545.0,505.0,523.0
501.0,524.0,510.0,519.0
506.0,519.0,515.0,517.0
519.0,491.0,519.0,512.0
526.0,469.0,531.0,512.0
522.0,468.0,532.0,513.0
519.0,485.0,531.0,513.0
500.0,526.0,523.0,514.0
500.0,523.0,517.0,513.0
493.0,527.0,512.0,511.0
495.0,532.0,507.0,515.0
508.0,519.0,502.0,518.0
522.0,482.0,511.0,518.0
521.0,501.0,506.0,517.0
519.0,509.0,501.0,517.0
509.0,536.0,493.0,519.0
499.0,565.0,497.0,514.0
503.0,495.0,503.0,514.0
500.0,493.0,510.0,514.0
506.0,502.0,510.0,514.0
523.0,477.0,521.0,512.0
529.0,466.0,528.0,513.0
530.0,468.0,528.0,509.0
520.0,491.0,528.0,505.0
498.0,513.0,518.0,504.0
497.0,519.0,513.0,500.0
497.0,525.0,510.0,503.0
502.0,526.0,503.0,506.0
515.0,509.0,500.0,514.0
514.0,489.0,503.0,518.0
511.0,488.0,503.0,516.0
511.0,490.0,501.0,517.0
501.0,504.0,501.0,520.0
500.0,514.0,502.0,519.0
501.0,519.0,503.0,515.0
512.0,515.0,505.0,515.0
532.0,496.0,516.0,513.0
535.0,469.0,528.0,507.0
530.0,476.0,533.0,513.0
521.0,482.0,540.0,514.0
507.0,506.0,526.0,514.0
495.0,518.0,515.0,510.0
499.0,514.0,512.0,507.0
504.0,522.0,509.0,509.0
495.0,544.0,501.0,513.0
508.0,526.0,506.0,509.0
514.0,516.0,502.0,510.0
520.0,499.0,496.0,514.0
521.0,461.0,494.0,514.0
504.0,516.0,494.0,519.0
510.0,507.0,503.0,519.0
509.0,500.0,507.0,521.0
513.0,500.0,514.0,519.0
519.0,470.0,528.0,515.0
538.0,479.0,534.0,507.0
528.0,486.0,537.0,500.0
519.0,492.0,526.0,504.0
502.0,516.0,514.0,503.0
500.0,520.0,512.0,509.0
495.0,535.0,505.0,508.0
494.0,527.0,502.0,510.0
502.0,516.0,499.0,515.0
517.0,492.0,511.0,523.0
523.0,463.0,513.0,526.0
523.0,484.0,508.0,528.0
512.0,517.0,504.0,522.0
505.0,544.0,506.0,520.0
508.0,525.0,510.0,518.0
507.0,522.0,504.0,514.0
514.0,509.0,509.0,515.0
529.0,472.0,525.0,506.0
525.0,461.0,527.0,504.0
513.0,471.0,525.0,502.0
505.0,485.0,521.0,505.0
495.0,512.0,514.0,508.0
501.0,518.0,510.0,511.0
496.0,515.0,507.0,513.0
498.0,533.0,502.0,511.0
508.0,515.0,506.0,516.0
523.0,495.0,515.0,519.0
519.0,495.0,511.0,528.0
516.0,493.0,510.0,526.0
498.0,517.0,501.0,521.0
504.0,530.0,496.0,515.0
510.0,520.0,497.0,510.0
512.0,502.0,501.0,502.0
521.0,482.0,513.0,504.0
532.0,457.0,523.0,503.0
520.0,492.0,529.0,506.0
516.0,505.0,535.0,511.0
502.0,542.0,525.0,510.0
486.0,546.0,518.0,509.0
497.0,497.0,518.0,513.0
498.0,509.0,511.0,515.0
501.0,532.0,502.0,516.0
519.0,487.0,503.0,517.0
523.0,485.0,499.0,515.0
519.0,487.0,504.0,520.0
513.0,507.0,497.0,520.0
502.0,520.0,491.0,520.0
510.0,505.0,498.0,516.0
507.0,508.0,504.0,513.0
507.0,500.0,517.0,512.0
530.0,472.0,530.0,509.0
530.0,478.0,533.0,509.0
524.0,476.0,533.0,504.0
515.0,483.0,527.0,503.0
500.0,530.0,513.0,504.0
495.0,529.0,506.0,503.0
496.0,525.0,510.0,500.0
499.0,517.0,506.0,509.0
504.0,518.0,502.0,514.0
523.0,496.0,501.0,517.0
524.0,486.0,501.0,514.0
525.0,490.0,506.0,525.0
507.0,513.0,501.0,526.0
502.0,523.0,509.0,524.0
502.0,524.0,508.0,521.0
507.0,516.0,507.0,516.0
510.0,503.0,512.0,515.0
527.0,483.0,528.0,515.0
526.0,471.0,531.0,514.0
529.0,479.0,534.0,508.0
513.0,502.0,528.0,506.0
500.0,522.0,510.0,504.0
507.0,509.0,508.0,505.0
496.0,527.0,504.0,505.0
500.0,519.0,502.0,509.0
515.0,487.0,502.0,513.0
519.0,480.0,512.0,515.0
517.0,484.0,510.0,517.0
509.0,498.0,502.0,517.0
499.0,542.0,499.0,519.0
503.0,518.0,503.0,513.0
502.0,519.0,500.0,512.0
500.0,527.0,508.0,510.0
514.0,494.0,518.0,515.0
524.0,468.0,532.0,514.0
525.0,472.0,535.0,511.0
530.0,482.0,532.0,512.0
518.0,511.0,529.0,509.0
502.0,516.0,524.0,512.0
506.0,504.0,520.0,509.0
504.0,502.0,507.0,509.0
511.0,504.0,502.0,511.0
519.0,476.0,506.0,514.0
522.0,479.0,503.0,526.0
520.0,509.0,502.0,521.0
511.0,523.0,495.0,527.0
497.0,540.0,493.0,515.0
502.0,533.0,502.0,515.0
499.0,539.0,504.0,511.0
510.0,506.0,514.0,513.0
523.0,477.0,525.0,517.0
527.0,482.0,537.0,511.0
526.0,477.0,532.0,507.0
517.0,479.0,526.0,504.0
498.0,495.0,515.0,501.0
492.0,510.0,510.0,505.0
487.0,531.0,504.0,499.0
487.0,523.0,502.0,506.0
505.0,522.0,504.0,516.0
524.0,500.0,513.0,521.0
521.0,490.0,513.0,518.0
523.0,503.0,500.0,521.0
506.0,554.0,498.0,521.0
506.0,518.0,512.0,525.0
519.0,472.0,518.0,522.0
510.0,489.0,511.0,518.0
507.0,480.0,519.0,512.0
526.0,457.0,529.0,506.0
529.0,477.0,530.0,503.0
522.0,500.0,522.0,501.0
507.0,527.0,520.0,499.0
499.0,519.0,513.0,501.0
498.0,509.0,511.0,503.0
497.0,519.0,502.0,508.0
498.0,514.0,499.0,511.0
510.0,487.0,506.0,515.0
519.0,490.0,502.0,516.0
516.0,489.0,507.0,516.0
515.0,511.0,505.0,519.0
502.0,536.0,498.0,523.0
510.0,523.0,505.0,519.0
506.0,514.0,512.0,518.0
505.0,502.0,513.0,514.0
515.0,479.0,521.0,518.0
524.0,460.0,533.0,516.0
525.0,477.0,535.0,521.0
522.0,507.0,533.0,520.0
504.0,542.0,523.0,518.0
495.0,550.0,521.0,516.0
495.0,545.0,522.0,509.0
487.0,528.0,503.0,504.0
495.0,524.0,495.0,504.0
519.0,486.0,501.0,510.0
521.0,479.0,508.0,518.0
519.0,493.0,501.0,520.0
512.0,505.0,494.0,512.0
501.0,529.0,501.0,514.0
506.0,518.0,505.0,515.0
502.0,532.0,506.0,514.0
505.0,523.0,513.0,518.0
516.0,480.0,523.0,515.0
523.0,468.0,530.0,511.0
527.0,467.0,529.0,507.0
519.0,484.0,527.0,508.0
499.0,522.0,518.0,503.0
503.0,517.0,510.0,498.0
496.0,517.0,507.0,498.0
502.0,505.0,504.0,503.0
518.0,500.0,502.0,506.0
525.0,494.0,504.0,514.0
521.0,505.0,501.0,515.0
518.0,505.0,500.0,513.0
499.0,536.0,497.0,518.0
500.0,535.0,497.0,518.0
504.0,520.0,504.0,517.0
507.0,501.0,505.0,511.0
520.0,485.0,515.0,510.0
530.0,465.0,530.0,514.0
531.0,471.0,531.0,510.0
528.0,476.0,530.0,507.0
509.0,511.0,527.0,508.0
493.0,534.0,529.0,512.0
498.0,516.0,507.0,514.0
490.0,526.0,509.0,515.0
497.0,526.0,505.0,514.0
515.0,491.0,508.0,518.0
523.0,477.0,507.0,517.0
518.0,479.0,507.0,517.0
513.0,494.0,497.0,517.0
494.0,534.0,496.0,514.0
502.0,533.0,497.0,516.0
496.0,539.0,510.0,516.0
512.0,505.0,512.0,514.0
522.0,491.0,520.0,511.0
530.0,478.0,529.0,509.0
524.0,490.0,531.0,509.0
521.0,511.0,523.0,508.0
502.0,539.0,519.0,505.0
499.0,500.0,509.0,508.0
503.0,499.0,513.0,517.0
497.0,513.0,513.0,514.0
501.0,509.0,514.0,517.0
520.0,492.0,513.0,516.0
520.0,484.0,506.0,517.0
524.0,488.0,502.0,516.0
513.0,514.0,497.0,518.0
504.0,528.0,500.0,517.0
509.0,524.0,503.0,516.0
511.0,509.0,510.0,523.0
515.0,492.0,517.0,517.0
524.0,467.0,525.0,517.0
519.0,467.0,536.0,516.0
516.0,479.0,533.0,513.0
507.0,488.0,526.0,508.0
492.0,512.0,516.0,505.0
493.0,514.0,516.0,502.0
490.0,520.0,507.0,501.0
503.0,532.0,504.0,503.0
513.0,539.0,503.0,512.0
528.0,500.0,508.0,519.0
525.0,482.0,506.0,524.0
524.0,470.0,502.0,524.0
506.0,512.0,500.0,521.0
502.0,527.0,502.0,519.0
506.0,512.0,506.0,522.0
512.0,500.0,510.0,514.0
518.0,490.0,517.0,509.0
526.0,467.0,522.0,508.0
527.0,474.0,527.0,506.0
524.0,477.0,526.0,504.0
499.0,512.0,522.0,507.0
491.0,553.0,520.0,503.0
503.0,557.0,521.0,507.0
502.0,546.0,515.0,505.0
509.0,500.0,508.0,506.0
516.0,500.0,505.0,515.0
529.0,468.0,502.0,516.0
523.0,468.0,499.0,516.0
511.0,480.0,501.0,514.0
502.0,507.0,500.0,515.0
504.0,514.0,504.0,516.0
505.0,513.0,505.0,516.0
510.0,518.0,507.0,517.0
521.0,513.0,518.0,515.0
532.0,489.0,530.0,508.0
527.0,492.0,532.0,506.0
517.0,516.0,528.0,502.0
500.0,522.0,517.0,503.0
496.0,519.0,512.0,501.0
502.0,520.0,511.0,504.0
498.0,527.0,506.0,505.0
505.0,511.0,502.0,510.0
524.0,477.0,502.0,513.0
524.0,481.0,505.0,516.0
522.0,478.0,499.0,518.0
515.0,512.0,497.0,517.0
503.0,532.0,503.0,518.0
506.0,526.0,505.0,517.0
502.0,519.0,508.0,518.0
503.0,533.0,511.0,518.0
517.0,496.0,529.0,517.0
526.0,435.0,539.0,523.0
524.0,461.0,542.0,524.0
511.0,498.0,538.0,519.0
496.0,532.0,526.0,507.0
499.0,508.0,519.0,503.0
499.0,515.0,508.0,506.0
499.0,537.0,495.0,505.0
508.0,519.0,499.0,505.0
524.0,465.0,504.0,514.0
526.0,495.0,504.0,519.0
519.0,492.0,512.0,523.0
505.0,522.0,501.0,521.0
506.0,532.0,502.0,521.0
507.0,522.0,508.0,518.0
504.0,519.0,511.0,515.0
515.0,497.0,520.0,515.0
530.0,478.0,530.0,509.0
527.0,490.0,528.0,505.0
521.0,488.0,527.0,501.0
506.0,502.0,515.0,500.0
496.0,512.0,513.0,503.0
501.0,502.0,511.0,503.0
495.0,515.0,508.0,501.0
496.0,529.0,500.0,504.0
515.0,500.0,509.0,513.0
522.0,491.0,510.0,516.0
521.0,498.0,499.0,514.0
517.0,509.0,493.0,513.0
499.0,534.0,492.0,522.0
501.0,529.0,505.0,520.0
507.0,525.0,505.0,513.0
515.0,501.0,515.0,514.0
521.0,477.0,532.0,519.0
526.0,459.0,541.0,522.0
523.0,461.0,541.0,520.0
522.0,475.0,535.0,515.0
500.0,506.0,526.0,515.0
496.0,515.0,514.0,508.0
499.0,525.0,508.0,504.0
496.0,521.0,511.0,505.0
508.0,515.0,496.0,505.0
520.0,492.0,497.0,511.0
522.0,482.0,502.0,509.0
524.0,493.0,499.0,514.0
512.0,533.0,497.0,514.0
504.0,542.0,502.0,510.0
508.0,516.0,502.0,516.0
504.0,504.0,509.0,519.0
506.0,506.0,514.0,516.0
524.0,483.0,523.0,512.0
524.0,473.0,531.0,509.0
521.0,479.0,530.0,511.0
514.0,494.0,527.0,507.0
500.0,517.0,521.0,509.0
497.0,514.0,514.0,507.0
498.0,520.0,509.0,506.0
499.0,520.0,504.0,508.0
505.0,500.0,502.0,513.0
520.0,474.0,506.0,515.0
517.0,481.0,501.0,516.0
520.0,480.0,504.0,519.0
500.0,508.0,499.0,519.0
504.0,532.0,499.0,520.0
507.0,563.0,504.0,519.0
511.0,540.0,513.0,520.0
515.0,514.0,519.0,513.0
531.0,472.0,528.0,512.0
529.0,462.0,533.0,505.0
520.0,494.0,534.0,509.0
504.0,548.0,523.0,511.0
489.0,566.0,520.0,510.0
497.0,542.0,523.0,509.0
501.0,481.0,512.0,508.0
509.0,454.0,510.0,508.0
521.0,477.0,508.0,512.0
519.0,486.0,503.0,518.0
520.0,490.0,501.0,518.0
513.0,497.0,496.0,520.0
500.0,533.0,497.0,518.0
503.0,526.0,499.0,519.0
508.0,506.0,505.0,517.0
512.0,493.0,515.0,514.0
523.0,473.0,522.0,511.0
523.0,455.0,533.0,511.0
519.0,475.0,531.0,510.0
513.0,489.0,525.0,507.0
494.0,524.0,512.0,506.0
488.0,525.0,512.0,511.0
494.0,519.0,514.0,516.0
506.0,510.0,513.0,517.0
515.0,502.0,518.0,522.0
521.0,502.0,524.0,527.0
520.0,487.0,511.0,521.0
521.0,485.0,497.0,512.0
509.0,511.0,495.0,509.0
503.0,531.0,490.0,507.0
512.0,524.0,499.0,509.0
504.0,527.0,505.0,511.0
511.0,508.0,514.0,513.0
523.0,471.0,526.0,512.0
521.0,458.0,535.0,512.0
521.0,465.0,536.0,511.0
510.0,487.0,527.0,510.0
491.0,537.0,516.0,505.0
490.0,545.0,512.0,506.0
502.0,524.0,508.0,506.0
506.0,522.0,504.0,510.0
519.0,497.0,506.0,512.0
525.0,489.0,505.0,514.0
521.0,491.0,502.0,516.0
520.0,497.0,502.0,520.0
508.0,526.0,498.0,520.0
502.0,529.0,501.0,520.0
504.0,513.0,505.0,520.0
511.0,534.0,509.0,516.0
514.0,509.0,517.0,514.0
531.0,479.0,527.0,508.0
527.0,483.0,532.0,507.0
518.0,497.0,529.0,509.0
504.0,518.0,521.0,511.0
494.0,536.0,515.0,511.0
492.0,539.0,512.0,506.0
501.0,518.0,509.0,507.0
503.0,516.0,501.0,509.0
517.0,490.0,500.0,508.0
521.0,462.0,503.0,516.0
523.0,485.0,501.0,516.0
516.0,543.0,503.0,521.0
499.0,561.0,500.0,521.0
503.0,547.0,508.0,518.0
509.0,516.0,507.0,517.0
520.0,469.0,514.0,515.0
522.0,479.0,525.0,515.0
529.0,467.0,531.0,516.0
530.0,460.0,535.0,512.0
519.0,477.0,530.0,514.0
501.0,511.0,525.0,513.0
493.0,522.0,513.0,508.0
499.0,516.0,508.0,505.0
496.0,520.0,495.0,498.0
503.0,514.0,495.0,503.0
519.0,492.0,508.0,517.0
519.0,491.0,515.0,520.0
521.0,492.0,506.0,519.0
509.0,514.0,496.0,514.0
499.0,530.0,497.0,516.0
503.0,530.0,503.0,514.0
509.0,517.0,509.0,517.0
516.0,499.0,515.0,514.0
529.0,475.0,522.0,515.0
530.0,470.0,533.0,509.0
524.0,473.0,534.0,512.0
513.0,496.0,527.0,511.0
496.0,516.0,524.0,512.0
499.0,518.0,521.0,517.0
496.0,534.0,508.0,513.0
496.0,531.0,502.0,515.0
512.0,500.0,509.0,512.0
527.0,453.0,504.0,511.0
525.0,487.0,511.0,517.0
520.0,494.0,504.0,526.0
502.0,522.0,494.0,519.0
502.0,523.0,500.0,518.0
513.0,512.0,506.0,522.0
513.0,504.0,511.0,517.0
517.0,500.0,516.0,513.0
529.0,469.0,528.0,504.0
528.0,466.0,529.0,502.0
526.0,470.0,529.0,503.0
511.0,504.0,522.0,504.0
492.0,552.0,511.0,504.0
493.0,537.0,509.0,505.0
496.0,533.0,503.0,502.0
500.0,530.0,506.0,510.0
518.0,501.0,512.0,511.0
523.0,488.0,516.0,520.0
521.0,487.0,514.0,525.0
512.0,498.0,500.0,522.0
498.0,511.0,488.0,516.0
501.0,508.0,497.0,512.0
499.0,513.0,503.0,516.0
504.0,534.0,513.0,512.0
520.0,489.0,521.0,517.0
537.0,458.0,532.0,514.0
531.0,481.0,533.0,509.0
521.0,487.0,529.0,506.0
503.0,512.0,517.0,507.0
497.0,524.0,511.0,501.0
502.0,510.0,508.0,498.0
499.0,512.0,502.0,501.0
507.0,508.0,501.0,511.0
518.0,479.0,508.0,514.0
522.0,490.0,505.0,514.0
517.0,500.0,503.0,524.0
510.0,518.0,499.0,521.0
504.0,530.0,503.0,520.0
512.0,517.0,510.0,517.0
510.0,512.0,509.0,515.0
514.0,504.0,513.0,514.0
526.0,461.0,528.0,513.0
524.0,449.0,533.0,511.0
522.0,478.0,532.0,511.0
506.0,507.0,524.0,508.0
483.0,552.0,516.0,509.0
485.0,544.0,511.0,509.0
493.0,539.0,509.0,510.0
515.0,531.0,505.0,513.0
517.0,510.0,508.0,516.0
520.0,492.0,507.0,517.0
520.0,493.0,505.0,521.0
520.0,507.0,500.0,518.0
504.0,549.0,491.0,519.0
507.0,531.0,499.0,516.0
515.0,506.0,508.0,518.0
509.0,486.0,512.0,516.0
518.0,478.0,516.0,516.0
525.0,462.0,531.0,513.0
524.0,465.0,532.0,512.0
517.0,485.0,532.0,512.0
503.0,530.0,523.0,509.0
491.0,558.0,522.0,510.0
501.0,533.0,517.0,509.0
500.0,535.0,509.0,506.0
501.0,517.0,500.0,510.0
521.0,456.0,506.0,517.0
524.0,476.0,507.0,517.0
522.0,490.0,506.0,520.0
513.0,505.0,499.0,521.0
501.0,532.0,498.0,520.0
503.0,517.0,503.0,517.0
506.0,510.0,505.0,516.0
506.0,510.0,517.0,512.0
522.0,488.0,527.0,513.0
529.0,476.0,531.0,513.0
528.0,475.0,539.0,512.0
519.0,484.0,531.0,511.0
502.0,514.0,520.0,512.0
498.0,518.0,516.0,511.0
492.0,531.0,507.0,506.0
498.0,523.0,503.0,505.0
506.0,512.0,502.0,507.0
521.0,490.0,503.0,513.0
522.0,507.0,502.0,518.0
515.0,523.0,505.0,524.0
500.0,556.0,507.0,526.0
494.0,568.0,502.0,522.0
507.0,459.0,508.0,517.0
514.0,484.0,506.0,517.0
513.0,491.0,517.0,517.0
532.0,446.0,537.0,519.0
531.0,450.0,542.0,518.0
531.0,475.0,544.0,515.0
512.0,498.0,526.0,511.0
495.0,520.0,512.0,503.0
496.0,509.0,505.0,497.0
505.0,514.0,500.0,498.0
504.0,524.0,498.0,502.0
513.0,523.0,498.0,505.0
519.0,510.0,511.0,515.0
522.0,478.0,506.0,519.0
518.0,479.0,507.0,520.0
503.0,515.0,498.0,515.0
501.0,521.0,496.0,517.0
507.0,517.0,499.0,514.0
510.0,510.0,513.0,511.0
515.0,483.0,519.0,511.0
530.0,454.0,531.0,510.0
528.0,464.0,535.0,506.0
526.0,473.0,534.0,506.0
505.0,519.0,522.0,506.0
492.0,550.0,513.0,508.0
491.0,537.0,511.0,504.0
496.0,523.0,510.0,508.0
500.0,519.0,503.0,512.0
519.0,491.0,507.0,514.0
519.0,485.0,504.0,516.0
521.0,487.0,505.0,513.0
514.0,509.0,499.0,517.0
496.0,543.0,495.0,523.0
502.0,526.0,506.0,519.0
509.0,507.0,506.0,519.0
505.0,504.0,511.0,516.0
522.0,472.0,530.0,516.0
530.0,464.0,539.0,514.0
522.0,480.0,538.0,515.0
518.0,497.0,531.0,503.0
497.0,525.0,519.0,510.0
489.0,525.0,513.0,506.0
496.0,506.0,513.0,508.0
491.0,514.0,507.0,509.0
508.0,508.0,503.0,507.0
526.0,489.0,504.0,514.0
521.0,488.0,500.0,516.0
522.0,490.0,503.0,519.0
513.0,506.0,496.0,521.0
506.0,505.0,502.0,523.0
507.0,497.0,507.0,519.0
507.0,500.0,515.0,522.0
507.0,512.0,524.0,520.0
523.0,496.0,535.0,522.0
528.0,479.0,537.0,515.0
525.0,492.0,531.0,505.0
519.0,518.0,517.0,504.0
500.0,549.0,512.0,503.0
498.0,529.0,515.0,506.0
497.0,517.0,510.0,503.0
495.0,521.0,514.0,505.0
509.0,501.0,506.0,511.0
519.0,488.0,506.0,517.0
519.0,496.0,506.0,519.0
515.0,507.0,505.0,522.0
495.0,533.0,500.0,519.0
489.0,533.0,503.0,520.0
496.0,520.0,507.0,517.0
507.0,500.0,511.0,513.0
516.0,481.0,522.0,512.0
533.0,461.0,526.0,508.0
535.0,469.0,526.0,509.0
525.0,470.0,522.0,508.0
500.0,514.0,517.0,507.0
485.0,537.0,514.0,509.0
486.0,546.0,515.0,504.0
491.0,553.0,514.0,505.0
505.0,553.0,502.0,507.0
523.0,513.0,497.0,510.0
520.0,485.0,500.0,513.0
521.0,454.0,499.0,519.0
514.0,491.0,500.0,522.0
503.0,509.0,500.0,520.0
508.0,513.0,506.0,515.0
510.0,510.0,512.0,516.0
511.0,507.0,517.0,513.0
522.0,474.0,527.0,512.0
524.0,474.0,539.0,511.0
519.0,480.0,528.0,505.0
516.0,492.0,518.0,504.0
496.0,524.0,514.0,506.0
494.0,536.0,511.0,506.0
504.0,517.0,510.0,505.0
500.0,520.0,506.0,510.0
507.0,503.0,506.0,513.0
522.0,476.0,512.0,515.0
521.0,481.0,502.0,516.0
519.0,489.0,496.0,518.0
509.0,511.0,496.0,520.0
508.0,540.0,500.0,519.0
501.0,543.0,498.0,518.0
515.0,509.0,516.0,522.0
518.0,502.0,521.0,514.0
531.0,471.0,531.0,510.0
528.0,475.0,531.0,507.0
521.0,486.0,530.0,506.0
510.0,507.0,526.0,506.0
498.0,525.0,519.0,508.0
498.0,519.0,520.0,508.0
503.0,502.0,509.0,508.0
496.0,510.0,501.0,507.0
512.0,489.0,506.0,514.0
518.0,487.0,506.0,512.0
516.0,510.0,502.0,517.0
512.0,525.0,502.0,520.0
504.0,533.0,501.0,520.0
505.0,514.0,504.0,521.0
513.0,517.0,510.0,518.0
515.0,465.0,510.0,517.0
515.0,472.0,522.0,514.0
528.0,476.0,532.0,512.0
525.0,492.0,536.0,512.0
519.0,501.0,532.0,508.0
498.0,531.0,522.0,504.0
497.0,532.0,515.0,511.0
497.0,526.0,515.0,510.0
499.0,496.0,511.0,507.0
502.0,499.0,504.0,510.0
517.0,481.0,509.0,510.0
519.0,476.0,505.0,518.0
514.0,479.0,508.0,520.0
510.0,506.0,498.0,521.0
495.0,519.0,498.0,521.0
498.0,533.0,502.0,518.0
505.0,517.0,509.0,519.0
512.0,498.0,519.0,519.0
526.0,469.0,531.0,518.0
528.0,465.0,535.0,513.0
523.0,470.0,536.0,510.0
518.0,484.0,527.0,508.0
499.0,534.0,515.0,505.0
495.0,552.0,512.0,504.0
497.0,532.0,506.0,507.0
498.0,531.0,506.0,510.0
507.0,529.0,504.0,513.0
522.0,486.0,505.0,515.0
521.0,489.0,503.0,518.0
517.0,494.0,500.0,521.0
506.0,529.0,495.0,521.0
496.0,541.0,501.0,520.0
498.0,525.0,507.0,518.0
512.0,502.0,512.0,516.0
513.0,498.0,517.0,510.0
527.0,474.0,528.0,512.0
529.0,472.0,528.0,506.0
520.0,477.0,530.0,507.0
503.0,503.0,526.0,504.0
491.0,530.0,517.0,502.0
495.0,523.0,521.0,507.0
498.0,522.0,509.0,512.0
500.0,524.0,503.0,511.0
516.0,500.0,505.0,512.0
524.0,486.0,507.0,514.0
526.0,488.0,503.0,520.0
519.0,503.0,501.0,523.0
502.0,527.0,493.0,519.0
506.0,523.0,501.0,518.0
507.0,514.0,507.0,522.0
511.0,505.0,511.0,516.0
518.0,493.0,520.0,510.0
529.0,469.0,534.0,510.0
524.0,475.0,533.0,512.0
520.0,489.0,529.0,508.0
504.0,503.0,522.0,509.0
495.0,514.0,519.0,510.0
496.0,512.0,512.0,507.0
498.0,503.0,509.0,508.0
498.0,516.0,501.0,511.0
509.0,508.0,506.0,517.0
515.0,495.0,504.0,517.0
519.0,495.0,502.0,519.0
514.0,501.0,495.0,519.0
509.0,518.0,498.0,518.0
510.0,515.0,509.0,519.0
507.0,512.0,510.0,514.0
503.0,521.0,512.0,514.0
515.0,487.0,528.0,512.0
524.0,466.0,535.0,509.0
519.0,470.0,530.0,509.0
520.0,496.0,527.0,505.0
508.0,529.0,517.0,509.0
505.0,516.0,514.0,506.0
503.0,514.0,512.0,507.0
499.0,521.0,503.0,510.0
513.0,505.0,503.0,512.0
523.0,485.0,504.0,516.0
522.0,484.0,504.0,519.0
519.0,497.0,502.0,523.0
501.0,525.0,498.0,525.0
500.0,523.0,500.0,521.0
504.0,507.0,504.0,520.0
515.0,498.0,512.0,514.0
514.0,500.0,516.0,513.0
527.0,471.0,530.0,513.0
527.0,464.0,534.0,510.0
519.0,478.0,533.0,507.0
507.0,512.0,523.0,506.0
490.0,548.0,516.0,507.0
491.0,550.0,520.0,508.0
493.0,538.0,508.0,505.0
500.0,502.0,506.0,509.0
515.0,415.0,505.0,513.0
517.0,462.0,506.0,516.0
522.0,507.0,503.0,517.0
516.0,521.0,504.0,521.0
507.0,534.0,502.0,522.0
505.0,518.0,502.0,520.0
512.0,506.0,506.0,519.0
515.0,503.0,510.0,513.0
523.0,486.0,520.0,514.0
527.0,471.0,534.0,513.0
526.0,487.0,534.0,510.0
515.0,493.0,535.0,509.0
507.0,522.0,522.0,506.0
501.0,518.0,515.0,505.0
501.0,517.0,509.0,506.0
503.0,509.0,511.0,509.0
505.0,515.0,506.0,510.0
520.0,487.0,507.0,514.0
519.0,489.0,503.0,515.0
518.0,493.0,501.0,518.0
509.0,521.0,496.0,519.0
497.0,537.0,497.0,518.0
507.0,516.0,507.0,519.0
512.0,503.0,511.0,516.0
511.0,500.0,517.0,513.0
525.0,473.0,526.0,511.0
526.0,470.0,535.0,511.0
519.0,481.0,534.0,509.0
511.0,498.0,524.0,507.0
499.0,521.0,519.0,509.0
499.0,522.0,517.0,505.0
502.0,527.0,510.0,508.0
499.0,522.0,506.0,510.0
504.0,497.0,504.0,513.0
521.0,490.0,505.0,515.0
519.0,490.0,506.0,519.0
518.0,498.0,498.0,521.0
501.0,528.0,497.0,522.0
497.0,524.0,499.0,520.0
502.0,514.0,506.0,517.0
512.0,503.0,513.0,519.0
514.0,505.0,520.0,515.0
523.0,483.0,534.0,511.0
522.0,480.0,532.0,509.0
523.0,484.0,532.0,508.0
511.0,511.0,526.0,504.0
512.0,526.0,515.0,507.0
529.0,517.0,514.0,508.0
539.0,520.0,511.0,505.0
542.0,516.0,505.0,509.0
557.0,488.0,506.0,511.0
556.0,481.0,503.0,517.0
550.0,475.0,505.0,517.0
523.0,484.0,501.0,517.0
470.0,529.0,502.0,521.0
450.0,532.0,502.0,519.0
466.0,519.0,512.0,519.0
482.0,519.0,515.0,516.0
499.0,499.0,524.0,514.0
508.0,475.0,534.0,510.0
509.0,477.0,535.0,511.0
505.0,488.0,533.0,508.0
493.0,509.0,525.0,512.0
491.0,515.0,522.0,507.0
493.0,517.0,509.0,502.0
491.0,528.0,506.0,505.0
493.0,522.0,499.0,513.0
509.0,494.0,509.0,513.0
513.0,490.0,508.0,518.0
515.0,489.0,499.0,518.0
506.0,508.0,501.0,522.0
502.0,522.0,502.0,517.0
509.0,510.0,507.0,518.0
505.0,520.0,511.0,516.0
509.0,514.0,518.0,515.0
526.0,484.0,530.0,514.0
529.0,474.0,537.0,514.0
524.0,474.0,536.0,511.0
513.0,493.0,529.0,507.0
493.0,520.0,519.0,509.0
489.0,525.0,515.0,507.0
494.0,521.0,511.0,508.0
493.0,527.0,504.0,511.0
503.0,511.0,506.0,512.0
515.0,490.0,509.0,516.0
516.0,484.0,509.0,520.0
517.0,488.0,502.0,515.0
500.0,519.0,495.0,520.0
498.0,524.0,504.0,515.0
498.0,526.0,510.0,519.0
507.0,512.0,515.0,518.0
513.0,510.0,523.0,513.0
527.0,483.0,540.0,512.0
525.0,480.0,545.0,510.0
525.0,462.0,535.0,511.0
511.0,492.0,521.0,509.0
498.0,510.0,521.0,510.0
497.0,515.0,519.0,505.0
495.0,526.0,512.0,506.0
497.0,532.0,504.0,516.0
515.0,501.0,506.0,514.0
521.0,491.0,508.0,515.0
521.0,490.0,506.0,518.0
513.0,487.0,499.0,522.0
508.0,501.0,502.0,521.0
508.0,493.0,506.0,521.0
517.0,484.0,514.0,517.0
511.0,495.0,517.0,514.0
518.0,477.0,527.0,514.0
530.0,484.0,536.0,513.0
530.0,493.0,536.0,511.0
519.0,487.0,535.0,507.0
504.0,519.0,524.0,506.0
492.0,530.0,514.0,508.0
498.0,531.0,512.0,507.0
499.0,522.0,512.0,507.0
502.0,523.0,505.0,513.0
524.0,491.0,506.0,514.0
523.0,492.0,506.0,517.0
521.0,495.0,504.0,516.0
511.0,518.0,500.0,522.0
502.0,532.0,503.0,520.0
502.0,519.0,509.0,520.0
505.0,516.0,511.0,515.0
509.0,502.0,518.0,515.0
523.0,471.0,528.0,512.0
525.0,467.0,538.0,512.0
526.0,476.0,538.0,510.0
513.0,500.0,532.0,507.0
492.0,533.0,520.0,506.0
495.0,532.0,519.0,507.0
495.0,526.0,514.0,509.0
503.0,512.0,509.0,508.0
512.0,502.0,509.0,510.0
525.0,483.0,511.0,514.0
528.0,480.0,505.0,518.0
521.0,489.0,505.0,521.0
502.0,529.0,501.0,519.0
499.0,531.0,504.0,520.0
506.0,523.0,511.0,517.0
517.0,501.0,514.0,519.0
522.0,494.0,525.0,513.0
538.0,471.0,536.0,511.0
543.0,473.0,539.0,510.0
547.0,478.0,536.0,512.0
542.0,503.0,525.0,508.0
533.0,524.0,521.0,508.0
532.0,517.0,519.0,509.0
510.0,510.0,514.0,510.0
504.0,511.0,508.0,508.0
499.0,495.0,508.0,514.0
493.0,488.0,509.0,516.0
487.0,489.0,507.0,516.0
483.0,510.0,501.0,521.0
486.0,529.0,501.0,521.0
498.0,519.0,506.0,514.0
501.0,515.0,511.0,518.0
505.0,504.0,521.0,516.0
523.0,484.0,528.0,511.0
534.0,471.0,536.0,509.0
522.0,474.0,536.0,509.0
508.0,484.0,534.0,506.0
491.0,514.0,525.0,508.0
482.0,527.0,516.0,507.0
470.0,537.0,514.0,507.0
479.0,528.0,513.0,508.0
488.0,519.0,506.0,509.0
507.0,482.0,511.0,511.0
516.0,485.0,509.0,517.0
521.0,490.0,505.0,526.0
516.0,510.0,502.0,521.0
508.0,521.0,504.0,520.0
508.0,525.0,508.0,518.0
505.0,521.0,509.0,519.0
504.0,511.0,519.0,514.0
517.0,474.0,531.0,514.0
515.0,464.0,536.0,512.0
513.0,469.0,537.0,511.0
503.0,494.0,531.0,509.0
487.0,531.0,518.0,507.0
490.0,518.0,519.0,507.0
490.0,520.0,515.0,507.0
497.0,513.0,508.0,510.0
507.0,498.0,508.0,511.0
511.0,486.0,509.0,513.0
511.0,489.0,507.0,516.0
509.0,494.0,504.0,521.0
498.0,531.0,501.0,519.0
498.0,528.0,505.0,520.0
503.0,513.0,512.0,517.0
507.0,503.0,517.0,518.0
508.0,498.0,525.0,513.0
527.0,474.0,536.0,511.0
526.0,474.0,537.0,508.0
521.0,478.0,535.0,508.0
503.0,511.0,524.0,508.0
489.0,535.0,518.0,508.0
490.0,527.0,518.0,509.0
502.0,506.0,515.0,508.0
502.0,510.0,510.0,511.0
516.0,486.0,509.0,515.0
520.0,486.0,509.0,517.0
520.0,490.0,506.0,518.0
512.0,507.0,502.0,520.0
500.0,521.0,502.0,522.0
503.0,517.0,507.0,519.0
509.0,514.0,507.0,518.0
507.0,509.0,518.0,515.0
520.0,487.0,529.0,512.0
528.0,470.0,538.0,509.0
527.0,474.0,540.0,509.0
520.0,484.0,532.0,510.0
502.0,516.0,525.0,508.0
496.0,525.0,521.0,506.0
490.0,528.0,517.0,509.0
496.0,522.0,515.0,510.0
502.0,512.0,508.0,512.0
520.0,484.0,507.0,516.0
524.0,489.0,509.0,515.0
521.0,490.0,507.0,520.0
512.0,514.0,501.0,522.0
503.0,523.0,501.0,520.0
506.0,517.0,506.0,518.0
512.0,501.0,517.0,516.0
512.0,506.0,522.0,516.0
523.0,477.0,535.0,512.0
527.0,481.0,537.0,510.0
525.0,481.0,540.0,508.0
511.0,494.0,529.0,508.0
492.0,523.0,524.0,506.0
499.0,511.0,516.0,507.0
499.0,506.0,518.0,508.0
503.0,507.0,510.0,510.0
508.0,498.0,508.0,511.0
518.0,492.0,508.0,515.0
521.0,499.0,507.0,517.0
518.0,502.0,505.0,520.0
504.0,531.0,500.0,522.0
508.0,524.0,504.0,521.0
511.0,509.0,513.0,515.0
513.0,500.0,520.0,518.0
518.0,495.0,522.0,515.0
533.0,469.0,533.0,512.0
525.0,474.0,538.0,507.0
515.0,487.0,535.0,508.0
501.0,521.0,527.0,509.0
488.0,535.0,522.0,509.0
494.0,530.0,516.0,505.0
497.0,520.0,511.0,509.0
499.0,514.0,509.0,510.0
515.0,490.0,507.0,513.0
523.0,485.0,508.0,515.0
523.0,498.0,507.0,517.0
520.0,500.0,503.0,521.0
503.0,521.0,503.0,521.0
506.0,520.0,508.0,520.0
494.0,528.0,511.0,518.0
494.0,525.0,518.0,516.0
516.0,491.0,529.0,511.0
526.0,476.0,537.0,510.0
524.0,473.0,536.0,510.0
516.0,482.0,530.0,507.0
497.0,512.0,520.0,508.0
491.0,525.0,518.0,509.0
494.0,530.0,514.0,506.0
503.0,512.0,511.0,505.0
508.0,504.0,509.0,513.0
525.0,481.0,507.0,518.0
519.0,490.0,507.0,517.0
512.0,497.0,509.0,520.0
502.0,526.0,500.0,522.0
496.0,535.0,501.0,516.0
501.0,529.0,505.0,519.0
503.0,520.0,509.0,517.0
513.0,501.0,522.0,514.0
526.0,481.0,533.0,511.0
526.0,474.0,536.0,510.0
528.0,474.0,535.0,508.0
517.0,492.0,529.0,508.0
499.0,521.0,519.0,512.0
497.0,532.0,516.0,507.0
496.0,535.0,512.0,507.0
504.0,520.0,508.0,509.0
515.0,502.0,507.0,512.0
524.0,489.0,508.0,515.0
523.0,490.0,503.0,516.0
525.0,496.0,503.0,519.0
509.0,522.0,501.0,523.0
502.0,522.0,505.0,520.0
505.0,518.0,509.0,520.0
506.0,515.0,513.0,516.0
514.0,496.0,524.0,512.0
527.0,470.0,534.0,509.0
515.0,470.0,532.0,509.0
514.0,474.0,533.0,508.0
511.0,505.0,526.0,509.0
496.0,517.0,520.0,509.0
505.0,517.0,515.0,508.0
505.0,517.0,509.0,509.0
509.0,515.0,505.0,509.0
526.0,491.0,507.0,514.0
528.0,487.0,508.0,515.0
531.0,485.0,504.0,519.0
518.0,502.0,503.0,521.0
493.0,531.0,500.0,520.0
504.0,515.0,506.0,521.0
506.0,523.0,511.0,518.0
507.0,515.0,517.0,514.0
514.0,490.0,528.0,514.0
530.0,473.0,534.0,511.0
525.0,483.0,537.0,508.0
515.0,493.0,533.0,507.0
