CH1,CH2,CH3,CH4
496,522,533,506
502,516,518,508
511,499,510,509
515,490,494,514
517,495,486,515
517,500,475,520
511,515,472,521
506,521,481,520
512,519,486,518
507,518,493,516
513,503,516,514
529,461,539,506
524,467,552,507
519,477,559,507
512,502,556,506
499,519,547,505
495,531,538,507
493,528,529,509
503,503,520,512
518,488,502,512
518,489,496,517
516,497,485,516
511,505,471,521
499,521,473,520
503,508,474,519
516,490,487,516
517,491,501,512
524,477,523,513
529,489,544,510
523,506,553,508
514,496,556,507
497,509,550,508
497,514,541,506
502,518,539,507
505,521,524,508
508,516,513,511
520,503,502,514
522,505,491,519
526,477,479,520
513,500,473,523
497,535,471,522
501,527,480,518
513,503,489,517
517,496,508,511
528,471,532,508
523,471,547,506
519,484,557,505
511,500,552,508
498,519,545,506
499,532,543,505
498,533,534,509
498,525,515,507
509,502,506,511
518,492,499,514
517,492,488,517
514,500,477,521
505,524,471,520
501,535,475,518
508,523,485,519
516,516,498,518
520,497,517,512
527,468,537,512
524,478,552,508
519,482,558,508
513,511,553,506
501,528,546,510
498,515,540,509
504,506,532,509
508,500,517,510
518,485,507,511
516,495,492,513
514,507,481,518
514,507,475,520
505,524,467,520
508,516,479,520
503,520,490,519
515,506,503,516
526,483,529,513
525,480,544,510
521,491,552,508
515,496,558,506
507,526,547,506
498,528,542,502
495,527,533,505
496,528,524,504
508,510,511,510
519,494,504,509
516,501,492,516
513,502,479,520
508,513,473,523
506,525,474,522
507,503,477,518
509,504,489,516
514,496,508,514
524,472,531,511
525,474,547,508
520,479,554,509
511,507,552,506
500,534,545,507
493,539,543,504
494,536,531,505
502,515,521,508
517,479,509,511
522,469,498,512
522,482,486,517
520,491,477,515
513,518,472,521
506,529,475,518
508,524,485,519
513,514,495,514
528,494,518,514
530,476,539,508
524,480,551,509
522,489,555,507
506,512,554,508
498,528,543,503
500,519,538,506
504,512,529,514
508,505,518,510
520,492,506,512
522,497,493,512
521,504,483,517
513,506,474,520
501,519,473,521
507,507,479,517
510,501,488,517
520,493,501,515
528,486,525,513
527,485,544,512
525,499,554,506
518,503,555,511
500,531,549,507
495,513,549,508
495,508,535,507
499,522,526,508
504,520,513,512
518,500,502,512
519,475,491,516
519,483,479,516
507,507,471,520
508,510,471,519
511,522,482,518
511,517,491,517
518,496,510,514
528,471,534,511
526,473,548,508
516,483,555,509
509,493,555,508
501,502,550,507
507,508,539,508
512,511,536,508
505,521,522,506
513,519,509,508
519,511,499,512
518,511,485,514
516,516,478,520
507,532,473,523
506,535,479,521
510,521,486,519
515,515,497,515
521,505,516,511
528,479,538,507
523,480,550,507
520,486,558,506
510,500,553,504
501,516,546,505
499,524,538,505
496,536,531,505
505,524,515,508
518,499,506,509
520,484,497,513
517,493,484,518
516,503,475,523
508,522,471,520
506,520,476,520
508,513,487,517
520,500,503,513
528,484,527,511
527,484,545,508
520,490,553,507
515,492,561,507
502,507,549,505
499,506,543,507
501,508,537,506
498,511,525,508
505,509,514,511
516,496,502,516
517,499,492,517
519,502,482,521
510,515,473,521
505,520,478,520
506,521,478,512
508,516,488,515
515,503,506,513
526,477,531,510
524,474,543,507
520,484,556,506
512,497,554,506
499,522,546,507
493,527,542,505
499,517,534,506
501,514,517,509
509,500,508,511
516,481,498,515
516,482,486,518
517,493,477,521
510,516,471,521
505,515,473,520
510,506,483,518
513,499,494,518
521,496,516,514
528,486,538,511
524,484,552,509
525,496,557,508
515,519,552,505
500,528,545,506
499,530,539,506
496,531,528,504
506,506,516,509
516,491,502,510
518,491,492,512
516,489,483,519
512,501,471,521
504,524,472,521
502,523,474,519
509,514,484,516
515,507,500,514
527,481,522,509
526,470,542,507
524,484,553,506
515,492,552,507
503,519,549,506
494,522,544,510
494,522,531,507
498,522,527,504
508,521,513,507
515,508,501,511
514,507,490,512
519,481,479,517
513,481,470,520
504,512,464,518
511,502,481,520
505,503,487,516
510,505,505,513
523,477,528,510
520,486,546,509
517,493,554,506
508,509,554,506
505,512,546,506
503,519,541,501
505,516,530,507
503,517,518,505
515,506,507,510
520,493,497,513
518,493,487,514
518,492,478,522
510,514,474,524
508,530,475,520
503,529,483,518
511,510,493,513
516,503,514,516
526,495,538,512
527,490,551,511
518,493,555,506
508,510,550,503
501,522,540,504
502,517,537,501
499,519,528,506
503,512,515,507
516,496,504,509
519,492,493,521
519,497,483,517
517,502,472,519
502,522,469,526
499,529,472,519
504,518,487,517
510,503,499,516
524,484,524,512
527,479,540,505
524,488,552,509
520,496,557,506
508,524,549,505
501,527,543,505
494,529,533,505
501,512,525,506
511,497,508,510
520,477,501,514
522,482,492,515
521,497,480,519
513,522,473,519
504,534,470,523
507,524,480,518
506,521,487,517
515,508,506,517
526,483,531,513
523,478,545,510
522,483,555,507
515,497,551,506
500,524,540,507
494,532,537,504
500,517,530,505
501,505,520,505
509,496,510,509
519,490,498,514
518,494,487,518
516,501,477,520
507,520,470,521
504,524,474,521
504,519,482,519
511,506,494,517
524,486,515,516
528,472,535,512
524,488,549,510
517,497,555,508
506,518,549,503
499,522,540,503
505,507,539,504
500,514,530,503
506,505,517,509
514,492,506,511
518,497,492,515
515,502,484,518
517,515,472,522
505,520,471,523
504,500,476,517
507,498,483,520
512,509,500,519
526,490,523,513
527,474,541,512
524,482,550,509
517,492,553,506
502,511,546,505
493,527,539,501
501,511,537,505
506,508,526,508
511,507,513,509
518,490,501,514
518,495,488,519
517,500,479,515
509,517,469,522
510,514,474,520
505,513,480,516
507,512,491,518
514,500,506,515
524,475,531,513
524,479,541,510
516,484,552,506
510,501,553,507
496,522,545,505
497,522,536,507
491,525,531,507
506,509,521,509
515,497,509,510
519,479,498,512
515,482,492,518
517,500,475,520
506,524,469,521
497,541,472,522
497,551,481,522
511,525,495,519
522,501,515,512
529,480,536,509
523,483,548,508
517,485,555,506
504,498,550,507
494,524,540,505
499,517,538,506
498,516,530,503
505,507,516,508
515,489,505,511
517,487,492,515
517,495,486,517
513,496,476,518
501,531,470,521
504,532,476,524
503,531,486,518
516,502,500,519
524,496,523,512
530,486,540,509
524,493,552,504
519,505,555,505
503,535,546,507
497,524,541,507
499,509,535,505
499,505,526,508
507,495,515,510
519,483,503,513
516,489,488,517
519,491,479,519
514,503,471,520
511,518,473,522
507,517,485,521
507,516,491,518
513,505,507,514
526,482,526,511
525,478,542,508
521,486,552,505
516,493,550,505
505,509,545,507
499,515,539,506
500,516,530,504
499,514,518,508
509,501,508,509
519,490,497,512
518,497,485,517
514,502,477,520
510,513,469,522
505,518,470,518
509,511,482,516
509,510,496,517
514,507,511,514
525,493,533,512
523,496,544,507
519,491,554,506
510,488,549,508
503,487,542,504
503,495,537,505
495,519,528,506
501,533,513,509
514,501,506,513
517,496,499,515
517,497,479,517
516,505,475,519
505,525,471,520
505,520,477,519
507,508,486,519
517,485,503,516
526,468,521,513
528,479,541,508
518,481,548,505
515,497,553,512
499,515,547,506
493,531,541,506
498,529,534,507
507,520,526,505
507,518,510,509
523,504,503,511
521,512,490,515
520,512,482,517
514,515,473,521
503,544,472,520
502,523,478,519
505,500,487,517
503,507,535,506
494,519,528,502
492,526,520,503
504,509,516,507
509,502,508,518
520,497,504,513
520,500,498,517
514,506,486,519
507,514,486,524
495,529,484,519
503,515,491,518
508,496,497,519
518,489,512,513
523,463,532,512
525,475,537,507
516,505,542,511
512,514,542,510
497,533,534,510
494,532,530,510
498,522,521,507
496,507,517,508
506,494,509,510
513,491,500,508
513,495,490,512
514,491,481,516
508,520,478,518
508,542,480,517
508,534,491,516
509,513,500,510
512,501,516,515
530,444,539,513
526,483,543,510
525,508,542,505
509,527,536,506
493,558,532,504
495,565,523,507
496,545,521,509
507,496,511,512
515,480,506,517
519,492,499,516
519,475,487,519
516,489,483,521
502,513,480,520
506,512,484,519
505,525,492,521
512,520,503,521
523,480,529,520
525,473,543,520
518,479,548,519
519,486,542,512
502,515,533,504
495,523,527,497
497,522,516,499
500,516,511,500
507,505,506,505
518,495,502,506
515,500,492,512
513,505,483,514
506,520,477,515
502,533,482,517
512,523,487,515
513,517,494,514
518,489,508,513
527,471,528,509
521,468,536,506
521,468,539,503
517,495,536,507
501,520,532,504
501,517,525,506
503,509,524,507
499,525,510,509
512,518,500,510
516,508,501,519
514,505,496,525
514,498,489,523
505,517,481,523
503,520,481,519
504,517,491,516
516,502,502,516
521,489,516,518
527,485,534,511
524,484,539,509
516,487,544,504
505,508,539,507
498,510,532,504
499,515,526,503
501,532,523,511
502,538,513,513
511,522,505,509
514,520,496,522
514,471,486,518
511,483,479,518
507,517,482,517
510,507,486,520
510,507,498,519
515,499,504,514
523,484,528,512
524,479,542,510
521,480,533,510
520,487,541,508
502,514,540,504
498,517,530,508
499,511,522,507
496,513,517,504
504,506,510,511
518,494,503,512
519,495,498,516
519,492,488,521
510,508,481,521
500,520,484,522
504,512,489,520
510,509,500,518
517,494,510,517
529,471,527,514
526,475,539,512
519,484,547,510
509,495,546,512
493,518,537,512
500,504,534,509
503,508,522,505
504,517,512,507
510,499,504,506
522,477,498,511
518,487,490,513
517,497,482,518
506,537,479,520
501,536,484,520
504,527,496,519
516,510,504,516
524,484,516,512
529,469,533,507
529,461,542,502
521,486,543,507
508,515,536,509
505,533,534,509
505,522,528,507
504,504,521,505
506,505,509,504
516,481,503,511
520,477,497,511
516,532,487,518
511,565,484,518
506,568,484,518
510,550,489,520
509,515,494,518
516,493,504,513
522,497,519,511
518,509,538,509
520,480,539,503
522,450,541,511
502,489,534,514
496,492,532,512
501,502,528,509
498,522,517,506
504,511,508,510
514,484,503,508
518,482,494,511
515,501,484,515
507,525,480,520
501,532,482,513
513,519,492,517
515,499,501,514
524,487,515,514
528,472,533,513
519,481,540,511
521,500,542,507
513,511,537,502
493,534,526,503
502,515,526,503
503,513,521,506
508,505,513,509
512,499,503,510
514,494,499,513
515,496,492,516
515,502,484,516
508,523,479,517
507,522,483,517
505,520,489,512
515,500,504,514
518,487,519,518
527,471,534,510
522,479,541,510
518,481,536,507
504,507,531,512
495,531,528,506
499,520,524,508
501,523,520,509
504,519,511,513
513,498,508,513
516,500,501,518
514,506,495,518
511,507,487,520
508,516,487,517
508,511,488,516
505,505,490,512
511,491,503,514
522,467,522,506
527,471,530,506
523,490,539,505
519,510,539,503
499,541,532,505
501,510,523,502
499,526,520,505
506,509,514,505
511,500,505,510
521,495,500,509
521,499,492,516
519,501,486,519
505,530,481,524
500,534,487,521
504,523,492,520
508,511,497,519
511,498,511,516
521,484,535,514
520,492,538,510
517,496,546,511
506,522,540,513
497,525,535,514
507,495,536,511
502,496,523,509
505,500,508,506
515,503,498,507
516,508,496,511
513,509,489,515
514,504,481,515
500,505,481,520
503,527,485,520
509,521,492,516
516,509,500,517
522,492,517,518
528,475,532,508
520,470,533,503
522,491,542,502
514,500,535,503
501,510,525,503
494,532,520,504
499,522,516,505
503,522,507,506
517,494,501,512
518,492,496,514
516,500,485,517
508,511,485,520
500,518,484,524
505,490,487,521
504,502,496,521
515,492,507,518
529,472,523,514
525,504,535,511
522,505,545,507
516,503,543,506
496,526,536,507
499,521,529,504
496,524,522,502
498,519,514,507
506,503,508,509
516,488,500,513
519,492,494,516
517,494,485,518
503,533,486,521
496,531,478,520
509,513,488,517
510,511,498,516
522,512,516,514
532,495,531,510
528,455,541,508
525,474,542,506
515,500,538,504
500,521,531,504
499,513,527,503
496,520,521,504
501,516,511,506
513,494,506,509
518,490,498,515
518,500,492,518
518,500,484,520
509,508,479,520
511,498,488,518
511,496,498,519
511,527,505,516
514,521,514,512
522,512,534,511
517,515,542,509
520,455,543,508
513,496,536,509
499,519,531,507
506,511,528,505
506,514,522,505
508,505,508,510
522,489,512,510
520,494,498,513
517,505,483,518
507,525,482,521
497,539,479,520
503,527,484,512
499,529,495,511
515,497,508,519
526,479,527,516
529,477,537,510
521,486,544,509
515,494,542,510
499,530,539,510
495,528,532,506
496,518,529,509
500,510,515,511
510,493,510,514
518,475,498,519
516,485,491,516
515,491,483,516
507,517,479,515
499,527,483,519
506,533,489,518
508,522,501,517
518,505,516,515
530,483,534,509
525,485,540,507
515,486,540,503
510,495,538,505
498,510,529,502
504,508,525,504
500,513,520,507
501,508,513,511
512,508,509,512
514,497,501,518
517,497,494,517
513,501,489,517
503,522,484,516
507,527,483,516
514,519,490,516
517,514,497,514
521,505,512,514
527,475,527,512
519,487,544,512
517,512,547,509
505,535,545,515
498,543,540,511
506,485,535,506
505,489,520,502
501,501,505,506
521,477,497,504
520,481,489,507
518,487,486,513
509,508,478,518
504,525,475,517
503,514,487,516
504,502,495,515
514,477,508,512
526,445,526,514
528,460,540,508
524,493,543,507
517,513,541,507
499,537,532,504
493,529,528,507
491,533,522,506
492,533,510,506
499,516,502,510
516,500,499,510
520,504,493,516
520,513,485,516
510,512,479,519
506,517,483,519
508,522,493,521
510,521,498,516
516,521,509,514
525,500,526,513
523,503,541,508
516,484,544,508
512,448,537,506
499,502,532,502
497,496,529,503
497,517,523,505
503,528,511,507
514,515,508,513
521,509,501,517
517,511,493,528
517,496,489,526
506,505,485,526
506,512,488,530
502,521,502,520
509,511,500,515
520,495,515,509
529,481,533,505
529,481,540,506
522,503,541,506
504,540,535,502
488,568,528,507
489,562,521,505
500,479,513,510
510,453,508,507
517,473,500,508
516,484,495,513
514,494,490,517
511,507,479,518
495,533,479,518
509,522,484,520
516,515,494,520
522,507,507,515
530,481,526,513
530,477,538,511
523,483,546,514
515,495,541,508
498,523,530,508
498,516,526,505
503,512,518,505
504,509,525,512
510,499,510,517
518,494,495,511
518,498,491,516
515,504,488,524
513,515,482,521
504,524,483,521
509,511,489,523
515,505,493,520
520,498,510,514
526,476,527,516
523,481,541,513
516,486,550,512
509,503,547,509
495,522,532,503
497,516,524,500
497,518,516,503
501,504,507,506
515,486,509,512
517,501,505,515
514,503,495,518
514,504,485,517
504,521,479,515
504,527,483,514
500,528,487,511
511,507,501,516
527,473,522,513
530,459,534,506
519,473,536,508
515,482,541,506
501,515,536,509
493,536,527,507
498,513,524,505
498,515,515,507
505,509,505,510
520,481,500,514
524,495,495,516
522,498,486,518
511,515,481,521
500,540,479,517
503,536,488,519
511,512,498,517
521,492,511,514
529,475,523,512
525,480,536,508
519,487,543,505
510,488,537,506
495,524,529,513
488,531,526,507
485,559,516,507
493,552,512,506
510,514,505,507
521,482,502,515
526,469,495,517
527,482,487,516
510,508,481,522
512,518,482,517
514,505,487,515
518,503,497,518
518,494,509,517
531,449,532,516
526,464,543,515
522,465,543,513
514,489,546,511
499,508,535,506
500,511,528,504
498,534,517,498
503,525,502,506
512,504,499,507
518,494,493,512
514,482,484,514
515,479,484,519
500,526,482,520
510,505,494,519
510,508,497,516
513,525,508,516
525,507,523,515
526,492,532,510
520,493,542,507
516,495,542,505
505,522,537,505
495,540,526,504
492,539,522,503
501,539,517,505
510,514,508,508
520,493,502,508
517,501,494,512
514,510,484,516
509,518,482,519
506,497,481,519
506,503,485,518
512,510,494,516
513,499,507,515
527,477,528,511
521,479,537,511
521,485,540,508
516,493,543,508
507,513,537,509
497,525,529,505
498,520,520,507
499,514,514,507
512,492,505,514
519,481,503,514
521,486,492,518
518,506,491,522
505,534,482,519
499,539,485,518
500,536,490,518
512,506,500,516
523,474,514,516
527,470,532,508
522,490,539,504
519,498,543,502
509,510,536,507
498,531,531,510
502,517,530,510
501,522,524,511
504,514,514,509
514,493,505,513
518,496,499,518
518,501,491,521
515,508,479,515
504,519,477,517
502,514,484,515
506,503,494,521
510,499,506,517
523,467,522,511
526,451,534,514
521,475,543,512
515,489,544,513
505,522,535,510
496,515,523,503
496,523,521,513
501,526,525,513
513,509,514,516
527,492,505,520
521,496,497,519
520,500,490,518
516,519,481,515
508,525,480,514
510,508,485,511
507,514,496,511
510,506,507,513
524,482,528,509
526,483,534,508
521,500,539,503
510,501,537,503
498,517,530,501
499,516,526,505
502,526,517,504
507,521,511,508
513,528,507,512
523,522,498,511
517,548,493,514
513,561,485,515
508,532,478,518
510,496,485,517
517,456,490,517
516,480,501,516
521,479,514,512
524,465,528,509
523,470,536,509
519,472,542,505
508,489,535,507
496,516,531,509
498,528,528,509
503,530,521,508
505,511,508,518
517,484,506,512
516,468,499,515
514,457,489,520
509,464,486,523
497,514,480,519
492,552,486,517
502,542,491,510
509,527,504,515
524,506,521,511
537,500,533,509
531,506,541,507
521,504,541,505
510,526,534,503
496,536,526,500
499,518,524,505
498,520,515,507
506,514,507,507
521,482,502,511
522,486,494,516
519,493,487,516
511,512,484,521
503,528,482,518
506,523,493,516
504,527,495,515
513,508,507,512
526,472,529,510
525,471,540,510
520,470,540,508
510,483,548,509
496,508,534,509
499,524,528,503
494,554,521,503
502,532,510,504
513,509,504,509
521,481,498,510
516,489,490,519
518,503,486,520
508,526,479,522
501,533,482,523
503,526,492,520
509,516,503,519
523,487,518,513
530,475,530,510
527,479,541,507
521,482,541,508
510,505,537,510
497,518,539,510
501,521,533,506
496,528,520,508
509,513,510,508
519,487,500,514
522,487,491,513
521,486,487,516
518,496,486,516
508,512,478,517
506,513,485,517
501,519,493,515
511,515,506,508
522,488,523,505
524,481,539,512
522,481,542,508
520,496,543,506
505,524,534,502
500,528,532,506
501,535,524,507
502,520,518,507
509,480,511,510
518,479,500,512
516,514,496,516
522,495,487,519
510,504,478,518
503,515,483,520
510,497,491,515
508,490,497,516
518,488,510,515
529,466,530,510
525,494,539,507
515,511,543,508
513,508,542,508
501,524,536,508
502,516,530,504
500,513,525,506
500,515,515,509
510,518,508,512
516,512,504,514
521,505,501,519
519,508,488,519
502,532,477,519
500,535,484,519
507,513,494,517
516,499,502,517
525,490,518,512
530,474,530,507
528,478,540,505
519,482,543,504
506,512,538,506
492,549,531,507
488,568,524,505
486,569,519,507
498,500,513,512
511,448,505,513
512,458,498,514
517,488,487,518
514,498,482,519
514,528,481,520
515,528,488,518
508,537,495,519
510,524,505,518
521,502,524,513
526,460,540,512
523,457,547,512
514,489,551,509
504,516,542,506
496,523,528,502
498,515,522,501
501,509,512,502
512,496,502,505
520,482,502,511
520,489,493,516
519,488,486,519
514,512,484,521
511,526,485,522
514,510,490,517
508,512,498,520
515,504,510,517
524,487,535,512
521,488,548,512
520,493,552,510
510,506,551,510
499,513,545,511
498,507,542,508
497,513,528,505
498,509,522,508
515,494,512,507
516,499,506,510
514,503,498,513
515,512,493,519
510,529,491,521
505,524,498,517
502,527,501,516
511,495,512,515
519,484,524,514
524,470,538,510
524,474,547,506
520,482,547,505
510,516,546,507
498,526,538,506
497,528,532,505
497,522,522,505
497,521,515,512
516,494,514,512
518,495,494,511
520,497,496,521
514,515,493,524
506,525,486,523
506,522,491,519
502,523,497,514
513,513,510,512
524,492,527,515
526,489,542,508
520,498,547,504
516,493,536,497
505,500,536,509
498,515,533,507
497,516,527,511
497,509,518,513
510,495,511,511
520,469,506,514
518,477,499,518
519,501,499,523
508,531,489,525
501,536,482,521
503,516,488,518
512,493,498,513
520,470,513,513
525,453,534,510
521,486,549,512
516,494,552,511
506,517,545,504
498,531,535,507
500,522,522,499
501,504,519,498
510,503,513,502
517,473,503,508
517,496,500,514
520,512,489,513
517,508,480,518
511,538,476,519
503,532,483,526
509,524,492,521
515,509,505,521
523,494,527,520
527,485,543,516
525,491,544,504
520,492,544,505
508,518,535,503
499,523,527,503
493,525,525,503
496,538,515,502
502,545,509,510
515,513,505,510
516,500,494,515
518,457,490,519
514,446,486,522
511,486,492,524
511,515,494,522
517,511,502,518
516,496,511,512
525,479,522,507
524,479,534,508
521,481,541,509
516,499,542,505
503,512,535,509
500,521,532,507
503,515,525,507
504,508,519,508
504,509,513,513
516,496,506,512
515,509,495,516
517,509,492,518
513,509,483,519
508,515,489,520
509,516,493,522
506,517,498,521
512,505,513,516
528,468,530,509
523,468,539,506
519,472,541,501
510,488,537,503
502,509,532,502
497,528,524,502
494,543,519,505
502,525,510,506
511,500,504,511
518,495,499,514
514,493,491,518
510,506,487,521
502,523,480,521
503,539,486,521
503,554,492,520
516,490,501,518
525,477,521,511
529,468,534,510
523,475,540,505
519,484,551,503
510,501,540,506
500,514,529,505
494,528,526,505
494,518,524,508
497,513,511,510
518,489,500,508
517,505,494,514
517,506,486,516
511,516,480,520
504,533,483,522
509,520,488,517
499,521,489,510
508,517,505,517
520,504,528,516
524,498,536,509
522,481,540,506
522,484,544,514
510,489,538,514
504,497,534,513
502,511,526,510
502,506,520,513
506,489,510,512
513,487,509,514
512,486,497,511
513,483,489,518
508,530,477,519
500,532,479,520
505,527,488,521
513,520,500,519
519,523,514,518
528,483,534,518
528,448,544,518
521,478,548,515
510,508,545,513
503,530,536,508
499,531,527,505
495,530,520,503
503,522,501,500
515,500,506,507
517,492,500,509
515,492,490,514
517,498,486,517
508,506,483,519
502,511,486,516
503,529,492,514
506,526,502,512
522,510,517,509
525,488,534,509
522,473,542,510
522,458,541,510
505,501,537,512
492,541,531,508
497,527,523,508
502,505,517,507
508,486,508,506
526,474,506,513
519,492,494,510
519,498,488,515
515,532,483,517
510,551,487,516
510,529,491,522
510,510,494,517
512,509,507,514
528,472,526,511
530,468,537,510
528,472,544,506
522,476,537,507
510,496,533,503
501,523,527,508
496,534,523,506
501,528,513,508
504,508,507,512
516,495,502,512
511,501,499,519
508,511,492,526
499,537,486,525
503,547,490,526
510,535,502,521
510,505,503,521
518,496,519,514
534,471,526,509
529,487,534,508
515,519,536,507
511,480,533,505
506,491,526,508
496,536,523,511
500,530,526,513
503,516,525,519
514,492,518,522
519,482,506,521
518,491,496,520
517,512,487,521
510,521,490,516
507,516,489,513
507,511,486,510
514,502,494,507
521,489,514,506
530,481,526,502
526,492,533,496
521,488,543,500
508,515,531,500
504,511,526,498
496,516,522,499
495,529,513,501
502,522,505,504
516,496,499,507
516,505,493,516
513,510,486,518
507,509,479,519
499,525,476,524
501,515,487,525
505,491,493,521
521,494,511,524
525,490,536,522
522,480,553,523
513,483,558,515
514,467,548,504
507,496,532,502
501,527,520,495
498,544,515,501
510,515,510,510
513,498,501,510
520,491,500,510
518,493,493,508
518,499,487,523
507,513,481,519
506,515,487,520
512,502,493,517
520,488,492,507
518,480,512,510
532,459,531,511
525,487,538,508
517,513,544,507
506,519,538,508
499,524,527,504
493,518,529,504
490,506,520,507
495,507,513,512
513,497,507,512
522,511,497,516
518,537,488,520
514,516,486,522
503,519,480,521
508,510,487,522
506,503,505,522
515,486,510,517
529,457,524,514
532,490,533,509
524,497,546,508
517,504,549,509
504,525,538,508
499,529,534,506
497,537,526,503
500,524,517,502
505,521,509,509
517,503,505,511
515,510,497,521
517,506,493,524
515,510,485,525
506,506,482,525
504,496,491,520
505,506,495,511
516,512,504,503
528,482,520,496
524,475,539,504
519,491,538,501
504,503,532,502
493,511,528,502
501,490,524,500
504,497,519,504
503,503,510,504
511,512,510,511
518,521,502,515
511,534,499,519
510,540,490,519
505,544,486,522
515,491,488,523
514,496,492,521
518,505,500,519
526,504,510,516
535,468,529,514
531,454,535,515
510,493,536,512
496,532,534,510
480,568,529,509
478,565,525,518
480,560,533,522
503,502,530,525
521,479,519,523
537,493,506,517
532,496,493,512
522,497,482,511
513,510,473,505
511,516,476,504
512,509,479,502
517,489,490,502
528,470,510,504
531,460,527,500
525,466,534,498
519,480,528,498
503,519,529,503
498,538,524,504
494,535,520,505
496,523,521,510
504,506,508,512
515,487,502,514
518,501,499,515
518,499,490,520
514,524,483,522
506,541,482,520
501,555,491,523
498,563,497,523
516,470,510,516
530,441,524,507
529,447,532,505
521,469,536,503
507,483,544,506
506,511,536,507
505,510,533,506
505,532,520,503
510,531,507,499
519,505,500,503
522,501,494,509
520,494,487,514
515,500,480,514
508,525,479,517
509,524,483,521
502,552,495,523
506,529,505,522
515,499,521,519
530,452,531,513
524,463,540,512
515,478,549,509
506,499,538,506
491,505,519,507
499,532,516,510
497,535,513,507
504,511,507,509
516,473,506,513
527,439,503,511
520,473,492,513
510,501,480,520
502,513,480,520
504,513,491,523
509,515,492,518
515,520,496,508
529,506,514,507
538,485,525,504
528,477,528,506
520,491,525,505
494,552,532,509
489,553,528,506
491,546,532,510
496,526,525,511
495,527,524,514
511,496,513,514
516,472,492,512
518,501,481,515
515,553,481,519
512,533,482,525
509,521,486,517
515,494,495,516
521,493,508,515
524,477,525,506
524,488,533,504
526,483,540,504
514,511,541,504
498,521,530,506
499,520,525,503
502,533,520,503
504,561,508,502
505,549,505,511
509,528,497,518
519,465,488,517
524,431,480,515
508,482,477,516
502,550,482,513
497,553,489,514
506,543,496,513
509,541,515,513
524,492,526,512
524,458,542,515
522,464,544,517
510,470,533,516
513,498,528,515
508,509,521,513
503,501,515,512
509,471,514,509
523,446,501,502
525,457,488,501
518,493,484,508
512,495,484,514
505,509,479,515
511,534,485,511
512,522,492,510
516,519,505,511
521,498,516,508
522,489,530,514
511,494,533,511
505,503,534,508
501,538,525,509
502,536,526,510
495,526,531,514
496,513,524,515
505,512,508,514
520,488,497,513
527,483,484,514
521,495,485,517
509,533,480,517
502,537,489,521
494,525,495,524
493,515,495,523
507,491,499,516
531,483,509,506
522,511,520,500
513,521,539,503
508,519,548,511
503,448,532,518
505,484,524,510
498,518,509,502
505,505,501,497
525,493,500,501
524,467,497,511
525,466,492,513
517,494,485,516
506,539,469,513
508,526,474,508
503,556,480,510
511,509,491,508
515,476,506,508
515,477,522,507
513,485,527,505
516,522,529,511
504,538,523,516
512,511,526,515
514,498,525,514
513,488,523,517
520,520,522,516
525,501,513,516
522,484,497,506
519,487,472,507
513,498,467,511
499,539,464,520
498,560,484,523
499,533,500,526
507,534,522,528
525,500,545,522
525,454,543,509
520,453,523,494
520,471,509,480
504,510,504,486
496,530,507,492
488,510,511,498
488,531,506,504
504,528,507,508
516,512,500,512
525,468,489,511
528,448,484,512
512,480,481,514
508,505,483,517
501,514,486,518
505,538,493,518
514,516,504,511
526,472,525,508
525,518,528,509
514,522,534,511
498,561,532,512
494,554,522,507
497,503,516,506
499,502,512,507
495,472,504,514
497,498,499,514
508,491,502,516
516,458,499,517
533,478,486,520
528,530,478,520
523,497,480,520
510,506,484,526
524,486,507,529
524,501,527,527
524,516,548,525
522,555,555,521
513,530,545,511
505,440,529,500
499,455,502,489
491,556,505,492
482,598,502,492
501,562,500,498
517,537,496,506
533,425,485,510
532,498,477,518
514,507,480,521
499,534,482,526
497,518,499,524
507,524,511,516
520,500,499,506
525,479,509,505
526,506,520,503
519,491,525,496
517,505,524,491
506,525,513,486
503,453,521,492
491,496,506,489
500,497,491,492
503,501,486,513
521,504,489,523
526,493,494,532
530,469,510,546
523,456,523,551
516,485,526,540
494,597,496,514
482,653,476,502
499,612,480,503
522,418,500,500
524,385,510,501
509,424,518,503
493,477,527,512
495,460,523,518
509,475,511,514
515,558,512,514
507,579,524,527
521,514,530,532
519,538,493,517
517,505,462,495
522,510,468,495
492,543,473,499
505,488,465,493
496,513,474,506
526,476,496,501
522,463,498,497
527,408,507,499
525,420,538,518
519,400,534,526
507,465,520,517
503,531,522,520
503,620,529,519
499,668,539,529
502,660,528,522
529,496,506,516
521,522,479,503
529,470,457,500
527,476,444,506
495,551,449,505
507,513,459,510
509,496,481,515
512,492,513,519
512,516,521,505
503,514,512,490
491,465,505,488
492,505,508,489
501,527,502,491
540,489,502,501
521,459,508,508
515,468,505,502
512,514,496,513
501,525,497,517
493,538,494,527
495,535,480,524
492,528,466,522
504,463,474,526
511,500,488,524
536,487,493,521
525,551,499,516
542,465,512,506
534,474,515,501
535,492,524,503
516,495,527,502
504,498,510,503
511,471,510,504
497,459,516,510
485,476,507,518
479,449,501,525
477,458,497,524
476,537,491,512
479,557,490,523
486,489,487,531
496,598,491,532
495,648,491,530
526,657,496,520
546,458,527,511
561,363,512,503
562,465,496,501
537,590,505,498
516,615,504,491
509,542,508,493
518,543,521,498
510,554,506,499
486,683,485,498
503,578,476,499
512,434,473,507
518,440,474,517
519,537,473,520
534,442,475,522
517,410,482,521
486,421,488,522
491,491,513,526
494,463,529,527
499,427,539,530
471,456,553,527
471,458,540,519
457,484,523,504
464,460,498,488
527,424,481,475
597,636,470,473
548,621,465,476
532,570,475,479
545,657,465,486
549,608,466,501
539,526,492,534
535,404,493,555
533,480,495,547
519,496,499,541
522,479,512,532
539,428,525,523
525,440,538,517
515,446,536,505
515,453,526,488
503,500,507,474
493,526,501,492
481,541,510,490
476,485,498,492
457,599,472,493
484,597,463,492
503,591,469,494
510,561,462,503
552,493,465,509
582,359,463,510
541,439,469,502
517,469,478,504
525,480,498,512
525,508,516,519
518,541,546,532
541,524,538,531
506,451,518,529
498,474,528,531
508,490,529,528
516,526,531,532
506,486,509,521
482,475,488,516
485,385,475,506
483,400,467,498
508,433,462,497
497,602,461,501
487,655,470,514
496,703,481,522
502,550,493,521
558,388,509,511
539,494,530,517
532,560,543,526
508,615,539,513
492,583,522,497
486,482,510,498
524,378,518,508
522,436,508,515
532,478,485,510
527,429,478,503
508,431,476,508
539,545,474,513
499,610,470,516
466,582,477,519
460,550,495,525
520,422,499,523
520,574,497,510
508,490,516,512
523,540,526,508
556,394,532,519
502,506,537,529
490,559,528,533
503,568,533,533
486,552,533,531
506,640,540,531
510,547,521,517
530,442,492,501
531,539,473,500
546,464,458,500
557,418,452,490
523,512,460,484
474,528,467,486
473,576,487,496
501,506,510,505
542,458,521,514
547,413,536,521
558,275,538,517
496,490,520,512
425,577,520,506
436,607,524,506
520,520,516,503
528,474,498,506
550,517,500,510
536,535,492,516
528,545,484,516
515,520,481,516
505,432,476,511
525,375,474,508
485,526,480,499
491,543,490,490
493,496,512,496
529,426,528,507
570,499,542,520
528,493,537,522
490,502,525,512
475,541,534,516
506,428,531,513
522,590,522,511
529,556,516,508
525,526,498,505
520,582,479,510
524,550,477,521
495,560,482,534
483,566,493,537
493,520,497,531
544,272,501,521
553,361,506,508
546,461,505,497
529,444,516,491
523,473,530,496
526,459,521,501
516,531,506,496
509,579,510,502
477,581,521,507
477,536,513,512
484,512,511,509
491,479,500,514
545,530,496,513
532,565,494,515
502,572,479,505
491,446,482,506
508,399,483,507
507,507,497,514
516,557,513,514
543,544,521,510
527,567,530,501
492,452,527,497
486,488,523,490
483,439,520,498
469,434,519,510
499,586,514,517
509,560,514,521
551,462,501,512
553,443,499,513
542,450,501,513
532,514,487,509
515,594,474,507
505,604,478,504
510,522,486,508
538,433,507,523
540,455,533,527
523,479,532,519
516,557,531,509
532,435,527,500
501,562,520,498
463,674,520,499
456,618,522,508
495,434,515,506
548,402,508,511
536,464,511,521
528,479,510,532
528,473,494,528
507,523,481,520
507,477,485,526
491,582,486,516
465,482,487,510
483,488,501,507
532,344,529,513
530,531,541,511
545,574,543,503
517,582,538,501
473,645,532,507
471,597,532,502
477,483,520,503
485,505,515,511
521,322,516,517
536,311,514,521
529,497,500,521
515,497,486,514
561,530,477,517
539,513,485,512
523,540,495,511
520,550,497,509
526,543,502,489
531,513,518,490
525,455,531,496
523,458,545,510
501,520,535,503
490,588,519,498
470,630,511,493
475,472,509,498
494,480,504,504
527,537,501,505
534,578,503,513
524,470,488,517
500,452,479,523
501,508,482,521
515,457,497,526
508,477,510,526
492,541,512,514
482,513,521,506
505,490,526,508
528,442,534,506
549,415,529,504
535,523,526,496
516,524,522,498
496,517,518,498
495,533,512,503
514,555,508,507
520,461,504,520
538,448,497,523
531,496,497,539
511,490,486,531
510,471,481,526
518,449,492,530
490,487,503,522
513,498,519,515
531,518,522,504
549,447,513,482
522,485,515,477
516,502,519,485
486,601,528,497
479,583,525,499
487,564,522,505
485,496,516,509
531,407,513,514
529,473,506,511
528,481,501,512
529,567,490,508
523,562,481,505
509,539,482,501
485,512,472,494
481,509,487,496
478,507,511,504
501,595,528,511
515,625,538,506
535,579,537,508
532,510,535,510
517,369,532,505
504,493,527,500
497,495,513,494
535,407,503,490
503,422,503,498
493,391,483,496
495,511,475,501
502,564,470,508
542,642,464,515
508,613,470,513
502,518,481,515
535,438,497,520
548,335,519,514
536,423,532,511
494,532,538,509
487,527,540,507
472,605,532,506
456,565,532,512
489,541,530,515
528,616,522,521
545,574,508,509
541,497,491,510
537,495,487,522
535,503,475,521
521,453,465,512
496,429,466,502
487,451,473,505
508,425,483,507
528,423,503,506
561,516,522,510
540,534,534,514
517,523,538,516
493,567,534,516
472,590,531,514
515,508,530,512
518,526,521,513
513,487,510,517
486,560,499,521
495,513,505,532
506,444,493,531
513,503,487,526
497,501,480,523
508,480,480,523
534,535,491,525
509,594,495,518
543,367,513,514
530,456,527,510
505,480,530,505
526,465,521,498
531,481,514,495
515,500,521,498
493,537,514,498
494,561,507,504
509,515,499,511
504,458,504,514
487,445,491,519
477,450,481,519
463,524,475,527
513,529,462,518
543,597,460,510
529,521,475,506
547,429,487,505
557,502,498,497
525,532,509,492
506,543,517,490
490,586,519,492
476,591,518,500
486,601,511,498
482,525,514,497
508,427,508,503
508,424,499,503
505,444,493,504
499,526,482,518
492,480,481,527
499,454,488,534
541,463,485,530
541,546,484,530
510,588,480,520
535,408,490,519
551,385,506,516
527,427,517,508
518,409,526,502
512,579,520,498
485,662,512,498
511,563,510,498
510,595,512,508
513,487,507,511
530,468,495,515
495,372,491,518
504,442,487,515
499,535,481,522
475,572,478,529
517,547,474,524
537,531,473,523
526,514,485,513
536,534,504,510
542,487,515,501
533,505,518,492
516,538,521,493
500,472,516,485
489,501,514,493
488,506,508,500
490,505,507,512
515,479,499,513
516,513,492,514
503,587,482,519
495,518,480,524
466,516,479,525
456,428,470,521
472,437,482,521
527,592,486,524
545,542,502,523
529,500,516,520
527,508,532,512
532,536,530,507
538,517,528,501
511,427,517,500
488,458,512,503
462,530,517,508
464,603,502,509
498,706,497,514
548,524,494,516
540,376,482,517
524,348,474,523
516,458,470,527
530,507,474,524
536,544,480,526
538,513,493,520
536,475,505,514
534,477,524,512
530,505,538,510
524,511,534,504
508,530,520,503
487,534,513,507
488,507,510,507
499,519,507,502
504,485,514,514
542,393,499,512
530,470,477,510
522,511,467,510
519,510,469,522
500,511,480,533
505,446,486,540
493,528,496,532
507,569,510,517
529,539,523,528
500,492,531,525
456,503,526,517
445,527,518,493
438,568,507,489
491,605,501,487
534,710,500,493
528,502,504,500
540,433,495,502
555,428,488,507
549,436,482,508
524,442,471,507
505,450,457,505
501,481,460,506
511,544,466,513
507,485,478,514
501,495,498,517
502,490,522,519
504,490,532,516
534,451,533,510
529,478,529,508
529,541,518,504
513,542,517,503
501,541,513,500
499,548,502,499
504,502,497,498
527,412,484,504
502,462,478,514
517,500,475,524
475,551,469,527
505,556,478,524
495,539,480,519
480,550,491,516
495,469,505,513
498,408,527,515
522,531,543,516
503,545,537,514
494,525,528,510
506,578,523,508
519,504,521,508
542,482,517,509
525,585,504,511
525,646,499,509
513,641,495,513
521,398,492,520
534,391,479,517
505,506,469,514
516,545,471,516
515,519,477,513
545,408,492,516
553,427,513,519
544,508,529,518
503,549,536,512
486,497,532,502
500,512,529,499
521,514,528,506
510,481,526,508
498,490,522,515
500,482,519,523
490,500,510,528
470,476,503,536
458,481,485,537
475,491,470,531
502,558,467,524
551,528,467,514
541,512,474,510
558,501,486,504
528,509,503,499
510,524,516,503
488,576,528,507
503,521,526,507
511,591,524,505
512,498,530,514
518,419,531,516
509,526,510,507
522,501,489,501
546,422,485,509
527,457,488,523
509,439,476,522
477,546,458,519
479,557,457,511
515,476,470,514
546,464,481,509
540,514,497,504
526,488,514,504
511,526,535,509
499,592,540,512
471,581,532,512
464,649,534,510
477,550,540,508
486,526,532,513
503,502,521,513
529,378,516,516
534,427,479,510
532,497,472,511
521,484,471,517
514,524,460,514
524,493,462,509
517,492,467,500
519,498,480,497
537,454,500,497
527,443,512,496
530,436,522,498
510,470,524,497
472,551,526,513
494,554,526,516
500,480,521,513
511,446,512,511
523,542,505,515
511,549,509,529
514,557,497,530
528,515,491,538
523,522,486,541
509,466,474,532
491,479,472,518
484,502,472,501
489,526,491,505
509,610,511,508
506,617,524,509
517,502,532,512
515,453,529,507
503,504,525,502
498,560,517,494
498,518,504,492
492,512,494,495
535,397,494,507
549,486,488,520
540,482,478,522
534,529,475,516
515,552,470,520
508,515,471,516
514,454,475,517
516,447,489,516
523,437,508,519
513,504,524,520
520,520,531,515
525,507,532,513
516,518,527,508
499,530,522,501
499,505,519,503
499,471,514,506
489,516,504,504
508,514,504,520
497,521,494,524
489,529,483,524
505,583,472,523
538,485,472,522
543,466,486,527
519,491,497,527
519,512,506,515
526,485,511,508
518,487,524,504
510,472,529,507
492,505,530,509
476,566,523,512
504,544,522,513
521,460,519,514
494,477,520,520
496,509,506,523
516,537,504,526
532,531,495,521
536,514,487,525
520,532,477,527
506,481,473,518
511,459,473,514
520,530,472,510
508,576,488,508
520,435,515,510
521,392,532,513
505,427,541,510
503,423,540,510
523,451,532,507
520,548,521,503
524,550,513,493
516,540,493,493
515,514,487,504
513,504,487,514
513,459,482,520
481,504,478,521
477,552,474,519
483,559,479,518
501,543,487,530
534,585,495,531
521,548,515,524
527,532,527,515
542,489,540,510
527,456,546,510
498,665,544,516
474,791,542,519
484,578,538,513
507,378,519,506
534,395,498,502
518,472,482,505
513,492,476,506
507,510,473,508
515,498,464,505
532,516,457,508
534,465,464,506
531,474,475,501
517,504,489,498
520,481,514,508
521,476,534,516
515,480,542,519
513,473,553,524
480,525,528,515
479,474,518,505
508,514,514,503
512,532,512,508
503,541,517,520
507,488,504,526
508,466,493,523
506,492,484,517
505,541,478,523
501,580,469,522
497,598,470,518
490,535,475,511
497,440,487,499
523,425,506,496
540,441,517,494
536,493,527,495
526,517,538,503
501,518,528,505
529,526,530,501
530,529,516,501
514,469,509,507
507,492,506,516
508,475,503,517
525,468,491,517
524,514,484,525
501,551,486,537
502,517,485,530
520,501,481,524
510,490,491,520
530,479,513,519
540,443,526,515
538,486,532,510
533,525,526,503
492,524,520,499
479,529,519,501
489,531,519,501
485,564,511,500
491,555,507,508
504,517,494,520
504,472,490,521
515,508,480,526
514,478,480,528
511,473,472,518
524,487,480,516
533,526,481,517
535,441,488,517
535,486,515,516
531,445,531,518
517,440,538,519
499,473,535,517
478,515,528,507
496,508,521,497
528,541,512,494
518,551,509,507
508,585,508,518
522,519,502,523
525,458,488,522
528,349,480,520
520,442,470,520
505,563,470,518
517,599,478,515
502,635,484,510
500,452,498,510
523,438,520,505
513,534,529,503
509,592,534,506
514,641,531,507
487,433,531,504
459,503,535,509
451,520,530,519
481,500,519,516
523,539,517,518
529,477,505,517
566,495,483,517
546,523,471,515
523,535,466,512
515,534,472,517
525,489,477,516
530,488,487,516
525,506,502,509
529,494,516,501
521,481,530,504
517,457,531,503
501,484,530,503
507,502,527,503
499,493,522,505
494,486,516,509
503,490,512,509
512,548,507,521
508,508,497,529
513,523,486,534
502,569,481,533
495,556,489,528
503,526,497,535
521,473,491,527
517,508,499,515
523,467,518,517
524,474,538,518
525,488,544,518
518,499,535,510
513,512,528,503
509,499,526,508
508,485,521,508
506,484,507,508
504,498,495,509
509,541,491,513
503,575,482,514
509,500,477,520
499,557,476,522
486,484,479,518
493,474,477,512
512,485,477,506
530,460,497,508
541,453,514,503
535,455,522,498
529,480,535,499
514,514,527,494
488,569,522,500
485,625,526,517
476,592,525,518
485,488,518,516
516,398,504,517
532,468,495,521
542,453,490,525
547,461,479,524
522,554,470,524
510,573,472,523
526,528,483,510
527,490,497,511
525,479,511,516
527,473,526,515
520,477,536,508
514,481,533,497
504,485,525,495
493,508,528,497
486,509,523,505
488,513,518,507
499,465,505,507
514,449,500,510
511,473,492,519
508,468,489,523
501,565,486,539
502,582,486,533
509,592,484,524
502,599,483,514
508,671,491,511
527,491,510,501
545,434,527,503
558,374,529,504
524,468,530,499
495,599,529,501
489,600,522,501
509,603,516,503
506,630,510,503
513,421,498,501
530,353,489,505
539,376,480,504
548,427,474,512
580,462,470,517
516,504,472,519
499,530,479,523
521,576,487,521
529,537,502,519
544,472,522,517
522,514,536,513
506,509,542,511
478,503,538,512
471,499,534,509
475,482,530,514
484,515,524,513
491,562,513,516
512,535,505,519
497,550,500,520
517,571,488,517
501,552,474,512
491,546,467,514
501,485,473,514
498,494,477,515
508,489,494,513
525,456,511,511
535,479,525,511
517,487,539,510
504,516,543,510
498,517,539,517
506,505,538,517
506,507,533,518
496,516,527,521
493,522,522,525
505,508,508,526
513,487,496,527
510,497,489,532
507,520,472,526
509,523,467,517
508,521,471,509
512,524,477,509
523,487,492,512
529,433,518,506
507,440,525,501
493,449,532,508
496,460,533,507
502,471,527,503
529,560,525,506
511,566,531,514
503,551,529,519
506,554,521,526
519,477,510,528
506,502,485,523
508,503,477,522
490,530,464,520
498,459,466,509
515,501,468,514
495,551,479,513
509,543,501,512
541,461,512,507
539,512,517,502
537,503,527,496
519,430,531,505
500,458,530,508
507,491,532,508
507,596,527,510
507,480,519,512
500,471,508,518
497,506,484,514
520,532,471,511
520,494,470,516
523,508,462,517
514,604,469,512
515,591,473,513
535,451,485,509
537,481,506,507
530,427,522,515
513,464,537,511
509,493,540,507
481,572,530,500
473,587,523,497
472,646,510,498
475,559,505,498
474,619,496,503
532,375,491,510
562,371,483,513
530,415,478,523
532,506,475,532
522,515,472,528
498,564,472,519
487,521,479,512
509,500,490,512
541,480,512,508
522,532,524,506
533,518,536,509
522,528,536,510
512,477,528,507
517,516,526,508
528,488,523,513
519,495,512,519
516,461,505,522
515,479,495,524
516,516,488,522
513,530,477,521
530,560,469,516
506,523,467,522
494,513,473,521
511,503,484,515
518,493,497,507
518,492,514,495
506,495,526,499
499,470,536,504
507,514,535,504
491,525,530,509
488,519,533,515
494,518,530,518
494,523,513,519
509,520,503,513
528,498,488,514
522,488,465,509
515,502,458,509
505,516,456,514
504,524,469,516
507,527,477,517
509,506,492,520
517,483,513,525
525,472,529,527
527,468,541,521
519,468,541,514
499,497,532,510
486,519,520,503
492,521,523,504
503,523,518,508
513,500,498,511
521,483,486,508
510,481,475,506
519,485,462,510
524,500,457,513
487,500,464,519
494,479,471,521
503,479,483,520
518,553,497,522
551,631,517,521
526,601,533,520
538,480,545,517
536,458,549,517
512,432,539,515
498,491,528,505
485,516,515,503
490,485,503,512
503,500,500,509
534,485,493,515
532,503,484,513
526,488,473,513
509,529,458,512
506,537,460,509
509,512,465,509
514,509,483,509
507,493,500,512
506,465,519,511
500,483,532,507
511,473,539,509
521,532,532,507
525,616,527,510
512,617,523,505
527,582,517,503
544,504,504,503
545,444,500,507
539,413,489,508
533,435,474,511
522,556,472,521
492,546,471,527
490,492,478,522
476,474,489,521
492,477,500,518
528,473,511,508
542,556,519,504
523,516,530,505
516,506,536,505
502,534,528,505
494,508,526,508
497,535,524,513
501,505,520,517
510,511,504,509
510,474,498,514
509,475,490,513
504,513,481,514
487,572,473,515
488,550,474,513
495,537,474,511
504,517,482,513
519,488,499,517
528,487,521,516
523,484,534,524
516,493,540,517
506,522,540,514
489,541,532,516
489,540,529,512
493,555,527,518
499,522,517,516
515,435,507,523
520,472,504,528
506,476,496,532
489,466,488,535
490,485,483,537
515,533,490,529
511,566,491,528
513,514,493,522
527,486,506,513
531,489,520,506
529,475,520,500
515,501,524,495
495,556,527,498
485,569,522,503
496,508,522,506
511,487,516,507
511,494,507,502
524,487,494,501
518,497,484,504
521,473,479,508
510,507,474,511
503,522,463,512
511,533,475,507
511,550,485,512
523,454,493,517
529,486,508,519
531,481,528,514
523,477,534,515
513,486,540,511
491,492,531,514
485,509,528,515
481,509,529,513
495,491,513,508
515,496,513,513
540,497,496,512
526,506,489,513
524,513,475,517
519,517,469,518
509,522,468,518
517,499,478,517
519,531,487,512
516,536,502,514
521,492,519,512
502,470,532,512
501,481,543,508
526,463,543,511
515,534,537,514
517,575,531,512
509,547,522,509
499,514,506,508
514,474,504,509
522,473,495,511
516,499,481,516
518,520,472,520
522,595,469,521
520,536,472,516
525,499,478,518
515,535,490,520
502,540,507,517
520,488,527,515
519,434,539,515
519,447,541,507
515,480,538,508
512,501,528,505
498,513,523,501
512,579,518,508
531,495,509,506
533,486,500,510
540,487,489,515
518,497,482,514
499,480,473,518
483,530,471,521
483,547,475,520
501,538,484,520
482,530,496,517
495,504,518,517
503,508,530,512
505,498,536,509
512,443,538,508
495,514,533,505
485,530,526,504
479,554,521,506
491,516,515,512
503,486,505,513
519,499,500,517
523,518,486,521
516,505,483,526
508,509,475,529
499,517,474,526
500,512,480,527
507,533,485,520
515,509,500,519
526,476,523,519
525,480,539,520
517,484,548,520
507,486,555,519
500,511,543,514
499,525,529,513
499,541,520,507
490,536,504,504
516,473,494,511
522,480,488,513
525,475,479,518
519,498,471,520
506,531,469,519
505,541,474,521
507,525,481,519
513,506,488,516
521,491,503,512
529,466,518,511
526,484,528,511
518,493,533,506
506,506,526,504
497,516,521,502
503,528,515,505
498,526,517,510
500,524,513,515
516,509,493,508
523,496,479,509
532,435,474,514
515,504,470,519
511,508,469,521
518,498,475,518
516,495,478,517
511,508,491,514
526,487,519,517
523,493,526,511
522,482,525,506
521,464,531,506
504,483,527,505
486,503,524,507
475,543,518,512
473,575,509,509
504,536,500,514
536,521,496,516
541,489,488,516
537,474,479,524
521,496,472,522
512,479,470,515
527,508,473,519
527,544,482,514
528,510,498,516
539,499,517,509
530,530,532,511
523,518,534,505
515,477,536,504
507,469,526,506
502,535,523,507
506,534,518,507
509,512,508,511
534,493,499,512
548,499,491,518
530,496,480,519
506,508,476,522
486,547,475,521
479,555,471,519
499,528,484,522
515,511,489,519
518,493,508,515
529,469,521,511
533,474,533,513
535,489,539,512
544,494,535,510
535,507,527,510
517,518,522,506
485,518,516,507
488,512,505,513
516,480,499,518
510,490,490,519
487,532,481,521
496,547,474,523
498,502,472,523
485,505,478,523
471,519,482,522
478,517,495,521
504,480,516,515
512,482,528,513
509,495,535,511
506,505,534,509
484,534,531,511
485,535,526,510
487,515,521,509
491,504,513,512
500,506,504,515
509,494,498,512
507,496,486,517
505,499,479,528
503,519,472,526
499,521,475,525
500,518,485,523
512,506,487,516
513,501,504,519
527,481,522,516
525,477,532,513
520,487,538,512
512,504,535,512
495,524,528,508
495,524,523,509
496,523,513,509
504,512,511,511
515,494,502,513
517,490,492,521
519,500,486,521
519,501,476,525
500,530,475,525
505,531,474,521
506,522,479,522
518,504,491,520
522,486,507,519
531,471,526,511
524,472,537,513
520,491,535,511
505,511,532,512
498,514,529,513
496,518,525,513
505,521,517,513
508,518,506,515
521,504,498,516
522,500,489,521
511,500,483,524
506,494,476,524
491,491,475,523
496,484,480,523
489,512,483,521
492,516,494,519
522,466,517,513
550,459,525,515
543,459,537,513
525,497,534,512
501,550,531,513
509,549,526,509
504,526,519,511
510,510,512,513
515,508,503,516
528,498,495,519
528,502,487,520
527,502,481,524
515,514,470,526
511,520,474,525
527,502,477,521
537,484,485,519
549,482,499,519
550,497,522,516
542,489,527,515
531,471,538,512
505,530,537,513
480,585,527,509
472,571,529,512
479,500,521,510
490,460,509,515
486,440,499,516
491,473,496,520
494,507,485,521
504,499,475,524
501,549,469,524
496,533,474,520
489,535,479,520
501,513,491,520
521,482,505,520
538,472,526,515
559,484,534,512
536,504,537,513
509,538,531,510
503,562,525,509
503,524,523,513
495,508,513,513
500,499,506,515
502,481,497,519
504,499,487,519
508,522,478,523
506,518,473,525
500,517,470,522
505,499,474,532
506,504,481,522
509,516,494,521
521,495,510,518
523,488,525,517
520,490,535,514
515,498,535,514
503,517,531,514
492,534,517,508
491,537,516,519
495,530,506,516
513,505,494,517
519,487,488,523
521,492,481,523
519,491,471,526
506,527,464,526
502,528,468,526
511,514,473,525
515,504,482,524
519,494,496,522
530,479,516,517
527,478,524,516
523,487,531,517
513,506,526,514
495,528,521,512
494,519,517,513
507,502,511,512
511,504,507,516
521,496,492,518
520,495,482,522
516,501,477,526
515,505,468,526
505,524,466,528
512,522,471,526
515,512,476,523
519,499,489,521
520,491,499,519
524,480,521,517
524,488,532,515
522,492,534,514
509,515,530,512
506,514,522,513
503,517,517,511
498,530,511,513
498,528,504,517
518,497,495,520
519,494,486,520
520,494,483,525
513,508,472,526
503,523,473,525
511,509,481,520
513,501,486,530
519,492,499,514
529,474,519,516
524,478,537,516
517,494,539,513
516,500,536,512
499,523,532,509
496,525,528,510
497,523,521,511
506,509,513,512
515,481,504,513
522,467,499,518
516,489,491,521
512,508,482,523
503,523,480,527
498,533,483,522
502,515,486,521
510,517,498,520
519,507,509,518
527,497,528,511
523,511,539,513
523,495,548,511
521,500,542,510
518,515,540,511
511,523,538,508
506,531,531,509
510,527,524,511
521,495,517,519
515,525,512,517
491,535,504,520
490,545,497,521
516,477,499,523
526,470,503,521
523,489,514,520
510,497,528,518
525,483,540,517
532,463,553,513
502,476,563,510
506,482,565,507
496,523,557,509
492,531,553,505
492,523,547,508
495,506,541,508
494,500,529,510
501,495,526,513
507,499,519,517
511,500,511,521
513,512,504,523
507,527,505,521
504,520,509,518
496,518,515,518
499,509,527,515
510,486,545,513
515,481,558,511
513,485,571,510
511,495,566,505
494,521,559,508
495,525,555,504
491,524,550,508
497,516,541,510
508,506,534,511
515,494,529,516
514,499,521,516
515,504,514,521
504,520,509,519
503,528,510,520
503,521,517,519
512,507,520,516
516,498,535,513
526,478,549,512
523,481,561,509
518,488,562,514
502,512,557,507
496,514,554,507
494,513,548,509
499,508,543,508
503,504,531,510
517,487,525,513
517,487,517,522
517,489,509,518
514,499,502,521
499,523,499,521
501,516,504,520
502,516,510,519
517,506,521,515
533,493,534,513
537,487,551,512
525,495,554,510
516,507,556,511
505,523,549,509
505,506,546,505
503,506,541,510
504,515,532,509
500,518,522,510
514,494,518,511
510,492,504,514
515,475,500,520
510,499,495,524
502,542,499,522
503,554,507,521
516,520,509,518
519,503,523,515
534,483,536,511
527,480,547,510
523,489,553,509
502,501,551,510
495,525,542,507
500,509,540,502
504,500,537,504
505,506,526,504
512,489,519,513
522,490,511,517
518,499,503,519
505,508,498,523
495,519,492,522
498,509,499,519
497,509,503,520
508,505,511,515
519,490,522,514
537,476,540,512
532,486,550,506
526,497,553,504
513,525,553,509
493,556,538,507
503,509,537,507
505,491,533,505
511,509,523,509
520,514,515,509
521,515,508,514
522,524,502,517
526,459,496,518
521,483,490,521
513,498,499,520
508,514,504,518
509,513,511,514
522,492,530,514
532,478,541,517
529,477,548,508
516,485,551,507
502,508,544,504
497,518,536,507
495,528,533,506
494,514,524,506
503,494,514,509
519,478,506,512
518,480,508,518
509,491,500,523
500,511,491,519
482,533,485,519
493,517,494,520
494,513,509,522
506,498,515,515
519,483,527,508
523,487,540,508
519,496,547,505
512,506,542,505
495,523,537,506
495,518,535,505
494,518,530,503
495,518,519,505
506,501,512,512
514,496,509,514
513,497,498,516
512,502,489,519
504,519,487,520
499,522,487,520
499,513,494,524
512,500,504,515
520,490,518,520
528,476,536,508
524,484,544,507
520,491,547,514
507,510,542,508
497,528,537,507
499,526,533,505
499,525,527,507
504,520,514,509
513,493,508,514
509,493,500,516
509,495,493,516
512,489,484,517
503,499,483,521
503,503,489,515
509,503,496,517
517,497,506,514
526,485,524,510
525,475,536,511
518,507,547,507
517,545,546,509
501,545,541,506
501,534,535,505
501,506,530,506
497,492,521,507
505,502,507,511
513,487,502,514
512,499,493,517
517,497,487,518
511,512,484,521
498,524,482,521
496,530,495,519
502,529,502,518
510,513,513,515
534,456,531,512
527,463,536,510
521,476,540,504
512,489,541,501
498,526,533,508
497,525,532,506
495,532,531,508
499,522,524,509
512,492,515,510
519,483,511,516
519,480,503,514
512,484,492,513
505,517,475,511
501,513,478,516
499,525,487,520
508,524,502,519
520,513,510,511
534,495,524,503
527,498,538,511
518,498,542,509
509,506,539,507
505,498,531,506
508,506,525,508
502,514,520,509
508,510,513,510
516,489,505,511
516,474,498,520
514,476,488,520
511,486,473,519
499,521,468,520
510,550,475,518
511,535,486,518
516,514,506,516
523,490,531,513
527,481,544,506
522,478,547,504
520,491,538,503
500,519,530,501
497,518,528,508
499,521,522,502
496,530,514,500
509,510,507,509
520,490,500,508
520,494,492,513
516,498,482,514
508,511,473,513
499,523,473,512
503,514,480,513
507,507,488,505
513,499,504,509
522,484,524,506
526,482,524,500
522,486,537,502
509,503,534,505
496,519,530,504
497,512,526,508
499,527,517,502
502,519,513,505
511,499,508,508
515,486,494,510
515,493,489,513
515,494,484,518
501,524,478,518
505,517,482,518
507,516,489,519
515,505,497,526
520,498,513,514
521,478,524,510
518,476,541,507
514,486,539,504
504,510,534,504
492,529,526,504
500,531,526,504
506,515,521,506
513,481,512,508
519,471,505,512
518,481,496,515
519,497,483,516
510,530,481,519
504,517,479,518
510,502,483,519
504,513,487,518
512,516,499,513
524,501,518,513
524,486,532,511
520,488,545,507
516,499,543,508
498,526,533,507
494,524,529,507
493,521,527,506
496,522,516,508
501,513,506,510
514,497,501,514
515,502,493,515
514,502,486,516
507,522,477,520
499,537,483,522
498,523,489,520
502,508,494,518
519,477,506,514
529,483,526,511
530,485,535,506
518,485,535,504
510,497,540,507
494,524,533,515
492,533,531,506
491,535,527,507
493,521,519,509
507,489,507,506
516,463,498,511
519,475,490,517
515,475,484,520
510,480,476,521
511,508,482,520
511,529,486,518
514,521,497,518
522,506,514,515
529,488,537,516
521,501,546,512
513,508,551,512
504,523,549,511
489,530,536,506
486,531,532,510
486,524,527,512
495,520,508,510
506,501,502,514
508,493,493,514
512,495,490,518
530,508,489,527
524,530,494,527
511,524,490,522
507,520,496,517
513,502,507,511
527,479,519,500
533,467,528,493
524,493,537,496
520,497,541,498
501,525,538,497
498,523,536,495
494,544,527,504
500,532,520,509
510,481,514,511
521,469,507,514
520,481,495,515
517,497,487,516
508,517,482,515
499,528,485,515
502,512,489,513
505,504,498,510
519,484,514,513
528,487,528,507
522,499,538,504
519,485,543,504
512,489,540,504
500,512,535,505
501,513,531,505
493,525,527,504
499,521,518,508
512,498,518,509
518,492,509,516
513,499,500,515
514,503,489,515
504,527,481,516
504,530,484,515
511,513,494,514
516,505,499,511
525,488,518,509
529,474,534,507
524,475,544,506
515,474,547,507
508,489,546,505
497,493,540,505
505,491,536,505
500,540,532,509
505,547,526,507
511,540,514,510
519,496,495,513
517,492,492,514
510,522,483,517
497,535,481,516
499,523,490,519
504,520,497,520
511,508,509,515
522,484,529,511
523,479,542,511
522,483,550,503
514,488,552,504
505,507,545,509
505,509,538,510
495,525,533,508
495,529,521,509
503,515,514,514
519,483,506,514
519,480,498,516
515,473,490,520
509,499,485,521
503,537,484,520
500,557,490,518
511,529,504,519
517,517,515,516
527,469,536,514
521,476,544,507
522,464,550,509
512,476,548,508
500,547,540,508
499,512,535,502
500,522,529,507
501,533,520,510
517,509,511,511
522,498,504,514
519,497,496,513
515,507,484,520
503,523,483,522
508,524,487,519
507,522,493,517
515,508,502,517
525,496,521,510
529,477,538,513
526,465,547,508
521,474,548,508
504,501,544,509
495,514,541,510
494,507,537,513
493,494,529,513
503,494,518,512
511,485,512,521
513,502,505,522
515,511,493,526
519,515,482,528
510,529,482,522
513,535,485,518
508,537,490,515
520,507,505,515
530,474,529,512
531,457,550,509
525,475,555,505
520,489,547,501
505,513,537,495
497,522,532,503
497,530,531,502
500,527,516,504
507,515,514,507
518,499,504,515
518,495,497,516
519,498,488,520
508,530,478,517
496,548,477,516
497,541,487,510
514,509,497,513
525,493,513,512
529,456,528,508
530,452,541,506
527,469,548,502
515,499,543,503
500,521,539,505
494,532,534,504
504,514,531,505
507,507,516,507
516,496,507,510
517,499,502,513
516,498,494,517
514,503,485,517
506,513,482,515
501,521,485,516
509,508,494,515
514,503,503,514
522,495,520,510
525,476,542,511
524,504,548,504
517,522,550,506
505,549,542,507
500,531,538,506
497,487,534,507
502,477,528,508
501,488,512,508
515,472,510,512
517,461,496,515
520,447,493,515
517,483,487,521
506,532,485,521
503,563,489,523
503,538,498,518
513,511,509,518
529,472,534,513
530,473,545,509
523,490,552,507
515,513,549,507
498,546,541,507
493,534,536,507
497,516,534,506
501,502,524,506
510,499,515,512
514,500,507,514
517,497,498,516
515,500,488,517
506,523,480,521
499,529,483,521
511,502,493,516
513,502,499,516
517,508,518,512
527,490,532,509
523,508,546,507
518,511,549,516
505,505,553,508
492,540,538,507
486,573,536,507
491,552,531,504
504,503,520,510
514,459,512,509
516,470,504,516
517,479,496,517
523,471,489,520
513,521,482,521
503,534,486,520
505,516,494,520
509,507,505,517
520,484,524,514
527,489,540,510
524,486,546,508
517,495,551,509
504,521,550,509
497,503,543,507
496,479,534,504
494,486,526,510
501,482,516,507
511,472,514,513
518,497,500,516
517,511,491,519
521,519,483,521
511,534,483,520
507,524,487,515
502,523,498,518
516,508,508,516
528,482,529,514
523,481,538,511
524,481,548,508
514,491,546,509
500,516,541,509
494,525,534,510
499,521,529,508
504,515,519,512
512,505,508,514
518,492,509,520
522,495,500,522
522,494,494,525
513,511,486,524
509,513,486,516
511,509,490,517
511,512,500,517
512,499,515,515
525,475,528,509
524,478,542,508
519,486,550,513
508,503,545,511
495,532,540,508
495,529,537,504
495,526,529,504
507,513,519,506
519,488,510,506
522,489,502,508
523,488,490,511
519,494,480,514
509,518,475,518
506,525,481,518
505,520,488,512
509,506,503,514
526,486,522,519
526,494,541,510
525,496,548,507
519,503,546,512
499,528,543,505
496,519,533,501
501,490,534,502
506,495,520,502
506,513,513,509
521,490,507,510
518,492,491,510
516,495,490,517
513,504,485,520
500,529,478,516
503,521,486,516
502,517,490,515
521,481,507,514
535,454,533,519
532,451,545,515
528,464,542,506
516,523,544,508
499,562,541,507
499,544,536,502
489,554,530,504
493,497,519,502
506,484,510,512
514,484,506,515
513,483,494,517
508,488,482,516
510,501,478,519
508,530,481,517
505,528,488,518
507,509,498,515
518,495,514,515
526,471,530,511
527,481,542,510
522,490,548,509
511,509,545,507
507,518,538,507
507,509,535,507
505,514,525,515
509,514,515,510
511,500,508,509
512,513,499,513
510,522,487,518
506,521,481,520
501,528,475,522
513,477,485,521
517,516,494,518
524,527,503,517
526,500,520,514
528,472,536,513
525,472,546,510
519,486,548,510
507,506,542,511
498,528,536,511
498,538,530,511
495,527,521,512
506,514,515,515
516,494,511,520
516,503,504,520
518,499,492,522
512,512,486,522
505,521,481,517
506,513,483,510
506,511,487,510
514,489,505,511
527,480,527,509
526,475,535,506
522,477,546,504
516,497,542,500
503,523,536,504
500,520,532,503
501,518,527,507
497,521,518,509
509,523,509,509
518,512,505,513
517,528,494,515
518,520,486,522
511,488,480,521
508,483,481,520
508,496,487,516
511,492,497,516
520,494,515,515
536,476,530,511
527,483,542,509
521,487,546,509
508,501,540,510
497,520,538,507
498,525,533,509
503,512,531,507
511,516,521,513
519,492,515,517
524,488,506,521
521,494,494,524
515,505,485,524
508,543,479,521
505,538,484,516
503,528,490,518
515,513,500,513
526,492,525,515
528,474,533,508
526,487,542,502
520,496,542,505
508,512,537,507
498,521,537,507
498,497,528,504
501,499,520,507
503,517,509,510
518,517,507,513
516,528,497,515
514,521,491,519
514,476,483,520
496,524,478,518
503,528,485,520
507,498,492,517
532,475,505,515
539,449,527,513
532,480,540,509
521,499,547,506
516,504,542,506
505,519,538,502
505,516,534,503
501,526,527,505
502,517,514,508
519,500,511,511
525,493,502,512
523,495,492,516
517,494,483,521
503,518,486,523
504,509,481,522
515,505,488,521
518,519,501,518
522,486,516,516
531,469,534,513
522,487,544,512
519,502,551,513
505,531,543,513
497,533,537,512
499,527,533,508
498,528,526,507
507,500,515,509
516,487,509,513
518,489,502,520
514,494,498,524
512,503,485,524
499,525,475,523
502,517,480,519
505,508,487,511
514,492,502,515
521,460,518,509
523,451,534,507
527,483,545,504
517,488,549,502
501,520,541,504
505,527,539,499
504,528,530,505
503,535,518,506
506,526,511,509
517,503,503,513
514,500,494,516
517,498,485,518
512,518,477,523
509,528,477,521
510,518,486,522
510,519,493,519
513,509,507,512
528,478,530,511
525,479,545,509
523,484,551,505
518,494,547,511
508,507,542,506
507,508,534,504
495,507,527,505
500,515,516,509
507,514,507,508
511,495,500,515
508,489,492,518
511,481,485,520
508,525,477,523
504,529,479,522
504,535,491,520
514,518,500,517
523,494,513,515
529,478,534,513
528,471,543,508
525,475,547,502
510,500,541,506
496,522,539,507
493,529,533,506
492,532,525,508
500,518,515,511
521,495,509,515
525,495,497,514
522,501,488,516
519,514,483,516
507,533,488,522
506,532,484,519
502,521,489,514
513,502,509,524
518,491,524,512
519,478,534,513
519,471,543,509
514,487,548,508
498,514,540,509
497,526,535,507
490,520,531,507
503,501,523,506
505,500,513,508
517,480,506,513
521,499,496,515
517,504,485,516
511,521,480,518
506,521,479,520
508,513,487,516
506,505,493,516
512,506,511,514
523,492,531,512
526,492,544,509
522,498,548,508
511,497,549,507
502,490,540,505
497,505,536,507
491,521,530,509
503,501,521,513
515,489,513,510
519,486,505,516
518,496,495,519
515,504,485,520
506,521,478,521
501,522,489,521
511,499,491,520
516,485,503,517
517,477,515,519
521,468,534,510
515,482,544,508
507,498,547,506
506,501,545,509
510,516,537,508
507,543,534,504
506,521,530,507
511,492,517,513
518,493,512,513
520,492,503,515
522,472,495,516
517,487,485,526
504,533,480,520
502,550,483,515
503,542,492,521
514,508,504,517
526,483,520,513
529,485,535,507
521,498,545,506
515,501,545,507
505,511,543,510
499,507,540,508
491,512,543,508
498,509,528,511
504,506,512,508
519,500,500,510
517,515,494,516
514,506,488,519
508,533,480,519
508,525,482,520
508,532,488,517
511,523,497,517
518,509,507,514
528,465,526,514
528,442,536,507
526,470,544,505
513,523,541,506
495,553,528,504
493,567,532,505
495,521,527,506
503,489,519,508
520,496,513,506
522,494,495,509
520,495,490,520
521,492,484,518
508,521,475,520
504,546,485,521
503,547,491,520
509,519,497,522
521,486,516,513
529,443,536,512
529,455,543,503
523,470,548,508
512,508,544,507
502,529,539,506
502,515,533,506
502,512,526,508
510,500,515,507
518,488,504,512
518,492,497,516
513,514,489,521
511,526,482,524
497,538,477,524
505,516,486,522
514,511,494,519
522,505,505,515
524,489,526,512
525,484,542,515
520,487,551,516
515,495,547,508
502,511,546,505
493,524,533,501
492,521,527,501
498,509,517,503
504,499,514,506
522,484,504,509
517,500,492,513
520,502,482,516
513,516,476,515
507,524,479,519
505,524,485,515
507,526,496,518
513,508,510,516
529,480,534,514
526,480,544,511
519,479,549,506
510,495,546,503
493,517,536,502
489,518,532,501
494,513,525,501
499,506,516,504
507,495,506,509
518,495,499,511
516,508,490,515
517,508,482,519
504,539,476,520
508,524,486,527
514,516,488,518
521,512,502,514
524,488,514,513
531,462,534,509
523,478,544,509
518,482,549,508
505,496,543,506
500,505,538,507
497,518,533,509
493,527,524,512
496,516,513,513
509,485,507,517
514,491,500,520
514,480,492,523
514,484,485,522
509,501,483,520
509,493,486,515
513,528,492,518
507,537,504,515
519,511,521,509
522,496,533,504
513,498,544,503
516,531,545,500
503,512,537,503
501,500,533,510
496,524,529,507
506,505,521,506
507,504,514,508
514,484,503,514
515,486,497,517
515,496,488,519
506,516,481,523
506,510,482,523
502,511,489,521
505,505,498,520
516,487,511,514
530,477,531,508
526,472,543,508
522,483,549,506
515,492,544,506
507,504,539,503
503,511,534,505
496,534,524,506
502,521,517,506
513,497,510,508
518,490,501,512
518,494,489,517
512,519,482,520
505,538,486,522
505,544,484,520
508,532,492,518
512,495,499,515
518,486,517,513
525,479,534,512
521,479,543,513
518,485,549,508
507,503,544,505
500,514,536,509
488,531,530,507
498,514,522,507
501,513,514,510
520,493,510,515
520,499,500,515
517,494,492,521
511,508,485,522
503,516,483,524
502,518,486,522
501,513,492,519
506,501,508,517
520,474,523,510
519,477,537,510
522,487,545,506
517,505,544,506
505,523,545,511
500,523,541,515
495,526,533,513
498,516,523,513
505,497,511,511
513,481,500,511
517,490,491,514
522,500,489,516
517,513,473,517
511,512,477,516
504,527,483,518
516,511,493,517
523,512,512,517
530,484,533,512
525,488,545,507
522,479,546,504
513,493,544,503
505,505,543,508
499,524,525,499
497,536,517,499
500,527,513,507
514,499,507,508
517,493,498,513
515,498,491,516
517,502,484,516
504,520,480,522
500,524,483,520
501,522,487,519
514,499,501,518
520,487,519,511
525,474,535,505
524,475,544,509
518,489,548,506
506,514,543,507
500,519,536,506
500,519,529,504
503,513,521,505
508,509,510,506
517,489,501,511
517,497,490,515
517,502,483,518
507,508,481,518
511,505,480,520
512,506,489,520
509,506,500,520
521,496,511,516
530,479,526,511
528,473,537,507
525,479,542,506
517,492,548,505
497,523,539,508
496,523,537,509
500,517,534,506
504,513,522,508
508,515,509,508
518,513,501,513
513,508,491,516
516,479,482,519
510,450,481,518
507,493,481,519
504,551,487,518
503,530,497,516
520,505,509,511
530,514,531,508
528,470,541,510
523,477,547,506
510,518,540,506
495,547,537,505
501,529,538,506
497,524,529,504
504,507,518,509
515,492,509,510
520,491,499,514
518,496,490,513
516,501,483,515
501,518,479,521
504,516,482,517
507,523,490,517
514,505,504,515
522,492,516,514
526,480,541,511
525,488,542,508
520,495,548,506
503,510,544,508
502,509,541,505
497,507,536,508
500,499,528,507
513,511,514,510
521,492,507,510
521,494,498,513
520,503,489,517
515,517,481,520
508,531,477,519
503,534,485,516
501,542,497,518
513,517,506,516
527,474,525,510
528,464,541,508
523,469,548,509
519,481,548,506
499,519,538,507
500,543,534,507
497,533,529,508
503,510,522,512
510,503,512,512
518,489,503,514
519,501,491,518
518,503,485,521
506,522,480,524
507,522,480,524
507,517,488,522
505,516,499,518
514,501,510,513
527,476,529,505
522,479,543,502
524,482,545,503
515,494,548,504
503,511,538,505
506,519,532,504
497,522,527,503
503,517,517,507
514,492,510,510
515,494,501,513
519,512,492,516
518,512,484,520
505,524,483,521
508,521,484,527
503,522,491,525
512,517,500,517
519,505,523,512
523,504,539,508
519,505,547,505
516,471,547,505
501,476,548,510
501,477,537,506
499,508,528,506
505,520,523,506
511,501,512,510
520,487,506,512
518,511,496,517
518,518,491,519
517,520,481,521
508,507,479,516
507,515,486,519
507,518,495,517
513,497,506,515
527,468,527,513
525,474,541,507
518,484,551,512
511,513,549,506
495,536,539,507
506,501,533,506
497,518,528,504
503,500,522,508
514,496,511,512
522,495,504,514
518,500,494,518
517,500,485,520
505,542,476,521
505,537,480,520
502,542,489,517
506,517,494,515
519,464,513,515
528,467,536,512
527,460,543,514
520,469,549,506
510,494,544,510
496,537,538,512
502,524,535,509
500,529,529,510
504,506,520,513
515,490,511,517
522,492,505,518
516,501,497,522
516,507,486,521
507,525,480,522
511,518,486,521
501,526,494,519
511,492,500,510
527,484,522,510
533,485,538,508
526,476,546,506
521,503,546,501
502,530,538,505
497,531,537,503
499,524,532,507
492,529,523,508
506,510,508,507
515,481,504,512
521,488,496,517
518,492,488,516
513,520,478,519
505,528,481,522
505,515,485,518
513,500,493,515
523,506,506,508
528,489,523,508
524,493,539,505
520,485,546,507
515,490,547,504
503,507,541,506
503,512,538,505
500,521,528,509
504,515,520,508
508,505,512,509
515,495,501,515
517,497,495,514
514,505,486,521
502,532,481,520
508,513,482,519
512,509,493,519
516,505,501,517
518,499,513,513
526,479,530,511
524,482,543,506
521,489,547,506
509,512,542,506
499,514,539,505
503,514,535,506
498,510,528,508
494,524,516,508
503,505,508,512
511,496,499,516
516,492,488,517
514,492,482,522
507,509,477,523
513,505,484,521
505,526,490,520
509,511,501,521
522,490,519,517
528,483,534,520
527,492,544,509
527,498,548,509
512,519,541,507
506,515,538,503
499,526,531,514
501,513,524,506
511,507,514,506
520,488,504,508
519,488,495,514
522,492,490,516
518,505,479,517
509,533,478,521
505,530,484,518
501,520,491,517
509,508,507,515
528,437,529,513
527,479,546,510
517,518,545,508
507,522,549,507
493,483,540,509
498,493,535,507
501,531,527,508
502,522,519,511
513,505,509,511
520,494,504,515
521,485,496,519
522,492,486,520
512,523,483,520
512,518,483,519
511,511,491,517
512,523,496,512
517,527,509,513
526,500,529,510
524,481,540,508
525,469,548,509
514,470,549,509
504,500,539,513
500,505,536,509
497,524,529,512
497,519,511,505
511,504,505,509
513,503,499,516
518,494,492,518
516,513,487,524
505,540,483,521
509,530,488,519
509,521,495,518
515,502,500,512
526,453,520,512
530,450,536,507
523,481,547,508
516,495,552,508
503,510,543,508
498,509,538,506
494,532,528,504
504,524,522,504
511,511,511,505
521,490,504,509
519,491,491,511
517,495,481,516
509,512,479,522
507,533,480,521
506,524,487,520
512,505,496,519
513,507,510,525
526,490,531,521
527,479,539,519
526,487,547,510
512,498,547,506
503,517,539,506
506,508,534,504
497,525,530,504
499,523,522,504
508,516,513,508
518,497,502,512
519,500,492,515
519,500,483,518
512,510,480,519
509,526,481,515
509,521,487,517
507,518,496,517
520,495,514,515
529,471,535,510
527,478,541,508
519,488,549,506
511,507,544,507
499,519,539,506
497,518,535,507
493,516,529,507
499,506,512,509
518,488,506,507
519,488,496,513
518,494,488,517
517,507,480,519
503,529,475,520
514,509,483,522
511,505,491,521
511,504,501,512
523,483,517,512
530,472,534,509
527,477,545,508
517,487,556,507
501,510,549,506
499,517,538,504
493,531,528,505
493,525,520,510
506,511,513,509
519,486,505,511
518,493,492,513
519,498,486,519
511,513,480,521
499,533,477,523
504,522,485,515
501,527,493,517
514,493,515,518
523,476,532,513
525,473,542,508
517,478,552,508
514,492,545,506
492,522,541,504
496,524,536,506
496,526,531,506
497,539,519,507
512,523,513,510
520,471,502,515
520,480,494,516
517,485,484,519
507,512,477,519
507,513,481,519
504,541,488,517
507,532,494,513
515,512,515,514
522,465,534,511
521,452,544,509
514,477,551,507
512,435,545,509
498,486,538,508
505,490,534,507
500,507,527,508
506,518,516,509
516,518,509,512
514,521,498,518
512,523,488,521
508,535,482,524
496,536,476,527
511,514,487,525
515,507,497,524
526,498,515,524
532,478,531,519
534,468,539,514
527,487,541,504
517,493,541,498
506,517,531,497
498,536,538,502
505,529,525,499
504,526,518,502
507,515,510,506
521,491,505,510
520,498,496,514
514,501,488,516
505,519,478,517
501,525,480,520
510,512,492,521
510,510,495,517
511,507,509,513
525,482,531,514
524,478,540,507
522,484,544,502
515,497,548,503
497,522,540,505
502,513,534,507
496,521,531,506
502,512,518,505
508,500,512,511
520,488,502,516
518,488,495,519
517,494,484,522
505,527,480,522
507,522,480,519
504,530,486,510
507,516,496,515
521,492,511,510
528,474,533,509
526,473,541,508
519,489,551,507
504,511,543,508
491,525,535,506
502,506,532,505
501,512,528,506
505,499,516,516
516,488,508,510
519,494,497,515
518,504,490,518
514,510,482,522
507,514,479,522
511,507,485,519
511,500,492,518
512,490,505,518
523,475,523,512
527,475,538,510
521,495,542,507
518,503,544,511
504,523,539,512
501,521,536,506
503,517,533,507
500,525,523,510
508,517,514,514
516,483,511,516
523,470,498,518
519,494,488,519
509,515,482,520
497,539,481,520
507,527,487,515
504,526,491,516
518,501,511,512
534,477,523,507
526,462,541,509
521,470,547,509
514,486,544,506
496,506,538,508
498,502,534,505
498,504,527,507
503,503,517,510
514,500,509,512
516,485,499,513
517,490,493,516
519,506,482,518
508,540,478,520
507,508,478,518
503,514,487,518
510,512,496,516
516,511,514,514
526,484,533,511
526,486,544,508
513,503,547,508
503,506,552,507
497,515,539,504
500,508,536,506
496,525,527,508
501,535,516,511
513,532,508,513
515,549,496,517
518,510,491,517
517,478,482,518
503,494,476,521
516,485,484,519
511,501,490,519
518,491,505,515
523,475,523,514
528,483,542,511
523,491,546,510
516,502,549,515
495,528,540,508
501,520,538,506
497,527,529,502
498,516,522,508
508,506,513,509
520,484,505,512
521,487,496,515
520,491,486,520
509,509,478,522
502,515,475,520
509,503,487,520
503,509,498,518
515,508,515,517
527,484,537,516
524,485,545,511
524,471,550,509
517,487,548,507
503,521,539,505
502,524,535,500
495,537,529,503
502,529,519,508
512,505,507,508
519,496,501,511
519,499,491,515
518,504,482,516
503,527,476,519
508,519,480,518
507,522,489,515
512,509,498,514
523,499,517,513
529,481,537,511
525,484,546,506
518,483,548,510
507,502,546,508
500,523,537,507
506,500,531,507
503,508,527,505
506,506,518,510
519,491,509,512
519,490,501,512
518,497,491,515
512,506,480,518
500,530,480,519
508,519,483,519
507,514,492,515
514,502,506,515
524,481,524,513
529,475,535,507
521,483,552,509
517,490,551,507
500,517,535,505
500,514,534,504
496,524,530,509
494,512,520,510
504,504,510,512
518,479,505,512
515,473,494,518
515,497,487,524
508,535,479,518
502,536,478,522
511,563,483,521
507,539,495,518
520,460,510,513
529,461,531,512
525,466,543,512
523,471,549,511
513,498,546,505
494,529,539,509
495,528,532,506
490,546,525,507
505,506,518,505
510,471,510,513
518,477,502,514
515,486,493,517
516,485,485,522
504,514,482,526
502,508,482,522
506,522,488,518
514,535,495,516
522,509,512,513
527,481,531,508
528,483,547,508
522,480,552,504
512,511,547,507
497,528,537,508
502,513,532,508
496,521,521,510
507,506,515,507
521,502,507,511
523,509,498,513
518,509,492,517
514,497,478,520
497,538,475,517
508,515,481,516
518,497,496,517
530,485,507,515
533,464,521,507
528,461,535,508
525,468,545,513
519,489,545,504
505,537,542,504
507,529,538,505
505,522,531,508
497,529,526,511
505,528,511,514
520,498,508,520
521,496,498,521
518,490,493,525
515,511,486,525
500,522,483,525
506,520,487,517
506,517,497,513
514,509,506,509
528,500,520,501
523,502,536,501
520,516,543,500
513,515,543,499
503,482,536,503
504,493,532,504
499,517,525,502
500,512,517,507
514,500,509,506
520,480,500,510
520,477,498,516
519,495,484,518
505,517,476,517
507,514,481,518
508,524,490,515
507,516,498,516
518,494,517,513
530,478,537,510
522,476,547,509
517,484,551,505
505,508,551,508
503,522,538,505
503,515,530,505
503,514,531,507
510,506,513,510
519,492,504,511
517,494,498,514
516,499,490,516
507,509,484,522
496,522,475,520
505,508,483,516
500,523,493,518
511,511,505,513
524,487,525,511
527,479,541,510
519,479,548,508
518,486,547,507
496,517,547,507
495,519,535,506
499,520,531,503
501,520,520,508
513,501,511,516
519,496,505,514
519,494,497,517
518,496,484,517
507,518,481,522
504,526,483,520
510,508,486,519
509,505,497,518
516,477,513,516
528,466,530,514
528,492,542,511
519,485,549,510
512,502,548,508
495,533,542,507
505,517,538,509
495,531,528,508
501,505,516,509
510,461,507,511
517,484,500,521
511,493,490,517
509,500,485,520
509,533,477,520
510,532,481,522
519,528,490,520
516,516,502,518
522,503,521,516
533,480,539,508
528,480,549,509
522,486,549,507
511,517,544,501
500,534,534,502
500,542,532,502
496,563,522,506
502,507,512,510
520,467,506,510
520,481,497,516
521,489,487,518
514,509,483,517
501,532,481,521
506,520,486,521
504,521,492,516
512,499,507,516
525,479,526,511
527,472,538,510
523,477,547,504
518,491,547,510
499,517,542,508
498,518,533,508
495,533,531,506
497,533,521,508
506,518,511,510
514,497,505,513
513,482,494,517
515,479,487,521
512,489,481,522
506,497,480,521
513,520,484,518
508,523,495,521
513,502,513,513
530,488,531,512
528,482,541,508
518,495,547,507
512,504,546,503
495,533,536,505
498,524,532,507
500,527,526,507
503,514,514,509
515,491,509,514
520,485,501,514
516,494,489,519
515,496,485,523
503,525,480,527
507,512,484,523
508,513,487,518
510,516,501,516
519,502,516,512
519,486,536,507
521,488,546,508
517,473,550,507
502,496,551,511
493,514,536,512
496,514,541,511
496,514,532,511
505,507,518,511
517,491,507,513
513,490,496,514
517,492,485,515
512,503,474,515
500,521,481,516
509,505,482,514
508,516,492,514
510,505,512,514
526,479,525,506
529,478,536,506
520,481,545,505
516,492,545,507
498,513,539,506
495,518,535,504
503,508,529,504
500,508,520,507
509,506,513,506
517,486,500,508
518,480,492,515
519,488,486,519
506,509,479,522
508,515,481,520
509,522,490,519
506,534,496,517
510,515,516,515
524,494,532,513
524,496,545,510
518,492,548,506
509,507,544,506
496,517,541,508
512,478,537,502
505,513,529,503
506,513,518,505
514,491,511,512
517,493,504,520
516,505,490,517
514,521,481,519
496,544,479,521
498,535,485,523
509,510,492,519
515,493,505,517
523,496,523,515
526,473,540,513
519,501,548,509
512,519,545,508
496,546,541,504
491,517,536,508
509,469,537,507
503,498,524,508
510,497,515,509
517,489,503,513
521,491,497,515
518,515,488,519
517,522,481,520
510,528,482,519
518,511,487,518
505,520,490,517
515,504,507,514
534,482,526,513
533,491,541,510
525,498,547,509
516,512,548,508
505,513,541,505
500,511,535,506
497,494,528,506
498,465,520,504
509,486,512,512
518,489,505,513
518,488,494,519
517,500,484,520
505,523,481,520
495,526,480,521
505,510,487,516
508,512,497,518
517,496,514,515
525,490,532,509
524,501,545,507
520,505,551,508
510,520,546,508
502,497,539,512
507,460,536,508
502,483,530,507
505,492,514,508
519,482,510,512
514,509,497,513
513,507,490,517
514,523,484,520
502,531,478,527
503,525,481,519
508,504,489,520
510,505,502,519
522,494,519,510
527,487,535,512
524,499,544,508
519,499,548,505
503,520,540,514
492,536,538,506
500,523,532,504
502,520,524,506
503,511,510,509
515,494,506,511
515,499,494,514
517,503,486,518
512,515,480,518
498,534,479,517
506,519,486,516
509,508,494,516
509,499,507,521
520,475,523,512
522,477,539,507
523,497,546,510
518,506,548,509
502,517,540,507
497,521,533,505
497,514,529,508
495,520,520,506
505,497,509,514
518,503,504,515
516,513,493,519
515,508,486,520
503,539,479,522
498,544,477,520
508,504,488,520
515,490,503,518
518,495,512,513
526,477,530,510
520,480,543,506
518,483,548,501
511,488,546,507
497,500,538,507
497,512,534,502
489,521,526,507
497,510,514,510
515,487,508,514
527,486,499,514
520,501,488,517
514,511,477,518
505,529,485,522
503,519,483,520
502,527,490,518
504,525,501,517
512,502,520,513
526,466,535,508
530,486,546,506
522,518,548,505
507,516,538,507
512,466,539,507
515,483,535,507
506,504,523,509
510,499,515,509
516,490,503,514
514,499,494,514
515,501,485,519
511,509,482,523
504,506,484,521
507,490,488,520
508,495,492,517
513,494,506,514
519,503,524,502
521,503,540,503
517,502,545,507
510,501,552,508
497,521,540,506
495,519,534,507
500,511,530,507
504,512,518,508
509,506,510,508
519,501,502,513
517,497,492,517
519,503,483,517
508,533,481,521
504,529,483,519
510,517,489,518
512,506,498,517
520,497,510,514
526,489,532,511
526,488,541,509
518,487,547,512
507,509,543,505
491,527,534,507
497,529,535,506
499,535,526,506
499,533,515,509
513,515,507,513
515,484,496,514
515,485,488,519
512,501,479,522
500,520,480,523
506,506,484,522
516,487,497,521
513,493,500,513
517,490,523,508
527,485,537,508
524,488,547,509
516,491,551,506
500,516,542,507
499,522,535,504
498,516,530,501
497,516,518,503
501,508,512,508
515,496,506,511
514,500,495,516
513,516,484,519
512,537,479,521
508,554,478,525
510,537,485,524
516,489,498,522
515,479,514,521
529,474,532,516
525,479,549,514
520,485,551,508
509,491,550,505
502,499,543,506
503,489,538,506
506,488,532,504
500,511,522,511
506,514,510,510
514,507,496,511
517,503,487,514
515,500,482,516
503,522,481,517
502,527,478,515
505,516,486,514
508,508,493,514
517,490,511,513
524,460,534,510
523,450,542,509
520,461,546,507
515,511,546,506
498,535,534,506
499,523,533,508
494,533,523,506
500,520,518,506
513,495,508,510
517,494,502,516
515,502,491,515
507,528,483,520
497,569,478,519
496,575,486,519
507,537,493,517
514,479,505,515
519,466,521,513
526,467,538,507
521,475,547,507
519,479,548,506
505,512,547,506
499,516,540,505
500,522,535,506
497,522,525,507
505,498,514,508
517,480,505,512
517,479,498,522
513,490,488,521
507,518,484,522
503,521,482,520
506,527,488,518
506,523,494,518
510,511,507,514
524,491,530,510
523,498,542,507
517,497,549,506
510,490,542,506
491,517,539,507
494,499,532,507
498,532,530,506
496,507,519,509
512,483,511,511
521,488,503,516
522,498,495,518
523,504,490,520
511,518,484,526
503,535,485,521
507,528,489,520
512,516,499,519
519,495,514,513
529,479,533,508
527,476,544,507
524,483,550,506
510,503,547,507
495,522,540,507
495,521,541,506
498,517,529,504
508,504,518,506
519,488,507,511
519,490,499,513
515,493,487,514
516,507,481,520
499,534,477,521
497,534,484,521
510,516,490,517
517,493,501,515
527,463,519,511
530,459,540,508
524,472,547,507
519,495,544,501
503,522,542,505
495,529,535,506
499,519,533,506
506,513,525,508
506,514,506,509
515,501,503,510
518,502,494,519
518,501,486,522
512,521,480,526
508,523,485,526
514,513,495,526
515,511,507,524
515,506,519,522
530,472,533,510
525,473,539,506
523,482,544,505
515,497,541,499
496,523,536,500
501,516,530,502
503,514,525,501
501,514,515,504
509,495,509,507
520,485,500,513
519,499,491,510
518,499,483,519
503,528,474,519
502,528,479,524
508,519,483,519
504,507,495,520
517,484,511,517
526,468,529,511
524,489,544,513
518,518,547,511
504,556,548,511
490,557,542,510
500,495,540,509
507,467,531,507
508,496,517,506
518,464,503,506
518,467,496,513
520,482,487,514
522,498,481,517
502,529,477,519
503,526,484,518
511,510,491,515
513,505,500,512
524,486,525,513
532,478,542,509
530,485,543,504
521,493,548,508
506,522,545,510
500,521,538,505
504,514,531,505
498,528,520,507
504,512,511,507
518,487,501,510
520,484,500,516
522,491,488,521
516,514,485,523
509,526,482,518
506,533,491,520
508,527,495,518
512,520,511,516
527,490,531,510
527,481,536,505
520,482,545,512
513,495,547,514
498,528,548,508
501,535,536,506
502,525,531,507
498,529,516,509
511,508,510,508
520,501,502,514
519,500,495,516
522,501,489,521
509,518,481,522
503,528,483,518
504,527,487,518
516,498,499,513
518,487,516,515
529,470,533,510
523,470,543,509
517,482,551,507
506,502,547,507
498,513,538,508
499,517,533,506
501,518,530,507
504,514,518,508
518,497,508,512
521,498,498,512
522,501,491,513
516,517,482,519
502,535,477,520
506,523,484,515
511,516,492,517
514,506,505,515
522,485,524,513
529,474,538,508
523,483,546,510
517,489,549,507
500,507,543,508
491,501,538,509
492,496,534,511
495,513,523,514
505,506,518,517
511,511,507,519
521,489,499,520
527,505,492,519
520,517,484,520
509,530,481,518
510,517,488,517
516,502,496,516
513,493,509,513
525,470,531,509
525,469,542,502
521,470,547,504
519,506,545,502
499,546,533,502
501,529,534,503
501,526,528,504
503,527,518,506
511,504,510,505
522,492,501,510
518,492,492,517
516,509,482,519
501,536,474,519
502,535,482,521
509,527,488,519
516,508,499,515
521,495,519,512
527,462,535,507
523,473,545,511
516,491,551,515
506,520,549,510
496,538,540,505
495,531,528,504
503,501,523,507
504,500,511,508
514,475,502,508
518,479,496,514
514,496,491,517
510,510,481,519
497,548,480,523
507,504,485,518
519,477,495,517
514,509,503,513
523,505,523,511
525,496,539,511
521,515,548,510
517,499,548,507
510,487,539,505
502,502,538,507
500,510,537,508
505,503,521,507
505,490,515,509
511,476,506,514
512,489,499,518
510,496,488,520
505,531,480,520
505,537,479,518
515,519,488,516
523,499,496,517
512,510,511,517
525,487,532,513
528,489,546,512
520,493,551,508
512,501,545,509
503,514,539,509
502,521,535,504
495,531,524,504
499,519,514,504
514,490,508,506
518,479,499,511
518,483,492,516
516,505,485,517
507,549,482,521
506,535,481,522
508,519,492,521
504,506,499,518
519,488,513,512
529,468,531,510
527,465,543,503
520,479,549,504
508,507,544,505
501,539,536,505
501,530,532,504
501,505,526,503
506,500,513,511
518,469,504,513
512,497,499,517
514,524,492,522
516,524,485,525
499,528,482,526
500,517,488,523
514,497,494,522
520,502,508,517
525,490,531,513
524,493,540,510
524,512,546,503
514,507,544,504
500,520,541,504
504,507,542,501
509,493,528,501
501,503,520,504
504,513,510,508
517,488,501,514
516,501,491,514
514,509,487,522
508,533,481,517
496,528,486,521
500,518,487,516
505,505,497,519
511,486,507,513
529,469,530,506
528,484,540,508
520,485,547,505
513,502,546,506
491,530,540,509
494,535,536,507
498,529,528,509
495,529,518,509
511,501,510,507
516,489,504,510
517,493,494,515
517,499,486,517
503,520,481,520
500,527,483,520
499,527,489,517
507,520,498,514
520,488,515,517
524,479,534,508
521,486,543,509
514,492,545,508
497,537,544,509
489,545,537,508
492,517,535,507
497,511,527,512
503,469,515,510
523,448,508,513
525,487,505,519
525,506,491,523
519,524,479,521
510,521,485,520
515,502,484,521
522,491,491,515
520,490,504,513
527,481,523,509
526,478,535,509
525,481,542,505
514,478,545,507
502,507,544,509
501,522,539,507
500,518,534,506
496,516,520,508
510,515,509,509
521,505,505,514
521,497,495,511
517,488,486,516
510,498,481,520
499,516,481,517
502,538,484,513
512,537,497,516
519,500,512,515
529,463,529,512
524,480,544,507
524,489,550,508
516,503,542,505
501,522,539,506
498,533,534,507
501,531,526,506
503,515,518,509
512,511,510,511
515,506,500,514
515,515,493,516
513,520,487,522
501,539,486,522
499,528,486,525
504,501,490,519
510,510,506,517
519,511,523,514
528,488,537,511
524,495,549,507
519,470,551,509
505,484,548,507
496,508,540,505
506,515,537,505
502,518,531,506
504,498,523,510
523,473,512,519
523,487,504,512
523,497,497,519
514,523,486,522
500,547,484,523
506,509,491,521
512,493,499,516
518,475,514,516
522,460,527,512
527,470,547,507
523,494,555,513
517,487,555,508
497,527,545,508
494,526,542,508
508,533,537,507
508,497,529,509
519,500,526,515
524,517,510,518
519,520,501,521
521,533,492,519
509,530,487,522
498,513,494,522
503,516,493,516
505,508,500,519
518,500,515,516
527,484,538,513
525,481,547,511
522,476,553,504
518,496,552,508
501,522,544,506
496,518,537,509
496,516,531,508
497,519,521,509
515,492,516,509
523,489,507,512
519,498,499,515
516,504,495,522
504,526,488,522
501,527,482,515
507,510,491,515
512,504,497,507
520,488,512,504
526,469,533,505
521,473,543,502
516,457,551,503
507,487,546,502
492,518,539,504
488,544,538,504
494,546,529,505
504,524,517,506
518,498,508,510
519,501,501,514
520,490,492,515
518,486,481,515
505,514,480,525
509,519,486,519
517,475,497,520
521,496,507,514
526,482,529,514
524,474,546,512
517,492,554,508
512,486,556,509
503,504,548,506
500,546,539,507
497,539,529,509
506,518,523,510
511,513,513,513
523,496,505,514
521,498,498,516
519,498,491,516
511,510,484,519
504,521,486,520
503,519,492,518
509,507,500,517
515,494,511,516
529,454,526,511
530,484,540,505
517,488,550,508
505,512,547,506
492,548,538,510
498,525,539,510
504,507,530,506
503,496,518,506
514,493,507,509
518,491,500,509
516,499,486,513
514,503,482,521
494,557,474,520
498,556,482,520
496,557,489,519
501,539,506,518
521,446,521,517
530,450,545,514
532,508,554,511
527,516,554,509
512,495,546,505
502,527,537,499
502,515,525,501
508,508,518,503
508,512,505,502
517,490,502,507
519,490,497,510
517,484,492,519
509,488,491,527
500,499,498,531
501,516,495,529
506,530,499,518
512,516,507,511
534,468,521,502
538,481,536,500
535,500,544,501
520,500,540,494
500,532,531,496
487,534,524,494
485,519,524,503
486,514,517,506
501,498,509,509
520,495,507,513
530,509,495,517
522,510,487,517
512,524,482,520
511,526,481,514
510,515,488,513
513,499,494,510
515,493,512,511
526,466,527,508
527,474,538,504
522,471,542,505
514,494,539,507
497,526,532,505
496,516,532,503
497,537,524,504
503,515,515,507
515,487,511,516
516,491,504,519
520,502,498,524
512,505,491,526
499,518,483,523
502,505,483,519
506,489,487,514
517,495,503,516
523,499,515,514
527,491,532,512
519,502,541,506
514,489,548,510
507,485,539,511
492,529,533,507
501,508,528,511
503,514,528,513
503,544,515,512
513,553,504,511
511,550,494,517
512,489,490,522
503,495,492,526
494,493,488,522
495,502,485,512
504,510,490,508
513,516,503,504
528,458,531,509
540,451,537,510
537,468,541,504
527,473,541,502
511,496,533,509
500,509,521,506
500,536,518,512
495,533,518,515
508,501,516,519
509,503,519,527
509,499,504,524
513,503,499,517
497,562,480,511
495,551,475,506
504,544,470,505
501,554,485,510
502,526,502,510
516,472,523,513
518,460,534,515
514,493,540,516
507,522,541,519
508,528,528,517
505,505,527,515
497,497,522,508
502,521,506,500
514,479,495,495
520,505,479,500
518,503,476,508
518,502,469,519
507,521,473,524
511,518,482,523
512,516,488,515
517,505,510,522
525,480,530,527
537,466,533,509
532,464,527,497
533,465,529,493
516,514,522,488
503,515,523,491
499,524,515,489
504,518,504,487
511,516,492,495
516,490,492,506
517,496,485,507
516,507,482,513
508,511,471,515
490,543,468,517
499,464,476,519
502,481,488,520
504,520,503,528
518,480,520,528
527,475,539,530
522,510,549,529
522,555,549,528
502,587,548,524
501,548,543,526
493,520,531,516
494,490,516,506
506,473,499,498
522,445,482,486
529,484,472,487
525,474,471,494
513,474,471,504
512,491,470,510
517,489,477,508
518,491,487,508
520,497,497,512
530,479,515,512
528,504,536,510
523,504,540,508
508,523,544,503
495,523,538,505
486,550,520,499
485,543,507,493
497,532,495,496
520,440,489,504
513,476,486,521
512,498,481,524
513,529,480,525
505,528,473,526
510,454,470,528
520,519,483,538
527,521,510,542
529,485,537,536
528,499,544,535
525,510,554,530
515,531,572,528
504,546,560,514
492,529,522,494
495,502,496,474
502,483,492,472
508,483,488,480
516,489,471,492
517,503,480,496
517,532,486,506
508,539,467,509
503,533,454,502
497,538,466,500
513,518,477,509
525,487,484,512
539,467,504,505
536,469,524,508
520,495,534,507
509,509,548,522
484,527,544,521
500,499,532,516
492,549,497,511
496,573,481,504
493,628,491,519
510,519,497,529
522,453,532,549
511,499,530,552
506,499,500,538
505,534,476,515
511,498,463,497
525,452,465,486
536,425,477,490
538,401,501,497
529,475,518,497
515,543,523,498
511,550,536,503
503,494,525,505
494,516,519,508
505,480,516,503
523,482,508,510
531,494,501,505
520,496,488,505
506,506,477,502
504,508,466,500
495,548,469,500
502,544,477,500
512,537,474,496
510,525,480,489
529,489,498,487
541,469,514,489
523,463,529,497
501,509,539,519
480,558,545,527
472,572,546,527
501,484,541,525
528,456,513,523
531,513,502,523
531,484,499,518
523,473,478,513
520,476,486,518
513,456,491,531
514,420,484,524
512,471,458,501
501,527,464,501
509,589,495,511
525,514,523,511
525,472,538,511
516,485,542,509
518,497,543,503
504,506,536,505
493,526,533,512
482,549,519,508
476,603,503,505
480,599,498,509
515,532,495,512
518,525,499,521
519,532,493,518
512,475,477,513
510,554,477,512
513,513,482,516
525,462,487,514
531,484,505,515
523,496,521,515
533,446,534,513
535,471,556,512
512,519,540,506
493,531,532,506
498,468,525,502
502,485,507,496
497,542,503,500
498,572,507,509
516,499,506,520
534,455,498,524
532,459,477,510
509,508,466,503
502,483,465,499
507,466,476,501
521,512,488,502
525,496,507,505
519,514,525,503
529,494,538,507
547,475,538,511
508,528,532,519
481,584,531,516
468,632,538,513
480,633,535,519
499,605,528,523
512,419,511,516
505,357,481,507
503,413,477,503
503,417,476,507
508,542,478,508
544,618,483,508
511,676,491,505
481,660,497,500
516,421,514,501
526,417,527,497
538,443,540,494
541,527,536,496
517,407,530,497
516,530,522,496
516,485,515,494
516,370,511,498
534,346,509,502
488,502,507,514
477,718,495,523
482,620,499,532
514,455,494,529
536,482,484,524
523,568,492,518
506,612,500,508
496,608,503,494
508,485,512,485
515,454,527,488
525,445,532,498
534,455,532,506
540,481,532,514
520,459,533,514
508,440,536,519
492,584,538,530
503,517,527,531
508,486,507,524
532,421,485,514
536,471,479,516
535,521,481,516
551,442,479,512
522,504,477,506
498,608,491,513
493,578,508,510
523,440,527,502
539,384,540,500
536,529,553,500
523,523,538,496
477,569,517,501
479,498,510,495
498,496,505,496
501,532,500,499
507,437,496,503
519,468,491,504
488,490,485,509
475,498,483,509
440,597,482,511
515,586,490,511
579,639,495,512
557,424,517,514
543,405,536,517
523,482,542,510
538,397,542,496
530,426,534,498
512,461,531,498
541,543,528,501
529,599,526,501
487,596,520,510
475,587,515,511
485,544,517,520
476,525,516,528
501,337,504,538
532,458,493,534
515,486,501,534
488,601,511,527
497,647,512,513
506,544,509,494
557,362,513,489
537,472,526,489
525,477,531,491
518,457,529,488
496,464,529,499
462,563,531,506
466,608,526,504
494,580,518,511
537,490,518,514
555,573,505,514
543,496,495,513
521,468,486,507
506,448,484,505
517,429,490,507
517,413,497,514
515,409,509,521
534,388,530,520
530,458,551,519
522,480,549,511
517,675,554,507
510,567,543,508
487,522,530,507
501,499,520,503
516,491,513,501
512,520,504,500
504,497,500,502
496,465,490,507
507,518,490,512
510,501,482,515
472,567,480,514
497,526,491,511
531,571,503,515
549,531,514,513
557,571,524,502
525,533,534,498
493,549,544,501
455,568,542,505
461,552,544,512
501,448,536,508
540,259,533,509
535,463,521,506
531,558,513,508
517,490,517,519
526,435,511,525
512,516,501,526
498,584,485,524
499,566,477,513
514,466,485,508
530,429,496,510
552,480,510,513
541,424,521,505
515,496,530,503
503,478,539,500
486,472,536,505
464,523,534,502
478,588,527,495
498,621,519,494
539,569,507,488
538,593,499,488
544,360,490,490
543,359,477,492
526,466,471,502
491,578,473,509
500,579,478,517
506,543,499,533
508,516,515,543
538,476,533,546
531,469,549,535
523,457,547,520
512,435,538,502
508,497,523,487
468,633,519,481
455,649,524,491
489,656,520,504
481,473,514,512
473,385,496,507
472,399,490,508
512,400,483,513
567,457,471,504
595,465,472,508
542,414,481,515
524,497,492,515
518,613,507,512
524,589,528,509
536,554,538,507
530,563,541,506
530,466,540,506
500,500,535,502
472,520,537,513
493,485,533,512
496,517,522,506
498,494,513,506
509,522,507,511
518,592,506,524
571,303,494,527
539,471,487,525
529,492,490,516
503,503,497,515
508,538,500,509
526,490,509,505
525,520,519,504
525,468,521,503
525,512,527,496
500,561,528,490
488,538,529,492
490,530,526,493
486,543,526,491
489,565,514,491
484,584,492,485
508,539,482,488
541,377,478,503
512,458,475,514
490,547,482,528
487,552,491,532
524,522,501,534
547,407,502,529
540,361,512,521
521,400,525,512
520,448,533,509
511,464,532,496
471,584,524,492
476,643,522,497
518,662,521,498
538,476,516,508
541,291,507,518
537,422,504,522
528,488,502,526
513,531,490,522
505,518,486,525
493,508,483,533
507,532,480,523
504,526,480,502
497,574,490,494
520,472,509,488
521,501,522,487
519,538,531,491
537,461,531,497
526,458,525,504
517,421,520,499
487,476,521,502
492,500,513,509
512,503,510,517
514,481,503,518
499,498,493,516
495,464,483,517
466,567,476,523
468,627,476,528
501,646,487,522
542,496,488,521
557,509,508,519
534,510,531,519
510,567,534,512
508,499,548,512
511,512,541,509
502,474,526,504
510,523,525,495
505,527,507,481
506,465,491,481
513,450,503,501
497,525,491,515
492,568,480,525
464,610,472,526
510,421,469,520
507,505,474,516
527,524,478,513
555,467,494,516
562,458,519,515
550,465,534,513
530,453,538,517
510,466,533,506
485,510,530,503
502,453,537,504
506,491,520,500
493,473,511,502
506,509,501,503
515,548,496,506
516,589,492,511
510,478,479,518
499,494,472,524
504,565,469,520
520,548,478,516
531,525,488,515
529,520,502,513
531,507,527,510
533,512,534,510
516,528,543,509
495,519,546,511
482,477,535,512
490,375,530,514
470,384,533,520
468,507,531,522
479,578,526,529
534,563,527,530
560,572,493,519
540,549,466,504
530,502,455,502
521,496,461,510
510,521,479,512
533,494,486,511
526,482,502,504
525,489,518,500
517,525,530,497
505,616,530,500
504,534,527,498
517,423,530,507
484,453,532,512
480,551,530,512
499,563,521,518
539,357,519,524
543,479,515,523
509,509,501,516
490,600,483,519
510,502,480,522
507,519,481,521
533,333,486,514
537,431,490,502
509,524,495,486
506,535,501,482
500,548,513,488
504,503,526,505
511,553,528,513
499,591,522,508
512,463,520,503
498,457,510,506
503,524,502,508
505,506,501,512
537,470,495,521
540,462,487,529
513,501,489,529
490,563,485,528
489,570,476,525
499,533,480,518
507,496,493,507
529,479,508,501
506,449,522,498
502,428,532,510
518,493,536,508
488,570,530,504
497,571,523,501
505,478,518,505
515,519,513,506
510,577,501,511
518,523,496,512
539,391,484,516
531,433,477,528
523,532,477,537
503,513,483,535
517,526,492,539
524,527,502,526
524,504,519,525
532,504,546,525
529,505,551,521
509,456,541,514
481,551,529,507
480,510,521,498
486,571,512,496
480,596,501,498
493,588,492,504
524,514,491,505
516,455,479,499
531,404,465,496
509,403,462,507
510,503,464,512
547,489,473,516
535,489,483,518
538,478,495,520
537,486,519,516
535,512,531,518
533,496,536,513
508,556,533,510
459,590,526,499
442,566,529,505
469,435,526,508
495,450,519,513
535,543,506,515
521,564,500,516
513,602,495,521
550,570,485,529
518,646,473,529
526,514,475,529
531,347,479,528
533,445,489,524
523,513,503,516
529,464,522,514
528,438,528,512
515,469,538,509
491,523,543,511
482,473,543,513
494,429,536,509
517,435,521,507
522,541,505,503
516,537,502,512
516,582,492,515
512,580,489,522
518,452,483,527
505,507,470,524
493,552,467,512
476,547,472,510
476,517,476,509
503,473,495,504
533,496,515,508
548,607,527,502
542,445,537,506
511,502,537,520
484,548,533,519
493,462,529,514
503,446,524,516
498,459,516,515
503,402,517,516
509,451,489,517
508,496,474,519
535,569,467,512
521,599,460,510
499,568,466,507
499,519,476,507
522,462,490,507
540,500,509,501
529,471,520,497
525,466,531,500
530,424,532,506
516,517,534,514
508,525,527,515
495,526,526,514
516,513,514,518
524,546,503,513
517,550,491,510
516,506,482,511
509,503,473,511
498,548,470,520
497,520,473,523
517,487,482,522
521,468,490,518
509,484,499,516
518,503,523,514
524,480,532,505
506,481,537,504
524,500,535,499
496,517,523,500
506,531,518,497
524,507,512,495
499,492,509,501
496,466,498,513
492,500,499,527
488,507,491,536
522,486,482,538
510,549,480,538
499,556,478,537
497,535,483,523
498,505,494,519
515,482,515,521
551,463,536,516
545,483,546,519
539,490,545,513
517,476,528,507
498,489,522,507
504,498,518,501
505,487,505,496
514,461,496,502
503,478,491,504
492,492,486,514
484,518,477,518
482,570,474,523
528,569,474,524
545,496,488,529
532,510,498,527
520,527,507,519
525,541,515,510
520,550,521,508
518,502,524,511
525,388,523,506
502,496,525,503
501,521,523,497
503,525,520,507
500,541,517,517
509,589,506,511
511,570,491,511
513,477,479,512
502,430,473,513
495,445,470,515
495,482,476,518
501,474,481,520
522,517,483,512
530,529,490,501
527,488,507,497
528,514,525,501
525,525,534,506
514,541,530,505
506,493,529,507
502,468,527,508
493,486,518,504
495,531,508,510
507,452,503,512
524,412,500,517
515,447,489,516
491,529,485,518
483,601,473,513
503,512,469,509
534,531,474,513
519,537,482,515
521,518,505,512
527,505,522,516
522,445,540,519
512,458,546,526
504,431,539,520
496,459,533,513
506,513,527,507
499,589,524,512
523,572,512,512
522,528,501,512
497,564,490,523
501,548,487,528
509,499,486,529
495,503,472,522
496,527,469,513
487,529,467,503
509,553,481,502
530,496,500,500
504,463,525,505
488,465,535,514
494,474,543,517
499,555,540,514
552,503,537,512
551,522,532,517
527,514,532,516
525,509,494,498
525,489,464,491
524,500,461,501
519,500,459,518
500,510,459,517
496,464,465,516
497,494,475,516
498,501,480,509
523,506,499,510
555,457,519,513
550,441,531,515
526,485,539,513
505,509,535,511
491,565,529,505
515,526,523,507
512,538,520,511
505,527,510,510
523,481,501,513
536,447,493,519
520,478,475,515
515,481,470,516
496,479,465,518
486,488,469,521
494,535,478,519
514,528,490,522
535,506,514,519
532,485,531,515
529,478,534,508
517,515,533,503
494,512,527,501
480,532,526,502
478,544,521,506
489,518,513,505
519,496,499,506
527,508,491,506
513,557,480,510
515,526,472,517
514,451,468,517
492,547,464,519
515,509,477,521
513,495,488,523
507,499,494,520
521,464,519,516
523,530,534,513
526,507,538,512
520,501,533,506
510,469,526,501
492,542,526,504
493,529,527,511
494,480,517,511
492,424,509,517
509,415,503,530
519,494,498,538
527,564,473,527
524,564,460,514
490,591,459,508
502,509,464,501
521,486,473,503
553,445,494,506
529,505,512,503
498,524,527,500
507,460,531,500
489,440,530,501
494,489,528,504
483,526,519,504
472,534,518,507
497,555,507,504
539,534,501,513
554,543,493,523
529,479,484,517
504,489,476,521
500,476,470,524
497,482,469,520
505,516,472,507
527,496,484,510
531,507,500,515
521,588,517,505
510,581,530,504
499,526,532,509
494,520,532,511
495,528,528,517
505,528,523,514
532,533,507,507
533,445,498,507
534,419,497,518
514,459,490,522
509,495,477,521
499,578,469,524
482,578,469,525
493,549,477,531
510,506,480,523
526,495,505,524
535,521,523,521
519,476,542,518
517,452,550,519
515,451,549,517
515,507,532,511
503,583,520,507
506,602,510,504
506,492,500,503
516,460,492,504
513,472,492,514
504,465,488,519
505,445,479,522
508,486,475,521
518,508,470,517
508,543,469,509
525,512,480,510
541,475,489,510
526,477,505,505
521,487,522,508
519,496,532,504
503,511,530,503
491,550,523,501
495,567,526,510
489,585,521,519
496,522,512,520
524,425,510,521
529,476,497,520
523,476,487,520
523,453,471,517
508,467,459,511
510,489,461,509
511,492,474,513
492,513,486,515
484,480,503,515
497,437,525,513
497,466,529,508
544,526,531,505
519,561,529,503
480,576,530,505
498,590,522,507
515,557,514,505
516,525,501,502
524,480,493,509
521,524,485,512
511,550,477,517
493,600,467,519
491,601,469,514
523,422,476,517
516,489,483,514
518,483,496,512
520,507,514,512
519,483,530,510
524,446,536,511
513,475,537,503
489,547,535,503
508,564,521,502
504,565,520,506
495,528,510,515
506,445,508,524
518,451,500,515
526,461,491,519
533,448,482,522
517,565,468,522
487,528,471,522
479,506,470,516
462,556,481,515
476,530,496,511
517,520,517,509
537,451,525,508
556,459,534,508
530,520,537,507
514,533,525,505
501,562,522,505
500,548,516,504
506,534,506,509
520,502,493,513
521,528,492,515
523,520,482,514
516,506,465,513
502,501,467,519
487,532,469,519
492,546,475,518
493,579,489,514
513,491,509,509
530,381,527,519
541,364,540,514
548,438,542,510
523,510,535,510
482,538,530,511
471,564,529,508
503,530,532,521
522,506,523,528
541,500,503,524
520,503,491,516
518,493,473,506
512,517,458,507
504,529,457,506
504,526,470,510
513,479,483,519
520,493,492,512
524,497,508,506
518,501,521,502
521,492,532,498
519,482,532,503
502,516,527,508
497,525,525,509
497,529,521,508
505,508,510,509
521,492,497,506
522,482,495,514
516,497,487,520
510,502,484,527
506,523,480,530
503,518,487,531
507,498,490,522
510,477,497,519
515,485,502,517
529,493,529,517
518,487,538,513
504,488,536,506
491,508,524,499
491,495,521,497
492,515,520,499
499,548,513,498
507,565,502,502
513,507,496,504
509,493,482,511
503,511,473,511
517,489,467,516
510,488,464,518
505,528,470,518
494,545,478,518
514,505,491,521
533,502,508,518
521,502,522,508
508,476,531,502
505,487,535,503
501,524,532,504
496,582,525,499
502,487,523,503
511,508,515,505
523,481,504,504
524,550,494,509
519,484,492,513
504,516,477,516
490,553,470,518
477,496,467,520
500,522,474,516
499,490,483,515
520,467,496,512
538,454,510,506
547,474,536,508
522,527,534,510
512,513,537,506
498,524,531,510
498,511,528,504
501,501,521,504
502,489,519,509
500,513,505,513
519,514,495,516
523,520,486,519
522,501,475,520
528,522,460,517
505,525,468,520
500,494,477,518
511,529,485,514
519,516,502,506
512,522,524,524
503,581,529,514
500,558,536,505
500,529,533,500
513,471,529,511
514,526,531,514
504,492,525,509
503,490,513,513
514,476,506,514
515,478,499,523
511,506,487,527
504,504,481,528
503,526,475,532
513,498,476,516
498,500,481,513
505,506,490,518
516,476,505,505
521,435,520,502
537,492,530,500
539,537,526,499
519,514,527,507
509,504,531,516
506,525,535,521
504,501,530,522
513,487,517,522
531,476,502,518
522,493,487,516
516,502,467,507
503,519,458,509
502,527,451,507
508,523,464,509
512,502,473,510
520,496,490,513
528,477,512,519
526,473,526,510
520,478,533,506
511,506,537,507
500,528,536,507
487,547,532,514
497,527,520,504
498,524,505,499
520,458,499,506
523,452,490,513
522,460,482,515
509,530,480,528
507,530,473,521
510,479,474,521
500,528,473,514
503,561,479,508
519,510,497,505
526,466,516,507
521,472,530,509
509,467,535,507
497,502,530,502
491,534,524,502
502,531,523,505
495,511,516,508
503,476,505,510
512,466,496,506
507,479,489,512
503,458,479,517
482,500,473,518
464,524,467,518
517,593,471,517
531,602,477,516
546,508,488,516
545,509,512,513
527,547,524,508
512,578,533,504
515,519,537,506
510,523,532,506
493,533,527,509
481,568,524,508
482,567,517,512
507,506,510,513
538,423,499,519
532,429,488,521
511,483,482,524
506,473,477,528
497,486,470,522
474,512,475,516
482,474,481,515
535,486,493,514
573,449,514,511
546,506,531,514
526,485,539,512
513,549,540,512
501,549,533,511
517,504,526,507
515,552,522,507
510,534,512,504
509,520,513,514
517,504,495,516
518,508,488,521
518,500,476,522
512,520,475,531
507,533,473,527
505,542,476,517
513,486,485,515
523,494,504,509
526,478,518,510
524,482,524,508
524,473,536,506
512,498,534,508
502,498,532,511
503,517,530,509
498,535,525,509
503,527,514,511
517,470,497,512
510,494,490,517
513,488,480,513
514,512,474,519
509,530,475,526
501,524,479,517
503,533,481,516
508,526,479,506
521,504,496,501
530,472,514,502
530,456,529,504
524,467,537,508
510,492,535,516
499,521,527,508
490,531,513,500
499,510,507,503
508,499,500,502
516,477,492,509
512,492,485,516
514,492,476,527
510,516,471,527
504,519,471,524
506,509,476,524
508,520,487,517
517,499,503,522
535,466,524,517
519,467,536,514
506,503,530,506
494,569,534,503
482,553,530,507
474,538,522,503
488,523,515,502
512,514,506,502
515,484,496,508
521,479,486,512
514,478,481,515
506,463,472,523
497,473,469,516
500,471,475,524
511,492,480,525
519,516,493,516
502,509,502,512
513,462,522,513
534,456,532,510
538,515,537,505
508,548,533,503
491,551,530,505
494,526,527,504
509,547,521,508
507,543,511,512
509,530,506,512
518,511,499,516
522,495,487,519
532,442,473,524
514,470,465,519
501,527,469,510
493,543,476,513
505,522,490,512
533,499,510,509
528,520,524,504
524,531,536,506
519,530,538,508
509,523,533,505
505,515,528,500
489,508,523,502
475,517,515,501
481,508,503,512
507,493,498,516
530,496,487,512
528,511,478,519
512,518,468,520
501,517,470,516
496,530,477,520
498,578,485,516
515,515,497,515
529,466,518,511
537,433,533,510
527,466,539,508
519,531,537,507
502,537,528,505
494,527,529,508
491,529,522,506
495,500,514,514
510,495,503,518
513,483,493,514
522,487,484,512
516,502,477,523
507,511,472,523
502,520,473,518
505,515,479,518
514,501,496,520
519,499,507,514
519,494,522,509
521,493,532,506
518,495,539,506
510,505,532,504
504,509,526,503
500,509,522,506
501,512,519,508
507,506,507,511
520,490,499,513
523,493,488,518
517,500,484,521
514,502,475,531
506,521,471,523
505,511,477,519
510,501,481,516
515,498,490,515
527,470,511,513
531,461,527,511
523,473,537,511
521,495,539,507
500,518,532,504
497,499,530,510
494,508,524,508
494,516,513,509
497,569,511,513
500,551,496,512
507,530,488,517
521,480,482,523
523,482,472,523
514,498,469,525
509,526,476,522
513,509,480,518
514,475,496,515
528,439,519,512
529,409,532,510
524,409,541,508
506,423,536,506
478,576,530,511
478,666,526,500
485,631,521,503
492,553,509,506
531,491,500,510
531,486,495,513
519,496,485,518
516,506,480,521
503,547,472,522
507,501,476,524
502,490,482,519
515,551,495,522
528,524,510,516
533,492,531,519
524,495,540,512
513,472,539,511
503,479,533,503
513,471,527,503
505,515,524,503
502,541,517,500
508,529,505,505
515,501,498,508
514,495,491,513
511,508,480,523
510,560,469,518
500,597,468,520
500,580,472,518
504,490,479,516
508,479,490,516
515,455,511,514
531,443,531,512
527,493,539,506
518,500,538,512
506,499,532,507
500,502,527,506
498,511,522,503
513,497,516,509
517,484,506,514
531,409,497,517
527,461,488,516
521,511,480,519
515,525,465,519
516,558,469,524
523,571,475,521
520,521,483,516
511,525,499,511
521,500,520,512
526,483,530,511
513,492,541,510
499,509,538,507
494,533,532,507
492,533,527,503
493,530,519,503
502,520,511,509
510,494,501,513
516,498,493,515
517,495,480,518
516,499,476,523
505,518,468,519
502,515,479,528
503,531,477,518
511,516,491,519
512,506,506,516
522,481,523,513
517,478,536,509
514,477,538,514
507,496,535,515
500,503,530,508
496,519,525,509
497,525,518,507
500,519,507,507
515,497,500,519
517,500,488,517
516,500,480,519
511,511,473,523
501,522,474,524
502,526,475,523
499,526,482,520
513,510,493,521
528,477,513,516
528,469,527,511
529,478,538,511
518,490,538,509
504,511,532,508
502,516,528,508
498,523,523,509
502,506,515,510
510,504,503,511
518,488,498,516
517,496,487,518
515,491,477,521
504,505,472,526
500,505,468,523
500,530,474,521
511,513,483,516
520,522,500,516
533,499,520,512
532,490,533,514
524,488,539,510
512,518,538,510
489,520,533,510
489,520,530,507
491,525,524,505
501,499,511,506
519,491,503,512
525,493,493,517
524,502,483,520
519,497,475,525
498,522,471,522
499,536,469,516
502,536,480,517
513,455,491,518
519,488,507,515
531,483,524,512
528,483,539,514
522,506,541,509
506,515,535,508
505,499,529,506
506,535,520,508
500,541,511,507
496,549,507,510
519,507,500,514
520,496,490,517
522,508,482,522
507,526,472,522
504,551,467,521
508,503,476,522
516,499,481,521
533,509,495,518
539,477,512,516
536,467,529,510
530,486,536,510
521,496,540,511
500,526,535,509
502,518,528,507
503,511,525,509
511,505,514,514
531,514,504,513
545,502,498,515
546,512,487,521
546,491,480,522
532,513,473,526
523,510,471,520
503,523,479,520
504,508,487,520
503,490,503,522
501,478,522,512
500,483,534,517
500,489,542,508
489,508,541,507
482,530,531,511
484,526,530,507
485,526,525,509
491,517,515,514
505,494,506,513
504,495,499,516
505,499,485,521
507,512,478,525
496,524,471,523
499,522,475,522
493,537,482,525
502,514,495,521
516,491,512,519
525,473,529,514
521,479,540,513
513,488,545,514
502,515,542,509
495,518,535,508
493,520,529,511
491,519,523,513
499,511,511,514
511,491,507,519
515,498,496,522
513,500,488,524
508,508,479,527
501,520,475,525
505,519,480,523
504,519,488,522
510,503,500,522
523,483,525,519
525,481,535,516
522,486,546,513
516,493,548,512
506,513,540,514
506,508,536,509
498,520,531,506
501,516,521,512
506,505,514,516
520,493,505,520
520,491,495,527
516,498,487,525
507,520,479,527
509,516,481,527
510,513,487,528
513,505,495,521
518,495,511,518
527,476,528,518
523,479,542,515
520,485,549,511
508,499,548,514
496,521,540,510
493,521,535,513
498,514,533,516
507,503,519,515
517,487,511,517
518,478,504,523
512,489,495,526
515,503,483,526
495,530,477,527
505,545,481,523
500,539,489,526
512,513,501,523
520,516,515,525
521,516,532,515
526,490,543,516
524,454,545,511
502,511,538,513
496,525,534,516
489,532,526,515
503,511,519,509
506,503,509,514
519,484,503,512
517,487,491,524
519,485,484,520
509,510,476,525
501,530,472,529
501,530,478,522
504,510,484,519
511,499,499,516
522,501,517,517
522,508,525,512
521,503,534,511
516,497,532,508
502,502,529,510
493,503,526,511
490,504,515,512
503,505,509,510
512,500,501,519
525,492,495,519
522,511,483,520
519,518,472,521
508,532,469,522
503,532,469,523
513,503,480,522
512,501,484,520
520,487,499,518
531,471,519,515
532,480,531,511
525,486,536,510
516,498,533,510
502,516,529,510
503,516,523,507
512,510,519,508
515,496,508,509
530,485,502,511
537,487,491,524
530,498,484,521
520,505,476,521
502,535,469,521
507,515,479,521
503,517,484,519
515,497,495,518
525,494,510,513
529,486,529,510
529,484,534,511
514,494,543,510
477,515,538,507
476,513,532,508
479,521,523,507
471,524,520,507
484,510,511,514
503,483,500,513
503,491,492,517
501,511,482,520
502,519,476,519
498,524,482,521
501,520,488,521
501,516,487,519
510,497,500,517
520,480,520,514
520,484,536,511
520,486,544,501
515,493,547,511
500,521,542,508
502,516,536,505
500,519,524,504
503,513,513,508
508,501,510,509
517,492,502,517
517,499,490,518
519,499,483,521
504,518,474,522
505,514,479,519
505,509,481,519
505,501,493,519
517,487,509,515
525,464,527,513
521,479,542,510
519,472,548,509
507,517,545,508
492,567,537,508
489,565,537,508
490,523,526,508
503,498,516,508
513,486,508,508
521,485,500,511
516,496,486,518
512,500,482,523
500,527,477,521
503,513,482,521
504,522,490,520
507,507,500,517
519,487,515,510
524,477,536,509
522,468,548,509
509,465,550,508
498,480,537,503
497,493,530,503
505,477,525,507
508,500,518,508
504,548,510,511
510,522,505,514
517,513,497,513
517,499,490,517
510,519,487,522
507,521,481,520
512,516,486,519
501,538,490,525
510,522,501,517
527,485,523,511
529,483,538,511
522,476,546,507
515,501,545,507
492,537,539,510
500,509,536,509
492,518,529,509
503,507,522,513
506,505,512,518
516,501,502,516
520,491,492,519
516,516,490,525
504,546,487,531
501,527,490,529
503,513,496,527
507,508,503,523
522,484,519,518
529,461,535,513
523,463,541,504
515,480,543,499
505,496,538,495
495,523,527,489
501,522,522,486
495,544,515,491
514,508,509,493
524,488,499,500
522,494,495,503
517,498,488,507
515,509,480,513
501,532,474,514
511,520,477,513
506,527,487,511
514,502,501,512
521,484,513,509
529,474,533,505
523,479,544,505
519,489,545,504
502,510,538,507
498,518,539,504
497,529,534,506
498,520,526,506
507,497,513,510
517,488,508,513
518,496,498,514
514,500,490,520
507,513,484,525
500,529,483,524
513,510,489,519
507,508,496,511
514,504,507,512
525,468,527,512
524,460,542,509
522,492,551,509
520,490,551,506
500,509,534,503
499,503,529,503
495,505,524,505
502,498,518,506
507,480,510,512
518,480,503,512
516,502,497,519
513,525,488,520
502,547,483,522
502,542,482,521
503,526,494,516
511,493,497,515
509,499,512,514
525,481,530,510
523,478,540,507
514,486,548,505
510,486,544,503
502,505,536,503
498,533,532,505
499,524,530,505
500,514,515,512
511,486,504,510
515,473,499,515
518,485,490,518
518,515,484,522
500,554,478,524
507,537,484,526
503,532,495,522
515,503,511,523
524,483,528,519
527,475,542,513
523,476,545,508
520,490,549,505
500,523,537,502
498,526,535,504
493,520,529,499
494,507,521,503
505,491,511,508
521,488,506,508
517,505,495,511
515,509,491,519
512,513,482,521
500,524,481,523
507,514,489,519
507,516,496,518
512,503,507,518
526,480,524,510
523,478,537,509
520,482,542,504
512,494,545,505
499,514,538,505
502,511,533,504
496,511,528,505
498,503,518,508
507,495,510,506
517,497,502,515
517,505,494,517
516,508,486,520
499,536,480,524
498,528,481,520
510,514,487,517
513,500,497,516
519,500,513,512
526,480,531,511
521,492,541,508
518,482,545,507
510,470,541,508
493,507,536,506
497,504,532,505
490,509,525,506
500,505,517,510
510,498,507,514
519,493,501,515
515,520,491,518
512,537,485,517
502,559,479,517
513,493,480,518
504,518,487,517
514,514,502,513
522,483,521,514
525,471,536,511
522,484,546,508
516,484,544,507
502,506,542,503
500,512,537,502
501,513,530,505
501,515,522,506
511,509,514,509
521,491,509,517
521,495,499,518
514,496,489,528
510,508,481,526
501,513,481,527
507,505,484,519
506,511,494,514
509,498,509,509
524,481,527,508
524,477,537,505
524,485,544,507
520,502,546,505
499,525,539,510
503,522,533,509
502,519,525,513
505,522,520,514
510,511,513,520
517,489,508,519
516,488,503,525
519,486,500,525
505,510,494,520
498,535,487,515
506,508,484,511
515,502,489,507
516,489,507,506
530,484,529,501
525,496,541,503
518,500,544,502
506,524,543,503
492,535,541,503
499,525,530,502
494,534,523,502
506,514,514,501
513,496,506,508
521,485,497,510
518,496,487,512
512,509,475,517
498,528,476,520
511,499,482,518
511,501,490,514
517,483,501,514
527,469,519,512
527,469,537,509
526,464,544,506
525,471,549,509
503,515,541,508
500,522,537,503
497,525,529,504
495,546,528,508
501,542,513,505
518,510,505,511
518,502,496,520
517,504,488,518
508,520,480,520
499,533,478,521
517,510,487,519
511,512,493,518
516,507,506,514
525,484,529,509
524,484,538,510
521,491,549,508
514,497,549,508
503,516,543,506
505,513,538,509
501,518,532,505
505,517,521,507
513,495,516,512
523,486,503,510
517,489,492,522
518,493,485,519
506,519,476,518
503,537,480,521
505,551,487,517
502,552,497,516
513,518,514,514
530,449,532,510
526,448,542,510
521,460,550,510
509,493,544,508
496,530,537,507
500,514,535,507
500,508,529,510
502,508,517,512
515,489,508,513
518,484,501,513
518,484,492,517
518,501,480,523
515,528,478,522
521,515,483,522
516,508,489,517
520,496,501,513
529,483,521,507
528,481,536,510
520,487,547,505
510,494,548,506
497,515,544,505
493,522,536,505
491,534,533,507
494,527,520,506
498,518,512,510
514,497,507,510
516,506,493,515
513,522,484,517
509,539,477,520
497,539,480,520
509,458,483,518
500,481,493,517
508,479,503,514
522,472,525,517
520,477,539,512
521,487,543,509
518,498,547,509
505,516,538,509
504,519,537,510
499,536,533,512
502,536,529,514
511,513,524,515
519,493,511,515
520,501,490,513
521,501,479,514
505,524,476,518
507,522,482,523
507,517,486,516
514,495,496,514
518,492,513,512
529,489,534,508
525,487,543,509
522,485,549,504
509,513,545,506
499,534,537,504
501,519,531,502
492,534,523,501
494,514,511,506
516,481,504,508
516,481,494,508
511,495,485,517
511,509,478,518
500,542,476,517
510,531,483,520
508,540,489,520
512,527,498,515
529,481,519,512
532,462,539,506
530,447,547,508
520,472,550,507
503,519,547,508
503,519,540,506
501,523,532,507
499,515,522,510
510,504,510,509
519,488,502,514
519,494,494,517
518,495,484,520
511,516,478,522
503,521,480,518
517,513,487,516
511,519,493,516
519,508,510,513
528,487,530,508
525,485,539,504
522,494,547,504
512,503,548,503
497,536,542,503
498,524,535,503
501,496,527,504
504,487,515,504
514,470,506,507
521,456,498,509
523,488,490,512
516,513,480,518
503,541,472,520
502,536,476,519
513,551,482,517
512,537,496,515
514,511,513,515
530,476,533,512
529,483,543,509
517,493,554,510
512,509,548,509
503,519,543,506
506,506,537,503
501,512,530,504
502,503,519,509
518,485,510,511
519,490,497,512
518,500,484,517
517,511,474,518
505,524,472,520
512,509,481,519
505,511,489,519
513,497,503,511
521,489,521,513
523,491,539,507
517,483,551,509
515,488,552,507
501,515,545,504
499,536,538,508
509,537,535,507
501,543,523,508
506,506,513,511
521,453,500,512
516,503,495,517
514,518,483,523
506,518,476,527
499,526,477,527
514,485,480,524
510,516,496,522
514,496,514,522
528,473,536,516
528,467,551,512
525,475,558,509
517,497,555,505
493,533,541,502
499,521,535,498
493,529,524,495
498,517,515,501
510,493,505,503
518,484,497,509
518,492,486,514
516,502,479,516
502,519,475,519
506,514,477,516
508,515,485,517
513,507,501,517
517,492,516,512
528,475,533,515
525,479,546,505
521,486,551,500
508,510,544,509
498,521,540,501
507,512,536,500
504,508,529,505
505,507,513,507
518,504,508,512
519,507,497,506
516,506,485,514
510,522,479,520
502,524,476,518
512,507,481,517
507,515,490,519
514,503,504,515
525,482,524,511
525,472,539,509
522,481,550,505
516,488,553,508
503,515,544,506
502,520,540,506
505,519,536,505
503,537,526,505
510,515,516,506
518,490,506,513
519,485,492,517
515,494,479,519
513,507,477,524
502,533,477,520
514,529,485,519
511,513,492,520
520,499,510,512
528,464,533,510
525,472,544,509
521,483,550,507
511,497,551,505
500,531,544,504
500,553,538,507
500,533,534,506
500,523,522,507
512,502,513,513
521,498,501,512
521,498,491,518
520,498,479,518
505,514,469,518
511,510,477,513
514,504,488,515
520,503,497,518
524,505,513,515
529,485,536,511
527,490,545,506
519,491,548,507
502,513,548,506
487,522,537,504
496,509,532,504
498,517,525,505
509,512,516,508
518,492,506,511
517,498,498,518
515,518,488,520
508,543,476,522
498,571,476,529
503,551,480,516
506,491,486,524
520,423,498,515
529,433,523,510
530,450,536,508
522,474,545,505
517,485,548,505
502,504,546,504
498,501,538,505
503,496,535,505
498,522,524,508
514,515,513,514
519,507,503,514
520,511,493,518
519,513,482,520
508,523,482,526
499,534,477,525
506,520,485,523
511,508,496,522
515,502,511,515
531,482,532,508
528,483,545,508
521,488,549,507
515,501,549,504
495,529,543,507
500,522,537,505
498,521,530,505
505,513,519,508
515,502,508,507
518,484,504,511
520,490,485,514
517,499,475,517
502,521,472,518
508,508,478,519
511,510,487,522
515,515,500,517
523,488,518,515
529,475,535,506
526,472,545,503
520,487,551,504
508,506,543,504
501,523,536,503
502,519,528,502
498,526,524,504
504,515,512,508
518,484,505,507
518,490,500,515
517,507,490,518
511,516,483,519
500,536,481,519
503,523,483,520
512,507,490,517
515,496,504,515
528,479,522,512
527,480,540,508
520,484,550,509
518,494,547,505
499,527,545,506
495,520,539,504
497,517,542,507
497,515,524,507
505,503,514,507
514,488,504,514
518,488,492,517
520,484,481,525
519,504,476,521
509,512,476,521
509,514,485,519
506,520,488,517
511,512,508,511
523,476,531,512
526,472,542,510
520,486,550,507
514,511,550,507
507,516,544,506
499,502,540,509
497,523,532,510
496,523,521,511
507,515,516,514
511,510,503,512
514,520,492,518
517,496,482,519
512,493,473,526
510,513,476,519
514,508,485,517
514,503,493,512
523,496,514,511
531,487,539,510
528,492,550,512
523,494,555,503
509,507,547,503
499,523,541,503
501,517,534,504
493,522,527,505
508,506,518,510
518,481,510,512
524,483,497,510
521,485,487,516
513,506,477,515
495,523,474,520
