CH1,CH2,CH3,CH4
519.0,487.0,557.0,507.0
507.0,508.0,552.0,507.0
494.0,531.0,543.0,508.0
501.0,518.0,541.0,506.0
505.0,508.0,534.0,504.0
505.0,511.0,517.0,508.0
516.0,492.0,509.0,507.0
518.0,493.0,498.0,510.0
516.0,499.0,485.0,511.0
516.0,507.0,474.0,517.0
503.0,527.0,467.0,520.0
504.0,525.0,474.0,516.0
508.0,514.0,481.0,517.0
513.0,507.0,494.0,514.0
524.0,489.0,517.0,508.0
526.0,480.0,541.0,507.0
525.0,483.0,551.0,506.0
518.0,488.0,552.0,505.0
504.0,513.0,548.0,506.0
503.0,513.0,545.0,504.0
505.0,513.0,534.0,506.0
507.0,519.0,527.0,507.0
510.0,509.0,518.0,510.0
518.0,492.0,508.0,513.0
517.0,494.0,495.0,517.0
514.0,488.0,484.0,517.0
506.0,491.0,472.0,521.0
498.0,533.0,470.0,519.0
505.0,530.0,480.0,517.0
517.0,511.0,489.0,513.0
518.0,500.0,502.0,514.0
525.0,482.0,527.0,508.0
527.0,477.0,543.0,505.0
522.0,491.0,553.0,502.0
513.0,501.0,554.0,503.0
497.0,528.0,545.0,508.0
499.0,527.0,542.0,506.0
499.0,518.0,534.0,506.0
500.0,520.0,524.0,507.0
508.0,503.0,513.0,511.0
516.0,500.0,503.0,510.0
514.0,499.0,491.0,513.0
517.0,503.0,476.0,518.0
497.0,531.0,468.0,521.0
504.0,523.0,473.0,519.0
506.0,518.0,480.0,517.0
510.0,513.0,489.0,516.0
519.0,499.0,510.0,514.0
527.0,474.0,533.0,508.0
527.0,480.0,550.0,508.0
521.0,484.0,553.0,506.0
507.0,503.0,550.0,507.0
498.0,515.0,545.0,506.0
502.0,513.0,544.0,507.0
504.0,516.0,533.0,504.0
501.0,528.0,521.0,508.0
519.0,504.0,507.0,508.0
519.0,496.0,497.0,511.0
516.0,492.0,486.0,514.0
516.0,495.0,472.0,518.0
501.0,516.0,466.0,522.0
500.0,526.0,479.0,520.0
503.0,539.0,478.0,516.0
519.0,518.0,496.0,516.0
526.0,499.0,519.0,511.0
533.0,475.0,538.0,510.0
528.0,457.0,547.0,506.0
519.0,463.0,554.0,507.0
500.0,509.0,547.0,506.0
498.0,503.0,542.0,507.0
506.0,516.0,540.0,507.0
508.0,519.0,535.0,509.0
510.0,521.0,511.0,510.0
519.0,501.0,506.0,512.0
519.0,504.0,490.0,515.0
519.0,507.0,482.0,515.0
506.0,521.0,471.0,520.0
490.0,536.0,468.0,520.0
499.0,523.0,474.0,518.0
510.0,513.0,485.0,516.0
511.0,508.0,504.0,515.0
525.0,489.0,526.0,508.0
523.0,482.0,549.0,508.0
518.0,489.0,551.0,506.0
508.0,499.0,554.0,507.0
492.0,524.0,548.0,507.0
498.0,529.0,542.0,506.0
495.0,523.0,533.0,507.0
500.0,511.0,522.0,504.0
512.0,494.0,514.0,508.0
522.0,486.0,502.0,511.0
514.0,488.0,490.0,517.0
513.0,498.0,479.0,518.0
503.0,521.0,470.0,517.0
496.0,530.0,472.0,520.0
503.0,528.0,479.0,522.0
509.0,514.0,485.0,518.0
519.0,499.0,506.0,514.0
526.0,473.0,532.0,514.0
525.0,479.0,545.0,509.0
521.0,487.0,556.0,507.0
508.0,512.0,553.0,506.0
492.0,530.0,542.0,508.0
495.0,526.0,539.0,506.0
502.0,518.0,534.0,505.0
503.0,511.0,519.0,510.0
512.0,481.0,509.0,512.0
514.0,487.0,499.0,516.0
514.0,495.0,490.0,519.0
520.0,497.0,478.0,521.0
504.0,518.0,472.0,519.0
506.0,518.0,471.0,518.0
509.0,507.0,482.0,517.0
516.0,498.0,497.0,513.0
524.0,491.0,521.0,512.0
527.0,477.0,545.0,511.0
524.0,478.0,552.0,510.0
518.0,488.0,555.0,508.0
503.0,516.0,551.0,506.0
494.0,524.0,546.0,507.0
502.0,510.0,541.0,507.0
502.0,506.0,532.0,506.0
508.0,504.0,517.0,506.0
519.0,491.0,506.0,511.0
517.0,494.0,494.0,514.0
516.0,499.0,482.0,518.0
513.0,509.0,473.0,521.0
505.0,521.0,472.0,520.0
510.0,515.0,474.0,516.0
516.0,508.0,487.0,515.0
514.0,506.0,500.0,510.0
524.0,480.0,527.0,510.0
525.0,473.0,545.0,507.0
521.0,479.0,555.0,507.0
513.0,493.0,552.0,506.0
500.0,519.0,548.0,505.0
498.0,518.0,543.0,506.0
501.0,510.0,540.0,506.0
504.0,510.0,523.0,507.0
512.0,501.0,512.0,509.0
515.0,492.0,502.0,511.0
519.0,497.0,488.0,513.0
517.0,494.0,478.0,517.0
505.0,518.0,470.0,520.0
507.0,509.0,474.0,518.0
516.0,498.0,482.0,514.0
516.0,503.0,492.0,518.0
516.0,510.0,511.0,510.0
524.0,482.0,536.0,510.0
522.0,480.0,549.0,507.0
518.0,488.0,555.0,508.0
508.0,514.0,554.0,505.0
495.0,533.0,547.0,506.0
500.0,527.0,543.0,507.0
504.0,517.0,535.0,509.0
504.0,519.0,520.0,515.0
511.0,498.0,509.0,511.0
518.0,503.0,499.0,511.0
515.0,508.0,487.0,514.0
514.0,510.0,473.0,519.0
499.0,532.0,468.0,529.0
497.0,536.0,475.0,521.0
510.0,513.0,484.0,516.0
515.0,501.0,498.0,517.0
523.0,485.0,519.0,514.0
529.0,483.0,542.0,508.0
521.0,491.0,554.0,513.0
518.0,491.0,557.0,509.0
503.0,519.0,553.0,509.0
489.0,524.0,545.0,509.0
496.0,501.0,538.0,504.0
498.0,503.0,530.0,504.0
507.0,505.0,515.0,510.0
522.0,475.0,508.0,510.0
516.0,486.0,496.0,513.0
516.0,506.0,484.0,516.0
514.0,522.0,473.0,520.0
504.0,531.0,469.0,518.0
509.0,516.0,479.0,517.0
511.0,519.0,488.0,514.0
513.0,510.0,503.0,515.0
525.0,480.0,527.0,510.0
525.0,482.0,543.0,505.0
522.0,486.0,555.0,507.0
516.0,499.0,554.0,506.0
505.0,518.0,548.0,508.0
504.0,518.0,544.0,505.0
507.0,504.0,538.0,507.0
497.0,511.0,523.0,505.0
504.0,496.0,513.0,509.0
518.0,491.0,501.0,511.0
517.0,493.0,493.0,513.0
520.0,497.0,480.0,517.0
506.0,520.0,474.0,518.0
507.0,515.0,475.0,520.0
505.0,523.0,481.0,515.0
509.0,515.0,490.0,518.0
514.0,506.0,510.0,516.0
527.0,472.0,534.0,514.0
525.0,481.0,549.0,504.0
518.0,490.0,557.0,505.0
511.0,506.0,553.0,503.0
495.0,524.0,546.0,507.0
501.0,524.0,542.0,505.0
496.0,527.0,532.0,508.0
505.0,500.0,519.0,510.0
518.0,486.0,510.0,507.0
519.0,490.0,499.0,516.0
516.0,497.0,488.0,516.0
517.0,496.0,477.0,515.0
503.0,516.0,469.0,521.0
504.0,520.0,477.0,520.0
519.0,505.0,485.0,518.0
513.0,503.0,496.0,514.0
521.0,493.0,519.0,512.0
527.0,481.0,539.0,508.0
528.0,484.0,554.0,509.0
526.0,491.0,555.0,505.0
514.0,521.0,549.0,507.0
502.0,519.0,545.0,506.0
501.0,514.0,541.0,506.0
503.0,511.0,529.0,507.0
500.0,508.0,520.0,507.0
505.0,489.0,512.0,511.0
511.0,494.0,500.0,515.0
514.0,495.0,490.0,518.0
510.0,505.0,480.0,522.0
502.0,523.0,473.0,519.0
503.0,518.0,482.0,517.0
508.0,512.0,491.0,518.0
515.0,507.0,507.0,513.0
523.0,480.0,530.0,512.0
524.0,480.0,549.0,507.0
521.0,483.0,559.0,505.0
516.0,494.0,559.0,505.0
499.0,520.0,551.0,505.0
494.0,521.0,548.0,505.0
502.0,515.0,540.0,502.0
503.0,517.0,528.0,507.0
511.0,502.0,514.0,509.0
516.0,489.0,508.0,512.0
517.0,494.0,495.0,512.0
517.0,498.0,485.0,524.0
503.0,523.0,477.0,520.0
495.0,533.0,478.0,519.0
509.0,514.0,485.0,520.0
515.0,501.0,497.0,516.0
518.0,498.0,517.0,517.0
528.0,475.0,536.0,508.0
526.0,478.0,553.0,507.0
522.0,484.0,558.0,507.0
509.0,507.0,553.0,505.0
491.0,527.0,547.0,505.0
495.0,520.0,542.0,503.0
497.0,514.0,533.0,506.0
502.0,501.0,521.0,503.0
517.0,477.0,513.0,507.0
517.0,482.0,503.0,512.0
518.0,489.0,492.0,516.0
519.0,496.0,479.0,516.0
504.0,526.0,473.0,521.0
501.0,544.0,478.0,517.0
515.0,524.0,488.0,517.0
513.0,518.0,498.0,517.0
523.0,502.0,518.0,514.0
528.0,488.0,541.0,508.0
522.0,487.0,554.0,507.0
517.0,494.0,554.0,506.0
504.0,515.0,551.0,506.0
495.0,523.0,542.0,506.0
499.0,512.0,544.0,508.0
505.0,500.0,534.0,509.0
510.0,504.0,519.0,512.0
517.0,493.0,508.0,512.0
517.0,497.0,498.0,513.0
512.0,503.0,486.0,515.0
508.0,515.0,477.0,518.0
500.0,528.0,475.0,518.0
503.0,522.0,482.0,517.0
517.0,499.0,491.0,514.0
513.0,501.0,506.0,514.0
524.0,479.0,530.0,510.0
526.0,479.0,545.0,509.0
522.0,483.0,556.0,505.0
513.0,496.0,557.0,508.0
504.0,514.0,551.0,502.0
500.0,518.0,542.0,505.0
498.0,516.0,544.0,506.0
499.0,516.0,530.0,507.0
507.0,503.0,518.0,508.0
517.0,489.0,508.0,512.0
518.0,492.0,499.0,514.0
513.0,498.0,488.0,520.0
504.0,518.0,477.0,518.0
503.0,520.0,479.0,518.0
508.0,516.0,486.0,519.0
512.0,507.0,498.0,518.0
517.0,497.0,515.0,514.0
527.0,477.0,538.0,511.0
525.0,481.0,550.0,511.0
526.0,484.0,556.0,507.0
513.0,500.0,555.0,506.0
500.0,521.0,546.0,507.0
500.0,522.0,541.0,506.0
499.0,512.0,535.0,505.0
496.0,516.0,521.0,508.0
511.0,505.0,513.0,508.0
515.0,497.0,504.0,512.0
515.0,502.0,490.0,516.0
513.0,520.0,483.0,519.0
497.0,534.0,476.0,521.0
503.0,493.0,487.0,520.0
508.0,502.0,487.0,519.0
511.0,510.0,500.0,515.0
520.0,493.0,521.0,513.0
527.0,476.0,542.0,510.0
526.0,482.0,555.0,507.0
525.0,489.0,557.0,504.0
510.0,514.0,547.0,507.0
501.0,522.0,543.0,506.0
505.0,520.0,538.0,506.0
505.0,515.0,528.0,505.0
506.0,506.0,519.0,509.0
514.0,493.0,508.0,509.0
508.0,494.0,497.0,512.0
511.0,495.0,483.0,517.0
508.0,503.0,483.0,521.0
500.0,520.0,470.0,518.0
504.0,510.0,478.0,518.0
511.0,494.0,489.0,518.0
514.0,495.0,501.0,516.0
529.0,478.0,526.0,510.0
526.0,484.0,541.0,509.0
524.0,492.0,550.0,506.0
519.0,498.0,551.0,505.0
505.0,515.0,546.0,508.0
502.0,525.0,537.0,507.0
496.0,529.0,529.0,507.0
500.0,519.0,519.0,507.0
508.0,508.0,511.0,508.0
520.0,492.0,502.0,510.0
518.0,497.0,489.0,514.0
516.0,500.0,478.0,519.0
510.0,517.0,471.0,518.0
501.0,529.0,471.0,521.0
505.0,517.0,479.0,517.0
514.0,508.0,488.0,515.0
518.0,501.0,507.0,514.0
529.0,471.0,531.0,512.0
527.0,472.0,544.0,507.0
522.0,469.0,551.0,505.0
519.0,482.0,546.0,507.0
498.0,513.0,540.0,505.0
494.0,531.0,536.0,505.0
500.0,543.0,526.0,505.0
505.0,536.0,513.0,507.0
519.0,507.0,509.0,510.0
520.0,500.0,498.0,511.0
521.0,492.0,486.0,518.0
518.0,502.0,477.0,520.0
496.0,532.0,470.0,521.0
497.0,528.0,472.0,520.0
514.0,505.0,483.0,519.0
518.0,500.0,495.0,515.0
527.0,488.0,516.0,510.0
535.0,477.0,537.0,509.0
530.0,482.0,548.0,503.0
523.0,493.0,550.0,505.0
507.0,519.0,546.0,508.0
500.0,528.0,541.0,506.0
506.0,515.0,537.0,508.0
507.0,509.0,528.0,507.0
508.0,507.0,515.0,510.0
520.0,494.0,506.0,508.0
516.0,498.0,491.0,514.0
519.0,497.0,482.0,517.0
513.0,509.0,474.0,518.0
509.0,515.0,471.0,520.0
507.0,519.0,478.0,518.0
515.0,513.0,484.0,516.0
514.0,509.0,499.0,512.0
528.0,484.0,528.0,511.0
527.0,480.0,539.0,507.0
525.0,483.0,549.0,506.0
519.0,491.0,551.0,507.0
500.0,518.0,542.0,506.0
494.0,522.0,539.0,504.0
500.0,510.0,534.0,505.0
500.0,522.0,522.0,506.0
504.0,521.0,511.0,511.0
517.0,501.0,503.0,510.0
520.0,500.0,491.0,514.0
518.0,495.0,481.0,517.0
510.0,505.0,471.0,519.0
502.0,518.0,474.0,520.0
506.0,503.0,479.0,516.0
522.0,488.0,492.0,512.0
524.0,499.0,507.0,515.0
528.0,487.0,530.0,518.0
528.0,484.0,544.0,506.0
524.0,486.0,553.0,504.0
512.0,514.0,550.0,507.0
509.0,521.0,543.0,503.0
504.0,520.0,536.0,506.0
505.0,522.0,531.0,507.0
507.0,516.0,519.0,508.0
516.0,497.0,511.0,510.0
520.0,491.0,498.0,511.0
514.0,494.0,486.0,516.0
506.0,503.0,474.0,519.0
497.0,528.0,471.0,518.0
503.0,517.0,476.0,521.0
500.0,518.0,483.0,520.0
506.0,513.0,492.0,515.0
517.0,497.0,515.0,509.0
528.0,475.0,537.0,506.0
525.0,477.0,548.0,506.0
523.0,488.0,553.0,506.0
508.0,511.0,547.0,507.0
497.0,527.0,540.0,502.0
498.0,522.0,535.0,507.0
498.0,520.0,527.0,507.0
502.0,513.0,515.0,507.0
513.0,493.0,507.0,510.0
513.0,488.0,494.0,514.0
514.0,494.0,483.0,518.0
510.0,507.0,474.0,520.0
497.0,531.0,467.0,522.0
497.0,534.0,477.0,517.0
508.0,515.0,486.0,516.0
509.0,513.0,501.0,515.0
522.0,484.0,525.0,512.0
524.0,470.0,543.0,508.0
522.0,470.0,556.0,507.0
521.0,476.0,555.0,505.0
503.0,516.0,545.0,505.0
494.0,520.0,542.0,503.0
498.0,523.0,535.0,506.0
499.0,523.0,524.0,507.0
510.0,499.0,514.0,509.0
515.0,480.0,504.0,512.0
516.0,492.0,494.0,515.0
520.0,495.0,481.0,518.0
527.0,442.0,545.0,510.0
515.0,479.0,550.0,508.0
502.0,506.0,544.0,509.0
496.0,518.0,537.0,507.0
499.0,525.0,533.0,506.0
498.0,522.0,523.0,507.0
505.0,507.0,513.0,507.0
516.0,490.0,504.0,510.0
517.0,497.0,499.0,516.0
517.0,501.0,490.0,514.0
508.0,512.0,483.0,520.0
503.0,528.0,478.0,516.0
510.0,511.0,484.0,519.0
511.0,507.0,491.0,515.0
518.0,489.0,502.0,512.0
526.0,477.0,523.0,510.0
524.0,481.0,539.0,506.0
520.0,469.0,545.0,507.0
512.0,511.0,542.0,507.0
497.0,546.0,538.0,504.0
500.0,533.0,539.0,506.0
500.0,522.0,532.0,509.0
504.0,482.0,520.0,510.0
507.0,463.0,510.0,511.0
514.0,476.0,504.0,510.0
513.0,483.0,494.0,514.0
515.0,495.0,487.0,518.0
514.0,528.0,478.0,521.0
508.0,541.0,481.0,520.0
510.0,526.0,493.0,518.0
509.0,516.0,498.0,516.0
514.0,505.0,507.0,514.0
525.0,472.0,530.0,508.0
526.0,471.0,540.0,508.0
519.0,487.0,546.0,512.0
514.0,502.0,545.0,506.0
494.0,533.0,537.0,508.0
496.0,534.0,535.0,509.0
495.0,539.0,528.0,510.0
497.0,532.0,519.0,511.0
510.0,512.0,512.0,519.0
514.0,490.0,507.0,516.0
515.0,468.0,495.0,519.0
515.0,493.0,490.0,521.0
502.0,537.0,481.0,523.0
501.0,536.0,485.0,530.0
504.0,526.0,492.0,526.0
513.0,502.0,497.0,522.0
521.0,477.0,520.0,516.0
528.0,468.0,536.0,512.0
521.0,484.0,546.0,507.0
519.0,493.0,552.0,507.0
508.0,510.0,541.0,504.0
497.0,523.0,530.0,502.0
497.0,519.0,527.0,500.0
502.0,512.0,518.0,500.0
507.0,507.0,510.0,504.0
514.0,490.0,505.0,508.0
519.0,495.0,497.0,508.0
518.0,496.0,491.0,515.0
510.0,505.0,480.0,519.0
502.0,520.0,476.0,518.0
502.0,514.0,485.0,515.0
502.0,511.0,489.0,521.0
510.0,502.0,503.0,514.0
523.0,487.0,524.0,514.0
525.0,484.0,539.0,511.0
523.0,490.0,548.0,509.0
520.0,497.0,545.0,508.0
508.0,521.0,534.0,506.0
501.0,523.0,532.0,507.0
503.0,515.0,532.0,508.0
504.0,501.0,522.0,509.0
510.0,489.0,516.0,511.0
520.0,481.0,510.0,514.0
517.0,486.0,503.0,518.0
518.0,504.0,493.0,521.0
507.0,528.0,486.0,522.0
498.0,535.0,477.0,519.0
499.0,533.0,483.0,517.0
510.0,510.0,501.0,518.0
518.0,508.0,510.0,516.0
530.0,495.0,530.0,512.0
529.0,489.0,543.0,509.0
524.0,490.0,549.0,507.0
517.0,504.0,543.0,501.0
497.0,530.0,535.0,505.0
498.0,526.0,532.0,505.0
496.0,528.0,524.0,507.0
502.0,513.0,519.0,511.0
516.0,490.0,511.0,514.0
523.0,479.0,502.0,516.0
521.0,479.0,495.0,518.0
520.0,495.0,485.0,521.0
510.0,522.0,479.0,521.0
510.0,514.0,480.0,518.0
507.0,519.0,490.0,515.0
507.0,511.0,498.0,516.0
515.0,509.0,517.0,511.0
527.0,497.0,530.0,508.0
524.0,502.0,547.0,509.0
517.0,515.0,547.0,508.0
507.0,515.0,537.0,508.0
497.0,507.0,539.0,506.0
495.0,519.0,537.0,509.0
498.0,527.0,516.0,511.0
503.0,520.0,516.0,514.0
515.0,489.0,516.0,516.0
520.0,494.0,501.0,516.0
518.0,511.0,494.0,520.0
510.0,537.0,483.0,524.0
506.0,540.0,482.0,521.0
509.0,475.0,486.0,521.0
508.0,491.0,495.0,520.0
518.0,461.0,507.0,518.0
533.0,465.0,528.0,517.0
533.0,488.0,542.0,511.0
526.0,481.0,546.0,510.0
520.0,490.0,550.0,508.0
503.0,508.0,539.0,504.0
496.0,513.0,531.0,504.0
494.0,522.0,522.0,503.0
497.0,525.0,518.0,505.0
509.0,506.0,509.0,508.0
521.0,494.0,502.0,512.0
518.0,497.0,495.0,515.0
516.0,493.0,489.0,521.0
510.0,513.0,481.0,521.0
502.0,528.0,479.0,519.0
507.0,503.0,487.0,521.0
511.0,501.0,491.0,516.0
518.0,489.0,506.0,514.0
532.0,469.0,528.0,512.0
530.0,472.0,542.0,512.0
520.0,490.0,549.0,510.0
510.0,501.0,542.0,512.0
498.0,513.0,536.0,507.0
494.0,534.0,531.0,505.0
494.0,545.0,523.0,506.0
494.0,523.0,513.0,506.0
515.0,497.0,504.0,504.0
519.0,483.0,502.0,513.0
526.0,488.0,494.0,518.0
520.0,491.0,481.0,524.0
508.0,523.0,473.0,523.0
502.0,537.0,477.0,524.0
503.0,545.0,485.0,523.0
511.0,525.0,497.0,515.0
521.0,496.0,518.0,513.0
525.0,489.0,542.0,510.0
521.0,508.0,553.0,507.0
514.0,514.0,552.0,502.0
506.0,529.0,538.0,505.0
501.0,523.0,533.0,503.0
501.0,482.0,529.0,511.0
495.0,503.0,519.0,508.0
499.0,517.0,510.0,511.0
513.0,494.0,504.0,516.0
512.0,499.0,496.0,513.0
515.0,483.0,490.0,518.0
516.0,494.0,483.0,525.0
510.0,522.0,477.0,521.0
509.0,518.0,483.0,516.0
506.0,517.0,490.0,516.0
517.0,503.0,507.0,515.0
535.0,482.0,523.0,511.0
531.0,473.0,538.0,506.0
526.0,478.0,542.0,504.0
519.0,492.0,545.0,502.0
500.0,523.0,540.0,504.0
495.0,520.0,538.0,505.0
497.0,522.0,528.0,503.0
498.0,517.0,519.0,506.0
505.0,503.0,513.0,507.0
518.0,480.0,504.0,510.0
523.0,494.0,495.0,514.0
518.0,494.0,485.0,518.0
511.0,518.0,480.0,522.0
501.0,528.0,479.0,521.0
503.0,527.0,486.0,519.0
511.0,512.0,498.0,522.0
518.0,495.0,513.0,522.0
531.0,474.0,533.0,518.0
528.0,482.0,546.0,513.0
519.0,484.0,552.0,508.0
512.0,502.0,546.0,507.0
494.0,527.0,540.0,508.0
499.0,524.0,540.0,506.0
497.0,532.0,531.0,506.0
501.0,520.0,515.0,505.0
511.0,504.0,508.0,506.0
521.0,471.0,502.0,509.0
517.0,479.0,491.0,512.0
514.0,501.0,482.0,514.0
498.0,545.0,476.0,518.0
498.0,553.0,478.0,514.0
501.0,546.0,481.0,513.0
515.0,506.0,500.0,515.0
526.0,463.0,521.0,513.0
528.0,472.0,538.0,509.0
523.0,481.0,540.0,506.0
518.0,483.0,545.0,506.0
504.0,514.0,542.0,510.0
496.0,517.0,532.0,502.0
500.0,500.0,532.0,504.0
497.0,510.0,526.0,507.0
504.0,499.0,517.0,512.0
516.0,482.0,509.0,513.0
513.0,487.0,503.0,516.0
516.0,503.0,492.0,517.0
513.0,525.0,481.0,525.0
504.0,538.0,477.0,518.0
503.0,533.0,484.0,519.0
504.0,520.0,486.0,517.0
517.0,500.0,503.0,513.0
525.0,470.0,519.0,513.0
529.0,461.0,539.0,508.0
522.0,473.0,545.0,509.0
515.0,477.0,543.0,508.0
500.0,474.0,539.0,507.0
499.0,482.0,537.0,508.0
505.0,507.0,533.0,506.0
502.0,527.0,522.0,507.0
503.0,521.0,515.0,514.0
512.0,507.0,504.0,514.0
519.0,503.0,498.0,516.0
515.0,508.0,491.0,522.0
510.0,525.0,479.0,521.0
500.0,517.0,481.0,519.0
511.0,526.0,489.0,517.0
521.0,517.0,498.0,516.0
524.0,501.0,514.0,515.0
528.0,493.0,532.0,512.0
526.0,484.0,543.0,508.0
519.0,484.0,546.0,508.0
512.0,503.0,544.0,508.0
492.0,522.0,538.0,509.0
489.0,528.0,531.0,508.0
489.0,540.0,527.0,507.0
497.0,533.0,519.0,509.0
509.0,490.0,514.0,513.0
518.0,464.0,502.0,521.0
519.0,473.0,495.0,517.0
520.0,487.0,488.0,520.0
510.0,518.0,480.0,521.0
506.0,528.0,481.0,515.0
507.0,525.0,487.0,517.0
514.0,519.0,495.0,518.0
523.0,508.0,510.0,510.0
532.0,483.0,530.0,506.0
523.0,487.0,543.0,505.0
521.0,492.0,558.0,507.0
506.0,517.0,537.0,510.0
493.0,529.0,529.0,507.0
500.0,521.0,531.0,505.0
498.0,520.0,522.0,507.0
499.0,516.0,513.0,517.0
514.0,490.0,508.0,508.0
517.0,492.0,495.0,513.0
514.0,499.0,488.0,517.0
511.0,512.0,479.0,519.0
499.0,529.0,474.0,524.0
503.0,512.0,484.0,519.0
504.0,506.0,496.0,525.0
517.0,494.0,514.0,525.0
526.0,491.0,533.0,518.0
528.0,485.0,544.0,513.0
521.0,491.0,547.0,506.0
520.0,499.0,543.0,496.0
502.0,515.0,536.0,500.0
495.0,512.0,532.0,503.0
494.0,532.0,529.0,506.0
496.0,525.0,517.0,506.0
503.0,518.0,511.0,509.0
511.0,487.0,510.0,515.0
521.0,479.0,497.0,511.0
519.0,504.0,485.0,516.0
515.0,515.0,481.0,518.0
511.0,518.0,479.0,525.0
510.0,496.0,485.0,519.0
512.0,503.0,491.0,516.0
520.0,495.0,505.0,513.0
531.0,471.0,525.0,509.0
527.0,467.0,538.0,512.0
521.0,470.0,548.0,509.0
512.0,484.0,546.0,507.0
497.0,518.0,539.0,506.0
501.0,511.0,539.0,506.0
511.0,510.0,531.0,504.0
509.0,511.0,516.0,502.0
515.0,504.0,503.0,502.0
522.0,501.0,499.0,510.0
518.0,505.0,490.0,512.0
517.0,504.0,483.0,518.0
508.0,526.0,483.0,521.0
505.0,521.0,491.0,518.0
506.0,516.0,485.0,514.0
510.0,506.0,495.0,513.0
517.0,498.0,514.0,511.0
526.0,485.0,532.0,510.0
526.0,486.0,542.0,507.0
521.0,491.0,549.0,505.0
504.0,516.0,542.0,506.0
497.0,530.0,536.0,509.0
498.0,529.0,529.0,509.0
497.0,511.0,527.0,507.0
505.0,498.0,514.0,514.0
516.0,481.0,510.0,512.0
517.0,489.0,501.0,514.0
518.0,497.0,491.0,515.0
514.0,502.0,479.0,519.0
503.0,529.0,477.0,517.0
509.0,527.0,485.0,513.0
509.0,516.0,492.0,514.0
516.0,488.0,505.0,516.0
527.0,460.0,524.0,511.0
525.0,481.0,541.0,512.0
524.0,474.0,546.0,509.0
523.0,502.0,548.0,507.0
505.0,515.0,536.0,509.0
503.0,524.0,537.0,506.0
506.0,528.0,535.0,509.0
497.0,523.0,523.0,510.0
504.0,512.0,514.0,510.0
513.0,493.0,504.0,511.0
519.0,509.0,496.0,511.0
516.0,513.0,486.0,512.0
508.0,511.0,477.0,515.0
499.0,522.0,481.0,521.0
506.0,521.0,491.0,520.0
501.0,524.0,499.0,520.0
510.0,517.0,511.0,517.0
525.0,484.0,530.0,511.0
528.0,468.0,538.0,509.0
526.0,481.0,550.0,508.0
515.0,499.0,546.0,510.0
501.0,540.0,544.0,513.0
497.0,543.0,529.0,506.0
495.0,565.0,529.0,503.0
496.0,543.0,512.0,504.0
515.0,434.0,509.0,506.0
524.0,450.0,500.0,511.0
523.0,483.0,490.0,518.0
518.0,496.0,484.0,522.0
511.0,510.0,482.0,524.0
507.0,527.0,477.0,523.0
499.0,530.0,492.0,523.0
510.0,507.0,498.0,518.0
518.0,491.0,511.0,514.0
527.0,476.0,528.0,508.0
523.0,474.0,540.0,508.0
517.0,477.0,545.0,507.0
505.0,493.0,539.0,514.0
494.0,512.0,532.0,506.0
490.0,504.0,526.0,511.0
491.0,505.0,523.0,503.0
500.0,493.0,514.0,507.0
516.0,472.0,513.0,512.0
521.0,507.0,503.0,515.0
529.0,533.0,496.0,515.0
519.0,525.0,482.0,514.0
507.0,546.0,477.0,519.0
504.0,539.0,483.0,520.0
509.0,526.0,491.0,520.0
513.0,524.0,500.0,516.0
523.0,501.0,523.0,512.0
527.0,479.0,539.0,508.0
522.0,498.0,546.0,505.0
517.0,488.0,548.0,508.0
502.0,518.0,539.0,508.0
494.0,533.0,532.0,508.0
501.0,512.0,527.0,505.0
502.0,500.0,519.0,505.0
511.0,501.0,510.0,509.0
523.0,490.0,505.0,511.0
519.0,494.0,494.0,514.0
514.0,496.0,492.0,519.0
510.0,514.0,482.0,521.0
502.0,528.0,476.0,521.0
501.0,524.0,492.0,522.0
517.0,505.0,493.0,519.0
519.0,502.0,507.0,519.0
526.0,478.0,530.0,514.0
528.0,477.0,544.0,513.0
522.0,485.0,549.0,510.0
509.0,501.0,548.0,508.0
493.0,525.0,538.0,504.0
500.0,516.0,531.0,507.0
501.0,511.0,526.0,510.0
501.0,512.0,517.0,511.0
510.0,500.0,507.0,512.0
519.0,486.0,501.0,514.0
517.0,493.0,492.0,517.0
518.0,504.0,483.0,520.0
504.0,527.0,477.0,519.0
503.0,530.0,482.0,522.0
503.0,532.0,485.0,521.0
510.0,516.0,497.0,520.0
519.0,477.0,510.0,511.0
528.0,463.0,535.0,503.0
523.0,466.0,553.0,504.0
522.0,475.0,544.0,503.0
508.0,520.0,538.0,503.0
496.0,527.0,531.0,504.0
497.0,517.0,530.0,502.0
497.0,534.0,522.0,505.0
503.0,528.0,509.0,509.0
518.0,506.0,506.0,510.0
515.0,506.0,500.0,513.0
519.0,469.0,480.0,509.0
520.0,473.0,479.0,516.0
507.0,498.0,481.0,525.0
510.0,499.0,487.0,521.0
514.0,517.0,493.0,513.0
518.0,500.0,508.0,520.0
525.0,491.0,524.0,510.0
527.0,491.0,534.0,505.0
517.0,482.0,546.0,509.0
514.0,491.0,540.0,502.0
500.0,515.0,533.0,503.0
495.0,512.0,533.0,503.0
499.0,503.0,530.0,503.0
506.0,515.0,522.0,504.0
509.0,514.0,512.0,509.0
517.0,501.0,507.0,511.0
514.0,506.0,498.0,518.0
513.0,508.0,488.0,517.0
509.0,515.0,477.0,520.0
503.0,515.0,481.0,520.0
509.0,498.0,487.0,519.0
503.0,514.0,493.0,514.0
510.0,515.0,506.0,514.0
523.0,486.0,529.0,512.0
525.0,483.0,542.0,510.0
521.0,484.0,548.0,508.0
511.0,525.0,543.0,511.0
498.0,556.0,537.0,507.0
494.0,537.0,533.0,507.0
495.0,560.0,528.0,508.0
514.0,485.0,522.0,508.0
520.0,466.0,519.0,513.0
521.0,496.0,506.0,511.0
516.0,503.0,494.0,525.0
515.0,502.0,488.0,520.0
504.0,514.0,479.0,524.0
502.0,515.0,480.0,522.0
509.0,495.0,493.0,524.0
514.0,485.0,500.0,523.0
519.0,480.0,518.0,518.0
527.0,487.0,534.0,513.0
523.0,491.0,543.0,508.0
519.0,504.0,542.0,504.0
510.0,513.0,547.0,504.0
497.0,532.0,533.0,506.0
499.0,518.0,529.0,502.0
494.0,512.0,517.0,508.0
511.0,504.0,509.0,505.0
518.0,496.0,509.0,506.0
519.0,498.0,499.0,513.0
515.0,501.0,490.0,521.0
515.0,523.0,483.0,525.0
505.0,512.0,479.0,530.0
504.0,497.0,484.0,528.0
509.0,502.0,496.0,528.0
516.0,504.0,512.0,526.0
527.0,487.0,526.0,515.0
525.0,484.0,535.0,509.0
524.0,483.0,544.0,506.0
517.0,485.0,540.0,502.0
501.0,514.0,531.0,501.0
500.0,531.0,529.0,500.0
493.0,534.0,522.0,501.0
497.0,515.0,517.0,503.0
506.0,499.0,506.0,505.0
519.0,489.0,503.0,508.0
519.0,488.0,492.0,513.0
518.0,492.0,488.0,515.0
508.0,525.0,476.0,519.0
502.0,537.0,477.0,520.0
507.0,523.0,485.0,518.0
509.0,516.0,492.0,519.0
511.0,508.0,507.0,518.0
524.0,478.0,523.0,508.0
526.0,483.0,541.0,511.0
517.0,489.0,548.0,508.0
509.0,501.0,543.0,507.0
496.0,526.0,538.0,505.0
496.0,529.0,534.0,506.0
498.0,530.0,525.0,506.0
506.0,517.0,517.0,508.0
522.0,495.0,509.0,509.0
527.0,491.0,502.0,515.0
524.0,490.0,491.0,514.0
521.0,499.0,485.0,520.0
504.0,515.0,481.0,523.0
496.0,532.0,473.0,520.0
505.0,537.0,490.0,520.0
509.0,518.0,502.0,515.0
520.0,486.0,517.0,517.0
524.0,476.0,539.0,512.0
525.0,487.0,543.0,506.0
525.0,486.0,544.0,501.0
509.0,510.0,538.0,501.0
499.0,525.0,530.0,505.0
501.0,523.0,530.0,505.0
499.0,516.0,523.0,504.0
505.0,512.0,511.0,506.0
518.0,487.0,508.0,510.0
518.0,482.0,502.0,514.0
521.0,489.0,492.0,519.0
515.0,498.0,482.0,520.0
501.0,529.0,478.0,522.0
504.0,521.0,483.0,519.0
502.0,522.0,485.0,518.0
513.0,508.0,500.0,516.0
525.0,481.0,516.0,510.0
527.0,468.0,534.0,509.0
522.0,476.0,543.0,510.0
517.0,491.0,542.0,507.0
506.0,524.0,536.0,509.0
497.0,539.0,531.0,509.0
497.0,538.0,528.0,506.0
496.0,531.0,525.0,509.0
509.0,503.0,521.0,513.0
520.0,477.0,511.0,515.0
520.0,470.0,502.0,520.0
523.0,482.0,488.0,518.0
513.0,500.0,482.0,520.0
508.0,521.0,475.0,519.0
510.0,512.0,482.0,517.0
510.0,500.0,494.0,518.0
515.0,495.0,500.0,513.0
524.0,481.0,527.0,508.0
524.0,488.0,539.0,507.0
521.0,486.0,544.0,504.0
517.0,497.0,545.0,502.0
501.0,515.0,536.0,506.0
499.0,532.0,536.0,505.0
493.0,552.0,527.0,507.0
497.0,534.0,514.0,510.0
519.0,508.0,511.0,511.0
519.0,488.0,504.0,518.0
521.0,456.0,489.0,515.0
519.0,495.0,483.0,515.0
506.0,520.0,473.0,524.0
499.0,525.0,476.0,519.0
506.0,511.0,484.0,516.0
514.0,502.0,497.0,515.0
521.0,500.0,516.0,513.0
526.0,497.0,535.0,514.0
524.0,508.0,544.0,505.0
519.0,517.0,545.0,507.0
512.0,486.0,542.0,508.0
499.0,491.0,537.0,504.0
494.0,499.0,532.0,505.0
493.0,514.0,519.0,504.0
498.0,511.0,510.0,506.0
515.0,483.0,507.0,515.0
520.0,485.0,498.0,504.0
518.0,490.0,495.0,517.0
513.0,508.0,487.0,530.0
496.0,523.0,481.0,522.0
512.0,496.0,481.0,517.0
511.0,516.0,485.0,514.0
525.0,497.0,501.0,510.0
529.0,501.0,519.0,514.0
530.0,501.0,535.0,508.0
528.0,492.0,540.0,507.0
525.0,471.0,546.0,508.0
506.0,501.0,536.0,510.0
496.0,522.0,537.0,510.0
504.0,509.0,536.0,511.0
508.0,507.0,527.0,510.0
509.0,516.0,515.0,511.0
516.0,494.0,505.0,512.0
518.0,497.0,495.0,512.0
518.0,502.0,484.0,513.0
513.0,508.0,477.0,517.0
506.0,529.0,477.0,519.0
510.0,516.0,482.0,518.0
503.0,525.0,490.0,519.0
513.0,504.0,506.0,515.0
523.0,481.0,530.0,512.0
521.0,474.0,542.0,510.0
523.0,482.0,549.0,510.0
519.0,492.0,548.0,511.0
500.0,512.0,540.0,510.0
494.0,514.0,533.0,510.0
498.0,504.0,531.0,512.0
501.0,517.0,524.0,517.0
511.0,497.0,518.0,516.0
519.0,493.0,504.0,513.0
517.0,501.0,488.0,514.0
516.0,522.0,480.0,512.0
507.0,525.0,470.0,513.0
505.0,529.0,475.0,512.0
505.0,525.0,488.0,510.0
515.0,513.0,491.0,511.0
524.0,502.0,506.0,510.0
523.0,473.0,529.0,507.0
519.0,471.0,537.0,506.0
515.0,480.0,540.0,510.0
507.0,501.0,539.0,506.0
495.0,518.0,532.0,506.0
491.0,524.0,529.0,503.0
495.0,533.0,526.0,509.0
509.0,513.0,518.0,510.0
519.0,495.0,512.0,510.0
509.0,510.0,501.0,516.0
506.0,531.0,489.0,514.0
501.0,510.0,482.0,520.0
498.0,520.0,474.0,522.0
505.0,528.0,478.0,519.0
513.0,524.0,489.0,518.0
527.0,497.0,500.0,516.0
532.0,472.0,525.0,515.0
535.0,469.0,541.0,511.0
528.0,476.0,547.0,512.0
521.0,491.0,549.0,510.0
510.0,513.0,541.0,502.0
500.0,530.0,536.0,507.0
502.0,536.0,531.0,505.0
500.0,521.0,523.0,507.0
507.0,508.0,505.0,503.0
523.0,483.0,499.0,513.0
519.0,486.0,496.0,518.0
520.0,494.0,484.0,518.0
509.0,511.0,475.0,521.0
506.0,519.0,478.0,520.0
504.0,518.0,482.0,520.0
512.0,499.0,492.0,521.0
519.0,481.0,511.0,519.0
521.0,470.0,530.0,518.0
528.0,484.0,543.0,512.0
527.0,471.0,547.0,508.0
519.0,497.0,543.0,501.0
500.0,526.0,534.0,501.0
496.0,524.0,532.0,502.0
498.0,522.0,526.0,502.0
501.0,513.0,516.0,506.0
513.0,501.0,509.0,511.0
518.0,485.0,501.0,512.0
515.0,483.0,489.0,515.0
512.0,497.0,481.0,515.0
506.0,511.0,478.0,519.0
500.0,539.0,481.0,521.0
505.0,536.0,489.0,520.0
517.0,503.0,497.0,517.0
520.0,520.0,510.0,511.0
526.0,493.0,530.0,505.0
523.0,476.0,540.0,505.0
520.0,456.0,547.0,506.0
508.0,491.0,542.0,504.0
495.0,520.0,537.0,509.0
497.0,525.0,538.0,508.0
494.0,531.0,523.0,509.0
505.0,523.0,515.0,513.0
519.0,509.0,512.0,516.0
519.0,509.0,506.0,518.0
518.0,483.0,498.0,523.0
518.0,470.0,488.0,528.0
508.0,496.0,482.0,524.0
503.0,522.0,485.0,519.0
509.0,515.0,490.0,516.0
514.0,510.0,498.0,510.0
523.0,487.0,516.0,507.0
523.0,476.0,531.0,503.0
521.0,484.0,540.0,500.0
517.0,490.0,544.0,503.0
505.0,513.0,538.0,501.0
493.0,532.0,533.0,503.0
494.0,526.0,530.0,505.0
503.0,509.0,524.0,504.0
501.0,503.0,517.0,509.0
511.0,471.0,516.0,517.0
515.0,474.0,500.0,519.0
514.0,498.0,489.0,520.0
508.0,529.0,484.0,521.0
507.0,532.0,473.0,522.0
509.0,535.0,478.0,521.0
517.0,520.0,491.0,518.0
522.0,508.0,509.0,520.0
528.0,493.0,526.0,511.0
525.0,485.0,547.0,510.0
522.0,479.0,557.0,510.0
512.0,496.0,554.0,505.0
503.0,514.0,539.0,500.0
505.0,508.0,533.0,501.0
507.0,502.0,532.0,506.0
505.0,507.0,522.0,506.0
513.0,495.0,515.0,509.0
522.0,473.0,501.0,505.0
518.0,500.0,488.0,507.0
514.0,509.0,486.0,518.0
503.0,529.0,474.0,527.0
499.0,537.0,475.0,517.0
510.0,515.0,488.0,518.0
511.0,507.0,494.0,517.0
516.0,502.0,509.0,513.0
524.0,482.0,532.0,509.0
518.0,480.0,544.0,508.0
520.0,484.0,547.0,507.0
508.0,502.0,541.0,506.0
495.0,518.0,539.0,508.0
494.0,522.0,529.0,514.0
493.0,531.0,522.0,510.0
504.0,511.0,515.0,511.0
516.0,492.0,511.0,510.0
518.0,490.0,503.0,518.0
517.0,489.0,496.0,521.0
515.0,503.0,485.0,519.0
502.0,517.0,479.0,521.0
497.0,509.0,479.0,518.0
499.0,496.0,487.0,517.0
508.0,490.0,497.0,516.0
529.0,465.0,518.0,512.0
533.0,494.0,537.0,508.0
522.0,499.0,545.0,507.0
515.0,495.0,547.0,502.0
500.0,524.0,536.0,506.0
496.0,538.0,535.0,508.0
495.0,517.0,530.0,508.0
496.0,521.0,524.0,508.0
502.0,514.0,515.0,511.0
517.0,497.0,510.0,517.0
521.0,496.0,502.0,516.0
524.0,497.0,491.0,520.0
518.0,509.0,482.0,519.0
504.0,525.0,478.0,520.0
508.0,526.0,478.0,516.0
514.0,515.0,489.0,518.0
511.0,515.0,503.0,513.0
529.0,486.0,520.0,507.0
529.0,481.0,535.0,504.0
523.0,487.0,547.0,501.0
518.0,491.0,549.0,506.0
505.0,508.0,530.0,505.0
501.0,507.0,532.0,504.0
497.0,513.0,525.0,501.0
502.0,510.0,518.0,512.0
513.0,501.0,512.0,508.0
518.0,519.0,505.0,512.0
517.0,492.0,497.0,515.0
515.0,486.0,491.0,521.0
513.0,503.0,482.0,522.0
504.0,517.0,480.0,519.0
506.0,529.0,487.0,520.0
511.0,523.0,496.0,518.0
515.0,513.0,511.0,517.0
524.0,491.0,532.0,513.0
523.0,460.0,543.0,514.0
527.0,454.0,548.0,508.0
512.0,474.0,545.0,508.0
497.0,512.0,538.0,508.0
490.0,533.0,529.0,507.0
493.0,534.0,522.0,504.0
503.0,514.0,515.0,506.0
517.0,507.0,507.0,514.0
530.0,444.0,498.0,513.0
525.0,456.0,488.0,520.0
517.0,508.0,481.0,519.0
505.0,530.0,479.0,525.0
506.0,512.0,479.0,523.0
513.0,516.0,492.0,522.0
520.0,524.0,507.0,520.0
518.0,500.0,526.0,514.0
522.0,491.0,541.0,509.0
519.0,481.0,547.0,504.0
515.0,482.0,547.0,502.0
509.0,498.0,537.0,500.0
500.0,523.0,528.0,498.0
503.0,514.0,529.0,500.0
505.0,523.0,518.0,504.0
507.0,509.0,509.0,507.0
522.0,479.0,503.0,509.0
518.0,487.0,496.0,514.0
516.0,500.0,487.0,516.0
507.0,510.0,478.0,522.0
498.0,530.0,478.0,523.0
498.0,515.0,484.0,524.0
507.0,508.0,493.0,520.0
517.0,521.0,507.0,516.0
526.0,488.0,527.0,513.0
526.0,482.0,535.0,508.0
524.0,481.0,543.0,504.0
516.0,508.0,539.0,506.0
499.0,540.0,535.0,505.0
492.0,557.0,534.0,509.0
497.0,537.0,528.0,506.0
502.0,499.0,521.0,506.0
514.0,495.0,515.0,504.0
515.0,491.0,506.0,515.0
516.0,489.0,494.0,514.0
518.0,473.0,486.0,518.0
512.0,493.0,471.0,519.0
508.0,511.0,476.0,519.0
508.0,525.0,485.0,516.0
511.0,512.0,499.0,515.0
517.0,502.0,507.0,513.0
529.0,472.0,526.0,507.0
526.0,478.0,540.0,512.0
517.0,485.0,544.0,503.0
510.0,501.0,536.0,505.0
499.0,524.0,530.0,501.0
501.0,520.0,528.0,502.0
499.0,517.0,523.0,501.0
506.0,511.0,514.0,504.0
515.0,494.0,509.0,508.0
516.0,486.0,501.0,513.0
518.0,482.0,490.0,515.0
511.0,487.0,484.0,520.0
500.0,515.0,474.0,520.0
497.0,524.0,480.0,517.0
496.0,556.0,487.0,520.0
514.0,521.0,502.0,516.0
525.0,501.0,520.0,514.0
529.0,482.0,536.0,507.0
520.0,484.0,545.0,506.0
514.0,489.0,550.0,507.0
507.0,508.0,542.0,506.0
497.0,534.0,534.0,509.0
506.0,524.0,529.0,510.0
506.0,503.0,525.0,508.0
506.0,508.0,513.0,510.0
520.0,496.0,509.0,509.0
513.0,497.0,503.0,518.0
512.0,495.0,488.0,520.0
508.0,495.0,474.0,513.0
506.0,502.0,472.0,517.0
510.0,501.0,484.0,518.0
505.0,515.0,492.0,515.0
514.0,528.0,504.0,515.0
523.0,514.0,526.0,510.0
526.0,467.0,540.0,507.0
525.0,468.0,540.0,507.0
518.0,502.0,541.0,507.0
498.0,534.0,536.0,506.0
498.0,517.0,532.0,507.0
502.0,523.0,534.0,510.0
498.0,512.0,524.0,512.0
509.0,486.0,515.0,517.0
514.0,479.0,508.0,517.0
510.0,483.0,494.0,517.0
508.0,479.0,487.0,517.0
509.0,512.0,482.0,522.0
508.0,522.0,486.0,528.0
521.0,521.0,488.0,524.0
514.0,530.0,493.0,519.0
514.0,519.0,507.0,515.0
525.0,476.0,532.0,515.0
524.0,490.0,548.0,518.0
519.0,506.0,558.0,512.0
511.0,483.0,552.0,504.0
499.0,503.0,535.0,504.0
499.0,522.0,524.0,496.0
501.0,522.0,515.0,499.0
508.0,508.0,510.0,503.0
515.0,492.0,502.0,508.0
515.0,501.0,499.0,513.0
513.0,498.0,494.0,519.0
506.0,519.0,488.0,520.0
498.0,537.0,478.0,523.0
501.0,512.0,471.0,513.0
505.0,511.0,491.0,513.0
518.0,488.0,493.0,510.0
531.0,471.0,509.0,509.0
529.0,474.0,531.0,510.0
530.0,487.0,544.0,509.0
521.0,502.0,549.0,508.0
503.0,518.0,540.0,508.0
495.0,527.0,529.0,506.0
498.0,509.0,523.0,503.0
497.0,498.0,519.0,503.0
504.0,475.0,508.0,507.0
522.0,467.0,505.0,512.0
519.0,504.0,501.0,517.0
517.0,505.0,490.0,519.0
510.0,534.0,483.0,526.0
504.0,534.0,484.0,525.0
506.0,518.0,489.0,525.0
502.0,526.0,495.0,521.0
507.0,500.0,507.0,519.0
521.0,500.0,525.0,513.0
515.0,519.0,537.0,508.0
517.0,513.0,543.0,501.0
515.0,537.0,539.0,500.0
502.0,565.0,532.0,503.0
492.0,555.0,528.0,503.0
499.0,531.0,526.0,503.0
508.0,476.0,518.0,504.0
508.0,492.0,512.0,509.0
519.0,472.0,499.0,509.0
518.0,454.0,492.0,514.0
517.0,474.0,482.0,524.0
513.0,493.0,479.0,522.0
503.0,522.0,480.0,525.0
505.0,517.0,492.0,525.0
517.0,507.0,503.0,521.0
516.0,503.0,513.0,515.0
525.0,476.0,530.0,508.0
526.0,474.0,537.0,505.0
520.0,475.0,538.0,503.0
509.0,492.0,538.0,503.0
496.0,508.0,530.0,506.0
491.0,510.0,530.0,503.0
498.0,504.0,526.0,507.0
505.0,502.0,517.0,509.0
516.0,493.0,512.0,513.0
520.0,489.0,501.0,517.0
521.0,498.0,491.0,519.0
518.0,513.0,486.0,521.0
511.0,523.0,471.0,522.0
507.0,520.0,479.0,526.0
502.0,517.0,486.0,523.0
510.0,493.0,501.0,525.0
510.0,486.0,524.0,519.0
514.0,481.0,541.0,524.0
515.0,487.0,555.0,524.0
522.0,499.0,561.0,524.0
517.0,524.0,543.0,520.0
507.0,510.0,534.0,510.0
504.0,513.0,526.0,507.0
504.0,509.0,519.0,505.0
506.0,522.0,512.0,504.0
521.0,503.0,508.0,501.0
520.0,512.0,494.0,505.0
519.0,512.0,485.0,509.0
511.0,524.0,480.0,517.0
504.0,518.0,473.0,520.0
503.0,519.0,484.0,520.0
502.0,511.0,499.0,524.0
516.0,495.0,516.0,522.0
526.0,481.0,510.0,503.0
526.0,467.0,527.0,502.0
522.0,490.0,539.0,506.0
515.0,497.0,532.0,501.0
505.0,502.0,529.0,503.0
502.0,522.0,529.0,508.0
497.0,525.0,524.0,511.0
499.0,507.0,514.0,513.0
504.0,497.0,511.0,519.0
514.0,483.0,520.0,524.0
520.0,488.0,513.0,528.0
518.0,492.0,498.0,527.0
507.0,527.0,489.0,526.0
505.0,514.0,492.0,519.0
507.0,534.0,489.0,512.0
506.0,558.0,487.0,507.0
513.0,559.0,500.0,508.0
529.0,488.0,521.0,496.0
532.0,442.0,530.0,492.0
525.0,469.0,536.0,495.0
521.0,488.0,533.0,496.0
512.0,502.0,526.0,496.0
508.0,493.0,524.0,499.0
500.0,493.0,528.0,501.0
504.0,501.0,510.0,509.0
513.0,502.0,502.0,508.0
518.0,494.0,494.0,508.0
514.0,503.0,486.0,513.0
517.0,501.0,483.0,518.0
506.0,514.0,472.0,518.0
502.0,536.0,482.0,518.0
499.0,538.0,487.0,517.0
510.0,509.0,489.0,511.0
520.0,477.0,515.0,513.0
526.0,448.0,531.0,515.0
522.0,453.0,543.0,514.0
512.0,475.0,546.0,511.0
502.0,506.0,540.0,512.0
496.0,540.0,533.0,510.0
505.0,566.0,531.0,507.0
505.0,532.0,525.0,513.0
510.0,497.0,514.0,516.0
513.0,481.0,507.0,519.0
512.0,500.0,498.0,514.0
512.0,507.0,489.0,522.0
512.0,516.0,482.0,521.0
500.0,525.0,477.0,515.0
505.0,514.0,482.0,516.0
508.0,514.0,492.0,514.0
519.0,510.0,497.0,512.0
524.0,501.0,517.0,508.0
521.0,503.0,532.0,510.0
522.0,508.0,540.0,508.0
513.0,503.0,541.0,505.0
499.0,517.0,542.0,511.0
499.0,502.0,532.0,503.0
504.0,513.0,524.0,504.0
502.0,515.0,517.0,506.0
508.0,502.0,513.0,508.0
515.0,485.0,504.0,510.0
515.0,498.0,493.0,514.0
514.0,504.0,484.0,516.0
503.0,527.0,476.0,520.0
495.0,523.0,472.0,518.0
511.0,504.0,485.0,519.0
511.0,503.0,497.0,517.0
519.0,488.0,505.0,518.0
529.0,471.0,527.0,510.0
523.0,478.0,535.0,511.0
522.0,480.0,548.0,515.0
512.0,495.0,547.0,516.0
501.0,515.0,538.0,514.0
499.0,522.0,532.0,514.0
491.0,550.0,524.0,511.0
495.0,578.0,509.0,509.0
507.0,550.0,508.0,516.0
516.0,506.0,501.0,523.0
526.0,392.0,494.0,524.0
521.0,424.0,486.0,523.0
512.0,445.0,480.0,519.0
504.0,459.0,481.0,517.0
511.0,484.0,485.0,512.0
516.0,521.0,493.0,512.0
522.0,536.0,515.0,517.0
529.0,496.0,537.0,513.0
528.0,501.0,537.0,506.0
515.0,505.0,541.0,507.0
508.0,515.0,534.0,505.0
503.0,515.0,541.0,509.0
503.0,513.0,532.0,507.0
503.0,529.0,528.0,506.0
501.0,527.0,512.0,506.0
519.0,480.0,503.0,507.0
519.0,479.0,488.0,508.0
522.0,486.0,482.0,512.0
517.0,506.0,474.0,513.0
506.0,525.0,473.0,513.0
503.0,529.0,478.0,509.0
502.0,540.0,477.0,511.0
510.0,493.0,495.0,509.0
519.0,450.0,518.0,508.0
514.0,481.0,534.0,511.0
510.0,488.0,542.0,511.0
517.0,481.0,545.0,508.0
511.0,520.0,538.0,510.0
504.0,522.0,528.0,503.0
501.0,500.0,519.0,503.0
499.0,504.0,515.0,510.0
507.0,507.0,516.0,520.0
511.0,523.0,513.0,520.0
507.0,541.0,504.0,517.0
519.0,508.0,488.0,510.0
516.0,540.0,471.0,506.0
512.0,524.0,466.0,508.0
521.0,483.0,475.0,508.0
514.0,494.0,488.0,510.0
519.0,482.0,502.0,506.0
537.0,467.0,523.0,507.0
531.0,493.0,538.0,511.0
519.0,500.0,543.0,516.0
509.0,507.0,540.0,512.0
501.0,524.0,536.0,515.0
494.0,537.0,548.0,524.0
498.0,517.0,546.0,519.0
505.0,504.0,524.0,513.0
520.0,494.0,505.0,500.0
523.0,485.0,494.0,505.0
518.0,495.0,488.0,512.0
514.0,494.0,472.0,514.0
503.0,532.0,467.0,516.0
506.0,533.0,469.0,510.0
511.0,497.0,477.0,509.0
515.0,478.0,493.0,512.0
520.0,482.0,515.0,513.0
519.0,556.0,536.0,514.0
514.0,570.0,539.0,513.0
522.0,473.0,535.0,507.0
513.0,485.0,527.0,499.0
497.0,504.0,523.0,499.0
495.0,510.0,525.0,501.0
498.0,493.0,518.0,503.0
509.0,453.0,513.0,504.0
525.0,465.0,497.0,502.0
518.0,480.0,482.0,502.0
520.0,479.0,467.0,505.0
513.0,508.0,460.0,507.0
509.0,518.0,460.0,512.0
509.0,506.0,470.0,516.0
505.0,512.0,488.0,519.0
511.0,504.0,509.0,520.0
524.0,465.0,535.0,514.0
521.0,473.0,547.0,504.0
521.0,499.0,536.0,498.0
520.0,531.0,529.0,501.0
509.0,553.0,525.0,505.0
502.0,531.0,531.0,513.0
495.0,566.0,514.0,513.0
506.0,547.0,508.0,514.0
509.0,541.0,514.0,517.0
515.0,472.0,505.0,510.0
518.0,487.0,492.0,514.0
504.0,502.0,497.0,531.0
492.0,522.0,492.0,536.0
487.0,585.0,490.0,531.0
503.0,473.0,475.0,518.0
517.0,465.0,473.0,506.0
516.0,488.0,495.0,508.0
531.0,472.0,529.0,513.0
533.0,464.0,541.0,523.0
518.0,469.0,569.0,535.0
499.0,519.0,559.0,529.0
493.0,569.0,535.0,518.0
498.0,573.0,530.0,499.0
502.0,551.0,515.0,493.0
511.0,464.0,496.0,491.0
527.0,414.0,492.0,492.0
534.0,471.0,482.0,493.0
523.0,496.0,481.0,499.0
529.0,503.0,470.0,510.0
508.0,556.0,457.0,519.0
517.0,514.0,470.0,516.0
521.0,470.0,486.0,518.0
526.0,459.0,495.0,520.0
519.0,473.0,518.0,521.0
524.0,445.0,549.0,511.0
518.0,465.0,538.0,494.0
509.0,488.0,528.0,489.0
492.0,548.0,533.0,497.0
482.0,541.0,525.0,496.0
484.0,545.0,516.0,498.0
476.0,560.0,511.0,501.0
484.0,550.0,505.0,520.0
497.0,563.0,497.0,536.0
502.0,521.0,502.0,540.0
518.0,468.0,502.0,532.0
505.0,521.0,492.0,526.0
515.0,485.0,504.0,528.0
520.0,537.0,506.0,518.0
504.0,568.0,490.0,504.0
518.0,500.0,480.0,488.0
535.0,421.0,501.0,491.0
531.0,447.0,514.0,491.0
532.0,449.0,520.0,483.0
529.0,501.0,529.0,486.0
513.0,504.0,515.0,490.0
509.0,510.0,515.0,489.0
493.0,526.0,510.0,496.0
493.0,526.0,500.0,500.0
500.0,515.0,491.0,506.0
513.0,501.0,498.0,510.0
518.0,486.0,494.0,516.0
523.0,494.0,499.0,526.0
524.0,516.0,516.0,530.0
518.0,519.0,501.0,529.0
516.0,500.0,487.0,516.0
516.0,481.0,484.0,508.0
513.0,497.0,495.0,505.0
516.0,452.0,515.0,499.0
510.0,486.0,523.0,503.0
511.0,499.0,530.0,497.0
506.0,547.0,531.0,500.0
486.0,544.0,528.0,509.0
488.0,542.0,539.0,516.0
482.0,524.0,540.0,516.0
495.0,509.0,528.0,513.0
508.0,539.0,513.0,513.0
521.0,482.0,509.0,517.0
525.0,431.0,496.0,517.0
521.0,470.0,494.0,518.0
506.0,462.0,474.0,511.0
499.0,486.0,467.0,502.0
500.0,528.0,467.0,498.0
511.0,532.0,477.0,497.0
531.0,558.0,499.0,500.0
540.0,533.0,520.0,506.0
528.0,482.0,540.0,508.0
528.0,498.0,549.0,513.0
507.0,535.0,540.0,507.0
494.0,545.0,541.0,505.0
504.0,466.0,527.0,501.0
505.0,527.0,506.0,496.0
502.0,452.0,499.0,500.0
496.0,491.0,498.0,503.0
498.0,574.0,494.0,510.0
518.0,500.0,490.0,520.0
521.0,535.0,485.0,528.0
508.0,461.0,479.0,521.0
523.0,514.0,478.0,520.0
517.0,490.0,484.0,522.0
526.0,435.0,493.0,521.0
531.0,437.0,510.0,521.0
509.0,419.0,542.0,514.0
505.0,438.0,568.0,525.0
492.0,487.0,566.0,524.0
470.0,553.0,554.0,517.0
491.0,592.0,535.0,505.0
508.0,611.0,517.0,500.0
550.0,444.0,506.0,502.0
525.0,560.0,496.0,500.0
516.0,511.0,512.0,508.0
502.0,534.0,504.0,514.0
515.0,460.0,483.0,514.0
499.0,462.0,493.0,524.0
480.0,515.0,481.0,515.0
502.0,457.0,487.0,521.0
504.0,564.0,512.0,524.0
492.0,616.0,511.0,516.0
504.0,577.0,517.0,507.0
521.0,521.0,528.0,502.0
563.0,375.0,539.0,497.0
544.0,414.0,539.0,494.0
517.0,526.0,527.0,495.0
497.0,617.0,524.0,492.0
478.0,686.0,515.0,500.0
471.0,705.0,508.0,505.0
498.0,651.0,513.0,510.0
521.0,510.0,521.0,517.0
530.0,499.0,513.0,521.0
518.0,501.0,514.0,526.0
496.0,557.0,491.0,524.0
504.0,445.0,478.0,514.0
503.0,421.0,485.0,509.0
535.0,292.0,491.0,504.0
533.0,364.0,496.0,494.0
533.0,422.0,524.0,495.0
521.0,510.0,548.0,500.0
515.0,608.0,549.0,501.0
537.0,462.0,546.0,496.0
532.0,414.0,540.0,489.0
516.0,439.0,530.0,490.0
498.0,565.0,516.0,484.0
502.0,537.0,511.0,496.0
520.0,450.0,507.0,500.0
521.0,443.0,499.0,505.0
510.0,494.0,493.0,511.0
483.0,592.0,496.0,522.0
473.0,646.0,489.0,524.0
492.0,633.0,496.0,519.0
530.0,458.0,497.0,521.0
545.0,419.0,516.0,518.0
514.0,590.0,540.0,520.0
502.0,618.0,561.0,523.0
510.0,648.0,579.0,523.0
553.0,347.0,582.0,519.0
553.0,330.0,566.0,517.0
530.0,407.0,546.0,501.0
518.0,450.0,523.0,485.0
492.0,556.0,502.0,478.0
499.0,613.0,486.0,481.0
510.0,572.0,483.0,479.0
512.0,401.0,478.0,493.0
494.0,482.0,476.0,505.0
478.0,619.0,472.0,509.0
484.0,560.0,475.0,517.0
468.0,481.0,486.0,516.0
464.0,435.0,497.0,517.0
479.0,414.0,505.0,514.0
525.0,340.0,533.0,516.0
545.0,424.0,549.0,516.0
579.0,536.0,556.0,513.0
589.0,488.0,551.0,506.0
528.0,465.0,539.0,495.0
488.0,513.0,516.0,496.0
482.0,546.0,506.0,493.0
477.0,524.0,506.0,496.0
492.0,514.0,507.0,502.0
486.0,499.0,501.0,508.0
509.0,504.0,495.0,505.0
516.0,432.0,489.0,507.0
501.0,662.0,481.0,519.0
519.0,644.0,485.0,527.0
536.0,589.0,498.0,531.0
520.0,565.0,506.0,534.0
517.0,501.0,527.0,529.0
540.0,438.0,541.0,510.0
522.0,556.0,545.0,504.0
518.0,589.0,549.0,498.0
481.0,540.0,546.0,495.0
476.0,414.0,540.0,496.0
510.0,275.0,534.0,496.0
521.0,410.0,525.0,496.0
522.0,478.0,515.0,496.0
514.0,525.0,509.0,501.0
483.0,575.0,505.0,512.0
487.0,565.0,505.0,523.0
550.0,431.0,510.0,535.0
524.0,484.0,502.0,535.0
530.0,563.0,491.0,521.0
519.0,504.0,487.0,504.0
518.0,506.0,495.0,500.0
550.0,494.0,515.0,505.0
554.0,453.0,536.0,504.0
539.0,482.0,549.0,505.0
524.0,525.0,554.0,510.0
503.0,518.0,558.0,513.0
488.0,494.0,550.0,515.0
489.0,391.0,551.0,513.0
491.0,474.0,541.0,513.0
490.0,621.0,528.0,513.0
497.0,664.0,525.0,513.0
506.0,615.0,492.0,510.0
521.0,377.0,467.0,504.0
513.0,464.0,465.0,502.0
491.0,579.0,474.0,504.0
482.0,540.0,483.0,510.0
495.0,545.0,500.0,515.0
530.0,464.0,512.0,512.0
537.0,494.0,535.0,509.0
546.0,527.0,551.0,500.0
536.0,566.0,557.0,501.0
515.0,386.0,554.0,499.0
501.0,499.0,542.0,497.0
484.0,554.0,536.0,490.0
478.0,498.0,528.0,486.0
509.0,429.0,521.0,500.0
540.0,397.0,525.0,512.0
545.0,430.0,520.0,521.0
524.0,425.0,510.0,524.0
520.0,447.0,499.0,524.0
509.0,461.0,493.0,519.0
503.0,573.0,499.0,521.0
501.0,717.0,502.0,513.0
518.0,564.0,500.0,500.0
524.0,501.0,505.0,486.0
506.0,494.0,527.0,482.0
508.0,494.0,543.0,490.0
521.0,539.0,556.0,500.0
534.0,570.0,553.0,503.0
523.0,578.0,551.0,517.0
491.0,512.0,545.0,521.0
473.0,517.0,539.0,521.0
480.0,448.0,529.0,517.0
509.0,393.0,526.0,517.0
537.0,378.0,520.0,528.0
553.0,462.0,510.0,527.0
528.0,481.0,497.0,524.0
516.0,525.0,489.0,523.0
505.0,489.0,488.0,516.0
498.0,480.0,497.0,518.0
514.0,529.0,509.0,516.0
501.0,573.0,524.0,508.0
516.0,518.0,536.0,506.0
530.0,487.0,545.0,505.0
530.0,424.0,552.0,501.0
497.0,473.0,547.0,498.0
480.0,509.0,539.0,489.0
480.0,534.0,537.0,488.0
526.0,383.0,529.0,498.0
516.0,517.0,522.0,501.0
506.0,627.0,512.0,504.0
512.0,699.0,506.0,512.0
530.0,608.0,501.0,513.0
543.0,331.0,486.0,523.0
500.0,463.0,487.0,521.0
525.0,511.0,498.0,524.0
532.0,535.0,506.0,523.0
527.0,542.0,516.0,510.0
519.0,504.0,532.0,507.0
503.0,472.0,538.0,510.0
522.0,391.0,549.0,505.0
485.0,535.0,551.0,500.0
480.0,628.0,539.0,501.0
511.0,579.0,539.0,501.0
502.0,567.0,541.0,517.0
491.0,593.0,543.0,525.0
494.0,598.0,533.0,526.0
508.0,478.0,523.0,533.0
526.0,294.0,506.0,528.0
536.0,358.0,483.0,515.0
520.0,417.0,474.0,511.0
507.0,447.0,475.0,513.0
514.0,475.0,485.0,512.0
519.0,591.0,498.0,517.0
538.0,443.0,526.0,520.0
522.0,467.0,544.0,516.0
528.0,525.0,539.0,501.0
522.0,557.0,540.0,490.0
531.0,499.0,532.0,488.0
538.0,500.0,528.0,489.0
526.0,480.0,522.0,492.0
488.0,518.0,514.0,494.0
485.0,518.0,509.0,495.0
478.0,603.0,503.0,504.0
470.0,607.0,497.0,509.0
500.0,647.0,490.0,516.0
523.0,544.0,486.0,517.0
515.0,383.0,483.0,518.0
513.0,498.0,485.0,520.0
538.0,492.0,491.0,523.0
516.0,469.0,508.0,525.0
535.0,473.0,524.0,517.0
548.0,477.0,538.0,510.0
526.0,548.0,539.0,502.0
517.0,457.0,546.0,499.0
499.0,498.0,548.0,508.0
497.0,534.0,550.0,510.0
487.0,561.0,536.0,504.0
500.0,405.0,523.0,504.0
488.0,574.0,518.0,508.0
510.0,503.0,517.0,508.0
531.0,398.0,491.0,505.0
556.0,384.0,477.0,500.0
529.0,532.0,462.0,508.0
515.0,419.0,466.0,515.0
497.0,492.0,481.0,514.0
533.0,531.0,491.0,514.0
524.0,524.0,509.0,517.0
521.0,472.0,534.0,524.0
526.0,518.0,543.0,515.0
523.0,544.0,540.0,508.0
500.0,569.0,534.0,500.0
486.0,528.0,535.0,501.0
508.0,561.0,533.0,502.0
511.0,586.0,529.0,507.0
498.0,563.0,521.0,510.0
477.0,571.0,523.0,515.0
492.0,367.0,508.0,513.0
492.0,579.0,493.0,511.0
512.0,568.0,485.0,510.0
519.0,534.0,471.0,510.0
518.0,479.0,471.0,518.0
542.0,405.0,480.0,522.0
513.0,475.0,487.0,510.0
481.0,583.0,506.0,507.0
484.0,563.0,536.0,510.0
530.0,327.0,543.0,517.0
564.0,372.0,541.0,508.0
578.0,439.0,537.0,507.0
527.0,468.0,529.0,506.0
509.0,551.0,524.0,502.0
497.0,583.0,523.0,506.0
522.0,561.0,515.0,507.0
527.0,494.0,503.0,510.0
507.0,482.0,492.0,512.0
502.0,481.0,487.0,515.0
512.0,528.0,482.0,523.0
509.0,520.0,475.0,530.0
505.0,484.0,475.0,518.0
509.0,494.0,479.0,513.0
512.0,522.0,491.0,512.0
525.0,517.0,518.0,517.0
514.0,520.0,541.0,520.0
511.0,555.0,555.0,528.0
504.0,541.0,565.0,532.0
515.0,481.0,560.0,521.0
519.0,427.0,555.0,518.0
495.0,492.0,536.0,511.0
466.0,485.0,514.0,502.0
477.0,446.0,491.0,494.0
510.0,453.0,486.0,496.0
524.0,464.0,479.0,504.0
545.0,543.0,478.0,509.0
533.0,539.0,469.0,512.0
498.0,591.0,465.0,518.0
473.0,673.0,474.0,519.0
482.0,626.0,488.0,524.0
550.0,377.0,515.0,530.0
549.0,373.0,535.0,523.0
530.0,452.0,544.0,510.0
510.0,420.0,537.0,498.0
480.0,497.0,529.0,492.0
428.0,672.0,531.0,501.0
427.0,665.0,526.0,506.0
456.0,568.0,519.0,500.0
512.0,376.0,504.0,500.0
583.0,516.0,496.0,495.0
565.0,458.0,490.0,505.0
530.0,520.0,482.0,508.0
535.0,494.0,473.0,510.0
537.0,525.0,467.0,511.0
527.0,428.0,470.0,509.0
526.0,487.0,478.0,515.0
521.0,540.0,494.0,522.0
531.0,559.0,513.0,518.0
522.0,455.0,532.0,515.0
523.0,468.0,545.0,510.0
523.0,442.0,546.0,507.0
507.0,417.0,540.0,503.0
504.0,515.0,533.0,505.0
480.0,556.0,528.0,504.0
478.0,580.0,521.0,505.0
491.0,531.0,505.0,507.0
508.0,423.0,495.0,504.0
509.0,557.0,492.0,511.0
506.0,526.0,484.0,518.0
500.0,503.0,478.0,524.0
534.0,429.0,470.0,528.0
508.0,530.0,478.0,526.0
496.0,525.0,488.0,525.0
504.0,505.0,508.0,521.0
550.0,468.0,537.0,520.0
561.0,510.0,543.0,514.0
529.0,525.0,536.0,504.0
510.0,471.0,532.0,501.0
497.0,471.0,523.0,498.0
499.0,495.0,526.0,493.0
476.0,548.0,523.0,497.0
478.0,621.0,518.0,502.0
479.0,676.0,502.0,508.0
501.0,584.0,505.0,516.0
524.0,461.0,497.0,522.0
538.0,423.0,488.0,521.0
526.0,468.0,477.0,534.0
511.0,448.0,481.0,531.0
479.0,564.0,482.0,523.0
498.0,512.0,486.0,517.0
494.0,541.0,500.0,512.0
498.0,346.0,521.0,514.0
507.0,433.0,537.0,514.0
519.0,444.0,542.0,506.0
558.0,528.0,534.0,494.0
547.0,554.0,525.0,498.0
526.0,527.0,528.0,501.0
498.0,563.0,523.0,504.0
501.0,570.0,520.0,515.0
502.0,551.0,509.0,518.0
520.0,488.0,507.0,527.0
521.0,481.0,509.0,537.0
516.0,484.0,489.0,533.0
495.0,544.0,470.0,520.0
493.0,605.0,463.0,511.0
504.0,513.0,473.0,508.0
509.0,488.0,486.0,510.0
504.0,451.0,497.0,511.0
515.0,446.0,520.0,502.0
538.0,414.0,534.0,509.0
515.0,463.0,543.0,506.0
510.0,514.0,545.0,504.0
492.0,534.0,529.0,498.0
523.0,488.0,521.0,496.0
530.0,474.0,523.0,513.0
509.0,470.0,514.0,518.0
515.0,478.0,506.0,513.0
523.0,453.0,491.0,504.0
526.0,498.0,478.0,513.0
513.0,544.0,478.0,517.0
507.0,503.0,468.0,518.0
490.0,556.0,461.0,512.0
499.0,577.0,478.0,518.0
510.0,627.0,499.0,521.0
516.0,575.0,523.0,522.0
514.0,533.0,543.0,521.0
534.0,431.0,543.0,508.0
523.0,399.0,540.0,499.0
499.0,416.0,531.0,490.0
490.0,483.0,532.0,493.0
480.0,596.0,522.0,503.0
503.0,493.0,514.0,505.0
525.0,535.0,505.0,503.0
523.0,517.0,502.0,510.0
526.0,458.0,485.0,517.0
529.0,482.0,473.0,515.0
510.0,524.0,461.0,512.0
505.0,512.0,460.0,515.0
518.0,543.0,477.0,520.0
519.0,523.0,487.0,530.0
498.0,553.0,505.0,529.0
492.0,545.0,530.0,525.0
495.0,550.0,542.0,515.0
513.0,396.0,551.0,520.0
507.0,438.0,547.0,514.0
526.0,463.0,532.0,505.0
493.0,555.0,522.0,500.0
479.0,604.0,516.0,499.0
472.0,534.0,504.0,499.0
519.0,467.0,500.0,505.0
554.0,488.0,496.0,513.0
539.0,365.0,486.0,516.0
543.0,384.0,480.0,524.0
504.0,508.0,481.0,525.0
508.0,631.0,487.0,527.0
525.0,487.0,482.0,522.0
531.0,446.0,481.0,513.0
517.0,518.0,493.0,507.0
519.0,500.0,517.0,505.0
517.0,512.0,531.0,504.0
506.0,580.0,539.0,499.0
491.0,563.0,532.0,495.0
483.0,470.0,523.0,492.0
483.0,464.0,524.0,495.0
480.0,600.0,520.0,503.0
502.0,527.0,513.0,511.0
547.0,315.0,508.0,510.0
536.0,532.0,503.0,514.0
534.0,506.0,500.0,524.0
523.0,525.0,485.0,527.0
483.0,568.0,469.0,528.0
473.0,565.0,467.0,521.0
474.0,580.0,472.0,519.0
522.0,582.0,490.0,516.0
538.0,551.0,511.0,518.0
549.0,410.0,531.0,517.0
517.0,482.0,544.0,512.0
498.0,531.0,543.0,504.0
499.0,548.0,528.0,501.0
511.0,556.0,527.0,502.0
497.0,456.0,519.0,497.0
490.0,485.0,514.0,506.0
493.0,449.0,507.0,514.0
521.0,512.0,505.0,520.0
520.0,539.0,503.0,522.0
519.0,523.0,495.0,533.0
503.0,428.0,488.0,541.0
511.0,433.0,484.0,534.0
530.0,473.0,482.0,518.0
515.0,520.0,480.0,507.0
514.0,599.0,480.0,499.0
532.0,550.0,496.0,490.0
535.0,486.0,508.0,487.0
538.0,432.0,524.0,488.0
537.0,481.0,525.0,490.0
505.0,524.0,521.0,500.0
503.0,515.0,525.0,508.0
507.0,484.0,521.0,511.0
489.0,525.0,509.0,512.0
499.0,525.0,510.0,514.0
522.0,476.0,497.0,510.0
526.0,568.0,480.0,515.0
519.0,521.0,470.0,514.0
499.0,529.0,464.0,517.0
488.0,587.0,472.0,519.0
493.0,556.0,474.0,512.0
521.0,469.0,484.0,520.0
540.0,404.0,499.0,519.0
525.0,443.0,525.0,518.0
518.0,459.0,544.0,517.0
510.0,437.0,553.0,520.0
486.0,500.0,553.0,514.0
480.0,483.0,536.0,503.0
502.0,533.0,523.0,491.0
499.0,666.0,516.0,491.0
520.0,566.0,499.0,492.0
538.0,432.0,494.0,501.0
534.0,461.0,488.0,513.0
515.0,524.0,475.0,522.0
515.0,529.0,472.0,528.0
524.0,429.0,464.0,533.0
513.0,468.0,474.0,534.0
504.0,499.0,480.0,530.0
506.0,622.0,496.0,527.0
503.0,576.0,521.0,530.0
500.0,486.0,546.0,529.0
514.0,507.0,555.0,523.0
520.0,441.0,557.0,512.0
516.0,502.0,539.0,504.0
519.0,461.0,528.0,504.0
494.0,513.0,524.0,502.0
488.0,550.0,513.0,497.0
493.0,493.0,491.0,497.0
493.0,454.0,482.0,492.0
495.0,489.0,469.0,490.0
495.0,538.0,468.0,498.0
504.0,524.0,463.0,505.0
498.0,521.0,461.0,499.0
527.0,500.0,463.0,499.0
519.0,515.0,474.0,499.0
519.0,523.0,497.0,504.0
540.0,524.0,523.0,515.0
536.0,513.0,531.0,520.0
530.0,488.0,545.0,520.0
529.0,459.0,546.0,524.0
508.0,464.0,540.0,531.0
487.0,471.0,546.0,533.0
482.0,452.0,546.0,527.0
477.0,482.0,531.0,522.0
511.0,477.0,502.0,512.0
541.0,422.0,483.0,511.0
505.0,552.0,475.0,510.0
519.0,454.0,463.0,512.0
529.0,591.0,455.0,518.0
538.0,569.0,465.0,517.0
517.0,551.0,473.0,517.0
516.0,505.0,486.0,514.0
531.0,530.0,501.0,514.0
540.0,529.0,525.0,514.0
514.0,549.0,537.0,505.0
516.0,482.0,538.0,498.0
500.0,495.0,531.0,497.0
487.0,528.0,532.0,498.0
453.0,642.0,524.0,502.0
452.0,678.0,511.0,502.0
493.0,483.0,501.0,500.0
544.0,358.0,498.0,510.0
590.0,381.0,498.0,521.0
546.0,450.0,489.0,518.0
531.0,473.0,477.0,519.0
521.0,513.0,467.0,520.0
515.0,512.0,469.0,511.0
496.0,525.0,471.0,503.0
493.0,565.0,481.0,504.0
507.0,505.0,507.0,505.0
527.0,412.0,526.0,506.0
514.0,426.0,531.0,501.0
508.0,464.0,537.0,500.0
483.0,532.0,530.0,506.0
483.0,564.0,527.0,511.0
477.0,638.0,521.0,507.0
471.0,615.0,518.0,510.0
506.0,584.0,506.0,510.0
549.0,476.0,502.0,507.0
531.0,422.0,493.0,512.0
523.0,498.0,487.0,520.0
523.0,534.0,476.0,523.0
508.0,515.0,479.0,532.0
504.0,501.0,492.0,544.0
510.0,436.0,505.0,545.0
529.0,518.0,518.0,538.0
520.0,493.0,539.0,532.0
525.0,501.0,541.0,518.0
522.0,477.0,545.0,517.0
518.0,499.0,543.0,519.0
489.0,591.0,527.0,515.0
499.0,568.0,520.0,494.0
506.0,499.0,507.0,490.0
507.0,541.0,496.0,485.0
509.0,472.0,490.0,493.0
496.0,536.0,485.0,503.0
487.0,431.0,484.0,511.0
507.0,364.0,474.0,515.0
518.0,483.0,466.0,516.0
526.0,507.0,472.0,517.0
527.0,497.0,481.0,521.0
519.0,504.0,480.0,511.0
527.0,483.0,498.0,508.0
537.0,481.0,516.0,508.0
528.0,484.0,531.0,500.0
511.0,484.0,537.0,498.0
502.0,538.0,531.0,498.0
492.0,506.0,528.0,499.0
494.0,499.0,530.0,505.0
513.0,471.0,531.0,513.0
507.0,456.0,522.0,519.0
514.0,457.0,514.0,520.0
504.0,439.0,499.0,517.0
501.0,488.0,487.0,518.0
516.0,561.0,477.0,513.0
527.0,634.0,464.0,510.0
524.0,523.0,464.0,500.0
513.0,570.0,476.0,507.0
514.0,508.0,491.0,516.0
512.0,506.0,515.0,520.0
505.0,487.0,542.0,523.0
497.0,453.0,565.0,529.0
507.0,486.0,563.0,529.0
503.0,462.0,544.0,513.0
523.0,536.0,525.0,496.0
521.0,547.0,507.0,491.0
512.0,606.0,504.0,494.0
494.0,674.0,502.0,503.0
506.0,514.0,499.0,507.0
510.0,513.0,491.0,513.0
533.0,428.0,484.0,521.0
525.0,508.0,478.0,521.0
513.0,538.0,474.0,529.0
516.0,501.0,471.0,520.0
516.0,493.0,476.0,509.0
519.0,478.0,491.0,511.0
521.0,454.0,517.0,512.0
509.0,484.0,530.0,509.0
508.0,501.0,540.0,507.0
522.0,457.0,538.0,501.0
516.0,517.0,532.0,500.0
499.0,562.0,531.0,503.0
487.0,585.0,522.0,500.0
489.0,619.0,509.0,501.0
525.0,414.0,510.0,507.0
521.0,406.0,502.0,519.0
502.0,493.0,493.0,521.0
497.0,479.0,482.0,519.0
512.0,501.0,472.0,521.0
529.0,548.0,482.0,525.0
503.0,506.0,489.0,528.0
518.0,505.0,494.0,526.0
544.0,532.0,502.0,519.0
529.0,527.0,529.0,515.0
524.0,508.0,536.0,510.0
527.0,433.0,543.0,507.0
518.0,434.0,537.0,508.0
509.0,462.0,531.0,512.0
492.0,471.0,528.0,507.0
495.0,486.0,524.0,505.0
491.0,592.0,512.0,499.0
501.0,572.0,507.0,502.0
531.0,455.0,498.0,502.0
515.0,547.0,485.0,504.0
510.0,521.0,472.0,505.0
504.0,521.0,467.0,506.0
486.0,565.0,478.0,511.0
486.0,516.0,491.0,518.0
471.0,617.0,504.0,535.0
500.0,559.0,531.0,544.0
548.0,371.0,548.0,538.0
551.0,407.0,548.0,520.0
539.0,481.0,547.0,513.0
515.0,520.0,540.0,506.0
507.0,502.0,525.0,504.0
488.0,579.0,516.0,498.0
482.0,617.0,500.0,494.0
490.0,598.0,493.0,496.0
520.0,461.0,490.0,501.0
519.0,459.0,486.0,514.0
498.0,451.0,480.0,523.0
499.0,424.0,472.0,524.0
494.0,444.0,466.0,521.0
501.0,476.0,472.0,523.0
541.0,530.0,481.0,519.0
529.0,525.0,493.0,521.0
525.0,528.0,516.0,516.0
527.0,532.0,533.0,514.0
515.0,597.0,550.0,519.0
512.0,543.0,552.0,527.0
500.0,442.0,547.0,525.0
503.0,439.0,553.0,526.0
504.0,518.0,554.0,528.0
502.0,472.0,546.0,525.0
517.0,439.0,527.0,518.0
529.0,492.0,499.0,517.0
531.0,499.0,480.0,518.0
526.0,484.0,452.0,502.0
510.0,493.0,425.0,485.0
502.0,518.0,434.0,487.0
503.0,553.0,451.0,494.0
520.0,525.0,466.0,500.0
522.0,516.0,489.0,504.0
532.0,464.0,517.0,505.0
529.0,470.0,530.0,501.0
514.0,486.0,534.0,497.0
504.0,509.0,533.0,495.0
498.0,502.0,529.0,502.0
494.0,515.0,529.0,501.0
493.0,539.0,526.0,507.0
486.0,602.0,521.0,521.0
496.0,560.0,520.0,527.0
494.0,652.0,510.0,531.0
497.0,524.0,500.0,533.0
503.0,506.0,497.0,540.0
503.0,481.0,488.0,542.0
520.0,360.0,476.0,529.0
517.0,477.0,463.0,511.0
526.0,482.0,477.0,497.0
524.0,473.0,492.0,499.0
529.0,366.0,516.0,503.0
537.0,383.0,530.0,495.0
524.0,466.0,534.0,495.0
492.0,564.0,526.0,496.0
497.0,530.0,524.0,495.0
493.0,551.0,525.0,496.0
509.0,563.0,518.0,505.0
521.0,559.0,510.0,508.0
542.0,427.0,503.0,514.0
528.0,470.0,491.0,509.0
512.0,510.0,481.0,515.0
508.0,516.0,473.0,521.0
507.0,530.0,468.0,519.0
521.0,521.0,475.0,519.0
520.0,504.0,486.0,513.0
525.0,486.0,500.0,512.0
517.0,476.0,518.0,511.0
515.0,496.0,535.0,509.0
540.0,529.0,544.0,511.0
521.0,565.0,542.0,513.0
490.0,516.0,540.0,512.0
507.0,519.0,539.0,508.0
492.0,532.0,532.0,505.0
492.0,523.0,523.0,507.0
498.0,449.0,510.0,518.0
508.0,435.0,504.0,521.0
507.0,482.0,498.0,523.0
498.0,557.0,482.0,518.0
509.0,593.0,470.0,518.0
514.0,524.0,477.0,521.0
506.0,557.0,482.0,521.0
512.0,563.0,489.0,518.0
525.0,530.0,501.0,507.0
512.0,518.0,521.0,501.0
504.0,493.0,535.0,501.0
509.0,516.0,542.0,503.0
506.0,497.0,540.0,505.0
528.0,488.0,539.0,505.0
509.0,453.0,529.0,499.0
494.0,490.0,521.0,495.0
494.0,498.0,504.0,497.0
505.0,466.0,501.0,512.0
517.0,508.0,497.0,523.0
515.0,528.0,492.0,531.0
492.0,568.0,481.0,531.0
482.0,510.0,480.0,538.0
491.0,516.0,487.0,540.0
514.0,541.0,500.0,539.0
521.0,501.0,503.0,532.0
532.0,451.0,516.0,524.0
534.0,469.0,537.0,528.0
524.0,504.0,548.0,520.0
521.0,464.0,548.0,509.0
501.0,525.0,541.0,507.0
510.0,513.0,532.0,507.0
503.0,525.0,523.0,506.0
505.0,508.0,512.0,500.0
513.0,510.0,496.0,498.0
521.0,489.0,484.0,498.0
528.0,485.0,474.0,497.0
524.0,471.0,466.0,498.0
521.0,489.0,457.0,502.0
510.0,493.0,457.0,509.0
508.0,501.0,467.0,511.0
503.0,507.0,477.0,518.0
521.0,500.0,494.0,522.0
530.0,493.0,520.0,518.0
528.0,504.0,536.0,516.0
525.0,488.0,547.0,516.0
519.0,482.0,549.0,515.0
509.0,517.0,552.0,517.0
500.0,524.0,548.0,516.0
492.0,523.0,533.0,512.0
491.0,493.0,527.0,522.0
502.0,506.0,512.0,526.0
509.0,484.0,497.0,517.0
520.0,521.0,479.0,509.0
518.0,511.0,467.0,508.0
509.0,543.0,467.0,514.0
502.0,526.0,468.0,515.0
510.0,515.0,472.0,514.0
515.0,493.0,486.0,515.0
518.0,474.0,505.0,514.0
536.0,452.0,532.0,518.0
528.0,472.0,547.0,510.0
518.0,514.0,550.0,509.0
494.0,548.0,545.0,511.0
477.0,558.0,545.0,515.0
464.0,571.0,545.0,515.0
475.0,517.0,530.0,512.0
495.0,446.0,508.0,511.0
527.0,440.0,499.0,508.0
549.0,482.0,486.0,504.0
527.0,513.0,465.0,501.0
515.0,547.0,456.0,500.0
501.0,545.0,453.0,504.0
514.0,461.0,461.0,509.0
520.0,501.0,472.0,509.0
524.0,511.0,485.0,509.0
526.0,517.0,504.0,512.0
533.0,469.0,528.0,511.0
538.0,467.0,536.0,509.0
543.0,494.0,544.0,506.0
534.0,547.0,536.0,502.0
532.0,492.0,532.0,506.0
524.0,503.0,530.0,504.0
503.0,500.0,521.0,501.0
527.0,411.0,509.0,504.0
514.0,489.0,501.0,504.0
481.0,538.0,492.0,511.0
479.0,558.0,484.0,516.0
481.0,576.0,471.0,523.0
485.0,570.0,470.0,524.0
490.0,518.0,474.0,525.0
507.0,459.0,480.0,526.0
526.0,517.0,499.0,527.0
526.0,517.0,523.0,523.0
514.0,512.0,539.0,515.0
509.0,541.0,548.0,516.0
512.0,510.0,551.0,518.0
494.0,551.0,547.0,517.0
500.0,502.0,545.0,515.0
506.0,462.0,541.0,517.0
505.0,503.0,528.0,519.0
523.0,520.0,515.0,516.0
529.0,509.0,505.0,509.0
518.0,566.0,486.0,509.0
519.0,596.0,473.0,512.0
525.0,480.0,461.0,511.0
531.0,392.0,460.0,510.0
515.0,460.0,469.0,508.0
512.0,502.0,477.0,510.0
520.0,493.0,497.0,508.0
512.0,523.0,521.0,508.0
501.0,503.0,536.0,506.0
488.0,461.0,547.0,509.0
488.0,479.0,544.0,511.0
477.0,515.0,537.0,507.0
478.0,526.0,533.0,503.0
483.0,500.0,522.0,502.0
490.0,525.0,514.0,503.0
504.0,493.0,514.0,509.0
517.0,484.0,510.0,524.0
518.0,499.0,497.0,528.0
509.0,506.0,484.0,532.0
494.0,523.0,478.0,533.0
508.0,498.0,475.0,530.0
502.0,524.0,483.0,521.0
509.0,520.0,490.0,518.0
518.0,501.0,510.0,516.0
528.0,476.0,526.0,506.0
524.0,477.0,526.0,494.0
524.0,483.0,530.0,496.0
508.0,506.0,523.0,497.0
505.0,507.0,519.0,496.0
501.0,515.0,518.0,500.0
493.0,544.0,515.0,502.0
501.0,513.0,509.0,514.0
515.0,477.0,505.0,519.0
505.0,484.0,498.0,522.0
505.0,513.0,487.0,525.0
510.0,567.0,478.0,527.0
494.0,573.0,482.0,530.0
483.0,563.0,483.0,534.0
498.0,473.0,484.0,528.0
512.0,469.0,485.0,510.0
532.0,477.0,499.0,500.0
543.0,503.0,517.0,498.0
533.0,469.0,539.0,505.0
531.0,452.0,541.0,511.0
520.0,448.0,534.0,512.0
522.0,456.0,529.0,508.0
502.0,500.0,523.0,506.0
493.0,503.0,516.0,506.0
489.0,540.0,510.0,513.0
522.0,502.0,511.0,516.0
519.0,497.0,496.0,516.0
503.0,508.0,480.0,515.0
515.0,482.0,466.0,520.0
515.0,536.0,463.0,516.0
512.0,587.0,467.0,510.0
505.0,585.0,473.0,503.0
513.0,558.0,490.0,503.0
527.0,439.0,513.0,500.0
522.0,433.0,525.0,493.0
520.0,457.0,540.0,501.0
499.0,506.0,537.0,504.0
482.0,491.0,534.0,509.0
491.0,495.0,533.0,514.0
484.0,534.0,530.0,519.0
517.0,500.0,532.0,524.0
532.0,501.0,515.0,520.0
529.0,526.0,492.0,510.0
517.0,549.0,476.0,507.0
517.0,533.0,463.0,508.0
505.0,600.0,457.0,512.0
498.0,571.0,463.0,522.0
490.0,522.0,472.0,515.0
497.0,492.0,483.0,510.0
508.0,418.0,504.0,508.0
526.0,420.0,525.0,507.0
553.0,483.0,537.0,508.0
544.0,561.0,539.0,503.0
521.0,538.0,538.0,504.0
505.0,545.0,534.0,508.0
490.0,568.0,532.0,512.0
493.0,582.0,524.0,512.0
501.0,541.0,516.0,517.0
507.0,477.0,506.0,518.0
502.0,531.0,498.0,520.0
506.0,524.0,484.0,523.0
509.0,525.0,471.0,523.0
504.0,534.0,473.0,526.0
517.0,483.0,475.0,522.0
517.0,517.0,478.0,518.0
520.0,511.0,491.0,515.0
546.0,473.0,514.0,511.0
538.0,487.0,530.0,513.0
537.0,426.0,543.0,508.0
528.0,472.0,545.0,508.0
503.0,510.0,540.0,509.0
488.0,511.0,532.0,510.0
487.0,519.0,525.0,514.0
492.0,506.0,518.0,514.0
486.0,504.0,503.0,514.0
493.0,491.0,502.0,516.0
496.0,493.0,492.0,518.0
518.0,512.0,484.0,525.0
528.0,516.0,473.0,526.0
517.0,501.0,469.0,525.0
506.0,498.0,478.0,526.0
510.0,509.0,490.0,522.0
514.0,509.0,507.0,524.0
521.0,484.0,528.0,523.0
527.0,464.0,534.0,513.0
520.0,469.0,547.0,507.0
512.0,492.0,545.0,508.0
500.0,511.0,536.0,510.0
490.0,501.0,533.0,510.0
488.0,519.0,526.0,513.0
488.0,526.0,517.0,511.0
504.0,503.0,508.0,508.0
515.0,489.0,502.0,516.0
521.0,519.0,490.0,523.0
521.0,514.0,482.0,525.0
517.0,527.0,475.0,523.0
509.0,531.0,482.0,518.0
516.0,509.0,488.0,522.0
525.0,486.0,489.0,525.0
526.0,479.0,504.0,513.0
527.0,466.0,513.0,497.0
519.0,474.0,518.0,489.0
515.0,481.0,523.0,489.0
499.0,513.0,517.0,492.0
490.0,520.0,516.0,496.0
497.0,502.0,518.0,500.0
503.0,497.0,520.0,504.0
513.0,538.0,509.0,508.0
521.0,489.0,500.0,511.0
524.0,483.0,493.0,512.0
520.0,496.0,484.0,522.0
510.0,513.0,471.0,526.0
512.0,513.0,469.0,518.0
521.0,464.0,472.0,512.0
513.0,506.0,478.0,511.0
510.0,530.0,490.0,509.0
515.0,560.0,511.0,505.0
508.0,621.0,526.0,505.0
504.0,551.0,540.0,505.0
501.0,563.0,541.0,502.0
500.0,518.0,538.0,506.0
517.0,488.0,532.0,505.0
504.0,488.0,525.0,502.0
505.0,478.0,516.0,505.0
514.0,438.0,512.0,513.0
521.0,443.0,505.0,514.0
516.0,466.0,494.0,519.0
504.0,473.0,489.0,523.0
486.0,534.0,469.0,518.0
499.0,532.0,464.0,515.0
524.0,527.0,468.0,515.0
528.0,528.0,477.0,515.0
529.0,526.0,494.0,513.0
529.0,479.0,524.0,514.0
529.0,469.0,534.0,511.0
527.0,469.0,549.0,511.0
504.0,517.0,540.0,510.0
499.0,520.0,535.0,508.0
501.0,530.0,532.0,509.0
505.0,537.0,526.0,512.0
498.0,540.0,514.0,510.0
506.0,456.0,508.0,515.0
523.0,433.0,498.0,518.0
512.0,444.0,485.0,519.0
495.0,453.0,477.0,521.0
480.0,509.0,467.0,525.0
500.0,497.0,472.0,521.0
533.0,525.0,481.0,521.0
549.0,556.0,491.0,520.0
521.0,573.0,508.0,515.0
519.0,513.0,530.0,514.0
512.0,545.0,540.0,516.0
520.0,505.0,547.0,514.0
522.0,533.0,542.0,513.0
531.0,529.0,534.0,511.0
515.0,524.0,530.0,507.0
495.0,560.0,519.0,505.0
504.0,522.0,512.0,510.0
510.0,553.0,501.0,510.0
507.0,502.0,492.0,512.0
532.0,472.0,484.0,517.0
506.0,500.0,473.0,520.0
474.0,559.0,469.0,524.0
485.0,497.0,473.0,522.0
479.0,519.0,481.0,520.0
502.0,525.0,491.0,515.0
523.0,523.0,513.0,513.0
507.0,529.0,535.0,511.0
504.0,477.0,545.0,510.0
504.0,515.0,546.0,510.0
498.0,530.0,537.0,511.0
507.0,484.0,535.0,513.0
495.0,502.0,531.0,511.0
493.0,507.0,519.0,509.0
499.0,504.0,513.0,514.0
509.0,484.0,511.0,525.0
517.0,503.0,502.0,532.0
521.0,501.0,491.0,535.0
501.0,526.0,473.0,526.0
499.0,543.0,462.0,517.0
499.0,530.0,467.0,511.0
505.0,525.0,479.0,515.0
514.0,505.0,499.0,514.0
529.0,470.0,526.0,518.0
527.0,471.0,542.0,516.0
523.0,491.0,553.0,522.0
509.0,511.0,556.0,522.0
489.0,557.0,548.0,519.0
488.0,524.0,531.0,517.0
494.0,518.0,521.0,512.0
502.0,513.0,513.0,512.0
520.0,489.0,507.0,513.0
524.0,486.0,492.0,509.0
525.0,500.0,474.0,506.0
517.0,501.0,460.0,507.0
504.0,518.0,449.0,506.0
510.0,507.0,455.0,506.0
511.0,516.0,463.0,509.0
511.0,507.0,477.0,507.0
519.0,493.0,500.0,511.0
530.0,479.0,517.0,508.0
529.0,485.0,539.0,510.0
523.0,473.0,544.0,506.0
518.0,480.0,539.0,508.0
499.0,500.0,527.0,509.0
488.0,514.0,520.0,505.0
475.0,508.0,516.0,504.0
478.0,524.0,508.0,506.0
505.0,501.0,503.0,511.0
522.0,493.0,494.0,517.0
530.0,471.0,482.0,520.0
539.0,493.0,475.0,524.0
523.0,494.0,470.0,523.0
525.0,583.0,473.0,520.0
505.0,600.0,476.0,518.0
509.0,511.0,486.0,514.0
517.0,452.0,509.0,508.0
527.0,466.0,522.0,509.0
529.0,487.0,540.0,510.0
531.0,508.0,543.0,510.0
514.0,488.0,536.0,510.0
510.0,520.0,534.0,507.0
524.0,515.0,532.0,510.0
534.0,536.0,522.0,513.0
556.0,557.0,513.0,519.0
569.0,526.0,505.0,518.0
536.0,501.0,498.0,516.0
526.0,490.0,482.0,520.0
525.0,490.0,467.0,519.0
477.0,510.0,465.0,515.0
467.0,510.0,471.0,518.0
474.0,548.0,485.0,517.0
490.0,542.0,499.0,512.0
498.0,513.0,521.0,510.0
502.0,535.0,538.0,504.0
513.0,520.0,538.0,497.0
511.0,504.0,534.0,496.0
494.0,523.0,529.0,500.0
498.0,534.0,528.0,506.0
489.0,561.0,524.0,510.0
493.0,497.0,512.0,513.0
519.0,463.0,505.0,518.0
523.0,489.0,496.0,519.0
525.0,476.0,486.0,522.0
532.0,456.0,476.0,525.0
508.0,420.0,468.0,523.0
502.0,500.0,471.0,521.0
486.0,527.0,480.0,517.0
474.0,567.0,488.0,517.0
499.0,591.0,504.0,516.0
522.0,513.0,527.0,512.0
513.0,526.0,539.0,512.0
511.0,457.0,543.0,507.0
498.0,522.0,542.0,512.0
489.0,539.0,536.0,508.0
495.0,524.0,532.0,508.0
499.0,520.0,525.0,506.0
497.0,527.0,511.0,508.0
512.0,504.0,501.0,517.0
517.0,513.0,496.0,524.0
510.0,524.0,484.0,523.0
513.0,509.0,471.0,521.0
505.0,505.0,465.0,521.0
506.0,514.0,467.0,519.0
502.0,528.0,477.0,517.0
512.0,499.0,493.0,518.0
526.0,470.0,508.0,512.0
525.0,449.0,530.0,511.0
526.0,491.0,543.0,512.0
518.0,505.0,545.0,513.0
500.0,526.0,534.0,511.0
501.0,522.0,535.0,511.0
502.0,520.0,533.0,518.0
503.0,547.0,529.0,524.0
512.0,502.0,521.0,529.0
518.0,489.0,507.0,524.0
521.0,490.0,486.0,517.0
516.0,498.0,476.0,520.0
512.0,492.0,471.0,529.0
503.0,532.0,469.0,532.0
502.0,528.0,479.0,520.0
514.0,499.0,474.0,514.0
520.0,488.0,482.0,506.0
527.0,468.0,509.0,503.0
530.0,475.0,524.0,500.0
521.0,485.0,531.0,497.0
522.0,493.0,531.0,497.0
507.0,523.0,526.0,501.0
503.0,519.0,523.0,505.0
494.0,530.0,525.0,508.0
501.0,523.0,507.0,509.0
511.0,505.0,507.0,516.0
518.0,493.0,503.0,522.0
516.0,490.0,486.0,526.0
513.0,500.0,470.0,520.0
501.0,530.0,456.0,518.0
502.0,537.0,461.0,512.0
505.0,533.0,466.0,512.0
511.0,519.0,477.0,509.0
519.0,504.0,499.0,509.0
527.0,480.0,525.0,515.0
534.0,472.0,541.0,511.0
525.0,473.0,540.0,508.0
512.0,503.0,538.0,509.0
499.0,520.0,536.0,510.0
482.0,575.0,529.0,510.0
492.0,504.0,518.0,504.0
499.0,505.0,501.0,508.0
516.0,462.0,501.0,514.0
513.0,468.0,492.0,517.0
502.0,459.0,477.0,517.0
517.0,414.0,462.0,516.0
506.0,429.0,460.0,516.0
531.0,498.0,467.0,517.0
519.0,545.0,474.0,517.0
526.0,588.0,491.0,513.0
538.0,551.0,518.0,512.0
539.0,526.0,527.0,514.0
522.0,522.0,534.0,507.0
516.0,539.0,538.0,510.0
506.0,568.0,531.0,510.0
507.0,599.0,532.0,508.0
505.0,599.0,527.0,511.0
516.0,525.0,518.0,509.0
528.0,491.0,504.0,512.0
541.0,465.0,499.0,514.0
529.0,520.0,492.0,516.0
532.0,489.0,474.0,519.0
514.0,488.0,471.0,522.0
511.0,512.0,469.0,524.0
515.0,533.0,471.0,517.0
510.0,549.0,479.0,516.0
521.0,498.0,495.0,513.0
540.0,465.0,517.0,514.0
544.0,465.0,530.0,512.0
529.0,440.0,541.0,510.0
523.0,434.0,539.0,512.0
500.0,499.0,534.0,504.0
489.0,489.0,531.0,506.0
478.0,531.0,525.0,510.0
483.0,513.0,515.0,511.0
476.0,493.0,508.0,514.0
494.0,474.0,495.0,511.0
503.0,479.0,488.0,522.0
505.0,507.0,481.0,523.0
523.0,530.0,470.0,522.0
523.0,573.0,474.0,519.0
504.0,536.0,477.0,518.0
497.0,521.0,486.0,514.0
504.0,549.0,503.0,517.0
519.0,513.0,527.0,512.0
518.0,492.0,534.0,510.0
511.0,490.0,544.0,511.0
503.0,501.0,537.0,509.0
481.0,508.0,533.0,509.0
476.0,559.0,527.0,508.0
491.0,546.0,518.0,507.0
514.0,528.0,512.0,507.0
520.0,505.0,505.0,513.0
521.0,484.0,495.0,516.0
513.0,512.0,485.0,522.0
511.0,520.0,473.0,521.0
505.0,523.0,467.0,521.0
508.0,516.0,470.0,521.0
502.0,534.0,479.0,518.0
512.0,523.0,492.0,519.0
525.0,489.0,512.0,516.0
528.0,463.0,529.0,513.0
526.0,472.0,541.0,510.0
521.0,484.0,543.0,512.0
506.0,519.0,539.0,511.0
499.0,528.0,534.0,508.0
491.0,543.0,527.0,510.0
500.0,523.0,520.0,511.0
507.0,506.0,510.0,513.0
525.0,479.0,500.0,518.0
526.0,486.0,488.0,519.0
517.0,503.0,481.0,525.0
513.0,510.0,470.0,522.0
514.0,508.0,472.0,526.0
515.0,511.0,480.0,523.0
513.0,504.0,489.0,520.0
516.0,506.0,501.0,518.0
521.0,495.0,522.0,516.0
525.0,488.0,530.0,509.0
531.0,486.0,536.0,507.0
517.0,501.0,540.0,509.0
510.0,511.0,536.0,509.0
505.0,504.0,534.0,516.0
491.0,532.0,525.0,512.0
495.0,526.0,502.0,509.0
507.0,503.0,500.0,512.0
518.0,488.0,492.0,513.0
523.0,491.0,485.0,515.0
524.0,500.0,474.0,517.0
507.0,532.0,464.0,519.0
510.0,529.0,471.0,520.0
507.0,523.0,478.0,525.0
514.0,512.0,490.0,520.0
520.0,496.0,505.0,517.0
525.0,465.0,521.0,509.0
521.0,472.0,532.0,509.0
521.0,478.0,539.0,505.0
526.0,503.0,534.0,506.0
519.0,506.0,532.0,508.0
511.0,527.0,532.0,510.0
502.0,540.0,525.0,514.0
508.0,513.0,515.0,513.0
525.0,490.0,502.0,510.0
521.0,481.0,490.0,512.0
505.0,495.0,482.0,519.0
506.0,514.0,474.0,520.0
503.0,533.0,469.0,520.0
517.0,513.0,470.0,517.0
516.0,529.0,475.0,514.0
523.0,523.0,486.0,510.0
541.0,512.0,506.0,509.0
557.0,481.0,527.0,508.0
533.0,457.0,537.0,509.0
530.0,459.0,541.0,506.0
497.0,501.0,536.0,509.0
494.0,499.0,528.0,506.0
493.0,499.0,532.0,509.0
497.0,536.0,518.0,507.0
505.0,544.0,504.0,515.0
520.0,524.0,503.0,513.0
532.0,492.0,490.0,518.0
511.0,472.0,484.0,519.0
489.0,500.0,471.0,524.0
505.0,545.0,469.0,523.0
504.0,523.0,475.0,523.0
500.0,531.0,484.0,520.0
504.0,535.0,495.0,516.0
513.0,509.0,518.0,513.0
534.0,478.0,529.0,507.0
536.0,470.0,541.0,507.0
531.0,491.0,540.0,509.0
509.0,517.0,530.0,507.0
522.0,506.0,531.0,510.0
533.0,563.0,523.0,509.0
532.0,551.0,516.0,509.0
494.0,528.0,507.0,514.0
502.0,492.0,499.0,520.0
512.0,472.0,488.0,516.0
517.0,495.0,479.0,521.0
489.0,539.0,471.0,523.0
485.0,546.0,471.0,516.0
488.0,554.0,476.0,522.0
497.0,535.0,486.0,520.0
513.0,516.0,500.0,516.0
534.0,474.0,521.0,513.0
521.0,491.0,538.0,512.0
514.0,512.0,546.0,511.0
511.0,536.0,536.0,510.0
499.0,548.0,532.0,507.0
492.0,496.0,530.0,509.0
488.0,502.0,523.0,507.0
487.0,490.0,511.0,512.0
498.0,497.0,504.0,514.0
504.0,496.0,498.0,517.0
506.0,493.0,484.0,521.0
505.0,498.0,477.0,522.0
500.0,514.0,471.0,522.0
509.0,510.0,473.0,523.0
498.0,541.0,478.0,521.0
506.0,523.0,491.0,520.0
520.0,498.0,511.0,518.0
527.0,483.0,530.0,514.0
521.0,486.0,542.0,512.0
518.0,491.0,546.0,508.0
501.0,527.0,537.0,510.0
496.0,528.0,532.0,511.0
491.0,531.0,531.0,513.0
504.0,527.0,517.0,511.0
508.0,511.0,509.0,513.0
531.0,487.0,504.0,518.0
532.0,498.0,495.0,518.0
529.0,503.0,486.0,525.0
523.0,523.0,477.0,524.0
519.0,528.0,474.0,524.0
514.0,514.0,479.0,524.0
500.0,528.0,486.0,521.0
508.0,508.0,498.0,519.0
525.0,478.0,522.0,516.0
528.0,479.0,536.0,512.0
520.0,484.0,546.0,512.0
515.0,501.0,542.0,511.0
500.0,521.0,538.0,513.0
507.0,510.0,536.0,510.0
502.0,520.0,526.0,516.0
503.0,518.0,518.0,513.0
510.0,511.0,506.0,517.0
521.0,495.0,503.0,518.0
522.0,497.0,491.0,521.0
515.0,502.0,489.0,525.0
508.0,525.0,472.0,526.0
514.0,516.0,477.0,523.0
515.0,510.0,483.0,520.0
520.0,515.0,491.0,520.0
526.0,499.0,505.0,518.0
537.0,479.0,529.0,516.0
531.0,487.0,539.0,514.0
521.0,492.0,547.0,510.0
511.0,509.0,544.0,511.0
500.0,518.0,537.0,509.0
499.0,516.0,533.0,508.0
497.0,522.0,527.0,508.0
505.0,525.0,516.0,513.0
521.0,499.0,510.0,516.0
530.0,491.0,500.0,518.0
539.0,489.0,492.0,522.0
543.0,495.0,482.0,527.0
536.0,518.0,473.0,529.0
542.0,504.0,478.0,521.0
519.0,512.0,488.0,524.0
522.0,507.0,497.0,521.0
528.0,489.0,517.0,517.0
507.0,490.0,535.0,512.0
503.0,497.0,542.0,512.0
507.0,503.0,547.0,509.0
502.0,526.0,540.0,510.0
505.0,537.0,533.0,519.0
504.0,523.0,532.0,512.0
514.0,517.0,523.0,509.0
515.0,498.0,520.0,515.0
515.0,478.0,509.0,513.0
509.0,485.0,499.0,523.0
496.0,495.0,494.0,523.0
500.0,517.0,478.0,521.0
493.0,535.0,474.0,522.0
496.0,526.0,483.0,521.0
505.0,517.0,488.0,523.0
522.0,501.0,503.0,517.0
543.0,471.0,526.0,516.0
548.0,462.0,537.0,515.0
551.0,468.0,546.0,511.0
551.0,504.0,546.0,510.0
546.0,541.0,537.0,511.0
534.0,531.0,535.0,510.0
503.0,523.0,526.0,509.0
500.0,522.0,519.0,513.0
507.0,513.0,511.0,514.0
488.0,505.0,505.0,517.0
474.0,505.0,494.0,521.0
475.0,513.0,487.0,522.0
478.0,548.0,480.0,524.0
477.0,566.0,477.0,525.0
485.0,551.0,487.0,521.0
489.0,537.0,495.0,521.0
504.0,458.0,511.0,517.0
520.0,468.0,533.0,513.0
522.0,485.0,547.0,513.0
517.0,499.0,550.0,508.0
503.0,502.0,544.0,512.0
496.0,507.0,539.0,509.0
497.0,489.0,538.0,507.0
490.0,502.0,531.0,509.0
488.0,515.0,521.0,513.0
507.0,497.0,514.0,513.0
518.0,498.0,505.0,518.0
515.0,500.0,494.0,519.0
509.0,507.0,485.0,525.0
492.0,551.0,479.0,525.0
501.0,536.0,484.0,524.0
506.0,533.0,496.0,522.0
513.0,518.0,507.0,520.0
523.0,497.0,530.0,519.0
525.0,485.0,551.0,516.0
524.0,489.0,563.0,510.0
521.0,487.0,565.0,512.0
507.0,514.0,558.0,515.0
498.0,525.0,556.0,511.0
500.0,522.0,552.0,510.0
500.0,527.0,543.0,510.0
508.0,513.0,534.0,514.0
525.0,481.0,531.0,518.0
523.0,490.0,521.0,518.0
521.0,499.0,510.0,523.0
518.0,509.0,500.0,524.0
507.0,531.0,497.0,526.0
513.0,522.0,502.0,523.0
512.0,512.0,508.0,521.0
519.0,510.0,523.0,520.0
529.0,484.0,543.0,516.0
531.0,480.0,554.0,511.0
527.0,485.0,565.0,510.0
522.0,496.0,567.0,510.0
506.0,532.0,554.0,507.0
506.0,521.0,551.0,511.0
502.0,523.0,544.0,514.0
506.0,518.0,534.0,515.0
511.0,499.0,524.0,515.0
511.0,488.0,518.0,515.0
514.0,492.0,506.0,520.0
518.0,496.0,496.0,524.0
509.0,522.0,489.0,525.0
506.0,527.0,488.0,526.0
509.0,518.0,495.0,523.0
512.0,514.0,502.0,522.0
523.0,496.0,525.0,520.0
530.0,477.0,540.0,515.0
536.0,478.0,548.0,514.0
529.0,483.0,551.0,512.0
520.0,501.0,549.0,510.0
509.0,523.0,539.0,513.0
506.0,530.0,531.0,510.0
499.0,543.0,529.0,509.0
504.0,536.0,516.0,514.0
521.0,516.0,513.0,515.0
527.0,472.0,506.0,522.0
513.0,472.0,493.0,523.0
513.0,490.0,486.0,525.0
506.0,513.0,479.0,527.0
512.0,508.0,481.0,524.0
509.0,517.0,487.0,523.0
528.0,495.0,498.0,523.0
537.0,484.0,516.0,518.0
527.0,483.0,533.0,515.0
518.0,491.0,543.0,510.0
525.0,488.0,546.0,507.0
512.0,518.0,543.0,513.0
502.0,522.0,534.0,509.0
498.0,515.0,531.0,509.0
505.0,511.0,526.0,520.0
510.0,510.0,518.0,514.0
514.0,493.0,503.0,513.0
494.0,499.0,497.0,519.0
500.0,498.0,490.0,523.0
515.0,515.0,482.0,522.0
516.0,522.0,485.0,524.0
528.0,515.0,486.0,522.0
515.0,535.0,488.0,521.0
521.0,517.0,502.0,516.0
536.0,474.0,526.0,515.0
523.0,468.0,538.0,510.0
489.0,479.0,546.0,508.0
489.0,496.0,545.0,508.0
484.0,528.0,537.0,510.0
487.0,521.0,531.0,509.0
492.0,528.0,529.0,507.0
497.0,522.0,516.0,510.0
508.0,523.0,508.0,513.0
516.0,510.0,501.0,516.0
522.0,498.0,495.0,520.0
528.0,465.0,484.0,522.0
525.0,490.0,477.0,525.0
509.0,548.0,480.0,523.0
511.0,535.0,493.0,524.0
508.0,535.0,491.0,519.0
513.0,528.0,506.0,520.0
524.0,488.0,528.0,509.0
522.0,478.0,539.0,514.0
522.0,474.0,546.0,511.0
509.0,482.0,541.0,509.0
501.0,491.0,534.0,507.0
511.0,498.0,530.0,505.0
509.0,519.0,526.0,507.0
509.0,537.0,512.0,510.0
518.0,518.0,509.0,512.0
511.0,498.0,500.0,522.0
516.0,497.0,491.0,517.0
520.0,507.0,483.0,523.0
505.0,535.0,473.0,524.0
510.0,517.0,481.0,520.0
509.0,512.0,485.0,518.0
514.0,505.0,498.0,518.0
527.0,480.0,514.0,513.0
528.0,476.0,529.0,512.0
521.0,489.0,542.0,512.0
517.0,493.0,545.0,508.0
505.0,520.0,538.0,511.0
499.0,541.0,532.0,508.0
498.0,558.0,531.0,507.0
497.0,560.0,521.0,506.0
507.0,544.0,510.0,513.0
527.0,493.0,507.0,511.0
523.0,466.0,496.0,518.0
517.0,474.0,487.0,520.0
512.0,498.0,478.0,523.0
501.0,518.0,473.0,523.0
515.0,505.0,480.0,522.0
512.0,540.0,489.0,518.0
520.0,536.0,500.0,516.0
533.0,490.0,521.0,514.0
535.0,478.0,537.0,511.0
529.0,472.0,544.0,509.0
520.0,485.0,546.0,511.0
508.0,513.0,535.0,509.0
506.0,513.0,533.0,510.0
502.0,519.0,527.0,510.0
506.0,513.0,517.0,509.0
515.0,498.0,513.0,509.0
521.0,489.0,510.0,517.0
520.0,496.0,500.0,522.0
522.0,497.0,489.0,519.0
507.0,529.0,479.0,522.0
504.0,532.0,481.0,522.0
516.0,523.0,486.0,522.0
513.0,513.0,495.0,518.0
522.0,498.0,510.0,515.0
532.0,481.0,530.0,512.0
531.0,484.0,545.0,510.0
525.0,489.0,549.0,509.0
514.0,502.0,545.0,509.0
506.0,521.0,536.0,511.0
510.0,509.0,531.0,511.0
502.0,521.0,524.0,508.0
506.0,524.0,516.0,515.0
517.0,496.0,511.0,516.0
521.0,496.0,504.0,515.0
518.0,507.0,500.0,520.0
520.0,511.0,497.0,524.0
509.0,526.0,493.0,527.0
512.0,517.0,488.0,521.0
515.0,504.0,489.0,518.0
519.0,499.0,493.0,512.0
522.0,498.0,506.0,514.0
528.0,479.0,530.0,513.0
526.0,482.0,542.0,512.0
522.0,482.0,544.0,510.0
509.0,504.0,541.0,509.0
502.0,503.0,541.0,511.0
502.0,509.0,533.0,507.0
499.0,531.0,523.0,508.0
501.0,534.0,512.0,510.0
518.0,506.0,509.0,517.0
521.0,502.0,498.0,515.0
519.0,501.0,488.0,519.0
514.0,513.0,476.0,523.0
507.0,531.0,473.0,521.0
512.0,521.0,482.0,518.0
510.0,530.0,489.0,519.0
520.0,513.0,502.0,516.0
530.0,488.0,520.0,509.0
528.0,484.0,536.0,506.0
524.0,488.0,540.0,509.0
522.0,493.0,541.0,507.0
506.0,510.0,535.0,509.0
508.0,500.0,533.0,507.0
508.0,510.0,528.0,509.0
507.0,505.0,515.0,508.0
514.0,511.0,510.0,510.0
521.0,514.0,503.0,512.0
519.0,516.0,494.0,517.0
518.0,509.0,486.0,522.0
502.0,527.0,471.0,521.0
506.0,518.0,478.0,521.0
514.0,508.0,482.0,519.0
516.0,528.0,489.0,519.0
517.0,539.0,505.0,517.0
531.0,521.0,528.0,511.0
530.0,509.0,540.0,511.0
535.0,470.0,543.0,508.0
525.0,457.0,539.0,507.0
491.0,492.0,534.0,508.0
502.0,505.0,531.0,511.0
495.0,508.0,528.0,509.0
516.0,506.0,516.0,508.0
530.0,498.0,510.0,520.0
535.0,496.0,501.0,514.0
537.0,493.0,490.0,517.0
522.0,506.0,481.0,519.0
513.0,531.0,476.0,523.0
502.0,526.0,477.0,523.0
480.0,540.0,487.0,518.0
488.0,512.0,498.0,517.0
499.0,488.0,512.0,514.0
505.0,469.0,528.0,509.0
515.0,465.0,543.0,509.0
514.0,481.0,549.0,510.0
508.0,515.0,539.0,506.0
490.0,541.0,535.0,505.0
494.0,523.0,530.0,505.0
488.0,520.0,522.0,506.0
506.0,508.0,513.0,507.0
516.0,462.0,506.0,511.0
525.0,467.0,498.0,513.0
521.0,518.0,486.0,517.0
516.0,542.0,477.0,520.0
505.0,548.0,483.0,522.0
515.0,525.0,482.0,522.0
514.0,521.0,487.0,516.0
517.0,507.0,501.0,516.0
527.0,485.0,523.0,511.0
527.0,490.0,535.0,509.0
526.0,506.0,545.0,507.0
519.0,498.0,546.0,510.0
505.0,524.0,540.0,504.0
506.0,526.0,536.0,504.0
500.0,531.0,530.0,507.0
499.0,525.0,520.0,511.0
509.0,515.0,511.0,510.0
521.0,492.0,505.0,510.0
522.0,496.0,493.0,514.0
518.0,500.0,487.0,515.0
512.0,522.0,479.0,522.0
505.0,531.0,480.0,519.0
506.0,529.0,486.0,518.0
512.0,522.0,490.0,515.0
515.0,505.0,509.0,514.0
529.0,480.0,529.0,510.0
527.0,482.0,541.0,508.0
525.0,488.0,548.0,504.0
516.0,503.0,544.0,509.0
502.0,519.0,539.0,505.0
506.0,515.0,533.0,506.0
500.0,526.0,528.0,507.0
509.0,512.0,515.0,508.0
518.0,497.0,511.0,511.0
525.0,489.0,505.0,517.0
520.0,498.0,498.0,517.0
517.0,505.0,482.0,517.0
509.0,520.0,476.0,518.0
516.0,511.0,479.0,526.0
513.0,514.0,487.0,517.0
517.0,511.0,497.0,517.0
523.0,500.0,511.0,513.0
539.0,478.0,529.0,509.0
529.0,482.0,542.0,510.0
522.0,499.0,547.0,508.0
509.0,530.0,538.0,510.0
498.0,545.0,535.0,509.0
501.0,534.0,534.0,507.0
507.0,495.0,530.0,509.0
505.0,501.0,521.0,513.0
520.0,495.0,515.0,511.0
523.0,486.0,504.0,515.0
518.0,496.0,495.0,514.0
515.0,508.0,487.0,517.0
510.0,526.0,476.0,517.0
511.0,512.0,480.0,518.0
509.0,511.0,489.0,522.0
516.0,501.0,501.0,517.0
525.0,478.0,518.0,514.0
530.0,477.0,537.0,512.0
525.0,484.0,551.0,514.0
524.0,497.0,556.0,514.0
503.0,539.0,545.0,513.0
500.0,527.0,543.0,511.0
508.0,519.0,536.0,512.0
514.0,508.0,527.0,511.0
517.0,503.0,510.0,510.0
523.0,493.0,502.0,507.0
523.0,497.0,490.0,510.0
521.0,500.0,480.0,513.0
510.0,533.0,473.0,516.0
509.0,517.0,481.0,518.0
516.0,502.0,489.0,518.0
521.0,497.0,496.0,516.0
523.0,488.0,509.0,516.0
533.0,482.0,529.0,507.0
534.0,480.0,540.0,503.0
525.0,492.0,543.0,498.0
515.0,509.0,542.0,501.0
506.0,520.0,535.0,501.0
508.0,512.0,533.0,499.0
500.0,524.0,523.0,500.0
511.0,506.0,515.0,501.0
519.0,508.0,506.0,510.0
519.0,509.0,504.0,513.0
518.0,518.0,493.0,518.0
516.0,528.0,480.0,517.0
505.0,514.0,476.0,517.0
511.0,490.0,482.0,520.0
509.0,512.0,488.0,519.0
513.0,524.0,493.0,518.0
520.0,513.0,512.0,515.0
531.0,486.0,535.0,513.0
526.0,487.0,547.0,511.0
519.0,495.0,552.0,514.0
504.0,508.0,547.0,517.0
502.0,534.0,543.0,515.0
502.0,527.0,536.0,512.0
498.0,528.0,530.0,504.0
507.0,501.0,511.0,503.0
525.0,467.0,505.0,504.0
537.0,463.0,489.0,507.0
523.0,509.0,482.0,508.0
515.0,517.0,472.0,516.0
510.0,539.0,472.0,515.0
514.0,532.0,479.0,518.0
514.0,536.0,485.0,517.0
513.0,529.0,499.0,516.0
525.0,498.0,524.0,512.0
530.0,478.0,540.0,506.0
524.0,472.0,549.0,513.0
525.0,475.0,555.0,512.0
514.0,507.0,543.0,511.0
505.0,504.0,534.0,515.0
502.0,510.0,527.0,516.0
503.0,544.0,527.0,514.0
507.0,535.0,512.0,512.0
520.0,499.0,511.0,509.0
523.0,492.0,503.0,518.0
525.0,490.0,497.0,526.0
515.0,515.0,486.0,519.0
503.0,528.0,473.0,514.0
507.0,521.0,474.0,509.0
510.0,510.0,488.0,509.0
524.0,486.0,501.0,507.0
531.0,480.0,524.0,501.0
528.0,486.0,541.0,500.0
526.0,484.0,545.0,498.0
516.0,500.0,540.0,494.0
495.0,518.0,531.0,496.0
508.0,495.0,536.0,500.0
507.0,505.0,530.0,498.0
511.0,498.0,519.0,504.0
522.0,499.0,510.0,506.0
525.0,504.0,502.0,511.0
522.0,507.0,490.0,513.0
517.0,514.0,485.0,520.0
506.0,528.0,479.0,524.0
509.0,518.0,483.0,520.0
510.0,520.0,489.0,516.0
512.0,511.0,497.0,514.0
525.0,494.0,514.0,508.0
531.0,479.0,530.0,508.0
528.0,485.0,545.0,507.0
523.0,489.0,551.0,504.0
509.0,513.0,546.0,508.0
495.0,530.0,540.0,508.0
499.0,523.0,536.0,507.0
501.0,517.0,531.0,510.0
505.0,509.0,518.0,510.0
518.0,489.0,511.0,514.0
522.0,489.0,502.0,513.0
519.0,494.0,492.0,515.0
514.0,503.0,481.0,520.0
499.0,527.0,485.0,522.0
507.0,506.0,484.0,521.0
503.0,522.0,490.0,520.0
518.0,493.0,505.0,517.0
533.0,474.0,525.0,511.0
534.0,476.0,541.0,510.0
527.0,488.0,547.0,510.0
518.0,505.0,550.0,508.0
502.0,533.0,541.0,508.0
503.0,518.0,540.0,506.0
505.0,524.0,534.0,507.0
503.0,523.0,526.0,507.0
512.0,520.0,517.0,512.0
528.0,494.0,506.0,512.0
523.0,490.0,499.0,518.0
517.0,498.0,487.0,520.0
511.0,513.0,482.0,524.0
504.0,535.0,481.0,523.0
505.0,512.0,487.0,522.0
504.0,511.0,493.0,520.0
513.0,501.0,513.0,517.0
531.0,479.0,533.0,511.0
530.0,479.0,545.0,509.0
523.0,492.0,553.0,510.0
515.0,510.0,548.0,509.0
501.0,516.0,543.0,510.0
505.0,509.0,537.0,509.0
502.0,529.0,531.0,508.0
508.0,523.0,522.0,509.0
517.0,529.0,513.0,513.0
516.0,534.0,506.0,514.0
515.0,541.0,495.0,513.0
517.0,520.0,486.0,523.0
506.0,501.0,477.0,520.0
512.0,503.0,484.0,522.0
517.0,494.0,489.0,520.0
518.0,475.0,501.0,517.0
533.0,467.0,517.0,514.0
533.0,449.0,534.0,512.0
540.0,456.0,545.0,509.0
534.0,487.0,548.0,507.0
517.0,517.0,546.0,507.0
513.0,515.0,540.0,505.0
519.0,524.0,535.0,508.0
513.0,532.0,527.0,507.0
519.0,506.0,518.0,509.0
515.0,488.0,513.0,512.0
510.0,494.0,503.0,516.0
501.0,504.0,493.0,518.0
495.0,524.0,483.0,523.0
484.0,530.0,485.0,523.0
502.0,533.0,485.0,521.0
504.0,530.0,493.0,519.0
510.0,509.0,503.0,517.0
523.0,483.0,524.0,515.0
526.0,481.0,539.0,510.0
520.0,500.0,550.0,511.0
515.0,507.0,552.0,508.0
497.0,535.0,542.0,506.0
500.0,535.0,537.0,506.0
497.0,516.0,534.0,506.0
500.0,497.0,526.0,507.0
508.0,471.0,515.0,510.0
523.0,484.0,511.0,512.0
516.0,513.0,499.0,515.0
512.0,502.0,490.0,519.0
515.0,516.0,481.0,520.0
507.0,534.0,477.0,522.0
510.0,525.0,483.0,519.0
513.0,513.0,494.0,515.0
517.0,506.0,507.0,517.0
532.0,477.0,531.0,511.0
531.0,484.0,542.0,511.0
529.0,491.0,551.0,508.0
520.0,494.0,550.0,508.0
509.0,505.0,542.0,504.0
505.0,496.0,538.0,503.0
496.0,511.0,531.0,505.0
496.0,509.0,518.0,509.0
507.0,490.0,513.0,515.0
518.0,491.0,507.0,515.0
517.0,510.0,497.0,520.0
524.0,514.0,488.0,521.0
509.0,527.0,480.0,523.0
510.0,529.0,482.0,522.0
513.0,514.0,490.0,519.0
519.0,502.0,500.0,519.0
525.0,499.0,514.0,512.0
535.0,470.0,536.0,511.0
530.0,479.0,547.0,511.0
526.0,494.0,550.0,508.0
512.0,519.0,544.0,511.0
502.0,536.0,539.0,509.0
507.0,523.0,536.0,508.0
499.0,528.0,526.0,509.0
504.0,520.0,518.0,512.0
518.0,497.0,509.0,513.0
519.0,501.0,499.0,517.0
521.0,497.0,492.0,520.0
519.0,506.0,483.0,521.0
508.0,519.0,477.0,521.0
514.0,510.0,484.0,519.0
511.0,514.0,493.0,520.0
515.0,512.0,498.0,516.0
529.0,485.0,522.0,514.0
528.0,478.0,538.0,515.0
526.0,479.0,549.0,508.0
521.0,487.0,550.0,509.0
505.0,519.0,544.0,507.0
500.0,513.0,537.0,509.0
500.0,514.0,533.0,507.0
502.0,507.0,521.0,509.0
511.0,507.0,514.0,513.0
521.0,493.0,509.0,513.0
520.0,497.0,497.0,517.0
520.0,502.0,490.0,527.0
512.0,535.0,480.0,526.0
501.0,551.0,477.0,527.0
508.0,544.0,486.0,525.0
508.0,539.0,493.0,524.0
517.0,492.0,504.0,521.0
527.0,463.0,530.0,515.0
526.0,472.0,539.0,512.0
525.0,482.0,552.0,513.0
519.0,495.0,559.0,513.0
505.0,521.0,561.0,518.0
508.0,517.0,553.0,516.0
507.0,524.0,538.0,512.0
507.0,517.0,521.0,509.0
517.0,503.0,507.0,506.0
522.0,489.0,500.0,502.0
521.0,495.0,487.0,505.0
519.0,499.0,478.0,508.0
509.0,509.0,472.0,514.0
511.0,504.0,475.0,511.0
515.0,494.0,484.0,511.0
514.0,501.0,493.0,510.0
519.0,497.0,507.0,508.0
529.0,486.0,530.0,507.0
528.0,486.0,542.0,507.0
523.0,478.0,549.0,506.0
516.0,501.0,541.0,505.0
499.0,530.0,532.0,506.0
500.0,525.0,531.0,509.0
495.0,534.0,523.0,507.0
512.0,512.0,519.0,510.0
519.0,507.0,513.0,513.0
522.0,510.0,503.0,513.0
521.0,512.0,494.0,520.0
516.0,529.0,483.0,521.0
503.0,498.0,481.0,523.0
510.0,483.0,481.0,517.0
509.0,526.0,490.0,518.0
516.0,514.0,502.0,518.0
528.0,484.0,524.0,518.0
535.0,486.0,538.0,509.0
531.0,494.0,548.0,507.0
523.0,497.0,546.0,504.0
506.0,522.0,539.0,504.0
503.0,517.0,536.0,503.0
506.0,503.0,531.0,506.0
499.0,525.0,525.0,506.0
507.0,515.0,514.0,507.0
522.0,488.0,507.0,515.0
523.0,497.0,500.0,519.0
521.0,516.0,490.0,525.0
511.0,527.0,484.0,530.0
506.0,536.0,483.0,530.0
518.0,504.0,490.0,525.0
510.0,498.0,494.0,524.0
518.0,482.0,511.0,517.0
530.0,479.0,529.0,510.0
534.0,483.0,541.0,505.0
527.0,485.0,548.0,503.0
515.0,499.0,547.0,500.0
501.0,520.0,537.0,498.0
501.0,509.0,531.0,502.0
501.0,518.0,526.0,502.0
507.0,522.0,519.0,507.0
518.0,504.0,513.0,508.0
522.0,488.0,505.0,514.0
522.0,491.0,493.0,516.0
518.0,499.0,483.0,521.0
509.0,523.0,475.0,521.0
508.0,519.0,477.0,520.0
512.0,519.0,483.0,519.0
518.0,506.0,496.0,516.0
522.0,498.0,514.0,515.0
527.0,482.0,535.0,510.0
526.0,488.0,543.0,510.0
522.0,481.0,552.0,509.0
507.0,496.0,546.0,510.0
496.0,519.0,537.0,509.0
496.0,511.0,532.0,515.0
495.0,508.0,528.0,513.0
504.0,505.0,519.0,514.0
515.0,504.0,516.0,519.0
525.0,503.0,505.0,523.0
528.0,493.0,496.0,525.0
527.0,507.0,488.0,529.0
516.0,524.0,483.0,527.0
526.0,516.0,484.0,518.0
519.0,518.0,491.0,521.0
523.0,509.0,505.0,515.0
525.0,497.0,521.0,508.0
526.0,487.0,538.0,506.0
526.0,485.0,547.0,502.0
517.0,492.0,548.0,505.0
499.0,522.0,544.0,506.0
493.0,540.0,536.0,505.0
496.0,548.0,529.0,506.0
495.0,523.0,521.0,505.0
507.0,490.0,512.0,506.0
520.0,479.0,506.0,510.0
517.0,489.0,492.0,514.0
514.0,492.0,491.0,520.0
509.0,520.0,479.0,521.0
504.0,529.0,477.0,523.0
510.0,512.0,485.0,524.0
507.0,511.0,491.0,515.0
520.0,491.0,511.0,518.0
529.0,481.0,529.0,516.0
528.0,482.0,544.0,517.0
525.0,486.0,555.0,513.0
521.0,503.0,552.0,507.0
509.0,526.0,542.0,506.0
509.0,518.0,535.0,506.0
505.0,522.0,528.0,503.0
502.0,527.0,517.0,505.0
514.0,507.0,512.0,508.0
521.0,499.0,502.0,511.0
518.0,500.0,493.0,518.0
517.0,479.0,485.0,517.0
508.0,506.0,475.0,522.0
507.0,507.0,476.0,519.0
505.0,513.0,481.0,519.0
514.0,497.0,494.0,519.0
521.0,490.0,513.0,515.0
528.0,475.0,535.0,510.0
526.0,474.0,548.0,509.0
525.0,483.0,553.0,506.0
510.0,503.0,547.0,509.0
491.0,550.0,543.0,508.0
493.0,559.0,537.0,504.0
495.0,551.0,527.0,507.0
513.0,503.0,515.0,512.0
523.0,448.0,514.0,512.0
519.0,455.0,504.0,515.0
518.0,474.0,491.0,518.0
517.0,488.0,480.0,520.0
503.0,553.0,475.0,520.0
512.0,527.0,483.0,522.0
508.0,516.0,496.0,520.0
518.0,502.0,499.0,517.0
527.0,483.0,520.0,518.0
530.0,482.0,537.0,508.0
526.0,493.0,546.0,508.0
518.0,497.0,552.0,508.0
502.0,530.0,540.0,508.0
496.0,534.0,537.0,505.0
506.0,509.0,534.0,507.0
507.0,510.0,522.0,508.0
509.0,508.0,517.0,511.0
517.0,508.0,512.0,516.0
518.0,516.0,499.0,515.0
517.0,510.0,485.0,521.0
515.0,502.0,479.0,525.0
506.0,501.0,481.0,524.0
514.0,506.0,484.0,524.0
519.0,522.0,490.0,519.0
532.0,509.0,506.0,518.0
535.0,490.0,526.0,509.0
529.0,498.0,542.0,507.0
525.0,470.0,547.0,504.0
518.0,481.0,545.0,506.0
510.0,511.0,536.0,505.0
503.0,508.0,536.0,504.0
499.0,509.0,532.0,504.0
499.0,501.0,522.0,508.0
512.0,484.0,515.0,510.0
517.0,477.0,509.0,516.0
515.0,486.0,492.0,518.0
518.0,490.0,486.0,519.0
507.0,536.0,474.0,520.0
508.0,537.0,478.0,523.0
516.0,512.0,490.0,520.0
516.0,510.0,495.0,519.0
525.0,499.0,514.0,516.0
527.0,481.0,533.0,511.0
527.0,484.0,545.0,509.0
521.0,495.0,551.0,510.0
505.0,511.0,546.0,509.0
502.0,520.0,542.0,510.0
510.0,511.0,537.0,508.0
504.0,517.0,532.0,508.0
503.0,521.0,515.0,510.0
518.0,496.0,511.0,508.0
521.0,497.0,499.0,512.0
521.0,496.0,491.0,514.0
521.0,502.0,481.0,517.0
513.0,522.0,472.0,518.0
515.0,513.0,482.0,518.0
515.0,518.0,489.0,520.0
519.0,516.0,503.0,518.0
526.0,504.0,523.0,519.0
529.0,486.0,541.0,517.0
524.0,483.0,551.0,514.0
519.0,480.0,555.0,512.0
505.0,507.0,550.0,509.0
499.0,522.0,544.0,506.0
509.0,515.0,536.0,504.0
505.0,518.0,523.0,499.0
509.0,510.0,513.0,503.0
518.0,496.0,505.0,504.0
513.0,499.0,493.0,510.0
517.0,505.0,484.0,517.0
514.0,516.0,473.0,519.0
498.0,535.0,476.0,520.0
505.0,527.0,481.0,519.0
512.0,515.0,492.0,516.0
521.0,504.0,509.0,518.0
529.0,481.0,531.0,511.0
524.0,481.0,546.0,511.0
521.0,480.0,551.0,509.0
517.0,491.0,547.0,514.0
497.0,525.0,539.0,508.0
498.0,521.0,536.0,507.0
505.0,514.0,531.0,504.0
508.0,506.0,518.0,508.0
516.0,504.0,510.0,509.0
522.0,499.0,502.0,509.0
523.0,501.0,492.0,514.0
518.0,504.0,483.0,520.0
514.0,517.0,476.0,520.0
503.0,516.0,478.0,520.0
509.0,504.0,483.0,517.0
510.0,503.0,498.0,520.0
517.0,504.0,514.0,516.0
529.0,484.0,534.0,513.0
528.0,490.0,549.0,508.0
527.0,494.0,551.0,507.0
515.0,508.0,547.0,508.0
503.0,517.0,542.0,506.0
502.0,512.0,537.0,506.0
497.0,519.0,526.0,508.0
502.0,506.0,519.0,507.0
517.0,472.0,511.0,511.0
518.0,471.0,504.0,512.0
524.0,481.0,492.0,519.0
521.0,493.0,483.0,521.0
500.0,550.0,476.0,527.0
501.0,519.0,479.0,525.0
505.0,509.0,492.0,521.0
516.0,509.0,504.0,518.0
522.0,517.0,522.0,515.0
524.0,508.0,540.0,511.0
526.0,507.0,547.0,509.0
522.0,512.0,551.0,507.0
505.0,511.0,545.0,510.0
500.0,512.0,542.0,509.0
501.0,516.0,535.0,509.0
501.0,506.0,528.0,510.0
515.0,498.0,520.0,508.0
523.0,488.0,512.0,511.0
521.0,505.0,499.0,517.0
518.0,512.0,489.0,520.0
512.0,530.0,479.0,520.0
503.0,531.0,476.0,520.0
515.0,484.0,483.0,516.0
508.0,523.0,490.0,517.0
516.0,512.0,505.0,516.0
528.0,487.0,533.0,513.0
532.0,479.0,545.0,510.0
533.0,484.0,554.0,506.0
528.0,497.0,558.0,508.0
515.0,504.0,545.0,506.0
511.0,487.0,540.0,509.0
502.0,520.0,534.0,506.0
502.0,523.0,522.0,509.0
508.0,501.0,515.0,512.0
516.0,494.0,507.0,513.0
510.0,498.0,497.0,518.0
511.0,492.0,488.0,516.0
503.0,516.0,479.0,524.0
501.0,512.0,480.0,521.0
507.0,498.0,488.0,522.0
515.0,493.0,497.0,519.0
522.0,486.0,513.0,515.0
526.0,492.0,534.0,512.0
527.0,507.0,547.0,510.0
522.0,500.0,554.0,505.0
510.0,519.0,551.0,510.0
497.0,537.0,541.0,507.0
505.0,522.0,541.0,507.0
509.0,519.0,534.0,509.0
508.0,504.0,519.0,510.0
513.0,493.0,513.0,507.0
518.0,489.0,506.0,515.0
517.0,496.0,496.0,520.0
517.0,504.0,485.0,523.0
504.0,525.0,478.0,522.0
506.0,531.0,480.0,521.0
515.0,510.0,491.0,515.0
515.0,504.0,498.0,515.0
525.0,488.0,522.0,511.0
529.0,480.0,541.0,512.0
524.0,487.0,552.0,511.0
521.0,492.0,550.0,512.0
509.0,521.0,547.0,513.0
499.0,527.0,543.0,511.0
506.0,516.0,540.0,514.0
504.0,517.0,533.0,511.0
509.0,511.0,525.0,519.0
521.0,487.0,519.0,521.0
520.0,491.0,510.0,523.0
519.0,496.0,494.0,521.0
516.0,508.0,481.0,518.0
501.0,524.0,476.0,517.0
508.0,514.0,482.0,515.0
504.0,523.0,488.0,511.0
512.0,510.0,503.0,512.0
531.0,482.0,527.0,509.0
531.0,472.0,538.0,506.0
524.0,489.0,546.0,500.0
520.0,504.0,546.0,500.0
503.0,528.0,539.0,502.0
503.0,533.0,534.0,502.0
505.0,524.0,533.0,506.0
502.0,516.0,521.0,508.0
511.0,509.0,512.0,507.0
521.0,488.0,505.0,512.0
519.0,495.0,495.0,519.0
519.0,498.0,487.0,522.0
508.0,519.0,479.0,523.0
506.0,523.0,481.0,523.0
513.0,512.0,490.0,518.0
509.0,507.0,497.0,517.0
517.0,504.0,510.0,512.0
528.0,486.0,534.0,511.0
525.0,502.0,542.0,511.0
523.0,513.0,551.0,505.0
515.0,525.0,548.0,509.0
501.0,514.0,542.0,510.0
509.0,484.0,539.0,509.0
503.0,480.0,534.0,508.0
504.0,494.0,524.0,513.0
518.0,485.0,517.0,513.0
522.0,495.0,506.0,515.0
519.0,501.0,493.0,518.0
511.0,510.0,485.0,521.0
500.0,524.0,481.0,522.0
506.0,514.0,481.0,521.0
513.0,501.0,491.0,520.0
511.0,501.0,501.0,514.0
518.0,482.0,519.0,512.0
524.0,474.0,536.0,510.0
524.0,491.0,548.0,505.0
522.0,491.0,548.0,505.0
508.0,518.0,544.0,503.0
499.0,536.0,540.0,505.0
503.0,530.0,540.0,504.0
499.0,528.0,528.0,504.0
508.0,508.0,515.0,507.0
524.0,477.0,514.0,513.0
524.0,476.0,500.0,515.0
519.0,491.0,492.0,518.0
512.0,516.0,483.0,520.0
508.0,531.0,481.0,519.0
513.0,526.0,487.0,516.0
510.0,516.0,494.0,517.0
521.0,491.0,509.0,514.0
532.0,471.0,531.0,511.0
527.0,477.0,545.0,510.0
522.0,492.0,551.0,509.0
519.0,504.0,553.0,508.0
496.0,523.0,545.0,508.0
506.0,513.0,537.0,507.0
496.0,520.0,533.0,504.0
502.0,501.0,526.0,507.0
513.0,486.0,518.0,511.0
520.0,483.0,508.0,514.0
515.0,508.0,499.0,516.0
514.0,519.0,490.0,522.0
498.0,557.0,481.0,522.0
503.0,552.0,479.0,522.0
523.0,493.0,489.0,519.0
520.0,501.0,498.0,522.0
524.0,496.0,515.0,515.0
530.0,479.0,540.0,512.0
526.0,485.0,546.0,508.0
522.0,493.0,552.0,508.0
513.0,506.0,548.0,506.0
503.0,516.0,547.0,507.0
507.0,510.0,539.0,506.0
506.0,512.0,536.0,508.0
502.0,518.0,520.0,516.0
513.0,489.0,514.0,511.0
518.0,490.0,506.0,517.0
520.0,491.0,496.0,520.0
516.0,504.0,485.0,523.0
505.0,521.0,477.0,524.0
508.0,513.0,486.0,521.0
512.0,509.0,492.0,519.0
512.0,507.0,499.0,516.0
529.0,499.0,522.0,512.0
531.0,491.0,541.0,511.0
529.0,492.0,549.0,507.0
522.0,494.0,554.0,505.0
513.0,508.0,546.0,506.0
501.0,524.0,543.0,508.0
501.0,521.0,536.0,507.0
492.0,524.0,527.0,508.0
499.0,516.0,515.0,517.0
518.0,492.0,513.0,514.0
520.0,494.0,501.0,518.0
520.0,497.0,493.0,520.0
509.0,509.0,480.0,525.0
502.0,527.0,479.0,524.0
511.0,515.0,485.0,517.0
509.0,511.0,493.0,519.0
520.0,499.0,507.0,512.0
528.0,480.0,526.0,513.0
529.0,479.0,541.0,510.0
519.0,480.0,550.0,508.0
517.0,493.0,551.0,508.0
504.0,511.0,543.0,509.0
502.0,515.0,538.0,506.0
507.0,512.0,532.0,507.0
504.0,517.0,521.0,508.0
512.0,502.0,516.0,511.0
518.0,485.0,510.0,516.0
520.0,490.0,500.0,518.0
518.0,496.0,489.0,518.0
506.0,525.0,480.0,521.0
501.0,529.0,481.0,523.0
509.0,524.0,489.0,521.0
509.0,523.0,494.0,520.0
513.0,514.0,514.0,519.0
529.0,495.0,536.0,513.0
522.0,505.0,549.0,510.0
520.0,510.0,553.0,506.0
511.0,531.0,553.0,509.0
493.0,517.0,543.0,507.0
506.0,487.0,535.0,507.0
500.0,501.0,533.0,510.0
513.0,487.0,520.0,505.0
517.0,480.0,510.0,513.0
522.0,491.0,505.0,513.0
519.0,492.0,496.0,515.0
518.0,505.0,486.0,519.0
503.0,527.0,476.0,521.0
507.0,512.0,482.0,518.0
514.0,502.0,492.0,519.0
516.0,504.0,506.0,519.0
524.0,490.0,523.0,516.0
529.0,481.0,545.0,514.0
527.0,482.0,551.0,518.0
518.0,489.0,553.0,509.0
502.0,515.0,547.0,511.0
496.0,524.0,537.0,506.0
506.0,509.0,536.0,512.0
503.0,512.0,529.0,506.0
512.0,507.0,518.0,506.0
517.0,489.0,511.0,511.0
522.0,488.0,502.0,517.0
520.0,491.0,490.0,518.0
515.0,499.0,479.0,523.0
503.0,530.0,478.0,521.0
506.0,517.0,484.0,517.0
509.0,513.0,493.0,513.0
517.0,490.0,507.0,513.0
527.0,484.0,528.0,507.0
529.0,488.0,540.0,507.0
532.0,477.0,550.0,506.0
526.0,488.0,550.0,507.0
508.0,525.0,542.0,505.0
497.0,528.0,539.0,508.0
501.0,522.0,535.0,509.0
501.0,522.0,524.0,510.0
511.0,508.0,514.0,509.0
520.0,488.0,508.0,513.0
524.0,489.0,497.0,515.0
523.0,504.0,488.0,519.0
509.0,524.0,480.0,522.0
503.0,529.0,482.0,522.0
513.0,506.0,490.0,517.0
512.0,512.0,499.0,517.0
518.0,495.0,510.0,515.0
532.0,473.0,534.0,505.0
530.0,480.0,547.0,506.0
520.0,485.0,550.0,505.0
515.0,500.0,547.0,503.0
498.0,524.0,539.0,502.0
499.0,518.0,534.0,506.0
496.0,522.0,531.0,505.0
507.0,508.0,519.0,509.0
518.0,507.0,514.0,510.0
526.0,490.0,504.0,509.0
521.0,499.0,496.0,514.0
516.0,512.0,484.0,520.0
506.0,530.0,480.0,521.0
509.0,522.0,484.0,521.0
515.0,509.0,492.0,515.0
517.0,509.0,502.0,518.0
520.0,496.0,519.0,511.0
526.0,490.0,539.0,508.0
518.0,513.0,549.0,509.0
514.0,529.0,550.0,508.0
501.0,551.0,544.0,510.0
497.0,535.0,540.0,503.0
507.0,478.0,533.0,511.0
508.0,471.0,530.0,508.0
511.0,488.0,516.0,509.0
520.0,466.0,506.0,511.0
517.0,466.0,502.0,515.0
514.0,472.0,488.0,517.0
505.0,504.0,481.0,521.0
495.0,535.0,478.0,522.0
503.0,525.0,485.0,520.0
506.0,525.0,490.0,519.0
520.0,521.0,502.0,516.0
540.0,488.0,527.0,511.0
539.0,483.0,541.0,509.0
529.0,494.0,550.0,510.0
521.0,497.0,553.0,507.0
503.0,526.0,539.0,507.0
497.0,534.0,537.0,504.0
502.0,515.0,533.0,507.0
501.0,528.0,522.0,509.0
514.0,506.0,517.0,509.0
524.0,484.0,512.0,514.0
522.0,494.0,501.0,518.0
521.0,498.0,488.0,522.0
510.0,515.0,480.0,521.0
505.0,519.0,476.0,523.0
511.0,501.0,489.0,520.0
508.0,499.0,496.0,522.0
518.0,490.0,513.0,516.0
533.0,463.0,536.0,512.0
532.0,481.0,546.0,513.0
525.0,492.0,562.0,511.0
518.0,498.0,555.0,509.0
508.0,520.0,546.0,505.0
503.0,520.0,538.0,504.0
488.0,533.0,525.0,505.0
500.0,523.0,520.0,509.0
517.0,491.0,519.0,513.0
518.0,488.0,506.0,514.0
517.0,492.0,493.0,518.0
514.0,495.0,484.0,521.0
507.0,522.0,476.0,520.0
503.0,527.0,481.0,517.0
509.0,511.0,488.0,519.0
514.0,503.0,503.0,517.0
523.0,491.0,522.0,514.0
532.0,480.0,546.0,513.0
526.0,486.0,549.0,511.0
523.0,482.0,554.0,507.0
508.0,508.0,543.0,507.0
497.0,522.0,540.0,505.0
503.0,508.0,541.0,508.0
506.0,509.0,535.0,509.0
512.0,503.0,524.0,508.0
523.0,498.0,518.0,511.0
523.0,498.0,504.0,515.0
521.0,502.0,492.0,514.0
515.0,518.0,481.0,518.0
502.0,534.0,478.0,519.0
515.0,512.0,486.0,525.0
515.0,503.0,494.0,513.0
517.0,494.0,504.0,513.0
521.0,485.0,528.0,507.0
521.0,486.0,540.0,503.0
520.0,503.0,546.0,502.0
515.0,512.0,549.0,500.0
498.0,529.0,541.0,506.0
495.0,529.0,535.0,505.0
506.0,516.0,536.0,504.0
503.0,509.0,526.0,506.0
510.0,500.0,517.0,511.0
517.0,459.0,510.0,514.0
520.0,474.0,498.0,516.0
519.0,483.0,490.0,518.0
511.0,503.0,481.0,517.0
502.0,513.0,478.0,518.0
510.0,508.0,484.0,520.0
507.0,511.0,494.0,513.0
522.0,476.0,513.0,510.0
531.0,458.0,529.0,508.0
529.0,474.0,546.0,509.0
522.0,486.0,556.0,507.0
515.0,512.0,548.0,507.0
500.0,528.0,542.0,504.0
502.0,519.0,539.0,506.0
499.0,527.0,530.0,504.0
499.0,519.0,516.0,508.0
517.0,496.0,514.0,509.0
519.0,495.0,507.0,510.0
522.0,508.0,494.0,517.0
516.0,506.0,487.0,518.0
507.0,516.0,484.0,523.0
510.0,515.0,482.0,521.0
513.0,510.0,491.0,518.0
513.0,512.0,501.0,516.0
521.0,491.0,519.0,514.0
526.0,471.0,537.0,515.0
523.0,494.0,548.0,516.0
518.0,488.0,556.0,511.0
509.0,497.0,551.0,514.0
500.0,514.0,542.0,509.0
498.0,514.0,540.0,506.0
498.0,518.0,528.0,506.0
514.0,540.0,515.0,503.0
523.0,532.0,507.0,507.0
519.0,520.0,500.0,512.0
520.0,510.0,493.0,514.0
517.0,514.0,486.0,517.0
510.0,525.0,483.0,520.0
512.0,521.0,485.0,522.0
506.0,526.0,494.0,518.0
516.0,511.0,505.0,516.0
524.0,489.0,523.0,509.0
528.0,476.0,541.0,507.0
527.0,485.0,549.0,506.0
519.0,493.0,550.0,508.0
503.0,518.0,540.0,506.0
498.0,525.0,536.0,504.0
501.0,514.0,537.0,506.0
498.0,523.0,525.0,508.0
506.0,515.0,517.0,510.0
522.0,495.0,512.0,513.0
522.0,490.0,504.0,515.0
519.0,500.0,495.0,518.0
513.0,515.0,480.0,519.0
506.0,531.0,480.0,519.0
513.0,513.0,488.0,517.0
511.0,517.0,497.0,517.0
518.0,500.0,515.0,517.0
524.0,469.0,535.0,509.0
528.0,472.0,544.0,509.0
526.0,483.0,553.0,505.0
519.0,497.0,550.0,504.0
499.0,528.0,542.0,509.0
502.0,534.0,538.0,506.0
508.0,519.0,533.0,506.0
509.0,511.0,521.0,507.0
512.0,500.0,511.0,512.0
514.0,492.0,506.0,516.0
520.0,492.0,499.0,519.0
521.0,500.0,483.0,522.0
503.0,527.0,481.0,524.0
505.0,524.0,486.0,523.0
508.0,517.0,490.0,522.0
510.0,512.0,502.0,517.0
520.0,492.0,520.0,515.0
529.0,471.0,539.0,509.0
527.0,483.0,549.0,508.0
521.0,490.0,552.0,505.0
508.0,515.0,545.0,505.0
501.0,526.0,542.0,508.0
501.0,520.0,536.0,503.0
500.0,515.0,528.0,507.0
506.0,515.0,517.0,511.0
522.0,497.0,507.0,513.0
520.0,504.0,501.0,518.0
515.0,520.0,493.0,522.0
510.0,505.0,485.0,524.0
504.0,492.0,480.0,532.0
508.0,498.0,486.0,523.0
518.0,500.0,499.0,522.0
521.0,512.0,511.0,516.0
524.0,493.0,529.0,514.0
528.0,483.0,544.0,509.0
525.0,484.0,552.0,507.0
520.0,492.0,552.0,509.0
501.0,517.0,545.0,508.0
497.0,525.0,535.0,507.0
498.0,521.0,533.0,505.0
504.0,523.0,524.0,508.0
508.0,514.0,515.0,512.0
522.0,490.0,509.0,518.0
521.0,504.0,501.0,515.0
520.0,500.0,493.0,521.0
512.0,518.0,481.0,522.0
504.0,529.0,482.0,521.0
510.0,508.0,486.0,517.0
510.0,511.0,492.0,519.0
518.0,498.0,509.0,511.0
531.0,472.0,532.0,509.0
525.0,476.0,544.0,509.0
520.0,493.0,550.0,507.0
514.0,507.0,548.0,503.0
497.0,524.0,541.0,510.0
509.0,504.0,538.0,506.0
507.0,514.0,532.0,507.0
501.0,526.0,519.0,510.0
513.0,522.0,514.0,507.0
520.0,501.0,505.0,510.0
522.0,481.0,495.0,513.0
517.0,500.0,486.0,520.0
501.0,512.0,480.0,521.0
508.0,497.0,484.0,521.0
512.0,499.0,489.0,521.0
513.0,500.0,499.0,518.0
524.0,490.0,519.0,517.0
530.0,474.0,538.0,515.0
527.0,494.0,548.0,507.0
523.0,500.0,550.0,506.0
508.0,519.0,545.0,506.0
496.0,535.0,537.0,507.0
500.0,519.0,534.0,512.0
491.0,522.0,529.0,507.0
498.0,505.0,522.0,510.0
515.0,480.0,513.0,514.0
517.0,476.0,508.0,516.0
518.0,492.0,498.0,518.0
515.0,508.0,486.0,518.0
504.0,530.0,478.0,526.0
510.0,508.0,487.0,521.0
510.0,510.0,494.0,522.0
516.0,506.0,505.0,515.0
526.0,488.0,528.0,515.0
524.0,476.0,543.0,511.0
521.0,474.0,548.0,504.0
516.0,478.0,547.0,505.0
504.0,499.0,541.0,502.0
504.0,514.0,538.0,502.0
515.0,535.0,534.0,506.0
506.0,524.0,525.0,505.0
505.0,523.0,512.0,510.0
516.0,498.0,505.0,514.0
519.0,499.0,495.0,515.0
519.0,497.0,490.0,524.0
510.0,518.0,476.0,525.0
502.0,525.0,479.0,522.0
506.0,509.0,488.0,523.0
507.0,513.0,494.0,521.0
514.0,498.0,512.0,516.0
531.0,478.0,533.0,514.0
527.0,485.0,544.0,512.0
527.0,491.0,549.0,507.0
523.0,501.0,541.0,504.0
504.0,526.0,538.0,501.0
502.0,523.0,534.0,501.0
505.0,516.0,528.0,506.0
502.0,518.0,518.0,509.0
512.0,499.0,514.0,513.0
518.0,492.0,505.0,512.0
520.0,500.0,495.0,513.0
514.0,504.0,481.0,518.0
502.0,535.0,477.0,521.0
506.0,522.0,481.0,516.0
513.0,508.0,485.0,517.0
512.0,497.0,499.0,515.0
520.0,491.0,512.0,511.0
527.0,474.0,533.0,511.0
522.0,475.0,544.0,507.0
520.0,480.0,549.0,507.0
504.0,511.0,541.0,506.0
499.0,524.0,538.0,506.0
500.0,511.0,533.0,507.0
498.0,517.0,526.0,508.0
506.0,513.0,516.0,509.0
515.0,489.0,510.0,512.0
521.0,497.0,500.0,513.0
518.0,497.0,491.0,518.0
515.0,520.0,480.0,520.0
501.0,535.0,474.0,522.0
506.0,530.0,483.0,521.0
511.0,522.0,488.0,517.0
518.0,482.0,501.0,516.0
524.0,476.0,521.0,513.0
528.0,471.0,538.0,509.0
524.0,477.0,549.0,506.0
522.0,478.0,551.0,506.0
507.0,503.0,546.0,510.0
505.0,515.0,541.0,510.0
506.0,520.0,535.0,510.0
502.0,513.0,526.0,519.0
503.0,513.0,513.0,521.0
517.0,489.0,510.0,524.0
517.0,494.0,497.0,519.0
516.0,498.0,490.0,518.0
509.0,518.0,480.0,518.0
503.0,531.0,481.0,516.0
508.0,522.0,486.0,510.0
507.0,516.0,485.0,511.0
513.0,495.0,503.0,508.0
528.0,450.0,526.0,507.0
525.0,467.0,538.0,506.0
524.0,477.0,548.0,505.0
519.0,500.0,545.0,510.0
500.0,540.0,539.0,505.0
498.0,522.0,537.0,507.0
505.0,504.0,529.0,508.0
497.0,508.0,517.0,509.0
512.0,495.0,511.0,509.0
520.0,487.0,503.0,508.0
521.0,493.0,493.0,517.0
515.0,499.0,485.0,519.0
502.0,517.0,478.0,520.0
507.0,511.0,480.0,519.0
509.0,513.0,485.0,516.0
509.0,508.0,495.0,513.0
513.0,509.0,513.0,512.0
525.0,496.0,535.0,508.0
524.0,486.0,544.0,507.0
515.0,488.0,552.0,506.0
511.0,460.0,541.0,507.0
501.0,464.0,537.0,504.0
509.0,529.0,534.0,506.0
503.0,558.0,530.0,507.0
505.0,547.0,516.0,510.0
518.0,513.0,510.0,513.0
519.0,495.0,503.0,516.0
520.0,470.0,491.0,519.0
515.0,488.0,485.0,524.0
509.0,503.0,479.0,525.0
508.0,496.0,490.0,523.0
510.0,512.0,492.0,521.0
510.0,523.0,503.0,520.0
520.0,491.0,523.0,515.0
525.0,475.0,540.0,514.0
522.0,483.0,550.0,507.0
521.0,492.0,550.0,508.0
500.0,519.0,539.0,508.0
492.0,523.0,538.0,504.0
495.0,521.0,534.0,507.0
496.0,519.0,526.0,510.0
512.0,506.0,518.0,510.0
521.0,485.0,508.0,512.0
516.0,504.0,498.0,514.0
516.0,498.0,492.0,517.0
512.0,497.0,479.0,520.0
504.0,518.0,473.0,517.0
511.0,514.0,484.0,516.0
507.0,520.0,489.0,515.0
514.0,510.0,506.0,513.0
524.0,491.0,529.0,510.0
522.0,487.0,542.0,509.0
523.0,484.0,552.0,506.0
513.0,496.0,547.0,503.0
502.0,517.0,539.0,501.0
499.0,515.0,536.0,504.0
505.0,510.0,531.0,505.0
504.0,516.0,518.0,509.0
513.0,501.0,510.0,510.0
518.0,495.0,503.0,515.0
518.0,508.0,496.0,518.0
518.0,508.0,486.0,523.0
505.0,524.0,477.0,524.0
505.0,519.0,479.0,524.0
509.0,506.0,489.0,528.0
512.0,502.0,497.0,519.0
517.0,488.0,514.0,514.0
528.0,469.0,531.0,507.0
522.0,478.0,541.0,504.0
519.0,486.0,547.0,503.0
506.0,506.0,547.0,505.0
494.0,524.0,536.0,504.0
497.0,517.0,533.0,505.0
497.0,521.0,528.0,504.0
502.0,509.0,513.0,508.0
518.0,487.0,510.0,510.0
521.0,483.0,502.0,515.0
523.0,494.0,493.0,515.0
520.0,501.0,483.0,519.0
503.0,532.0,478.0,521.0
511.0,513.0,482.0,520.0
518.0,502.0,497.0,519.0
518.0,503.0,503.0,516.0
525.0,485.0,523.0,514.0
528.0,475.0,538.0,515.0
524.0,481.0,546.0,509.0
521.0,487.0,548.0,507.0
501.0,511.0,548.0,507.0
495.0,526.0,536.0,504.0
501.0,511.0,532.0,508.0
496.0,519.0,522.0,508.0
508.0,504.0,514.0,508.0
519.0,484.0,509.0,514.0
522.0,488.0,499.0,512.0
517.0,498.0,490.0,519.0
509.0,518.0,480.0,523.0
498.0,533.0,477.0,522.0
502.0,520.0,489.0,521.0
513.0,505.0,499.0,518.0
517.0,492.0,514.0,517.0
530.0,472.0,534.0,513.0
527.0,480.0,548.0,510.0
521.0,481.0,554.0,509.0
517.0,497.0,550.0,508.0
504.0,519.0,546.0,505.0
504.0,505.0,542.0,509.0
503.0,507.0,535.0,507.0
504.0,522.0,527.0,508.0
512.0,500.0,519.0,509.0
520.0,495.0,513.0,514.0
517.0,500.0,503.0,515.0
518.0,492.0,494.0,519.0
504.0,516.0,485.0,520.0
507.0,516.0,499.0,521.0
511.0,510.0,500.0,520.0
517.0,498.0,508.0,515.0
520.0,487.0,523.0,513.0
527.0,470.0,543.0,511.0
527.0,471.0,551.0,512.0
518.0,483.0,559.0,508.0
510.0,515.0,556.0,510.0
494.0,537.0,553.0,510.0
497.0,523.0,543.0,511.0
497.0,509.0,536.0,511.0
503.0,510.0,524.0,512.0
514.0,510.0,519.0,509.0
518.0,526.0,510.0,515.0
518.0,513.0,499.0,517.0
518.0,473.0,487.0,522.0
511.0,486.0,486.0,521.0
510.0,498.0,490.0,517.0
517.0,501.0,497.0,516.0
513.0,512.0,511.0,516.0
526.0,494.0,526.0,514.0
531.0,474.0,543.0,510.0
519.0,479.0,554.0,508.0
517.0,493.0,555.0,505.0
499.0,533.0,546.0,502.0
497.0,542.0,543.0,503.0
501.0,524.0,536.0,506.0
499.0,524.0,527.0,502.0
499.0,515.0,517.0,509.0
516.0,490.0,513.0,511.0
516.0,492.0,500.0,514.0
517.0,497.0,491.0,515.0
510.0,506.0,485.0,527.0
508.0,525.0,482.0,520.0
509.0,522.0,489.0,518.0
509.0,516.0,496.0,515.0
518.0,502.0,512.0,516.0
529.0,472.0,533.0,512.0
525.0,476.0,548.0,509.0
520.0,482.0,555.0,505.0
516.0,494.0,552.0,508.0
497.0,530.0,543.0,505.0
500.0,521.0,542.0,505.0
508.0,512.0,537.0,507.0
507.0,514.0,525.0,508.0
509.0,506.0,517.0,512.0
520.0,486.0,508.0,514.0
520.0,491.0,500.0,514.0
519.0,495.0,491.0,516.0
511.0,509.0,485.0,523.0
504.0,518.0,487.0,522.0
509.0,508.0,492.0,521.0
512.0,507.0,501.0,517.0
517.0,495.0,519.0,515.0
522.0,477.0,537.0,513.0
523.0,480.0,549.0,510.0
520.0,486.0,556.0,509.0
510.0,496.0,548.0,506.0
505.0,515.0,543.0,505.0
510.0,508.0,538.0,502.0
510.0,514.0,527.0,504.0
506.0,513.0,516.0,508.0
515.0,495.0,513.0,510.0
519.0,485.0,503.0,515.0
513.0,485.0,496.0,519.0
506.0,499.0,490.0,520.0
501.0,513.0,484.0,523.0
498.0,527.0,485.0,524.0
507.0,513.0,493.0,520.0
506.0,503.0,503.0,516.0
520.0,483.0,523.0,514.0
526.0,472.0,537.0,508.0
523.0,478.0,548.0,504.0
519.0,484.0,552.0,503.0
501.0,510.0,544.0,508.0
494.0,526.0,535.0,506.0
498.0,525.0,533.0,505.0
497.0,520.0,525.0,510.0
502.0,514.0,513.0,511.0
518.0,495.0,510.0,515.0
520.0,493.0,501.0,516.0
520.0,495.0,495.0,523.0
514.0,508.0,484.0,526.0
504.0,518.0,483.0,522.0
506.0,515.0,490.0,519.0
506.0,506.0,499.0,519.0
507.0,506.0,508.0,515.0
520.0,491.0,529.0,511.0
523.0,485.0,543.0,506.0
524.0,458.0,548.0,510.0
520.0,478.0,548.0,508.0
514.0,494.0,540.0,510.0
504.0,521.0,535.0,510.0
511.0,508.0,531.0,513.0
505.0,509.0,524.0,515.0
508.0,504.0,519.0,513.0
518.0,491.0,511.0,514.0
519.0,502.0,499.0,519.0
520.0,499.0,490.0,514.0
507.0,523.0,482.0,525.0
502.0,522.0,487.0,516.0
507.0,518.0,489.0,512.0
508.0,507.0,492.0,509.0
516.0,498.0,505.0,506.0
528.0,477.0,530.0,503.0
524.0,485.0,543.0,503.0
522.0,491.0,551.0,502.0
512.0,509.0,540.0,501.0
499.0,526.0,535.0,501.0
499.0,518.0,531.0,502.0
496.0,524.0,526.0,505.0
497.0,522.0,516.0,507.0
518.0,491.0,512.0,507.0
517.0,488.0,504.0,513.0
518.0,491.0,493.0,516.0
517.0,490.0,483.0,520.0
502.0,522.0,475.0,525.0
501.0,532.0,482.0,521.0
509.0,512.0,492.0,516.0
515.0,510.0,503.0,516.0
527.0,461.0,520.0,513.0
528.0,451.0,541.0,510.0
520.0,478.0,548.0,508.0
515.0,489.0,553.0,506.0
506.0,533.0,547.0,508.0
498.0,545.0,539.0,508.0
511.0,513.0,535.0,505.0
507.0,507.0,525.0,506.0
513.0,494.0,519.0,510.0
521.0,479.0,511.0,513.0
519.0,501.0,502.0,517.0
518.0,504.0,492.0,521.0
513.0,506.0,482.0,523.0
502.0,542.0,479.0,520.0
508.0,526.0,485.0,520.0
510.0,518.0,490.0,517.0
514.0,495.0,508.0,514.0
530.0,475.0,530.0,508.0
529.0,471.0,542.0,508.0
523.0,478.0,551.0,506.0
514.0,500.0,547.0,506.0
501.0,525.0,542.0,504.0
498.0,522.0,536.0,504.0
501.0,518.0,532.0,506.0
500.0,525.0,522.0,507.0
507.0,510.0,516.0,511.0
515.0,488.0,514.0,516.0
519.0,487.0,499.0,518.0
515.0,497.0,490.0,518.0
506.0,515.0,478.0,521.0
503.0,519.0,479.0,521.0
506.0,516.0,484.0,520.0
516.0,502.0,492.0,518.0
522.0,491.0,514.0,514.0
528.0,482.0,535.0,513.0
523.0,477.0,548.0,508.0
517.0,487.0,556.0,510.0
509.0,507.0,555.0,513.0
497.0,523.0,546.0,512.0
503.0,510.0,540.0,508.0
503.0,514.0,528.0,514.0
502.0,520.0,519.0,510.0
513.0,510.0,513.0,509.0
516.0,500.0,503.0,513.0
513.0,508.0,493.0,516.0
516.0,485.0,483.0,517.0
499.0,494.0,478.0,520.0
502.0,501.0,480.0,520.0
508.0,501.0,489.0,517.0
510.0,499.0,503.0,515.0
529.0,474.0,520.0,511.0
526.0,479.0,537.0,510.0
525.0,477.0,548.0,506.0
523.0,480.0,551.0,507.0
509.0,508.0,545.0,504.0
498.0,518.0,537.0,505.0
499.0,514.0,531.0,505.0
502.0,513.0,525.0,507.0
505.0,509.0,515.0,515.0
518.0,492.0,510.0,509.0
519.0,498.0,498.0,516.0
517.0,505.0,491.0,518.0
512.0,513.0,481.0,521.0
502.0,526.0,481.0,522.0
506.0,516.0,487.0,518.0
510.0,507.0,496.0,520.0
514.0,505.0,516.0,518.0
526.0,480.0,532.0,514.0
526.0,472.0,545.0,516.0
524.0,477.0,552.0,507.0
518.0,484.0,548.0,507.0
505.0,506.0,546.0,507.0
498.0,505.0,537.0,504.0
502.0,504.0,534.0,504.0
504.0,513.0,519.0,507.0
510.0,509.0,511.0,508.0
514.0,498.0,504.0,512.0
513.0,506.0,496.0,516.0
513.0,495.0,488.0,519.0
505.0,513.0,478.0,523.0
496.0,518.0,485.0,524.0
506.0,505.0,493.0,524.0
507.0,511.0,500.0,517.0
516.0,503.0,517.0,515.0
528.0,482.0,535.0,508.0
523.0,491.0,545.0,507.0
519.0,492.0,548.0,506.0
511.0,504.0,545.0,505.0
496.0,520.0,539.0,507.0
491.0,534.0,535.0,506.0
496.0,530.0,528.0,504.0
502.0,517.0,518.0,506.0
513.0,498.0,508.0,510.0
517.0,485.0,502.0,515.0
522.0,474.0,493.0,517.0
520.0,481.0,483.0,519.0
508.0,508.0,479.0,521.0
512.0,511.0,484.0,521.0
511.0,511.0,488.0,518.0
510.0,505.0,500.0,518.0
519.0,507.0,516.0,513.0
528.0,489.0,537.0,508.0
523.0,492.0,545.0,512.0
521.0,503.0,551.0,507.0
502.0,532.0,544.0,506.0
493.0,542.0,538.0,505.0
500.0,504.0,532.0,508.0
500.0,501.0,525.0,507.0
499.0,514.0,513.0,511.0
516.0,461.0,512.0,515.0
518.0,477.0,501.0,515.0
517.0,516.0,491.0,515.0
507.0,519.0,481.0,520.0
494.0,530.0,474.0,519.0
504.0,503.0,483.0,520.0
509.0,505.0,492.0,516.0
513.0,495.0,506.0,516.0
525.0,469.0,527.0,510.0
525.0,476.0,541.0,507.0
520.0,490.0,550.0,508.0
522.0,503.0,548.0,507.0
506.0,516.0,537.0,506.0
504.0,517.0,534.0,510.0
506.0,516.0,529.0,505.0
502.0,522.0,518.0,508.0
515.0,506.0,510.0,507.0
526.0,493.0,506.0,511.0
524.0,487.0,496.0,513.0
523.0,488.0,486.0,520.0
512.0,516.0,477.0,519.0
502.0,521.0,474.0,521.0
504.0,509.0,483.0,520.0
502.0,509.0,495.0,519.0
510.0,507.0,510.0,521.0
524.0,484.0,533.0,511.0
524.0,478.0,544.0,510.0
519.0,484.0,551.0,507.0
510.0,499.0,544.0,506.0
496.0,527.0,537.0,507.0
496.0,522.0,535.0,505.0
500.0,518.0,526.0,507.0
502.0,517.0,517.0,510.0
509.0,497.0,511.0,512.0
518.0,491.0,506.0,514.0
517.0,492.0,494.0,516.0
517.0,495.0,484.0,519.0
506.0,520.0,478.0,522.0
503.0,525.0,482.0,519.0
507.0,511.0,489.0,520.0
515.0,506.0,500.0,516.0
519.0,487.0,519.0,513.0
527.0,471.0,535.0,510.0
520.0,474.0,548.0,508.0
517.0,490.0,550.0,506.0
506.0,504.0,542.0,507.0
499.0,514.0,540.0,508.0
501.0,518.0,532.0,505.0
502.0,526.0,524.0,504.0
507.0,517.0,515.0,508.0
519.0,494.0,509.0,510.0
519.0,500.0,498.0,522.0
516.0,505.0,495.0,519.0
514.0,515.0,482.0,521.0
502.0,530.0,479.0,522.0
510.0,520.0,486.0,523.0
509.0,510.0,491.0,518.0
513.0,496.0,504.0,514.0
527.0,473.0,525.0,513.0
529.0,474.0,544.0,511.0
523.0,483.0,548.0,508.0
516.0,495.0,545.0,510.0
502.0,517.0,539.0,509.0
501.0,513.0,535.0,508.0
499.0,510.0,530.0,506.0
503.0,516.0,521.0,507.0
508.0,506.0,511.0,513.0
519.0,482.0,504.0,514.0
519.0,482.0,493.0,516.0
516.0,492.0,488.0,517.0
508.0,514.0,479.0,522.0
502.0,524.0,482.0,518.0
503.0,542.0,486.0,520.0
506.0,523.0,495.0,519.0
519.0,479.0,510.0,517.0
531.0,461.0,534.0,512.0
527.0,469.0,544.0,508.0
521.0,490.0,549.0,504.0
510.0,519.0,543.0,507.0
493.0,557.0,536.0,507.0
496.0,527.0,534.0,506.0
509.0,505.0,527.0,506.0
505.0,521.0,519.0,508.0
509.0,511.0,516.0,511.0
515.0,508.0,503.0,514.0
514.0,510.0,489.0,517.0
512.0,503.0,484.0,520.0
503.0,510.0,474.0,520.0
503.0,504.0,481.0,522.0
514.0,491.0,489.0,519.0
520.0,481.0,499.0,517.0
526.0,462.0,514.0,515.0
532.0,459.0,535.0,510.0
525.0,481.0,545.0,511.0
519.0,487.0,549.0,509.0
504.0,512.0,539.0,512.0
497.0,512.0,534.0,509.0
494.0,503.0,526.0,503.0
497.0,502.0,517.0,507.0
505.0,494.0,513.0,509.0
519.0,481.0,506.0,515.0
515.0,508.0,500.0,519.0
512.0,519.0,495.0,521.0
512.0,520.0,493.0,528.0
505.0,521.0,483.0,525.0
505.0,527.0,482.0,520.0
505.0,523.0,487.0,517.0
511.0,513.0,500.0,513.0
526.0,494.0,523.0,511.0
528.0,490.0,541.0,507.0
528.0,494.0,547.0,500.0
524.0,501.0,548.0,505.0
499.0,527.0,540.0,508.0
493.0,529.0,533.0,505.0
500.0,519.0,527.0,503.0
500.0,518.0,518.0,506.0
508.0,505.0,509.0,504.0
516.0,490.0,505.0,511.0
518.0,493.0,495.0,512.0
518.0,493.0,486.0,516.0
510.0,515.0,478.0,518.0
502.0,530.0,479.0,519.0
505.0,532.0,483.0,518.0
515.0,517.0,494.0,516.0
518.0,508.0,510.0,515.0
528.0,469.0,532.0,512.0
524.0,463.0,542.0,510.0
519.0,476.0,551.0,507.0
507.0,496.0,545.0,508.0
499.0,520.0,535.0,507.0
498.0,519.0,532.0,507.0
505.0,514.0,530.0,507.0
501.0,513.0,525.0,513.0
513.0,494.0,510.0,515.0
519.0,491.0,504.0,518.0
518.0,494.0,493.0,519.0
517.0,500.0,482.0,519.0
502.0,522.0,480.0,522.0
504.0,525.0,485.0,521.0
512.0,506.0,492.0,519.0
513.0,504.0,501.0,516.0
520.0,487.0,517.0,512.0
524.0,477.0,535.0,505.0
523.0,480.0,542.0,504.0
519.0,486.0,547.0,503.0
508.0,509.0,539.0,503.0
499.0,519.0,536.0,504.0
501.0,518.0,531.0,504.0
503.0,515.0,525.0,507.0
504.0,508.0,518.0,510.0
520.0,490.0,508.0,510.0
516.0,490.0,500.0,513.0
516.0,495.0,490.0,518.0
511.0,506.0,481.0,520.0
501.0,520.0,476.0,520.0
504.0,514.0,485.0,519.0
510.0,507.0,491.0,517.0
511.0,508.0,504.0,515.0
526.0,488.0,525.0,513.0
526.0,484.0,543.0,509.0
523.0,487.0,551.0,508.0
513.0,488.0,556.0,508.0
498.0,517.0,539.0,506.0
495.0,526.0,533.0,507.0
497.0,516.0,530.0,506.0
507.0,501.0,524.0,506.0
510.0,502.0,516.0,513.0
521.0,474.0,508.0,517.0
520.0,477.0,494.0,516.0
520.0,485.0,491.0,519.0
505.0,513.0,478.0,521.0
495.0,530.0,479.0,522.0
502.0,546.0,485.0,520.0
512.0,520.0,496.0,518.0
512.0,505.0,509.0,516.0
526.0,480.0,535.0,511.0
527.0,487.0,545.0,511.0
520.0,502.0,548.0,509.0
508.0,526.0,545.0,504.0
494.0,546.0,539.0,507.0
496.0,529.0,536.0,507.0
500.0,497.0,527.0,504.0
503.0,502.0,519.0,509.0
514.0,490.0,512.0,508.0
520.0,497.0,504.0,513.0
517.0,492.0,494.0,511.0
514.0,490.0,487.0,518.0
501.0,532.0,476.0,527.0
499.0,519.0,480.0,518.0
508.0,504.0,488.0,520.0
516.0,509.0,496.0,518.0
519.0,492.0,516.0,515.0
527.0,467.0,540.0,512.0
522.0,481.0,549.0,509.0
514.0,506.0,551.0,507.0
506.0,527.0,551.0,508.0
498.0,548.0,546.0,505.0
503.0,516.0,535.0,509.0
505.0,472.0,527.0,504.0
503.0,504.0,512.0,514.0
515.0,494.0,513.0,512.0
520.0,487.0,501.0,517.0
519.0,498.0,493.0,521.0
514.0,504.0,479.0,520.0
505.0,521.0,479.0,521.0
507.0,510.0,486.0,519.0
512.0,506.0,491.0,516.0
516.0,497.0,501.0,515.0
526.0,470.0,523.0,511.0
525.0,468.0,545.0,510.0
518.0,478.0,548.0,507.0
516.0,491.0,547.0,507.0
499.0,527.0,540.0,505.0
497.0,516.0,533.0,506.0
503.0,505.0,531.0,502.0
502.0,505.0,522.0,507.0
503.0,497.0,512.0,510.0
516.0,485.0,506.0,509.0
517.0,494.0,494.0,515.0
513.0,504.0,487.0,520.0
506.0,523.0,478.0,519.0
495.0,536.0,473.0,521.0
507.0,516.0,485.0,518.0
512.0,501.0,495.0,517.0
513.0,487.0,509.0,515.0
528.0,466.0,530.0,511.0
522.0,465.0,544.0,506.0
521.0,471.0,552.0,507.0
507.0,502.0,546.0,506.0
494.0,525.0,540.0,507.0
489.0,531.0,537.0,506.0
496.0,523.0,531.0,505.0
503.0,522.0,520.0,510.0
517.0,505.0,511.0,509.0
517.0,496.0,503.0,514.0
517.0,501.0,496.0,517.0
522.0,506.0,485.0,520.0
505.0,532.0,479.0,521.0
502.0,530.0,479.0,521.0
511.0,512.0,491.0,518.0
517.0,500.0,499.0,517.0
522.0,492.0,518.0,513.0
529.0,467.0,536.0,507.0
525.0,472.0,547.0,509.0
517.0,489.0,549.0,507.0
505.0,512.0,544.0,505.0
494.0,527.0,535.0,505.0
498.0,526.0,535.0,506.0
504.0,512.0,525.0,506.0
507.0,511.0,518.0,507.0
514.0,504.0,512.0,510.0
514.0,511.0,501.0,511.0
511.0,518.0,489.0,518.0
508.0,529.0,482.0,521.0
501.0,549.0,478.0,523.0
507.0,514.0,482.0,520.0
519.0,477.0,495.0,515.0
515.0,500.0,505.0,514.0
521.0,500.0,521.0,511.0
523.0,483.0,540.0,506.0
518.0,483.0,549.0,505.0
519.0,477.0,550.0,505.0
506.0,483.0,544.0,507.0
508.0,501.0,536.0,506.0
494.0,517.0,528.0,506.0
498.0,509.0,520.0,512.0
504.0,502.0,513.0,506.0
521.0,475.0,509.0,511.0
518.0,485.0,494.0,514.0
514.0,496.0,488.0,518.0
510.0,516.0,477.0,520.0
505.0,529.0,480.0,519.0
506.0,532.0,486.0,516.0
507.0,517.0,493.0,516.0
509.0,506.0,509.0,514.0
523.0,479.0,529.0,511.0
522.0,480.0,540.0,507.0
516.0,485.0,548.0,506.0
515.0,500.0,545.0,505.0
498.0,516.0,547.0,507.0
498.0,525.0,535.0,507.0
499.0,520.0,530.0,508.0
502.0,514.0,519.0,509.0
512.0,499.0,511.0,517.0
513.0,492.0,501.0,515.0
514.0,496.0,494.0,514.0
514.0,500.0,484.0,517.0
508.0,520.0,478.0,518.0
506.0,517.0,481.0,520.0
506.0,510.0,486.0,518.0
509.0,506.0,497.0,521.0
514.0,495.0,513.0,517.0
523.0,472.0,538.0,511.0
522.0,478.0,544.0,508.0
518.0,484.0,544.0,506.0
503.0,507.0,541.0,504.0
494.0,520.0,536.0,506.0
498.0,527.0,531.0,504.0
503.0,516.0,526.0,505.0
506.0,500.0,517.0,512.0
513.0,491.0,513.0,512.0
516.0,490.0,497.0,515.0
518.0,512.0,493.0,516.0
511.0,538.0,485.0,522.0
499.0,536.0,478.0,523.0
506.0,503.0,482.0,517.0
504.0,512.0,490.0,522.0
511.0,485.0,502.0,524.0
515.0,469.0,527.0,519.0
521.0,471.0,544.0,520.0
514.0,480.0,557.0,520.0
512.0,494.0,559.0,515.0
495.0,525.0,556.0,513.0
494.0,531.0,548.0,509.0
502.0,524.0,536.0,504.0
503.0,525.0,522.0,499.0
511.0,503.0,509.0,498.0
518.0,485.0,503.0,500.0
519.0,493.0,492.0,505.0
516.0,493.0,481.0,508.0
503.0,512.0,482.0,514.0
500.0,524.0,488.0,513.0
501.0,518.0,494.0,514.0
518.0,502.0,506.0,514.0
518.0,493.0,524.0,509.0
527.0,473.0,546.0,508.0
522.0,474.0,559.0,505.0
522.0,485.0,560.0,503.0
512.0,497.0,561.0,504.0
495.0,525.0,554.0,500.0
494.0,524.0,550.0,504.0
495.0,518.0,544.0,503.0
500.0,520.0,530.0,504.0
514.0,501.0,527.0,507.0
516.0,494.0,517.0,511.0
517.0,503.0,510.0,514.0
514.0,505.0,500.0,518.0
503.0,527.0,493.0,519.0
498.0,526.0,496.0,520.0
509.0,507.0,504.0,518.0
512.0,501.0,513.0,517.0
517.0,488.0,529.0,515.0
527.0,470.0,547.0,508.0
520.0,480.0,560.0,509.0
519.0,468.0,564.0,508.0
518.0,496.0,559.0,511.0
505.0,509.0,550.0,506.0
501.0,520.0,547.0,508.0
503.0,515.0,538.0,503.0
503.0,517.0,524.0,508.0
516.0,503.0,519.0,512.0
516.0,500.0,510.0,513.0
514.0,495.0,506.0,516.0
516.0,518.0,491.0,521.0
504.0,539.0,489.0,520.0
505.0,527.0,494.0,516.0
510.0,514.0,500.0,518.0
514.0,503.0,511.0,516.0
525.0,482.0,531.0,509.0
525.0,476.0,543.0,507.0
521.0,481.0,554.0,507.0
516.0,491.0,557.0,506.0
492.0,527.0,547.0,505.0
494.0,523.0,544.0,507.0
505.0,509.0,541.0,504.0
507.0,504.0,530.0,510.0
509.0,508.0,520.0,509.0
519.0,491.0,514.0,515.0
517.0,495.0,504.0,519.0
514.0,495.0,496.0,522.0
508.0,513.0,488.0,525.0
503.0,518.0,487.0,525.0
507.0,511.0,492.0,516.0
515.0,503.0,501.0,516.0
514.0,499.0,515.0,511.0
526.0,472.0,535.0,510.0
530.0,471.0,547.0,506.0
523.0,477.0,551.0,507.0
514.0,495.0,551.0,508.0
497.0,529.0,541.0,510.0
497.0,530.0,541.0,507.0
498.0,531.0,529.0,508.0
495.0,529.0,522.0,507.0
510.0,503.0,516.0,511.0
517.0,498.0,510.0,514.0
517.0,503.0,500.0,517.0
516.0,504.0,491.0,519.0
502.0,524.0,483.0,519.0
496.0,523.0,482.0,519.0
507.0,506.0,493.0,517.0
518.0,503.0,501.0,516.0
511.0,505.0,517.0,515.0
524.0,480.0,539.0,511.0
521.0,483.0,553.0,509.0
518.0,502.0,552.0,508.0
508.0,518.0,546.0,511.0
494.0,521.0,537.0,507.0
497.0,500.0,533.0,507.0
506.0,478.0,529.0,507.0
510.0,486.0,517.0,510.0
517.0,479.0,515.0,511.0
518.0,493.0,505.0,516.0
516.0,503.0,498.0,519.0
508.0,515.0,484.0,521.0
505.0,516.0,486.0,521.0
511.0,513.0,491.0,519.0
518.0,498.0,497.0,520.0
511.0,504.0,504.0,517.0
521.0,486.0,525.0,512.0
527.0,482.0,540.0,508.0
522.0,487.0,549.0,507.0
517.0,484.0,551.0,507.0
501.0,513.0,543.0,508.0
496.0,522.0,536.0,506.0
