CH1,CH2,CH3,CH4
529.0,458.0,536.0,507.0
521.0,483.0,544.0,506.0
506.0,513.0,538.0,506.0
496.0,524.0,535.0,501.0
493.0,545.0,535.0,504.0
490.0,547.0,526.0,504.0
504.0,528.0,515.0,506.0
525.0,487.0,508.0,504.0
523.0,478.0,502.0,513.0
523.0,491.0,487.0,518.0
508.0,515.0,480.0,518.0
500.0,521.0,477.0,519.0
506.0,506.0,481.0,517.0
509.0,507.0,490.0,516.0
508.0,515.0,503.0,513.0
523.0,481.0,518.0,509.0
529.0,470.0,531.0,504.0
524.0,487.0,540.0,505.0
507.0,518.0,538.0,505.0
487.0,539.0,535.0,510.0
492.0,510.0,536.0,501.0
494.0,515.0,530.0,510.0
501.0,518.0,523.0,511.0
516.0,504.0,516.0,508.0
530.0,485.0,506.0,511.0
528.0,486.0,494.0,513.0
523.0,490.0,487.0,518.0
506.0,525.0,482.0,519.0
501.0,528.0,480.0,518.0
509.0,508.0,489.0,521.0
511.0,504.0,497.0,518.0
518.0,491.0,500.0,513.0
533.0,461.0,522.0,510.0
525.0,467.0,533.0,506.0
522.0,480.0,539.0,507.0
508.0,517.0,536.0,505.0
492.0,535.0,534.0,503.0
496.0,520.0,529.0,507.0
495.0,518.0,526.0,504.0
499.0,529.0,518.0,511.0
518.0,496.0,509.0,513.0
523.0,490.0,504.0,513.0
524.0,479.0,494.0,520.0
514.0,496.0,492.0,522.0
499.0,532.0,485.0,525.0
497.0,533.0,486.0,524.0
499.0,524.0,486.0,522.0
504.0,526.0,491.0,510.0
522.0,464.0,507.0,509.0
534.0,429.0,524.0,504.0
528.0,448.0,535.0,501.0
520.0,470.0,537.0,504.0
502.0,516.0,536.0,506.0
493.0,536.0,537.0,507.0
491.0,533.0,534.0,507.0
499.0,519.0,517.0,505.0
509.0,505.0,512.0,510.0
526.0,485.0,506.0,510.0
526.0,484.0,501.0,514.0
527.0,480.0,489.0,513.0
509.0,506.0,481.0,519.0
501.0,541.0,477.0,520.0
502.0,538.0,490.0,520.0
497.0,534.0,492.0,519.0
505.0,511.0,500.0,519.0
522.0,484.0,518.0,511.0
531.0,479.0,532.0,505.0
526.0,485.0,538.0,505.0
513.0,507.0,532.0,504.0
495.0,527.0,534.0,506.0
497.0,519.0,533.0,503.0
494.0,518.0,527.0,508.0
495.0,512.0,521.0,510.0
509.0,493.0,518.0,513.0
519.0,492.0,509.0,513.0
515.0,493.0,496.0,516.0
515.0,497.0,486.0,517.0
506.0,523.0,484.0,520.0
505.0,526.0,483.0,520.0
502.0,517.0,489.0,521.0
511.0,494.0,494.0,518.0
519.0,499.0,506.0,513.0
531.0,477.0,520.0,503.0
530.0,487.0,536.0,505.0
524.0,482.0,540.0,504.0
505.0,507.0,541.0,507.0
497.0,536.0,541.0,508.0
492.0,537.0,536.0,506.0
496.0,526.0,526.0,507.0
503.0,535.0,516.0,505.0
520.0,509.0,508.0,508.0
524.0,482.0,500.0,513.0
525.0,485.0,490.0,515.0
517.0,490.0,487.0,523.0
498.0,525.0,483.0,528.0
500.0,532.0,491.0,522.0
508.0,502.0,493.0,516.0
508.0,494.0,501.0,516.0
525.0,489.0,513.0,509.0
527.0,472.0,524.0,506.0
524.0,475.0,535.0,503.0
523.0,461.0,535.0,505.0
509.0,510.0,536.0,505.0
500.0,534.0,532.0,507.0
496.0,529.0,532.0,507.0
496.0,530.0,524.0,510.0
506.0,513.0,518.0,510.0
525.0,477.0,506.0,510.0
527.0,475.0,499.0,514.0
523.0,479.0,491.0,518.0
508.0,502.0,484.0,522.0
502.0,514.0,481.0,520.0
502.0,530.0,482.0,519.0
503.0,547.0,492.0,520.0
513.0,535.0,499.0,516.0
531.0,495.0,517.0,509.0
531.0,471.0,528.0,506.0
527.0,479.0,538.0,505.0
517.0,502.0,539.0,502.0
498.0,522.0,533.0,508.0
497.0,522.0,534.0,507.0
495.0,522.0,526.0,507.0
505.0,510.0,521.0,509.0
515.0,489.0,514.0,509.0
528.0,472.0,506.0,511.0
525.0,492.0,497.0,517.0
518.0,508.0,489.0,521.0
500.0,525.0,480.0,521.0
498.0,524.0,482.0,518.0
500.0,525.0,486.0,517.0
511.0,513.0,492.0,517.0
525.0,499.0,504.0,512.0
535.0,466.0,519.0,507.0
530.0,479.0,534.0,506.0
523.0,486.0,539.0,509.0
513.0,513.0,540.0,510.0
496.0,543.0,535.0,506.0
496.0,535.0,534.0,511.0
501.0,540.0,524.0,508.0
507.0,531.0,518.0,511.0
519.0,468.0,508.0,512.0
528.0,471.0,501.0,512.0
527.0,484.0,491.0,516.0
516.0,506.0,477.0,518.0
503.0,531.0,479.0,522.0
504.0,521.0,481.0,519.0
503.0,520.0,486.0,516.0
508.0,509.0,497.0,513.0
525.0,465.0,511.0,512.0
532.0,451.0,530.0,511.0
531.0,454.0,543.0,509.0
516.0,496.0,544.0,508.0
495.0,536.0,539.0,508.0
492.0,544.0,534.0,506.0
489.0,545.0,528.0,504.0
498.0,542.0,520.0,509.0
511.0,514.0,515.0,509.0
524.0,484.0,506.0,513.0
526.0,472.0,501.0,514.0
528.0,489.0,496.0,518.0
507.0,517.0,479.0,524.0
500.0,531.0,482.0,525.0
510.0,515.0,487.0,523.0
514.0,506.0,491.0,517.0
517.0,500.0,499.0,515.0
530.0,475.0,515.0,505.0
529.0,471.0,527.0,501.0
526.0,479.0,534.0,501.0
515.0,496.0,537.0,501.0
501.0,520.0,535.0,504.0
499.0,519.0,533.0,511.0
492.0,531.0,531.0,505.0
491.0,533.0,524.0,511.0
511.0,491.0,517.0,510.0
525.0,472.0,507.0,513.0
524.0,477.0,495.0,512.0
522.0,487.0,483.0,517.0
505.0,528.0,476.0,520.0
499.0,532.0,476.0,519.0
499.0,534.0,482.0,517.0
505.0,512.0,490.0,514.0
508.0,508.0,508.0,512.0
528.0,476.0,524.0,509.0
526.0,478.0,536.0,505.0
523.0,478.0,541.0,504.0
504.0,495.0,541.0,503.0
495.0,501.0,539.0,506.0
496.0,502.0,531.0,509.0
500.0,538.0,523.0,506.0
510.0,536.0,512.0,510.0
525.0,497.0,509.0,506.0
524.0,496.0,502.0,513.0
522.0,496.0,496.0,518.0
512.0,515.0,483.0,522.0
504.0,523.0,483.0,515.0
503.0,521.0,481.0,517.0
503.0,527.0,488.0,515.0
509.0,509.0,497.0,516.0
523.0,481.0,514.0,513.0
531.0,466.0,530.0,510.0
524.0,469.0,537.0,509.0
518.0,483.0,541.0,507.0
500.0,515.0,533.0,506.0
494.0,534.0,533.0,506.0
493.0,535.0,531.0,506.0
502.0,517.0,526.0,511.0
510.0,514.0,518.0,514.0
526.0,490.0,514.0,514.0
525.0,488.0,500.0,517.0
524.0,488.0,486.0,518.0
508.0,520.0,478.0,521.0
498.0,545.0,482.0,521.0
498.0,545.0,486.0,520.0
512.0,524.0,493.0,515.0
518.0,491.0,501.0,514.0
530.0,447.0,518.0,509.0
528.0,460.0,530.0,505.0
525.0,468.0,538.0,501.0
509.0,500.0,538.0,505.0
491.0,530.0,539.0,506.0
494.0,517.0,536.0,507.0
498.0,514.0,528.0,508.0
505.0,503.0,523.0,510.0
511.0,487.0,512.0,512.0
524.0,490.0,505.0,513.0
524.0,501.0,495.0,517.0
522.0,506.0,484.0,517.0
507.0,516.0,478.0,519.0
503.0,520.0,479.0,518.0
506.0,522.0,484.0,517.0
507.0,515.0,491.0,520.0
514.0,502.0,505.0,512.0
533.0,470.0,522.0,509.0
529.0,471.0,534.0,509.0
520.0,473.0,542.0,503.0
506.0,497.0,539.0,507.0
500.0,501.0,537.0,507.0
495.0,512.0,532.0,507.0
492.0,532.0,528.0,507.0
501.0,540.0,516.0,507.0
515.0,515.0,507.0,512.0
526.0,486.0,501.0,516.0
524.0,493.0,491.0,519.0
514.0,508.0,482.0,527.0
504.0,531.0,480.0,523.0
501.0,533.0,485.0,530.0
502.0,528.0,494.0,521.0
505.0,511.0,501.0,516.0
522.0,490.0,510.0,512.0
534.0,472.0,523.0,500.0
533.0,466.0,529.0,498.0
522.0,481.0,535.0,500.0
498.0,523.0,535.0,503.0
497.0,524.0,531.0,503.0
497.0,527.0,530.0,505.0
501.0,525.0,524.0,505.0
505.0,523.0,512.0,507.0
519.0,496.0,504.0,510.0
522.0,491.0,497.0,515.0
518.0,494.0,490.0,517.0
504.0,521.0,479.0,519.0
492.0,529.0,478.0,520.0
497.0,527.0,481.0,516.0
495.0,524.0,488.0,516.0
508.0,510.0,499.0,514.0
526.0,480.0,525.0,510.0
532.0,462.0,531.0,508.0
529.0,467.0,538.0,504.0
511.0,518.0,536.0,507.0
492.0,533.0,534.0,506.0
487.0,542.0,532.0,506.0
491.0,525.0,528.0,505.0
494.0,531.0,519.0,510.0
511.0,521.0,513.0,511.0
528.0,483.0,505.0,514.0
528.0,465.0,497.0,519.0
521.0,495.0,487.0,522.0
504.0,527.0,479.0,523.0
499.0,525.0,485.0,520.0
510.0,514.0,488.0,519.0
518.0,501.0,495.0,515.0
522.0,490.0,505.0,507.0
530.0,477.0,524.0,510.0
528.0,483.0,536.0,509.0
522.0,488.0,540.0,504.0
507.0,513.0,535.0,505.0
499.0,507.0,532.0,506.0
495.0,511.0,530.0,502.0
494.0,515.0,526.0,507.0
499.0,512.0,516.0,508.0
522.0,484.0,510.0,510.0
525.0,484.0,503.0,513.0
525.0,486.0,495.0,515.0
514.0,510.0,485.0,516.0
506.0,529.0,480.0,520.0
511.0,523.0,485.0,525.0
506.0,531.0,490.0,514.0
507.0,523.0,493.0,517.0
522.0,480.0,511.0,509.0
535.0,431.0,529.0,507.0
528.0,465.0,536.0,502.0
518.0,494.0,542.0,501.0
493.0,524.0,535.0,505.0
489.0,527.0,531.0,507.0
488.0,528.0,530.0,505.0
495.0,523.0,524.0,508.0
503.0,508.0,513.0,511.0
525.0,483.0,502.0,510.0
525.0,487.0,497.0,515.0
525.0,490.0,491.0,516.0
509.0,515.0,480.0,520.0
508.0,521.0,480.0,522.0
504.0,524.0,483.0,520.0
511.0,497.0,491.0,516.0
513.0,492.0,497.0,515.0
526.0,462.0,517.0,516.0
533.0,464.0,535.0,510.0
529.0,471.0,540.0,505.0
515.0,488.0,539.0,511.0
495.0,523.0,540.0,514.0
502.0,539.0,536.0,513.0
495.0,550.0,532.0,509.0
501.0,525.0,522.0,511.0
513.0,507.0,511.0,511.0
527.0,485.0,506.0,509.0
528.0,473.0,497.0,515.0
524.0,489.0,487.0,516.0
508.0,526.0,484.0,521.0
506.0,524.0,481.0,519.0
500.0,518.0,483.0,517.0
503.0,521.0,492.0,516.0
515.0,500.0,506.0,512.0
535.0,479.0,521.0,506.0
527.0,489.0,534.0,505.0
529.0,462.0,543.0,507.0
512.0,498.0,538.0,503.0
497.0,518.0,534.0,504.0
495.0,519.0,529.0,505.0
494.0,533.0,521.0,503.0
495.0,525.0,512.0,512.0
518.0,491.0,509.0,507.0
522.0,485.0,504.0,515.0
520.0,479.0,490.0,513.0
510.0,494.0,484.0,516.0
506.0,506.0,477.0,518.0
501.0,509.0,474.0,520.0
504.0,515.0,483.0,519.0
510.0,512.0,495.0,516.0
523.0,486.0,514.0,513.0
536.0,480.0,535.0,508.0
531.0,485.0,548.0,509.0
518.0,497.0,545.0,509.0
500.0,524.0,539.0,505.0
495.0,530.0,537.0,503.0
490.0,538.0,533.0,504.0
494.0,532.0,522.0,505.0
509.0,526.0,515.0,507.0
525.0,494.0,508.0,508.0
524.0,492.0,501.0,515.0
529.0,490.0,490.0,519.0
520.0,493.0,483.0,524.0
506.0,504.0,480.0,522.0
510.0,497.0,483.0,515.0
509.0,523.0,490.0,515.0
513.0,509.0,501.0,515.0
525.0,489.0,520.0,510.0
528.0,485.0,533.0,505.0
525.0,478.0,541.0,502.0
507.0,510.0,538.0,502.0
495.0,525.0,537.0,503.0
499.0,516.0,533.0,508.0
498.0,522.0,531.0,504.0
507.0,528.0,522.0,508.0
508.0,511.0,521.0,510.0
524.0,492.0,506.0,511.0
524.0,501.0,494.0,516.0
521.0,515.0,487.0,518.0
511.0,498.0,479.0,517.0
503.0,525.0,482.0,519.0
503.0,526.0,490.0,519.0
508.0,517.0,494.0,518.0
516.0,493.0,506.0,514.0
531.0,462.0,523.0,511.0
528.0,465.0,537.0,509.0
525.0,479.0,540.0,505.0
506.0,507.0,540.0,508.0
495.0,523.0,539.0,508.0
490.0,529.0,535.0,506.0
495.0,522.0,528.0,508.0
503.0,514.0,520.0,509.0
520.0,486.0,513.0,511.0
523.0,478.0,503.0,514.0
521.0,484.0,495.0,517.0
513.0,511.0,486.0,520.0
496.0,523.0,481.0,521.0
502.0,514.0,485.0,518.0
501.0,510.0,488.0,517.0
516.0,507.0,501.0,518.0
529.0,481.0,514.0,514.0
530.0,471.0,531.0,514.0
523.0,479.0,539.0,512.0
518.0,502.0,539.0,511.0
499.0,516.0,539.0,513.0
502.0,506.0,539.0,506.0
499.0,513.0,533.0,508.0
495.0,518.0,527.0,511.0
500.0,505.0,522.0,510.0
524.0,488.0,510.0,508.0
524.0,491.0,497.0,511.0
520.0,505.0,489.0,514.0
509.0,528.0,479.0,515.0
500.0,513.0,478.0,517.0
506.0,505.0,483.0,515.0
507.0,508.0,491.0,515.0
507.0,508.0,499.0,514.0
526.0,478.0,520.0,508.0
533.0,475.0,531.0,505.0
523.0,479.0,540.0,505.0
509.0,507.0,542.0,508.0
497.0,522.0,542.0,510.0
487.0,532.0,534.0,510.0
490.0,528.0,526.0,507.0
495.0,528.0,518.0,503.0
508.0,504.0,510.0,507.0
525.0,485.0,501.0,508.0
523.0,488.0,493.0,512.0
514.0,497.0,487.0,519.0
502.0,517.0,478.0,522.0
501.0,518.0,480.0,520.0
506.0,512.0,485.0,520.0
511.0,511.0,493.0,518.0
517.0,497.0,507.0,510.0
529.0,467.0,523.0,509.0
526.0,481.0,535.0,505.0
520.0,486.0,542.0,503.0
498.0,521.0,536.0,508.0
494.0,524.0,532.0,506.0
494.0,519.0,532.0,506.0
493.0,526.0,524.0,508.0
502.0,513.0,519.0,510.0
519.0,488.0,511.0,512.0
527.0,488.0,504.0,512.0
525.0,486.0,495.0,520.0
513.0,492.0,494.0,514.0
529.0,467.0,511.0,505.0
532.0,459.0,526.0,505.0
529.0,489.0,539.0,504.0
514.0,521.0,537.0,502.0
494.0,552.0,539.0,506.0
507.0,514.0,537.0,505.0
499.0,512.0,530.0,502.0
494.0,520.0,520.0,510.0
505.0,510.0,513.0,506.0
521.0,479.0,506.0,512.0
524.0,485.0,495.0,516.0
524.0,494.0,492.0,520.0
510.0,516.0,480.0,520.0
510.0,505.0,479.0,518.0
506.0,509.0,482.0,518.0
509.0,499.0,489.0,516.0
512.0,497.0,503.0,511.0
529.0,473.0,524.0,510.0
528.0,479.0,533.0,509.0
524.0,485.0,541.0,509.0
505.0,508.0,539.0,510.0
489.0,530.0,535.0,511.0
493.0,526.0,538.0,508.0
492.0,528.0,531.0,508.0
497.0,539.0,519.0,510.0
513.0,507.0,507.0,511.0
525.0,490.0,505.0,513.0
524.0,481.0,496.0,515.0
519.0,486.0,483.0,519.0
500.0,526.0,477.0,517.0
509.0,533.0,478.0,516.0
505.0,554.0,483.0,517.0
509.0,523.0,491.0,515.0
520.0,475.0,506.0,510.0
534.0,466.0,521.0,507.0
533.0,485.0,534.0,503.0
523.0,487.0,542.0,502.0
499.0,522.0,540.0,504.0
494.0,530.0,534.0,505.0
491.0,522.0,528.0,508.0
497.0,514.0,526.0,509.0
502.0,513.0,515.0,511.0
521.0,482.0,510.0,511.0
521.0,487.0,501.0,516.0
519.0,496.0,492.0,515.0
511.0,519.0,482.0,521.0
507.0,542.0,477.0,522.0
510.0,518.0,483.0,519.0
509.0,493.0,488.0,520.0
512.0,500.0,499.0,516.0
525.0,492.0,513.0,512.0
529.0,481.0,530.0,506.0
525.0,476.0,539.0,505.0
516.0,500.0,541.0,502.0
504.0,532.0,543.0,506.0
500.0,511.0,536.0,507.0
495.0,520.0,532.0,508.0
498.0,528.0,523.0,510.0
505.0,508.0,517.0,513.0
526.0,481.0,510.0,516.0
529.0,483.0,499.0,515.0
521.0,491.0,487.0,520.0
507.0,517.0,482.0,519.0
504.0,510.0,482.0,523.0
504.0,508.0,483.0,519.0
506.0,506.0,490.0,516.0
509.0,502.0,498.0,510.0
530.0,470.0,514.0,508.0
533.0,466.0,530.0,508.0
529.0,468.0,538.0,509.0
512.0,512.0,536.0,512.0
495.0,547.0,536.0,509.0
498.0,542.0,536.0,507.0
489.0,550.0,535.0,508.0
493.0,540.0,523.0,508.0
511.0,501.0,514.0,508.0
522.0,497.0,503.0,509.0
523.0,503.0,490.0,514.0
517.0,502.0,486.0,522.0
508.0,501.0,481.0,519.0
512.0,503.0,482.0,518.0
503.0,517.0,483.0,518.0
506.0,515.0,494.0,517.0
515.0,499.0,505.0,513.0
532.0,472.0,524.0,508.0
530.0,469.0,534.0,507.0
520.0,482.0,538.0,506.0
499.0,524.0,535.0,505.0
494.0,529.0,539.0,505.0
498.0,517.0,536.0,503.0
498.0,513.0,530.0,509.0
507.0,502.0,519.0,513.0
521.0,488.0,515.0,512.0
522.0,488.0,504.0,517.0
523.0,492.0,493.0,519.0
512.0,509.0,482.0,521.0
500.0,520.0,478.0,523.0
506.0,505.0,481.0,519.0
502.0,515.0,485.0,517.0
506.0,520.0,496.0,514.0
524.0,497.0,520.0,507.0
529.0,471.0,534.0,503.0
525.0,475.0,540.0,502.0
518.0,493.0,540.0,499.0
494.0,534.0,537.0,501.0
494.0,531.0,533.0,503.0
482.0,542.0,529.0,505.0
499.0,509.0,524.0,504.0
513.0,501.0,513.0,506.0
526.0,480.0,503.0,509.0
523.0,481.0,495.0,514.0
519.0,510.0,488.0,517.0
501.0,541.0,479.0,520.0
505.0,524.0,479.0,520.0
508.0,522.0,482.0,518.0
508.0,510.0,492.0,517.0
517.0,492.0,506.0,510.0
532.0,466.0,523.0,506.0
527.0,479.0,533.0,507.0
521.0,494.0,543.0,506.0
501.0,525.0,543.0,505.0
485.0,547.0,549.0,507.0
506.0,485.0,534.0,511.0
504.0,485.0,524.0,505.0
506.0,498.0,520.0,506.0
516.0,489.0,521.0,509.0
521.0,489.0,507.0,515.0
523.0,502.0,489.0,516.0
515.0,509.0,473.0,517.0
502.0,529.0,478.0,522.0
508.0,520.0,482.0,522.0
502.0,523.0,486.0,520.0
505.0,542.0,494.0,519.0
514.0,498.0,509.0,514.0
531.0,449.0,521.0,507.0
528.0,449.0,532.0,504.0
522.0,484.0,541.0,502.0
498.0,527.0,536.0,503.0
489.0,519.0,530.0,505.0
497.0,519.0,527.0,505.0
502.0,540.0,524.0,507.0
505.0,530.0,517.0,508.0
525.0,502.0,511.0,512.0
527.0,494.0,503.0,513.0
525.0,494.0,492.0,520.0
513.0,503.0,484.0,523.0
508.0,492.0,481.0,523.0
513.0,496.0,483.0,520.0
501.0,517.0,485.0,517.0
509.0,510.0,496.0,515.0
518.0,492.0,516.0,509.0
524.0,507.0,529.0,505.0
526.0,481.0,540.0,506.0
519.0,497.0,538.0,506.0
496.0,531.0,534.0,505.0
501.0,524.0,534.0,504.0
503.0,535.0,533.0,505.0
503.0,523.0,524.0,507.0
510.0,508.0,515.0,511.0
526.0,490.0,505.0,511.0
523.0,493.0,495.0,516.0
526.0,490.0,487.0,518.0
506.0,514.0,480.0,520.0
503.0,521.0,481.0,519.0
511.0,511.0,483.0,518.0
512.0,510.0,494.0,516.0
512.0,503.0,506.0,515.0
531.0,471.0,522.0,507.0
527.0,471.0,532.0,505.0
521.0,479.0,537.0,503.0
505.0,511.0,541.0,505.0
490.0,524.0,538.0,510.0
499.0,519.0,537.0,509.0
501.0,520.0,529.0,504.0
506.0,513.0,519.0,506.0
518.0,487.0,514.0,512.0
528.0,479.0,503.0,514.0
533.0,484.0,493.0,515.0
521.0,498.0,480.0,519.0
501.0,528.0,475.0,519.0
505.0,511.0,476.0,516.0
500.0,519.0,481.0,516.0
516.0,495.0,497.0,520.0
520.0,481.0,511.0,513.0
532.0,455.0,529.0,508.0
529.0,459.0,540.0,508.0
521.0,484.0,540.0,509.0
499.0,537.0,537.0,506.0
497.0,545.0,537.0,502.0
502.0,541.0,535.0,506.0
498.0,544.0,527.0,509.0
502.0,536.0,516.0,510.0
523.0,494.0,506.0,515.0
527.0,463.0,498.0,519.0
528.0,480.0,491.0,521.0
512.0,512.0,484.0,524.0
499.0,532.0,483.0,524.0
507.0,522.0,484.0,523.0
513.0,509.0,489.0,520.0
518.0,504.0,498.0,518.0
531.0,477.0,512.0,513.0
533.0,468.0,527.0,508.0
527.0,477.0,536.0,506.0
511.0,508.0,542.0,505.0
492.0,540.0,542.0,507.0
499.0,523.0,540.0,509.0
499.0,521.0,537.0,507.0
500.0,503.0,525.0,508.0
510.0,478.0,515.0,508.0
527.0,466.0,504.0,512.0
523.0,491.0,496.0,513.0
520.0,510.0,485.0,516.0
505.0,533.0,476.0,520.0
513.0,516.0,480.0,519.0
515.0,498.0,485.0,518.0
518.0,494.0,493.0,514.0
515.0,508.0,505.0,513.0
532.0,487.0,521.0,506.0
526.0,485.0,531.0,507.0
526.0,479.0,538.0,503.0
511.0,500.0,538.0,506.0
498.0,518.0,533.0,507.0
496.0,519.0,536.0,507.0
487.0,534.0,528.0,511.0
493.0,519.0,521.0,514.0
517.0,481.0,514.0,514.0
527.0,456.0,505.0,515.0
527.0,482.0,492.0,517.0
516.0,506.0,486.0,517.0
500.0,518.0,483.0,524.0
501.0,531.0,486.0,517.0
504.0,538.0,490.0,516.0
504.0,512.0,496.0,514.0
517.0,482.0,511.0,511.0
530.0,457.0,528.0,508.0
528.0,475.0,533.0,507.0
523.0,511.0,540.0,504.0
504.0,550.0,532.0,504.0
497.0,538.0,531.0,504.0
494.0,537.0,529.0,505.0
493.0,527.0,527.0,508.0
501.0,515.0,519.0,512.0
523.0,485.0,514.0,511.0
525.0,488.0,502.0,515.0
524.0,496.0,491.0,515.0
508.0,524.0,477.0,517.0
499.0,535.0,475.0,518.0
503.0,522.0,477.0,516.0
500.0,520.0,485.0,517.0
508.0,498.0,500.0,514.0
523.0,480.0,515.0,511.0
528.0,483.0,529.0,505.0
530.0,456.0,538.0,503.0
512.0,489.0,542.0,507.0
499.0,512.0,541.0,504.0
501.0,501.0,532.0,505.0
497.0,518.0,534.0,506.0
500.0,530.0,522.0,505.0
509.0,512.0,514.0,512.0
520.0,491.0,503.0,514.0
520.0,499.0,494.0,519.0
520.0,498.0,487.0,518.0
502.0,542.0,479.0,524.0
497.0,551.0,478.0,518.0
498.0,543.0,479.0,514.0
504.0,496.0,487.0,519.0
510.0,488.0,502.0,513.0
531.0,459.0,518.0,510.0
529.0,464.0,532.0,507.0
523.0,474.0,540.0,506.0
507.0,499.0,539.0,508.0
493.0,510.0,537.0,508.0
499.0,499.0,532.0,508.0
495.0,511.0,530.0,509.0
500.0,519.0,520.0,509.0
518.0,481.0,513.0,517.0
522.0,479.0,507.0,510.0
522.0,493.0,492.0,515.0
510.0,517.0,476.0,518.0
494.0,536.0,474.0,520.0
511.0,494.0,476.0,519.0
503.0,501.0,485.0,517.0
503.0,498.0,495.0,517.0
516.0,487.0,511.0,513.0
523.0,487.0,531.0,508.0
521.0,486.0,544.0,509.0
518.0,493.0,541.0,504.0
500.0,536.0,533.0,511.0
501.0,538.0,536.0,507.0
506.0,517.0,532.0,502.0
502.0,519.0,525.0,506.0
502.0,507.0,512.0,508.0
524.0,479.0,509.0,510.0
517.0,491.0,499.0,515.0
519.0,496.0,488.0,518.0
506.0,520.0,480.0,525.0
502.0,526.0,480.0,525.0
507.0,520.0,481.0,520.0
510.0,520.0,487.0,516.0
513.0,509.0,505.0,519.0
526.0,481.0,522.0,514.0
529.0,473.0,526.0,506.0
525.0,480.0,537.0,505.0
512.0,502.0,540.0,502.0
496.0,516.0,537.0,501.0
503.0,506.0,530.0,500.0
498.0,516.0,529.0,507.0
503.0,513.0,520.0,506.0
512.0,495.0,513.0,508.0
525.0,471.0,505.0,513.0
525.0,476.0,495.0,513.0
518.0,486.0,484.0,521.0
499.0,525.0,480.0,524.0
501.0,534.0,479.0,523.0
511.0,504.0,493.0,521.0
510.0,513.0,493.0,516.0
513.0,503.0,503.0,514.0
524.0,488.0,522.0,510.0
526.0,485.0,532.0,506.0
519.0,484.0,539.0,504.0
506.0,503.0,540.0,505.0
497.0,533.0,536.0,512.0
496.0,524.0,532.0,509.0
494.0,529.0,526.0,510.0
495.0,522.0,517.0,513.0
521.0,484.0,510.0,514.0
526.0,484.0,504.0,516.0
523.0,491.0,498.0,518.0
514.0,510.0,486.0,520.0
498.0,528.0,480.0,521.0
503.0,520.0,482.0,519.0
498.0,521.0,483.0,517.0
506.0,502.0,494.0,515.0
523.0,483.0,509.0,509.0
532.0,464.0,524.0,506.0
528.0,467.0,536.0,508.0
518.0,489.0,544.0,505.0
495.0,536.0,539.0,506.0
499.0,527.0,541.0,504.0
497.0,536.0,534.0,504.0
493.0,541.0,522.0,504.0
500.0,540.0,517.0,508.0
519.0,515.0,506.0,509.0
521.0,484.0,498.0,511.0
525.0,461.0,490.0,514.0
510.0,489.0,480.0,519.0
494.0,511.0,477.0,521.0
502.0,501.0,484.0,521.0
511.0,487.0,486.0,516.0
514.0,490.0,499.0,513.0
526.0,473.0,516.0,513.0
532.0,473.0,529.0,514.0
530.0,505.0,540.0,507.0
508.0,520.0,543.0,508.0
491.0,540.0,538.0,510.0
498.0,524.0,542.0,512.0
499.0,512.0,538.0,512.0
500.0,498.0,526.0,512.0
512.0,492.0,510.0,508.0
517.0,484.0,507.0,509.0
521.0,478.0,498.0,512.0
518.0,493.0,487.0,512.0
500.0,525.0,475.0,516.0
500.0,525.0,479.0,516.0
507.0,515.0,481.0,515.0
511.0,506.0,492.0,512.0
513.0,501.0,506.0,510.0
532.0,461.0,525.0,507.0
534.0,472.0,535.0,505.0
525.0,476.0,540.0,503.0
504.0,507.0,543.0,507.0
499.0,515.0,538.0,507.0
499.0,524.0,538.0,506.0
493.0,548.0,525.0,506.0
500.0,518.0,518.0,513.0
517.0,499.0,513.0,510.0
523.0,501.0,502.0,510.0
521.0,504.0,493.0,517.0
517.0,501.0,482.0,521.0
502.0,525.0,480.0,521.0
504.0,521.0,484.0,518.0
507.0,522.0,487.0,515.0
508.0,520.0,492.0,515.0
522.0,496.0,511.0,508.0
529.0,484.0,524.0,506.0
525.0,476.0,536.0,501.0
518.0,488.0,540.0,504.0
494.0,527.0,538.0,505.0
497.0,526.0,534.0,504.0
501.0,524.0,532.0,503.0
502.0,526.0,526.0,506.0
501.0,523.0,515.0,507.0
519.0,481.0,507.0,511.0
521.0,465.0,497.0,514.0
520.0,474.0,492.0,518.0
509.0,513.0,480.0,517.0
503.0,519.0,485.0,516.0
505.0,515.0,488.0,520.0
503.0,518.0,490.0,519.0
511.0,505.0,494.0,513.0
527.0,473.0,515.0,509.0
529.0,472.0,528.0,512.0
525.0,484.0,537.0,509.0
511.0,498.0,539.0,507.0
498.0,520.0,533.0,505.0
499.0,528.0,535.0,505.0
495.0,533.0,529.0,505.0
497.0,530.0,521.0,510.0
510.0,506.0,514.0,511.0
523.0,487.0,512.0,515.0
524.0,483.0,489.0,513.0
521.0,493.0,486.0,518.0
505.0,526.0,486.0,520.0
495.0,540.0,479.0,524.0
504.0,531.0,482.0,517.0
504.0,531.0,491.0,514.0
504.0,507.0,510.0,514.0
528.0,442.0,521.0,510.0
532.0,457.0,530.0,511.0
523.0,472.0,537.0,507.0
510.0,508.0,537.0,510.0
494.0,528.0,537.0,510.0
499.0,518.0,537.0,512.0
499.0,525.0,532.0,511.0
505.0,516.0,528.0,515.0
519.0,491.0,518.0,511.0
522.0,485.0,510.0,511.0
524.0,491.0,493.0,513.0
513.0,516.0,478.0,522.0
502.0,531.0,479.0,520.0
509.0,518.0,481.0,515.0
513.0,520.0,482.0,515.0
509.0,498.0,493.0,511.0
526.0,460.0,510.0,507.0
530.0,456.0,528.0,504.0
525.0,460.0,538.0,503.0
515.0,483.0,542.0,505.0
494.0,522.0,539.0,509.0
488.0,524.0,535.0,506.0
498.0,510.0,529.0,502.0
492.0,524.0,526.0,506.0
502.0,517.0,517.0,504.0
524.0,493.0,506.0,506.0
525.0,488.0,495.0,516.0
523.0,495.0,489.0,519.0
506.0,530.0,480.0,526.0
498.0,532.0,482.0,523.0
509.0,511.0,492.0,523.0
514.0,498.0,496.0,520.0
508.0,503.0,499.0,519.0
527.0,467.0,523.0,513.0
524.0,463.0,538.0,510.0
522.0,458.0,540.0,506.0
516.0,478.0,537.0,503.0
499.0,508.0,536.0,503.0
507.0,519.0,532.0,501.0
500.0,521.0,530.0,503.0
502.0,521.0,521.0,504.0
513.0,508.0,512.0,510.0
521.0,506.0,507.0,512.0
518.0,496.0,496.0,513.0
521.0,510.0,485.0,515.0
506.0,541.0,477.0,521.0
502.0,533.0,480.0,518.0
498.0,543.0,482.0,516.0
500.0,531.0,491.0,515.0
509.0,507.0,508.0,515.0
532.0,471.0,531.0,507.0
525.0,470.0,543.0,502.0
525.0,450.0,542.0,500.0
507.0,489.0,537.0,502.0
494.0,532.0,537.0,506.0
499.0,533.0,528.0,506.0
495.0,552.0,527.0,505.0
499.0,533.0,518.0,509.0
516.0,499.0,513.0,508.0
522.0,471.0,505.0,516.0
522.0,449.0,494.0,519.0
513.0,492.0,487.0,521.0
500.0,532.0,477.0,516.0
506.0,520.0,480.0,520.0
509.0,517.0,485.0,515.0
510.0,529.0,495.0,512.0
525.0,491.0,510.0,511.0
533.0,463.0,526.0,507.0
530.0,466.0,537.0,502.0
520.0,480.0,540.0,506.0
501.0,521.0,540.0,507.0
499.0,526.0,543.0,505.0
501.0,522.0,535.0,508.0
494.0,518.0,526.0,509.0
506.0,496.0,517.0,507.0
521.0,467.0,507.0,512.0
524.0,460.0,498.0,514.0
529.0,470.0,487.0,517.0
508.0,532.0,479.0,519.0
509.0,534.0,478.0,519.0
507.0,522.0,482.0,517.0
506.0,525.0,490.0,518.0
513.0,509.0,502.0,512.0
530.0,478.0,520.0,509.0
529.0,470.0,533.0,507.0
525.0,480.0,541.0,504.0
509.0,504.0,539.0,504.0
491.0,528.0,534.0,508.0
489.0,524.0,532.0,507.0
495.0,515.0,529.0,509.0
493.0,523.0,521.0,510.0
506.0,501.0,513.0,510.0
520.0,488.0,507.0,513.0
521.0,508.0,495.0,516.0
517.0,520.0,489.0,521.0
503.0,538.0,485.0,522.0
496.0,524.0,481.0,520.0
496.0,521.0,483.0,519.0
504.0,514.0,491.0,521.0
524.0,480.0,510.0,517.0
538.0,467.0,526.0,514.0
537.0,462.0,538.0,512.0
531.0,477.0,545.0,510.0
507.0,514.0,547.0,504.0
497.0,536.0,537.0,501.0
502.0,518.0,530.0,504.0
496.0,519.0,527.0,504.0
503.0,509.0,516.0,513.0
517.0,484.0,508.0,508.0
521.0,480.0,497.0,509.0
520.0,480.0,492.0,513.0
515.0,500.0,485.0,517.0
493.0,538.0,474.0,525.0
500.0,526.0,482.0,522.0
506.0,524.0,488.0,519.0
512.0,520.0,498.0,516.0
526.0,494.0,514.0,509.0
532.0,476.0,525.0,504.0
524.0,481.0,538.0,505.0
517.0,485.0,538.0,506.0
499.0,505.0,536.0,502.0
494.0,514.0,533.0,504.0
498.0,506.0,531.0,506.0
497.0,504.0,523.0,509.0
506.0,498.0,515.0,510.0
530.0,467.0,505.0,514.0
528.0,482.0,496.0,515.0
523.0,487.0,485.0,515.0
508.0,507.0,480.0,522.0
505.0,522.0,478.0,523.0
509.0,538.0,483.0,521.0
509.0,519.0,486.0,517.0
505.0,516.0,501.0,515.0
526.0,475.0,524.0,507.0
531.0,477.0,535.0,502.0
527.0,484.0,541.0,500.0
506.0,511.0,540.0,501.0
490.0,546.0,538.0,502.0
491.0,542.0,536.0,505.0
500.0,537.0,529.0,502.0
496.0,536.0,520.0,509.0
511.0,506.0,513.0,506.0
526.0,458.0,505.0,511.0
521.0,476.0,497.0,514.0
516.0,497.0,488.0,518.0
498.0,530.0,479.0,521.0
493.0,535.0,481.0,516.0
505.0,513.0,484.0,514.0
506.0,506.0,492.0,517.0
521.0,491.0,506.0,516.0
533.0,465.0,523.0,502.0
530.0,473.0,535.0,503.0
526.0,480.0,541.0,506.0
509.0,498.0,536.0,511.0
495.0,518.0,536.0,508.0
497.0,518.0,533.0,511.0
495.0,515.0,527.0,514.0
498.0,506.0,519.0,519.0
515.0,482.0,514.0,513.0
520.0,482.0,509.0,520.0
529.0,499.0,503.0,523.0
518.0,504.0,491.0,523.0
502.0,527.0,486.0,524.0
510.0,520.0,480.0,519.0
507.0,523.0,482.0,512.0
506.0,516.0,488.0,512.0
522.0,480.0,510.0,503.0
530.0,471.0,529.0,504.0
526.0,477.0,534.0,503.0
519.0,493.0,545.0,503.0
502.0,530.0,535.0,503.0
500.0,532.0,533.0,503.0
501.0,521.0,529.0,503.0
493.0,532.0,526.0,506.0
503.0,522.0,513.0,507.0
522.0,490.0,505.0,509.0
523.0,489.0,498.0,514.0
524.0,493.0,485.0,517.0
507.0,528.0,481.0,520.0
501.0,526.0,477.0,524.0
505.0,525.0,482.0,520.0
510.0,512.0,489.0,519.0
516.0,508.0,502.0,514.0
531.0,473.0,523.0,512.0
529.0,468.0,533.0,506.0
528.0,461.0,541.0,504.0
511.0,503.0,537.0,504.0
494.0,520.0,532.0,505.0
497.0,511.0,533.0,508.0
495.0,510.0,530.0,506.0
489.0,515.0,521.0,510.0
505.0,498.0,513.0,509.0
519.0,497.0,506.0,512.0
529.0,490.0,497.0,511.0
528.0,506.0,486.0,516.0
513.0,525.0,479.0,520.0
513.0,521.0,478.0,522.0
510.0,517.0,486.0,520.0
512.0,514.0,493.0,516.0
522.0,495.0,508.0,514.0
534.0,472.0,522.0,509.0
527.0,476.0,533.0,508.0
524.0,482.0,539.0,505.0
503.0,518.0,537.0,507.0
494.0,529.0,534.0,504.0
499.0,518.0,531.0,504.0
496.0,525.0,529.0,508.0
499.0,508.0,520.0,510.0
522.0,485.0,516.0,509.0
524.0,491.0,502.0,516.0
525.0,480.0,492.0,518.0
513.0,512.0,481.0,521.0
500.0,551.0,477.0,521.0
504.0,518.0,485.0,519.0
509.0,512.0,487.0,517.0
512.0,507.0,501.0,516.0
526.0,462.0,513.0,512.0
529.0,465.0,530.0,507.0
526.0,479.0,538.0,506.0
515.0,496.0,541.0,504.0
496.0,517.0,540.0,506.0
497.0,524.0,536.0,505.0
497.0,529.0,530.0,502.0
495.0,526.0,527.0,507.0
503.0,515.0,518.0,511.0
526.0,483.0,506.0,510.0
527.0,479.0,496.0,519.0
527.0,481.0,485.0,521.0
508.0,517.0,489.0,523.0
500.0,526.0,477.0,527.0
505.0,520.0,478.0,524.0
505.0,512.0,490.0,521.0
509.0,499.0,506.0,521.0
524.0,456.0,525.0,512.0
521.0,472.0,536.0,507.0
517.0,472.0,538.0,503.0
504.0,490.0,542.0,501.0
490.0,562.0,538.0,504.0
488.0,546.0,532.0,500.0
496.0,525.0,521.0,505.0
499.0,530.0,518.0,509.0
514.0,507.0,508.0,511.0
528.0,492.0,500.0,513.0
530.0,482.0,494.0,516.0
523.0,494.0,484.0,518.0
502.0,526.0,483.0,522.0
504.0,522.0,488.0,521.0
512.0,500.0,483.0,519.0
510.0,506.0,493.0,515.0
526.0,486.0,509.0,516.0
535.0,460.0,522.0,510.0
530.0,474.0,535.0,505.0
519.0,474.0,542.0,503.0
503.0,513.0,538.0,506.0
500.0,516.0,537.0,505.0
496.0,525.0,531.0,506.0
485.0,547.0,524.0,508.0
494.0,543.0,513.0,511.0
517.0,508.0,508.0,511.0
524.0,500.0,501.0,515.0
523.0,502.0,492.0,513.0
517.0,494.0,485.0,521.0
498.0,513.0,479.0,524.0
507.0,499.0,481.0,521.0
509.0,508.0,487.0,515.0
508.0,510.0,498.0,519.0
521.0,491.0,517.0,514.0
532.0,472.0,533.0,507.0
529.0,489.0,537.0,502.0
518.0,505.0,535.0,511.0
498.0,517.0,538.0,505.0
495.0,519.0,535.0,506.0
500.0,514.0,530.0,507.0
499.0,519.0,519.0,506.0
506.0,502.0,509.0,509.0
524.0,482.0,505.0,511.0
521.0,489.0,494.0,515.0
519.0,498.0,488.0,520.0
502.0,522.0,479.0,519.0
500.0,527.0,480.0,517.0
508.0,514.0,482.0,517.0
509.0,515.0,490.0,517.0
512.0,506.0,499.0,516.0
528.0,470.0,520.0,510.0
525.0,469.0,533.0,505.0
523.0,476.0,540.0,504.0
508.0,506.0,537.0,504.0
492.0,527.0,539.0,503.0
496.0,516.0,539.0,505.0
500.0,519.0,528.0,506.0
498.0,523.0,519.0,503.0
513.0,493.0,511.0,511.0
524.0,485.0,504.0,513.0
523.0,494.0,494.0,513.0
516.0,504.0,488.0,519.0
502.0,537.0,481.0,520.0
495.0,532.0,484.0,521.0
502.0,530.0,489.0,519.0
503.0,518.0,498.0,517.0
510.0,479.0,512.0,516.0
527.0,454.0,526.0,511.0
524.0,474.0,537.0,507.0
518.0,490.0,542.0,506.0
504.0,494.0,540.0,505.0
494.0,500.0,543.0,509.0
498.0,502.0,534.0,512.0
501.0,493.0,530.0,507.0
505.0,497.0,517.0,511.0
524.0,503.0,509.0,511.0
529.0,501.0,497.0,512.0
524.0,509.0,489.0,518.0
510.0,542.0,475.0,519.0
498.0,543.0,479.0,520.0
504.0,520.0,480.0,518.0
509.0,505.0,487.0,517.0
511.0,496.0,497.0,516.0
525.0,459.0,511.0,512.0
529.0,458.0,528.0,509.0
526.0,484.0,539.0,505.0
509.0,503.0,547.0,506.0
487.0,525.0,541.0,507.0
493.0,521.0,539.0,505.0
506.0,523.0,532.0,508.0
503.0,529.0,526.0,509.0
506.0,507.0,520.0,513.0
525.0,486.0,510.0,514.0
527.0,484.0,498.0,513.0
525.0,490.0,490.0,517.0
511.0,510.0,483.0,522.0
504.0,521.0,484.0,520.0
507.0,511.0,487.0,519.0
510.0,510.0,492.0,514.0
508.0,512.0,500.0,512.0
527.0,486.0,518.0,507.0
526.0,476.0,532.0,505.0
521.0,476.0,539.0,506.0
511.0,493.0,541.0,505.0
494.0,523.0,538.0,504.0
498.0,525.0,534.0,506.0
500.0,529.0,531.0,504.0
500.0,533.0,521.0,507.0
514.0,502.0,509.0,511.0
522.0,491.0,507.0,514.0
517.0,495.0,497.0,519.0
517.0,503.0,484.0,523.0
497.0,542.0,480.0,525.0
497.0,524.0,483.0,523.0
513.0,505.0,490.0,522.0
512.0,488.0,492.0,517.0
519.0,476.0,510.0,510.0
529.0,467.0,527.0,506.0
528.0,475.0,535.0,501.0
521.0,477.0,548.0,505.0
500.0,518.0,538.0,508.0
490.0,529.0,533.0,508.0
491.0,525.0,529.0,504.0
496.0,536.0,522.0,503.0
497.0,528.0,514.0,504.0
515.0,499.0,509.0,502.0
526.0,494.0,497.0,510.0
525.0,485.0,488.0,514.0
512.0,515.0,480.0,522.0
500.0,535.0,480.0,520.0
504.0,527.0,486.0,520.0
513.0,515.0,489.0,515.0
512.0,504.0,501.0,514.0
529.0,458.0,518.0,514.0
533.0,463.0,529.0,508.0
525.0,477.0,538.0,504.0
518.0,498.0,543.0,507.0
496.0,537.0,543.0,505.0
494.0,528.0,536.0,505.0
496.0,528.0,525.0,505.0
496.0,506.0,519.0,505.0
498.0,493.0,515.0,507.0
519.0,486.0,503.0,507.0
516.0,493.0,492.0,515.0
516.0,497.0,482.0,517.0
508.0,531.0,482.0,521.0
500.0,504.0,481.0,519.0
512.0,488.0,485.0,518.0
513.0,510.0,494.0,518.0
521.0,503.0,510.0,518.0
533.0,469.0,524.0,512.0
530.0,484.0,526.0,504.0
525.0,497.0,534.0,500.0
509.0,512.0,538.0,504.0
492.0,534.0,537.0,511.0
492.0,534.0,534.0,507.0
495.0,530.0,530.0,509.0
497.0,518.0,522.0,507.0
517.0,488.0,510.0,509.0
525.0,477.0,504.0,511.0
526.0,484.0,495.0,515.0
513.0,510.0,488.0,519.0
500.0,526.0,483.0,523.0
501.0,516.0,485.0,522.0
504.0,511.0,492.0,519.0
504.0,505.0,497.0,518.0
513.0,492.0,503.0,513.0
531.0,482.0,523.0,506.0
524.0,492.0,537.0,504.0
519.0,494.0,542.0,502.0
499.0,528.0,538.0,508.0
489.0,532.0,540.0,507.0
496.0,510.0,536.0,508.0
498.0,515.0,526.0,508.0
500.0,509.0,519.0,508.0
524.0,489.0,505.0,506.0
526.0,487.0,498.0,513.0
521.0,498.0,491.0,519.0
515.0,518.0,481.0,522.0
500.0,528.0,480.0,522.0
505.0,521.0,484.0,521.0
509.0,508.0,491.0,518.0
511.0,504.0,501.0,516.0
523.0,476.0,519.0,513.0
531.0,466.0,534.0,509.0
529.0,471.0,538.0,511.0
516.0,493.0,542.0,507.0
492.0,518.0,539.0,511.0
491.0,514.0,538.0,507.0
502.0,505.0,533.0,505.0
508.0,513.0,525.0,510.0
505.0,513.0,519.0,509.0
523.0,498.0,502.0,508.0
527.0,487.0,495.0,510.0
521.0,479.0,487.0,515.0
505.0,515.0,480.0,519.0
501.0,510.0,482.0,520.0
507.0,506.0,485.0,520.0
510.0,512.0,492.0,517.0
513.0,504.0,505.0,512.0
527.0,475.0,523.0,510.0
524.0,466.0,531.0,509.0
520.0,480.0,539.0,506.0
507.0,509.0,538.0,506.0
492.0,518.0,539.0,507.0
502.0,499.0,533.0,503.0
507.0,494.0,532.0,507.0
491.0,530.0,522.0,512.0
511.0,527.0,517.0,511.0
524.0,538.0,508.0,512.0
521.0,512.0,495.0,513.0
524.0,475.0,484.0,517.0
508.0,524.0,479.0,527.0
506.0,530.0,485.0,529.0
508.0,516.0,489.0,528.0
507.0,510.0,495.0,524.0
518.0,508.0,509.0,515.0
535.0,487.0,525.0,507.0
532.0,485.0,535.0,504.0
522.0,488.0,539.0,502.0
502.0,515.0,542.0,504.0
493.0,521.0,537.0,505.0
498.0,524.0,532.0,503.0
497.0,526.0,523.0,504.0
505.0,519.0,512.0,510.0
520.0,494.0,509.0,508.0
522.0,492.0,499.0,511.0
521.0,494.0,487.0,512.0
510.0,514.0,480.0,521.0
500.0,529.0,475.0,521.0
506.0,524.0,480.0,517.0
508.0,516.0,488.0,519.0
511.0,520.0,499.0,516.0
525.0,485.0,519.0,510.0
529.0,474.0,535.0,508.0
530.0,457.0,542.0,508.0
516.0,484.0,540.0,508.0
492.0,525.0,535.0,504.0
493.0,526.0,532.0,506.0
502.0,520.0,531.0,505.0
498.0,522.0,524.0,508.0
511.0,504.0,518.0,508.0
521.0,477.0,512.0,512.0
526.0,487.0,500.0,512.0
521.0,496.0,487.0,518.0
503.0,529.0,479.0,520.0
496.0,548.0,480.0,519.0
507.0,505.0,485.0,516.0
516.0,496.0,488.0,519.0
518.0,501.0,504.0,515.0
535.0,471.0,526.0,504.0
527.0,457.0,535.0,509.0
521.0,463.0,544.0,508.0
506.0,495.0,543.0,508.0
497.0,510.0,538.0,504.0
500.0,521.0,533.0,505.0
504.0,514.0,527.0,503.0
504.0,523.0,520.0,507.0
515.0,505.0,512.0,508.0
519.0,493.0,502.0,512.0
520.0,493.0,492.0,514.0
516.0,512.0,480.0,521.0
497.0,532.0,481.0,524.0
504.0,529.0,480.0,522.0
504.0,524.0,486.0,518.0
511.0,521.0,500.0,519.0
526.0,494.0,519.0,515.0
532.0,473.0,530.0,510.0
527.0,477.0,547.0,509.0
521.0,486.0,547.0,506.0
502.0,525.0,536.0,506.0
495.0,525.0,534.0,502.0
496.0,526.0,528.0,508.0
496.0,519.0,528.0,508.0
500.0,510.0,513.0,505.0
522.0,486.0,512.0,510.0
525.0,491.0,499.0,510.0
521.0,490.0,492.0,516.0
510.0,513.0,481.0,522.0
498.0,525.0,480.0,522.0
502.0,499.0,483.0,523.0
510.0,495.0,488.0,517.0
502.0,515.0,501.0,519.0
520.0,496.0,518.0,513.0
528.0,494.0,527.0,507.0
525.0,490.0,539.0,502.0
519.0,478.0,539.0,501.0
499.0,518.0,535.0,503.0
492.0,544.0,530.0,505.0
498.0,524.0,529.0,507.0
498.0,539.0,527.0,509.0
510.0,500.0,523.0,507.0
523.0,481.0,506.0,509.0
527.0,479.0,496.0,522.0
527.0,504.0,490.0,528.0
506.0,528.0,482.0,529.0
501.0,530.0,476.0,522.0
500.0,546.0,480.0,516.0
507.0,511.0,487.0,513.0
512.0,496.0,499.0,506.0
533.0,459.0,517.0,505.0
532.0,458.0,529.0,498.0
524.0,455.0,537.0,504.0
511.0,501.0,539.0,506.0
498.0,526.0,535.0,504.0
498.0,529.0,532.0,505.0
499.0,521.0,524.0,506.0
500.0,516.0,518.0,507.0
515.0,488.0,511.0,511.0
524.0,481.0,501.0,510.0
523.0,495.0,494.0,515.0
514.0,509.0,483.0,522.0
496.0,538.0,485.0,525.0
497.0,528.0,484.0,525.0
504.0,518.0,489.0,521.0
507.0,506.0,496.0,516.0
518.0,479.0,507.0,512.0
535.0,445.0,525.0,505.0
532.0,459.0,536.0,501.0
519.0,481.0,540.0,505.0
495.0,527.0,537.0,507.0
490.0,536.0,538.0,504.0
492.0,524.0,538.0,506.0
500.0,525.0,526.0,503.0
508.0,513.0,511.0,506.0
531.0,484.0,508.0,509.0
526.0,484.0,495.0,512.0
524.0,488.0,490.0,517.0
512.0,522.0,478.0,522.0
504.0,534.0,482.0,521.0
507.0,520.0,482.0,520.0
507.0,506.0,492.0,517.0
509.0,505.0,495.0,513.0
528.0,476.0,514.0,511.0
530.0,472.0,530.0,507.0
525.0,487.0,543.0,507.0
515.0,513.0,541.0,506.0
491.0,549.0,539.0,509.0
496.0,530.0,537.0,509.0
499.0,515.0,532.0,507.0
498.0,506.0,518.0,508.0
511.0,473.0,512.0,509.0
526.0,471.0,507.0,514.0
522.0,505.0,495.0,517.0
516.0,517.0,490.0,520.0
495.0,539.0,484.0,524.0
495.0,527.0,484.0,523.0
502.0,526.0,489.0,519.0
507.0,509.0,489.0,518.0
521.0,494.0,502.0,512.0
529.0,484.0,520.0,507.0
531.0,504.0,534.0,505.0
526.0,505.0,543.0,506.0
510.0,498.0,540.0,506.0
496.0,511.0,540.0,509.0
498.0,521.0,533.0,511.0
495.0,515.0,529.0,509.0
498.0,511.0,518.0,516.0
516.0,480.0,510.0,513.0
521.0,470.0,504.0,513.0
519.0,478.0,504.0,520.0
509.0,499.0,489.0,523.0
498.0,529.0,483.0,523.0
507.0,512.0,484.0,517.0
511.0,508.0,488.0,516.0
516.0,497.0,494.0,510.0
521.0,487.0,506.0,508.0
527.0,497.0,526.0,506.0
528.0,493.0,536.0,507.0
519.0,492.0,541.0,503.0
505.0,532.0,539.0,505.0
496.0,540.0,534.0,502.0
494.0,538.0,532.0,503.0
500.0,515.0,525.0,506.0
504.0,516.0,516.0,507.0
518.0,504.0,509.0,512.0
524.0,487.0,500.0,514.0
525.0,491.0,490.0,517.0
515.0,498.0,484.0,519.0
502.0,515.0,479.0,520.0
507.0,510.0,486.0,519.0
511.0,508.0,491.0,519.0
511.0,508.0,501.0,517.0
526.0,481.0,518.0,511.0
528.0,471.0,531.0,509.0
519.0,472.0,542.0,508.0
506.0,492.0,540.0,504.0
484.0,521.0,538.0,509.0
496.0,518.0,535.0,512.0
496.0,522.0,533.0,509.0
498.0,528.0,526.0,514.0
515.0,503.0,517.0,515.0
532.0,484.0,509.0,517.0
529.0,484.0,498.0,518.0
523.0,499.0,488.0,523.0
504.0,528.0,479.0,523.0
499.0,529.0,478.0,521.0
498.0,530.0,480.0,519.0
511.0,511.0,488.0,513.0
513.0,506.0,501.0,513.0
529.0,476.0,524.0,507.0
526.0,485.0,533.0,504.0
523.0,489.0,538.0,504.0
504.0,514.0,539.0,504.0
495.0,521.0,536.0,504.0
499.0,517.0,532.0,506.0
495.0,521.0,525.0,506.0
501.0,520.0,519.0,505.0
518.0,487.0,517.0,513.0
525.0,484.0,508.0,517.0
524.0,490.0,500.0,519.0
516.0,506.0,488.0,521.0
500.0,534.0,478.0,522.0
506.0,517.0,477.0,517.0
507.0,509.0,483.0,517.0
510.0,503.0,494.0,513.0
521.0,479.0,511.0,509.0
529.0,454.0,530.0,506.0
523.0,458.0,539.0,507.0
518.0,487.0,539.0,505.0
496.0,531.0,537.0,506.0
497.0,549.0,539.0,505.0
501.0,555.0,533.0,506.0
504.0,508.0,526.0,505.0
503.0,489.0,516.0,513.0
520.0,470.0,510.0,508.0
524.0,449.0,495.0,510.0
524.0,468.0,493.0,515.0
515.0,511.0,485.0,517.0
503.0,509.0,473.0,524.0
508.0,514.0,479.0,521.0
519.0,513.0,493.0,519.0
517.0,523.0,494.0,513.0
533.0,494.0,516.0,507.0
535.0,470.0,531.0,507.0
526.0,474.0,540.0,510.0
517.0,497.0,543.0,505.0
501.0,521.0,540.0,508.0
500.0,520.0,534.0,505.0
500.0,529.0,531.0,506.0
495.0,544.0,520.0,509.0
512.0,506.0,513.0,512.0
525.0,473.0,507.0,515.0
524.0,478.0,495.0,517.0
518.0,499.0,483.0,519.0
499.0,537.0,475.0,519.0
497.0,536.0,472.0,519.0
493.0,544.0,485.0,520.0
505.0,514.0,497.0,522.0
514.0,503.0,507.0,513.0
526.0,476.0,526.0,509.0
526.0,471.0,537.0,509.0
521.0,481.0,543.0,503.0
508.0,525.0,539.0,501.0
495.0,547.0,535.0,501.0
494.0,537.0,538.0,508.0
500.0,523.0,534.0,506.0
505.0,504.0,516.0,505.0
524.0,481.0,507.0,507.0
526.0,481.0,506.0,510.0
523.0,492.0,490.0,518.0
513.0,513.0,478.0,520.0
500.0,530.0,477.0,521.0
501.0,531.0,480.0,519.0
506.0,510.0,485.0,519.0
514.0,510.0,497.0,512.0
526.0,490.0,512.0,511.0
534.0,463.0,528.0,506.0
529.0,465.0,539.0,506.0
522.0,489.0,539.0,507.0
501.0,519.0,540.0,510.0
497.0,526.0,537.0,508.0
497.0,528.0,530.0,507.0
498.0,520.0,522.0,506.0
504.0,511.0,514.0,507.0
523.0,480.0,507.0,510.0
524.0,482.0,501.0,514.0
524.0,486.0,489.0,516.0
508.0,517.0,478.0,521.0
496.0,531.0,478.0,520.0
504.0,526.0,482.0,518.0
515.0,504.0,489.0,518.0
517.0,501.0,501.0,515.0
534.0,467.0,521.0,510.0
531.0,464.0,534.0,505.0
525.0,473.0,538.0,506.0
510.0,498.0,541.0,508.0
497.0,529.0,539.0,508.0
490.0,529.0,535.0,513.0
496.0,521.0,530.0,511.0
495.0,531.0,522.0,512.0
509.0,507.0,513.0,514.0
524.0,491.0,505.0,513.0
526.0,471.0,495.0,520.0
525.0,485.0,486.0,522.0
501.0,524.0,480.0,528.0
503.0,526.0,480.0,525.0
504.0,524.0,495.0,526.0
510.0,513.0,508.0,523.0
516.0,498.0,514.0,518.0
531.0,473.0,527.0,507.0
527.0,481.0,527.0,499.0
522.0,491.0,535.0,494.0
506.0,522.0,534.0,498.0
496.0,505.0,531.0,503.0
501.0,500.0,530.0,500.0
502.0,509.0,526.0,503.0
505.0,511.0,519.0,504.0
518.0,481.0,512.0,506.0
524.0,485.0,498.0,510.0
525.0,476.0,491.0,515.0
517.0,503.0,483.0,520.0
497.0,541.0,475.0,519.0
504.0,512.0,480.0,517.0
503.0,508.0,491.0,516.0
509.0,502.0,497.0,516.0
522.0,488.0,510.0,507.0
529.0,500.0,528.0,505.0
526.0,486.0,541.0,503.0
522.0,488.0,545.0,506.0
506.0,517.0,540.0,503.0
497.0,525.0,541.0,506.0
497.0,533.0,538.0,509.0
491.0,535.0,527.0,513.0
501.0,521.0,516.0,512.0
525.0,487.0,509.0,507.0
528.0,485.0,494.0,510.0
523.0,496.0,485.0,514.0
506.0,523.0,481.0,521.0
502.0,525.0,477.0,518.0
503.0,522.0,481.0,515.0
508.0,507.0,489.0,525.0
510.0,509.0,500.0,516.0
526.0,497.0,524.0,511.0
528.0,495.0,543.0,511.0
522.0,497.0,550.0,507.0
508.0,507.0,549.0,508.0
493.0,517.0,541.0,502.0
503.0,493.0,532.0,499.0
501.0,494.0,526.0,498.0
502.0,502.0,523.0,507.0
517.0,499.0,515.0,512.0
525.0,477.0,503.0,510.0
520.0,489.0,494.0,514.0
513.0,500.0,487.0,516.0
500.0,527.0,479.0,522.0
498.0,529.0,482.0,520.0
503.0,510.0,486.0,520.0
510.0,494.0,497.0,518.0
516.0,484.0,511.0,518.0
530.0,455.0,528.0,512.0
524.0,478.0,536.0,508.0
518.0,484.0,541.0,504.0
498.0,516.0,541.0,505.0
491.0,534.0,538.0,505.0
492.0,544.0,533.0,505.0
502.0,526.0,531.0,506.0
511.0,519.0,522.0,509.0
524.0,489.0,510.0,509.0
528.0,486.0,507.0,513.0
525.0,484.0,494.0,516.0
516.0,501.0,482.0,522.0
500.0,528.0,476.0,525.0
506.0,523.0,480.0,520.0
501.0,522.0,482.0,521.0
506.0,512.0,503.0,519.0
517.0,482.0,524.0,515.0
527.0,468.0,532.0,508.0
522.0,478.0,542.0,506.0
515.0,487.0,544.0,501.0
498.0,504.0,542.0,505.0
490.0,519.0,537.0,510.0
492.0,530.0,533.0,507.0
497.0,522.0,527.0,513.0
511.0,506.0,524.0,508.0
531.0,474.0,514.0,508.0
532.0,481.0,489.0,513.0
530.0,496.0,483.0,515.0
511.0,531.0,483.0,521.0
502.0,554.0,483.0,519.0
502.0,544.0,481.0,521.0
510.0,504.0,489.0,521.0
512.0,493.0,500.0,516.0
529.0,465.0,522.0,511.0
532.0,465.0,552.0,511.0
526.0,474.0,544.0,506.0
515.0,499.0,539.0,505.0
496.0,518.0,538.0,505.0
493.0,520.0,535.0,505.0
490.0,522.0,536.0,507.0
496.0,522.0,525.0,510.0
511.0,519.0,513.0,506.0
524.0,494.0,494.0,509.0
525.0,487.0,493.0,514.0
525.0,482.0,486.0,522.0
507.0,499.0,487.0,525.0
505.0,504.0,483.0,525.0
505.0,508.0,482.0,522.0
507.0,519.0,492.0,517.0
512.0,516.0,509.0,513.0
528.0,503.0,531.0,506.0
528.0,487.0,547.0,508.0
523.0,485.0,548.0,504.0
505.0,508.0,533.0,501.0
495.0,516.0,536.0,499.0
493.0,522.0,537.0,506.0
497.0,513.0,528.0,506.0
497.0,514.0,516.0,511.0
517.0,475.0,513.0,511.0
521.0,459.0,503.0,514.0
524.0,493.0,490.0,517.0
513.0,511.0,481.0,517.0
495.0,538.0,475.0,517.0
497.0,538.0,477.0,517.0
506.0,529.0,482.0,521.0
516.0,518.0,495.0,511.0
527.0,490.0,514.0,511.0
530.0,474.0,524.0,505.0
537.0,463.0,550.0,509.0
523.0,480.0,552.0,507.0
500.0,517.0,537.0,504.0
498.0,538.0,542.0,507.0
493.0,569.0,539.0,507.0
498.0,530.0,531.0,507.0
509.0,509.0,518.0,503.0
526.0,490.0,507.0,512.0
530.0,464.0,495.0,517.0
531.0,484.0,491.0,524.0
510.0,517.0,487.0,525.0
496.0,528.0,479.0,523.0
497.0,517.0,475.0,520.0
500.0,517.0,491.0,521.0
511.0,510.0,504.0,518.0
533.0,472.0,524.0,514.0
531.0,464.0,539.0,515.0
529.0,475.0,546.0,507.0
520.0,501.0,545.0,511.0
496.0,536.0,543.0,504.0
499.0,519.0,545.0,508.0
499.0,536.0,536.0,511.0
496.0,542.0,525.0,517.0
512.0,509.0,514.0,514.0
523.0,509.0,497.0,509.0
525.0,469.0,465.0,504.0
518.0,475.0,490.0,519.0
502.0,504.0,490.0,523.0
508.0,504.0,472.0,517.0
507.0,515.0,478.0,513.0
513.0,533.0,487.0,511.0
516.0,515.0,506.0,508.0
531.0,473.0,533.0,508.0
523.0,482.0,544.0,503.0
520.0,475.0,543.0,501.0
507.0,493.0,543.0,502.0
499.0,513.0,554.0,505.0
499.0,520.0,539.0,506.0
496.0,522.0,531.0,503.0
499.0,520.0,521.0,510.0
524.0,483.0,508.0,507.0
527.0,482.0,494.0,510.0
527.0,494.0,483.0,520.0
516.0,513.0,478.0,523.0
499.0,533.0,477.0,525.0
510.0,505.0,493.0,527.0
506.0,510.0,482.0,520.0
507.0,502.0,516.0,526.0
524.0,470.0,515.0,510.0
534.0,449.0,515.0,499.0
529.0,471.0,535.0,495.0
516.0,513.0,556.0,506.0
488.0,548.0,548.0,506.0
486.0,535.0,537.0,506.0
494.0,514.0,537.0,502.0
495.0,515.0,528.0,506.0
510.0,519.0,512.0,503.0
530.0,491.0,515.0,513.0
529.0,490.0,503.0,516.0
531.0,489.0,489.0,519.0
509.0,513.0,480.0,523.0
502.0,528.0,473.0,515.0
510.0,515.0,485.0,519.0
509.0,509.0,483.0,513.0
513.0,505.0,500.0,514.0
528.0,479.0,546.0,513.0
529.0,470.0,543.0,507.0
526.0,471.0,533.0,499.0
510.0,502.0,541.0,505.0
493.0,529.0,546.0,507.0
493.0,521.0,558.0,513.0
498.0,519.0,536.0,507.0
501.0,511.0,515.0,505.0
517.0,496.0,522.0,515.0
524.0,483.0,519.0,522.0
522.0,486.0,495.0,519.0
521.0,497.0,481.0,517.0
503.0,525.0,473.0,521.0
504.0,525.0,477.0,521.0
504.0,528.0,493.0,524.0
505.0,518.0,503.0,521.0
513.0,505.0,517.0,510.0
531.0,476.0,518.0,503.0
528.0,476.0,536.0,495.0
530.0,485.0,542.0,500.0
510.0,517.0,544.0,503.0
503.0,523.0,570.0,520.0
493.0,534.0,546.0,510.0
497.0,529.0,530.0,503.0
501.0,520.0,537.0,515.0
521.0,486.0,534.0,518.0
525.0,475.0,506.0,523.0
526.0,482.0,486.0,518.0
514.0,502.0,465.0,515.0
507.0,523.0,467.0,516.0
507.0,521.0,479.0,519.0
502.0,516.0,478.0,512.0
511.0,501.0,493.0,509.0
523.0,493.0,520.0,508.0
522.0,483.0,536.0,510.0
523.0,465.0,554.0,508.0
509.0,509.0,570.0,518.0
488.0,525.0,556.0,512.0
483.0,525.0,551.0,511.0
492.0,532.0,531.0,496.0
503.0,505.0,523.0,505.0
511.0,498.0,521.0,510.0
522.0,486.0,504.0,508.0
521.0,496.0,483.0,507.0
526.0,492.0,474.0,511.0
519.0,524.0,476.0,522.0
509.0,520.0,475.0,524.0
513.0,509.0,496.0,530.0
516.0,497.0,495.0,524.0
516.0,476.0,511.0,517.0
529.0,455.0,542.0,519.0
529.0,452.0,563.0,519.0
526.0,470.0,535.0,500.0
504.0,551.0,502.0,481.0
501.0,518.0,536.0,500.0
492.0,542.0,561.0,515.0
491.0,542.0,556.0,521.0
498.0,540.0,526.0,516.0
511.0,497.0,530.0,517.0
518.0,475.0,514.0,515.0
526.0,476.0,485.0,512.0
519.0,501.0,473.0,511.0
509.0,533.0,476.0,516.0
506.0,529.0,454.0,507.0
497.0,541.0,469.0,513.0
507.0,533.0,496.0,521.0
516.0,504.0,521.0,516.0
528.0,454.0,534.0,509.0
525.0,443.0,562.0,503.0
522.0,462.0,548.0,496.0
512.0,532.0,545.0,504.0
498.0,578.0,546.0,505.0
492.0,557.0,529.0,496.0
491.0,520.0,540.0,511.0
505.0,484.0,539.0,529.0
529.0,478.0,537.0,527.0
533.0,487.0,498.0,515.0
528.0,495.0,505.0,531.0
514.0,512.0,468.0,519.0
502.0,522.0,442.0,497.0
510.0,514.0,468.0,513.0
520.0,492.0,499.0,523.0
512.0,490.0,504.0,523.0
518.0,478.0,530.0,518.0
528.0,471.0,525.0,504.0
523.0,481.0,516.0,479.0
516.0,495.0,542.0,496.0
490.0,519.0,577.0,522.0
487.0,527.0,571.0,527.0
492.0,517.0,517.0,492.0
490.0,518.0,510.0,488.0
498.0,502.0,518.0,502.0
519.0,475.0,504.0,498.0
519.0,483.0,486.0,502.0
518.0,480.0,488.0,521.0
509.0,525.0,474.0,520.0
500.0,541.0,472.0,519.0
495.0,535.0,477.0,527.0
500.0,509.0,459.0,509.0
517.0,497.0,556.0,539.0
536.0,466.0,584.0,542.0
528.0,478.0,607.0,525.0
525.0,470.0,530.0,474.0
503.0,473.0,530.0,488.0
487.0,533.0,520.0,499.0
486.0,535.0,520.0,506.0
498.0,517.0,528.0,508.0
514.0,521.0,513.0,500.0
534.0,492.0,513.0,506.0
547.0,489.0,501.0,505.0
536.0,487.0,486.0,506.0
532.0,497.0,491.0,527.0
516.0,526.0,498.0,537.0
511.0,521.0,468.0,513.0
496.0,519.0,454.0,498.0
504.0,508.0,508.0,516.0
527.0,490.0,544.0,517.0
531.0,471.0,564.0,517.0
522.0,476.0,524.0,499.0
519.0,479.0,521.0,482.0
504.0,503.0,551.0,505.0
499.0,533.0,529.0,493.0
492.0,542.0,553.0,501.0
497.0,543.0,536.0,502.0
505.0,533.0,501.0,493.0
528.0,488.0,505.0,510.0
525.0,484.0,495.0,514.0
521.0,458.0,500.0,526.0
516.0,484.0,483.0,526.0
499.0,536.0,465.0,517.0
501.0,528.0,460.0,505.0
505.0,527.0,484.0,510.0
514.0,523.0,506.0,514.0
528.0,462.0,555.0,517.0
526.0,457.0,567.0,515.0
528.0,470.0,565.0,510.0
519.0,494.0,562.0,507.0
507.0,513.0,558.0,512.0
509.0,504.0,505.0,488.0
506.0,502.0,542.0,505.0
496.0,506.0,522.0,502.0
510.0,505.0,514.0,506.0
530.0,483.0,493.0,504.0
527.0,492.0,495.0,512.0
524.0,514.0,494.0,521.0
504.0,528.0,455.0,513.0
492.0,532.0,448.0,510.0
493.0,526.0,472.0,512.0
495.0,513.0,517.0,509.0
497.0,511.0,492.0,501.0
517.0,471.0,564.0,515.0
522.0,457.0,565.0,512.0
521.0,482.0,561.0,493.0
503.0,519.0,593.0,517.0
495.0,534.0,523.0,512.0
490.0,524.0,547.0,525.0
491.0,520.0,596.0,525.0
504.0,506.0,541.0,507.0
506.0,486.0,551.0,516.0
521.0,464.0,497.0,499.0
519.0,471.0,494.0,503.0
508.0,518.0,479.0,515.0
490.0,543.0,492.0,533.0
502.0,533.0,438.0,512.0
513.0,527.0,464.0,498.0
514.0,507.0,486.0,518.0
520.0,485.0,524.0,519.0
530.0,467.0,527.0,504.0
530.0,489.0,524.0,485.0
527.0,482.0,547.0,495.0
504.0,522.0,545.0,500.0
494.0,539.0,584.0,533.0
504.0,494.0,570.0,530.0
499.0,509.0,471.0,491.0
505.0,505.0,459.0,487.0
528.0,483.0,483.0,498.0
521.0,490.0,506.0,524.0
522.0,491.0,508.0,529.0
514.0,509.0,522.0,536.0
500.0,536.0,486.0,531.0
504.0,539.0,466.0,518.0
519.0,518.0,457.0,487.0
519.0,524.0,531.0,521.0
527.0,485.0,570.0,530.0
539.0,426.0,553.0,511.0
525.0,454.0,556.0,497.0
511.0,491.0,545.0,486.0
484.0,540.0,543.0,509.0
485.0,510.0,606.0,544.0
492.0,489.0,549.0,513.0
501.0,494.0,474.0,485.0
511.0,466.0,500.0,506.0
535.0,486.0,490.0,499.0
525.0,523.0,445.0,489.0
510.0,531.0,462.0,503.0
504.0,516.0,475.0,518.0
505.0,503.0,456.0,519.0
512.0,506.0,452.0,518.0
511.0,517.0,441.0,507.0
515.0,489.0,532.0,528.0
522.0,466.0,599.0,519.0
524.0,462.0,557.0,493.0
520.0,481.0,577.0,504.0
502.0,535.0,554.0,499.0
502.0,558.0,596.0,514.0
510.0,536.0,561.0,512.0
502.0,529.0,452.0,475.0
499.0,524.0,501.0,501.0
516.0,494.0,523.0,514.0
523.0,499.0,504.0,519.0
523.0,500.0,500.0,535.0
515.0,521.0,515.0,569.0
503.0,539.0,473.0,534.0
510.0,501.0,450.0,495.0
512.0,500.0,532.0,530.0
512.0,501.0,532.0,538.0
516.0,486.0,518.0,523.0
525.0,469.0,514.0,479.0
526.0,464.0,530.0,496.0
525.0,481.0,537.0,494.0
506.0,526.0,517.0,486.0
505.0,527.0,547.0,487.0
498.0,539.0,519.0,483.0
501.0,509.0,543.0,506.0
505.0,528.0,536.0,506.0
517.0,509.0,506.0,503.0
521.0,517.0,492.0,507.0
526.0,476.0,547.0,535.0
517.0,488.0,460.0,519.0
508.0,497.0,439.0,520.0
507.0,501.0,491.0,532.0
506.0,520.0,516.0,547.0
513.0,506.0,586.0,548.0
533.0,471.0,502.0,477.0
546.0,455.0,562.0,505.0
538.0,476.0,526.0,503.0
529.0,496.0,541.0,511.0
512.0,521.0,575.0,530.0
508.0,519.0,504.0,510.0
505.0,515.0,460.0,481.0
493.0,513.0,527.0,503.0
503.0,501.0,632.0,539.0
525.0,484.0,600.0,517.0
528.0,479.0,494.0,472.0
522.0,504.0,467.0,502.0
499.0,521.0,478.0,538.0
492.0,524.0,497.0,561.0
489.0,528.0,452.0,531.0
498.0,514.0,401.0,487.0
502.0,514.0,431.0,473.0
521.0,486.0,517.0,492.0
523.0,483.0,593.0,515.0
520.0,488.0,568.0,505.0
509.0,500.0,532.0,495.0
498.0,487.0,556.0,525.0
492.0,510.0,540.0,507.0
496.0,518.0,507.0,496.0
489.0,534.0,535.0,516.0
508.0,498.0,524.0,518.0
519.0,504.0,491.0,514.0
514.0,488.0,482.0,530.0
511.0,505.0,483.0,532.0
501.0,513.0,511.0,534.0
500.0,514.0,458.0,507.0
500.0,512.0,420.0,486.0
517.0,503.0,500.0,520.0
541.0,484.0,539.0,517.0
547.0,458.0,532.0,517.0
535.0,471.0,627.0,573.0
523.0,502.0,541.0,508.0
508.0,512.0,497.0,467.0
500.0,503.0,595.0,500.0
487.0,521.0,578.0,504.0
480.0,537.0,594.0,531.0
494.0,536.0,542.0,556.0
516.0,508.0,507.0,529.0
519.0,496.0,516.0,506.0
522.0,474.0,591.0,530.0
505.0,516.0,513.0,497.0
500.0,510.0,440.0,465.0
508.0,514.0,452.0,477.0
506.0,519.0,450.0,518.0
508.0,502.0,471.0,525.0
527.0,461.0,467.0,510.0
529.0,457.0,515.0,510.0
525.0,473.0,533.0,493.0
516.0,491.0,597.0,504.0
492.0,530.0,594.0,499.0
494.0,522.0,493.0,469.0
491.0,547.0,554.0,520.0
489.0,566.0,556.0,541.0
507.0,525.0,508.0,530.0
523.0,513.0,487.0,521.0
523.0,515.0,451.0,510.0
514.0,523.0,486.0,531.0
514.0,459.0,462.0,519.0
513.0,477.0,482.0,536.0
506.0,505.0,540.0,564.0
505.0,523.0,415.0,498.0
510.0,515.0,453.0,504.0
525.0,480.0,513.0,495.0
525.0,467.0,560.0,500.0
520.0,474.0,580.0,524.0
505.0,505.0,554.0,527.0
499.0,507.0,465.0,471.0
504.0,518.0,536.0,491.0
505.0,523.0,597.0,523.0
504.0,517.0,553.0,499.0
522.0,452.0,572.0,539.0
527.0,433.0,541.0,546.0
521.0,478.0,443.0,496.0
517.0,521.0,453.0,507.0
507.0,525.0,452.0,513.0
504.0,526.0,456.0,497.0
506.0,545.0,488.0,506.0
502.0,547.0,541.0,526.0
515.0,518.0,576.0,557.0
530.0,472.0,534.0,537.0
530.0,468.0,539.0,479.0
522.0,485.0,450.0,458.0
501.0,530.0,519.0,488.0
494.0,530.0,611.0,534.0
494.0,521.0,560.0,512.0
495.0,532.0,583.0,518.0
508.0,522.0,556.0,516.0
524.0,464.0,463.0,485.0
525.0,475.0,493.0,503.0
521.0,487.0,476.0,519.0
502.0,525.0,472.0,515.0
502.0,521.0,489.0,512.0
504.0,514.0,481.0,504.0
507.0,510.0,433.0,506.0
516.0,502.0,473.0,512.0
526.0,479.0,534.0,527.0
528.0,462.0,544.0,519.0
518.0,463.0,583.0,518.0
510.0,482.0,545.0,505.0
495.0,505.0,538.0,499.0
494.0,529.0,558.0,513.0
494.0,549.0,564.0,538.0
510.0,537.0,545.0,512.0
523.0,505.0,471.0,479.0
534.0,482.0,435.0,489.0
528.0,486.0,524.0,517.0
523.0,496.0,518.0,539.0
510.0,513.0,484.0,534.0
506.0,513.0,459.0,505.0
501.0,520.0,485.0,511.0
505.0,502.0,506.0,527.0
506.0,499.0,523.0,532.0
531.0,475.0,545.0,542.0
532.0,475.0,544.0,487.0
527.0,484.0,568.0,499.0
513.0,508.0,598.0,516.0
507.0,519.0,537.0,511.0
503.0,524.0,512.0,504.0
501.0,503.0,520.0,490.0
508.0,507.0,533.0,496.0
525.0,490.0,528.0,495.0
530.0,498.0,514.0,512.0
534.0,480.0,487.0,527.0
531.0,510.0,448.0,517.0
513.0,523.0,456.0,516.0
501.0,523.0,476.0,522.0
492.0,535.0,466.0,522.0
499.0,533.0,508.0,525.0
513.0,512.0,528.0,524.0
530.0,501.0,528.0,495.0
524.0,506.0,575.0,499.0
524.0,499.0,546.0,482.0
513.0,470.0,547.0,496.0
505.0,503.0,527.0,489.0
504.0,504.0,484.0,480.0
504.0,530.0,520.0,508.0
500.0,535.0,528.0,531.0
517.0,504.0,541.0,540.0
512.0,505.0,484.0,507.0
521.0,482.0,488.0,522.0
503.0,475.0,544.0,553.0
495.0,505.0,467.0,485.0
498.0,518.0,473.0,507.0
504.0,521.0,481.0,522.0
514.0,517.0,477.0,506.0
527.0,484.0,520.0,523.0
534.0,453.0,543.0,511.0
524.0,470.0,547.0,507.0
515.0,469.0,532.0,512.0
507.0,491.0,543.0,510.0
499.0,505.0,509.0,501.0
497.0,516.0,529.0,505.0
513.0,540.0,548.0,509.0
517.0,530.0,530.0,506.0
510.0,502.0,525.0,500.0
509.0,489.0,502.0,514.0
510.0,479.0,501.0,534.0
497.0,517.0,502.0,550.0
499.0,519.0,451.0,517.0
502.0,518.0,412.0,511.0
512.0,520.0,457.0,518.0
517.0,512.0,521.0,517.0
530.0,463.0,541.0,496.0
532.0,471.0,544.0,494.0
530.0,484.0,548.0,505.0
511.0,515.0,523.0,495.0
502.0,537.0,516.0,490.0
492.0,534.0,516.0,487.0
501.0,519.0,547.0,512.0
497.0,524.0,541.0,529.0
503.0,483.0,536.0,530.0
516.0,464.0,452.0,482.0
516.0,481.0,511.0,502.0
504.0,515.0,491.0,521.0
494.0,544.0,478.0,532.0
495.0,543.0,493.0,526.0
499.0,511.0,526.0,549.0
506.0,520.0,520.0,532.0
520.0,489.0,510.0,504.0
529.0,465.0,519.0,516.0
524.0,475.0,632.0,541.0
519.0,486.0,596.0,510.0
500.0,520.0,471.0,458.0
492.0,526.0,551.0,502.0
488.0,534.0,584.0,510.0
497.0,529.0,558.0,523.0
500.0,516.0,456.0,521.0
521.0,486.0,468.0,526.0
522.0,491.0,472.0,475.0
521.0,500.0,464.0,479.0
510.0,537.0,439.0,499.0
504.0,546.0,492.0,530.0
504.0,510.0,487.0,514.0
511.0,480.0,459.0,508.0
518.0,496.0,479.0,507.0
532.0,466.0,521.0,508.0
534.0,461.0,558.0,518.0
530.0,462.0,574.0,535.0
510.0,491.0,560.0,516.0
493.0,527.0,571.0,509.0
491.0,535.0,526.0,476.0
495.0,520.0,481.0,471.0
500.0,526.0,536.0,498.0
511.0,506.0,596.0,530.0
526.0,493.0,537.0,536.0
522.0,499.0,476.0,523.0
520.0,486.0,465.0,507.0
503.0,504.0,462.0,502.0
504.0,519.0,516.0,553.0
507.0,508.0,479.0,507.0
511.0,510.0,483.0,502.0
517.0,508.0,536.0,538.0
533.0,470.0,544.0,509.0
531.0,484.0,551.0,510.0
525.0,478.0,538.0,504.0
506.0,499.0,464.0,477.0
501.0,506.0,540.0,508.0
496.0,524.0,545.0,499.0
501.0,514.0,561.0,509.0
500.0,519.0,544.0,513.0
521.0,471.0,444.0,498.0
530.0,455.0,511.0,528.0
528.0,474.0,499.0,531.0
515.0,513.0,448.0,513.0
503.0,526.0,467.0,517.0
506.0,527.0,468.0,518.0
500.0,536.0,500.0,521.0
511.0,507.0,507.0,525.0
526.0,484.0,507.0,506.0
533.0,464.0,515.0,492.0
532.0,466.0,539.0,503.0
522.0,489.0,533.0,508.0
506.0,481.0,527.0,498.0
497.0,518.0,533.0,487.0
494.0,529.0,603.0,518.0
498.0,521.0,608.0,537.0
509.0,507.0,504.0,497.0
529.0,474.0,489.0,514.0
527.0,488.0,502.0,533.0
520.0,503.0,499.0,523.0
496.0,551.0,462.0,510.0
500.0,545.0,439.0,505.0
505.0,520.0,472.0,507.0
514.0,502.0,482.0,513.0
523.0,492.0,530.0,519.0
554.0,472.0,499.0,504.0
558.0,461.0,499.0,506.0
544.0,463.0,533.0,503.0
509.0,493.0,593.0,524.0
484.0,544.0,638.0,539.0
471.0,554.0,592.0,530.0
475.0,526.0,551.0,508.0
478.0,531.0,586.0,491.0
511.0,494.0,530.0,471.0
531.0,482.0,429.0,487.0
533.0,502.0,453.0,530.0
522.0,512.0,466.0,517.0
514.0,539.0,445.0,514.0
506.0,530.0,455.0,524.0
490.0,527.0,483.0,521.0
489.0,529.0,482.0,507.0
503.0,533.0,493.0,514.0
524.0,506.0,527.0,535.0
530.0,505.0,529.0,511.0
532.0,450.0,572.0,504.0
515.0,457.0,575.0,504.0
501.0,523.0,531.0,498.0
501.0,525.0,497.0,490.0
514.0,514.0,513.0,495.0
528.0,500.0,573.0,525.0
545.0,472.0,563.0,539.0
532.0,473.0,560.0,530.0
530.0,477.0,363.0,457.0
523.0,503.0,409.0,498.0
500.0,529.0,468.0,543.0
476.0,535.0,476.0,518.0
468.0,538.0,493.0,495.0
489.0,522.0,497.0,500.0
512.0,491.0,510.0,498.0
525.0,452.0,545.0,505.0
519.0,454.0,557.0,531.0
512.0,485.0,545.0,522.0
500.0,510.0,480.0,487.0
495.0,522.0,537.0,509.0
487.0,530.0,610.0,526.0
490.0,513.0,545.0,483.0
497.0,510.0,532.0,503.0
520.0,481.0,509.0,521.0
522.0,484.0,480.0,512.0
523.0,487.0,477.0,494.0
510.0,515.0,499.0,513.0
507.0,528.0,501.0,537.0
504.0,526.0,496.0,549.0
502.0,517.0,500.0,542.0
514.0,505.0,467.0,514.0
530.0,470.0,520.0,486.0
530.0,471.0,541.0,508.0
522.0,478.0,597.0,509.0
509.0,501.0,548.0,505.0
498.0,522.0,474.0,516.0
498.0,524.0,522.0,494.0
490.0,531.0,610.0,534.0
487.0,524.0,564.0,532.0
506.0,500.0,509.0,495.0
518.0,482.0,491.0,502.0
520.0,487.0,505.0,525.0
515.0,498.0,445.0,510.0
510.0,519.0,478.0,524.0
512.0,531.0,410.0,486.0
512.0,519.0,377.0,459.0
514.0,507.0,523.0,524.0
524.0,486.0,537.0,524.0
534.0,464.0,535.0,522.0
534.0,455.0,540.0,518.0
526.0,475.0,572.0,515.0
508.0,522.0,582.0,509.0
502.0,531.0,560.0,511.0
494.0,527.0,570.0,518.0
488.0,530.0,506.0,504.0
506.0,518.0,532.0,529.0
522.0,509.0,444.0,493.0
522.0,490.0,500.0,499.0
524.0,487.0,473.0,495.0
513.0,515.0,570.0,538.0
503.0,530.0,571.0,531.0
506.0,524.0,443.0,500.0
504.0,536.0,496.0,519.0
506.0,532.0,519.0,530.0
521.0,502.0,424.0,493.0
530.0,485.0,522.0,512.0
524.0,476.0,528.0,494.0
519.0,468.0,537.0,501.0
500.0,512.0,561.0,519.0
491.0,559.0,514.0,488.0
485.0,535.0,512.0,501.0
490.0,539.0,496.0,514.0
497.0,545.0,520.0,513.0
520.0,499.0,508.0,516.0
527.0,502.0,487.0,520.0
529.0,432.0,503.0,525.0
512.0,481.0,498.0,511.0
498.0,522.0,505.0,522.0
500.0,520.0,431.0,499.0
501.0,526.0,444.0,494.0
512.0,496.0,527.0,520.0
530.0,491.0,532.0,514.0
531.0,478.0,553.0,516.0
523.0,495.0,556.0,510.0
509.0,500.0,553.0,522.0
500.0,471.0,535.0,500.0
505.0,492.0,550.0,493.0
499.0,498.0,549.0,497.0
499.0,498.0,546.0,508.0
504.0,511.0,481.0,494.0
505.0,509.0,474.0,522.0
508.0,513.0,456.0,508.0
511.0,527.0,450.0,521.0
500.0,514.0,467.0,525.0
506.0,513.0,469.0,499.0
509.0,526.0,491.0,517.0
514.0,520.0,520.0,516.0
521.0,507.0,513.0,522.0
529.0,476.0,622.0,542.0
526.0,477.0,635.0,527.0
528.0,490.0,527.0,482.0
512.0,539.0,544.0,501.0
513.0,530.0,497.0,516.0
504.0,526.0,510.0,517.0
505.0,499.0,516.0,487.0
510.0,484.0,508.0,489.0
528.0,450.0,487.0,500.0
532.0,454.0,502.0,512.0
532.0,495.0,473.0,518.0
516.0,516.0,438.0,513.0
497.0,533.0,495.0,535.0
510.0,546.0,485.0,536.0
514.0,545.0,453.0,512.0
502.0,522.0,581.0,507.0
515.0,477.0,537.0,493.0
521.0,472.0,459.0,461.0
516.0,485.0,551.0,541.0
513.0,496.0,576.0,526.0
497.0,523.0,523.0,489.0
490.0,531.0,566.0,507.0
492.0,527.0,540.0,495.0
513.0,518.0,519.0,499.0
500.0,518.0,472.0,517.0
527.0,493.0,511.0,513.0
524.0,494.0,557.0,554.0
522.0,497.0,444.0,506.0
513.0,519.0,453.0,519.0
512.0,524.0,470.0,532.0
500.0,525.0,477.0,514.0
496.0,521.0,488.0,511.0
499.0,507.0,483.0,506.0
507.0,487.0,548.0,542.0
512.0,477.0,592.0,553.0
517.0,471.0,531.0,500.0
496.0,500.0,515.0,482.0
479.0,521.0,534.0,458.0
481.0,529.0,615.0,496.0
475.0,549.0,556.0,484.0
489.0,520.0,463.0,457.0
508.0,493.0,519.0,494.0
523.0,469.0,530.0,532.0
522.0,488.0,462.0,528.0
516.0,499.0,452.0,527.0
503.0,519.0,467.0,532.0
499.0,533.0,452.0,520.0
498.0,534.0,475.0,526.0
507.0,520.0,495.0,530.0
516.0,485.0,512.0,522.0
530.0,459.0,526.0,532.0
527.0,468.0,509.0,492.0
521.0,477.0,519.0,478.0
503.0,513.0,526.0,489.0
493.0,527.0,546.0,514.0
488.0,529.0,586.0,546.0
494.0,524.0,560.0,522.0
503.0,511.0,546.0,509.0
518.0,485.0,497.0,484.0
525.0,485.0,507.0,515.0
522.0,489.0,515.0,546.0
513.0,510.0,446.0,507.0
503.0,521.0,477.0,517.0
504.0,520.0,487.0,523.0
506.0,510.0,431.0,492.0
520.0,508.0,483.0,529.0
532.0,487.0,496.0,523.0
533.0,476.0,537.0,506.0
534.0,474.0,569.0,513.0
524.0,487.0,609.0,556.0
501.0,522.0,486.0,515.0
492.0,518.0,506.0,460.0
490.0,523.0,596.0,498.0
496.0,528.0,562.0,491.0
507.0,513.0,540.0,522.0
524.0,485.0,499.0,534.0
518.0,483.0,427.0,501.0
519.0,470.0,457.0,521.0
504.0,512.0,449.0,518.0
496.0,514.0,520.0,556.0
503.0,504.0,501.0,544.0
512.0,504.0,451.0,510.0
531.0,491.0,448.0,478.0
543.0,486.0,522.0,510.0
534.0,497.0,551.0,512.0
527.0,493.0,560.0,498.0
513.0,527.0,566.0,504.0
502.0,544.0,579.0,529.0
497.0,542.0,550.0,503.0
501.0,470.0,551.0,505.0
509.0,472.0,531.0,516.0
521.0,477.0,521.0,501.0
535.0,464.0,494.0,478.0
529.0,469.0,475.0,497.0
520.0,485.0,472.0,545.0
511.0,524.0,465.0,537.0
511.0,534.0,456.0,504.0
507.0,541.0,479.0,499.0
487.0,543.0,428.0,487.0
501.0,512.0,487.0,510.0
524.0,493.0,560.0,543.0
528.0,494.0,551.0,515.0
522.0,504.0,513.0,481.0
498.0,541.0,539.0,487.0
491.0,545.0,562.0,520.0
490.0,544.0,539.0,515.0
498.0,519.0,518.0,502.0
504.0,517.0,525.0,506.0
519.0,487.0,530.0,491.0
526.0,485.0,486.0,499.0
533.0,478.0,496.0,525.0
508.0,491.0,466.0,520.0
501.0,523.0,467.0,531.0
508.0,525.0,479.0,532.0
518.0,500.0,485.0,517.0
520.0,506.0,482.0,515.0
524.0,483.0,532.0,539.0
524.0,475.0,512.0,497.0
511.0,487.0,527.0,482.0
501.0,512.0,562.0,490.0
493.0,525.0,547.0,500.0
492.0,527.0,541.0,520.0
493.0,553.0,550.0,516.0
511.0,553.0,551.0,506.0
519.0,509.0,548.0,530.0
532.0,512.0,466.0,497.0
528.0,441.0,469.0,484.0
524.0,471.0,450.0,499.0
508.0,527.0,462.0,517.0
501.0,527.0,466.0,523.0
500.0,531.0,460.0,516.0
516.0,500.0,479.0,525.0
522.0,499.0,507.0,517.0
535.0,463.0,552.0,515.0
539.0,461.0,573.0,530.0
533.0,477.0,563.0,513.0
521.0,487.0,570.0,491.0
507.0,518.0,530.0,509.0
496.0,530.0,560.0,527.0
492.0,521.0,441.0,481.0
505.0,520.0,534.0,518.0
519.0,500.0,525.0,503.0
525.0,498.0,521.0,499.0
523.0,503.0,482.0,505.0
498.0,510.0,478.0,540.0
498.0,525.0,488.0,562.0
504.0,521.0,482.0,533.0
503.0,525.0,443.0,491.0
501.0,518.0,464.0,504.0
510.0,499.0,491.0,505.0
526.0,481.0,533.0,501.0
523.0,477.0,537.0,506.0
516.0,488.0,563.0,510.0
502.0,511.0,550.0,508.0
493.0,532.0,534.0,517.0
496.0,524.0,552.0,509.0
503.0,507.0,621.0,533.0
508.0,507.0,524.0,506.0
521.0,483.0,480.0,479.0
524.0,483.0,546.0,505.0
527.0,491.0,470.0,505.0
512.0,517.0,439.0,539.0
502.0,539.0,459.0,518.0
510.0,527.0,458.0,507.0
508.0,527.0,460.0,512.0
513.0,514.0,471.0,518.0
528.0,483.0,509.0,518.0
533.0,467.0,526.0,513.0
527.0,472.0,569.0,523.0
516.0,485.0,623.0,565.0
503.0,515.0,581.0,523.0
495.0,538.0,520.0,488.0
500.0,542.0,453.0,462.0
501.0,533.0,498.0,484.0
506.0,504.0,556.0,527.0
527.0,460.0,570.0,539.0
529.0,475.0,387.0,462.0
529.0,494.0,426.0,492.0
514.0,527.0,522.0,525.0
503.0,557.0,472.0,533.0
508.0,565.0,439.0,514.0
497.0,539.0,471.0,506.0
517.0,517.0,503.0,515.0
539.0,415.0,518.0,500.0
533.0,442.0,524.0,478.0
526.0,475.0,522.0,487.0
509.0,516.0,536.0,512.0
492.0,571.0,606.0,539.0
479.0,562.0,635.0,561.0
473.0,540.0,541.0,497.0
483.0,525.0,484.0,494.0
510.0,469.0,448.0,495.0
531.0,467.0,482.0,512.0
541.0,496.0,498.0,516.0
529.0,508.0,485.0,513.0
516.0,516.0,471.0,518.0
522.0,505.0,449.0,516.0
517.0,519.0,476.0,525.0
522.0,505.0,457.0,504.0
526.0,503.0,492.0,509.0
537.0,481.0,538.0,500.0
529.0,487.0,588.0,518.0
514.0,496.0,546.0,506.0
500.0,517.0,557.0,516.0
493.0,532.0,604.0,537.0
492.0,530.0,492.0,467.0
505.0,523.0,504.0,469.0
505.0,513.0,489.0,486.0
518.0,478.0,497.0,515.0
532.0,469.0,512.0,519.0
526.0,487.0,517.0,519.0
511.0,531.0,458.0,516.0
503.0,545.0,478.0,531.0
505.0,547.0,507.0,546.0
502.0,549.0,500.0,519.0
505.0,528.0,485.0,521.0
524.0,486.0,494.0,515.0
524.0,447.0,521.0,504.0
524.0,461.0,495.0,488.0
526.0,487.0,556.0,488.0
520.0,512.0,573.0,503.0
511.0,515.0,569.0,538.0
512.0,513.0,547.0,530.0
519.0,520.0,528.0,503.0
520.0,498.0,511.0,504.0
532.0,506.0,516.0,518.0
513.0,527.0,492.0,500.0
484.0,524.0,450.0,514.0
478.0,548.0,445.0,523.0
483.0,550.0,445.0,522.0
501.0,526.0,451.0,515.0
508.0,526.0,509.0,537.0
511.0,525.0,559.0,530.0
528.0,465.0,514.0,488.0
527.0,468.0,542.0,507.0
520.0,474.0,630.0,552.0
507.0,509.0,539.0,484.0
495.0,526.0,468.0,458.0
490.0,525.0,534.0,504.0
500.0,518.0,534.0,511.0
506.0,520.0,524.0,509.0
522.0,497.0,515.0,517.0
524.0,484.0,473.0,516.0
520.0,481.0,451.0,516.0
515.0,503.0,429.0,504.0
509.0,525.0,427.0,526.0
507.0,526.0,490.0,537.0
502.0,528.0,500.0,523.0
503.0,524.0,488.0,503.0
518.0,502.0,503.0,500.0
529.0,476.0,538.0,511.0
530.0,475.0,531.0,495.0
525.0,484.0,530.0,490.0
508.0,522.0,628.0,526.0
509.0,517.0,591.0,504.0
507.0,521.0,549.0,512.0
504.0,535.0,432.0,502.0
515.0,510.0,518.0,515.0
523.0,482.0,545.0,533.0
521.0,492.0,522.0,517.0
516.0,490.0,494.0,527.0
505.0,522.0,463.0,521.0
499.0,521.0,440.0,531.0
506.0,510.0,499.0,517.0
509.0,510.0,524.0,496.0
513.0,501.0,477.0,487.0
526.0,485.0,474.0,511.0
530.0,473.0,520.0,516.0
526.0,477.0,500.0,489.0
514.0,500.0,545.0,500.0
496.0,531.0,563.0,513.0
500.0,521.0,557.0,521.0
498.0,514.0,553.0,544.0
500.0,518.0,541.0,514.0
505.0,508.0,389.0,435.0
523.0,495.0,484.0,505.0
521.0,486.0,514.0,530.0
521.0,498.0,494.0,526.0
512.0,521.0,504.0,530.0
513.0,497.0,466.0,512.0
504.0,528.0,478.0,516.0
509.0,529.0,503.0,517.0
513.0,525.0,523.0,510.0
531.0,480.0,525.0,507.0
531.0,494.0,521.0,504.0
524.0,482.0,565.0,516.0
508.0,488.0,609.0,531.0
502.0,473.0,604.0,521.0
494.0,483.0,459.0,488.0
494.0,501.0,470.0,484.0
494.0,508.0,527.0,516.0
505.0,491.0,528.0,519.0
519.0,496.0,478.0,492.0
534.0,511.0,479.0,510.0
533.0,528.0,449.0,515.0
521.0,530.0,443.0,513.0
516.0,545.0,496.0,539.0
516.0,534.0,519.0,548.0
517.0,516.0,456.0,523.0
524.0,498.0,475.0,506.0
528.0,465.0,509.0,506.0
523.0,474.0,541.0,503.0
515.0,501.0,523.0,491.0
497.0,529.0,551.0,502.0
493.0,543.0,579.0,513.0
492.0,547.0,585.0,522.0
494.0,545.0,556.0,496.0
506.0,522.0,502.0,456.0
524.0,487.0,517.0,504.0
523.0,507.0,460.0,506.0
524.0,513.0,478.0,546.0
511.0,550.0,441.0,553.0
507.0,556.0,464.0,541.0
508.0,507.0,443.0,482.0
503.0,521.0,462.0,486.0
509.0,508.0,499.0,504.0
530.0,460.0,525.0,522.0
532.0,468.0,535.0,504.0
525.0,476.0,528.0,492.0
506.0,502.0,572.0,512.0
497.0,521.0,590.0,522.0
502.0,536.0,513.0,495.0
498.0,536.0,498.0,491.0
501.0,525.0,530.0,516.0
508.0,504.0,510.0,519.0
521.0,493.0,506.0,523.0
524.0,498.0,469.0,500.0
523.0,490.0,495.0,528.0
514.0,511.0,491.0,538.0
515.0,518.0,440.0,508.0
512.0,520.0,507.0,540.0
518.0,517.0,475.0,524.0
523.0,502.0,459.0,487.0
532.0,472.0,522.0,498.0
525.0,472.0,552.0,514.0
522.0,480.0,557.0,513.0
507.0,514.0,551.0,507.0
498.0,528.0,529.0,494.0
491.0,530.0,548.0,503.0
486.0,538.0,532.0,501.0
487.0,526.0,498.0,502.0
513.0,485.0,510.0,515.0
520.0,474.0,516.0,532.0
520.0,477.0,525.0,540.0
515.0,497.0,548.0,520.0
503.0,522.0,493.0,518.0
502.0,537.0,425.0,514.0
503.0,535.0,469.0,502.0
506.0,526.0,457.0,498.0
520.0,496.0,508.0,517.0
527.0,475.0,540.0,515.0
523.0,483.0,579.0,512.0
518.0,490.0,533.0,488.0
496.0,522.0,486.0,472.0
502.0,519.0,513.0,500.0
507.0,530.0,526.0,519.0
508.0,528.0,533.0,526.0
508.0,519.0,538.0,522.0
526.0,489.0,505.0,506.0
525.0,487.0,492.0,523.0
524.0,491.0,447.0,507.0
513.0,516.0,467.0,538.0
502.0,532.0,468.0,525.0
503.0,521.0,471.0,511.0
503.0,518.0,522.0,527.0
510.0,502.0,550.0,525.0
527.0,478.0,505.0,494.0
531.0,466.0,513.0,487.0
526.0,482.0,516.0,500.0
515.0,498.0,536.0,509.0
496.0,533.0,550.0,498.0
493.0,551.0,522.0,494.0
493.0,543.0,519.0,502.0
503.0,521.0,541.0,518.0
512.0,521.0,507.0,507.0
524.0,505.0,469.0,509.0
524.0,509.0,532.0,534.0
519.0,513.0,455.0,493.0
502.0,486.0,446.0,506.0
509.0,463.0,490.0,540.0
510.0,494.0,464.0,516.0
518.0,508.0,460.0,508.0
517.0,500.0,488.0,519.0
540.0,473.0,510.0,502.0
537.0,471.0,539.0,510.0
528.0,498.0,563.0,514.0
511.0,515.0,557.0,510.0
501.0,519.0,539.0,500.0
493.0,529.0,533.0,500.0
498.0,529.0,539.0,501.0
499.0,533.0,519.0,505.0
519.0,502.0,503.0,502.0
527.0,491.0,493.0,509.0
524.0,488.0,482.0,514.0
519.0,493.0,465.0,519.0
508.0,519.0,461.0,517.0
505.0,519.0,463.0,519.0
509.0,527.0,474.0,516.0
508.0,542.0,482.0,512.0
512.0,540.0,509.0,508.0
530.0,498.0,533.0,510.0
534.0,463.0,545.0,508.0
523.0,443.0,554.0,508.0
500.0,506.0,549.0,502.0
504.0,515.0,551.0,506.0
500.0,507.0,542.0,503.0
508.0,508.0,527.0,503.0
508.0,513.0,513.0,507.0
523.0,470.0,501.0,506.0
526.0,473.0,489.0,510.0
523.0,489.0,477.0,516.0
512.0,513.0,471.0,516.0
507.0,527.0,471.0,520.0
506.0,533.0,468.0,514.0
501.0,544.0,474.0,517.0
510.0,520.0,498.0,519.0
527.0,488.0,523.0,510.0
532.0,474.0,518.0,503.0
529.0,449.0,534.0,498.0
520.0,472.0,559.0,506.0
498.0,513.0,549.0,503.0
499.0,522.0,545.0,503.0
495.0,534.0,537.0,504.0
501.0,527.0,523.0,508.0
514.0,525.0,511.0,510.0
525.0,504.0,503.0,511.0
526.0,500.0,487.0,518.0
525.0,506.0,475.0,517.0
512.0,521.0,466.0,518.0
506.0,529.0,466.0,520.0
508.0,541.0,474.0,516.0
508.0,533.0,482.0,516.0
513.0,517.0,501.0,512.0
539.0,451.0,525.0,510.0
538.0,444.0,545.0,506.0
527.0,475.0,553.0,503.0
511.0,509.0,552.0,504.0
497.0,538.0,551.0,507.0
489.0,549.0,548.0,507.0
492.0,537.0,531.0,506.0
500.0,505.0,523.0,511.0
521.0,483.0,508.0,512.0
525.0,481.0,493.0,513.0
525.0,489.0,490.0,519.0
512.0,505.0,474.0,516.0
500.0,525.0,468.0,519.0
511.0,522.0,466.0,519.0
504.0,523.0,476.0,520.0
514.0,510.0,488.0,515.0
525.0,481.0,509.0,515.0
532.0,473.0,528.0,511.0
526.0,479.0,547.0,506.0
521.0,491.0,553.0,505.0
498.0,533.0,548.0,509.0
501.0,519.0,549.0,505.0
496.0,523.0,544.0,507.0
499.0,515.0,539.0,508.0
502.0,511.0,523.0,509.0
519.0,504.0,504.0,511.0
519.0,519.0,495.0,516.0
517.0,521.0,483.0,519.0
509.0,512.0,469.0,520.0
500.0,518.0,463.0,522.0
502.0,523.0,472.0,521.0
511.0,511.0,485.0,520.0
516.0,513.0,500.0,520.0
533.0,486.0,527.0,511.0
533.0,460.0,541.0,512.0
525.0,480.0,557.0,512.0
516.0,493.0,555.0,511.0
500.0,503.0,558.0,512.0
502.0,508.0,548.0,507.0
500.0,509.0,538.0,506.0
501.0,529.0,526.0,504.0
513.0,497.0,515.0,508.0
524.0,461.0,511.0,513.0
524.0,466.0,491.0,519.0
521.0,489.0,474.0,516.0
503.0,532.0,463.0,520.0
502.0,550.0,467.0,519.0
504.0,543.0,473.0,519.0
509.0,512.0,484.0,516.0
519.0,511.0,510.0,516.0
529.0,493.0,531.0,512.0
529.0,494.0,548.0,512.0
524.0,490.0,563.0,513.0
505.0,481.0,561.0,513.0
497.0,516.0,554.0,513.0
492.0,533.0,546.0,514.0
487.0,558.0,537.0,511.0
505.0,529.0,522.0,508.0
521.0,502.0,508.0,507.0
528.0,495.0,496.0,508.0
524.0,502.0,483.0,512.0
516.0,513.0,473.0,516.0
503.0,521.0,469.0,519.0
505.0,520.0,472.0,516.0
509.0,509.0,482.0,518.0
517.0,506.0,495.0,519.0
524.0,494.0,517.0,511.0
532.0,473.0,533.0,508.0
522.0,483.0,547.0,506.0
517.0,511.0,552.0,505.0
500.0,528.0,546.0,507.0
501.0,511.0,544.0,507.0
501.0,524.0,540.0,505.0
496.0,526.0,531.0,507.0
499.0,523.0,520.0,512.0
522.0,482.0,509.0,514.0
522.0,487.0,489.0,514.0
517.0,481.0,478.0,517.0
504.0,511.0,465.0,528.0
503.0,538.0,467.0,526.0
506.0,529.0,473.0,523.0
511.0,520.0,488.0,521.0
517.0,513.0,512.0,520.0
531.0,484.0,531.0,514.0
532.0,482.0,543.0,510.0
528.0,492.0,550.0,506.0
514.0,496.0,546.0,506.0
500.0,524.0,538.0,505.0
499.0,528.0,540.0,503.0
492.0,538.0,535.0,508.0
496.0,527.0,519.0,510.0
506.0,500.0,513.0,515.0
522.0,477.0,506.0,520.0
521.0,483.0,492.0,519.0
516.0,490.0,470.0,517.0
502.0,534.0,467.0,522.0
505.0,534.0,468.0,519.0
509.0,552.0,472.0,520.0
514.0,552.0,486.0,516.0
511.0,542.0,501.0,516.0
525.0,503.0,525.0,511.0
530.0,434.0,539.0,510.0
529.0,433.0,549.0,503.0
506.0,497.0,544.0,507.0
503.0,507.0,541.0,505.0
498.0,526.0,536.0,501.0
489.0,536.0,527.0,506.0
497.0,533.0,518.0,507.0
512.0,501.0,509.0,512.0
525.0,494.0,496.0,516.0
527.0,483.0,483.0,517.0
522.0,483.0,474.0,524.0
506.0,517.0,469.0,526.0
511.0,520.0,469.0,522.0
508.0,512.0,472.0,520.0
513.0,495.0,488.0,518.0
528.0,473.0,508.0,515.0
532.0,460.0,523.0,511.0
521.0,469.0,546.0,511.0
510.0,504.0,548.0,515.0
489.0,523.0,544.0,510.0
486.0,518.0,540.0,509.0
486.0,517.0,536.0,507.0
498.0,525.0,526.0,511.0
511.0,522.0,517.0,510.0
539.0,489.0,505.0,510.0
533.0,502.0,491.0,513.0
525.0,501.0,473.0,516.0
512.0,544.0,466.0,528.0
507.0,539.0,468.0,524.0
506.0,528.0,474.0,525.0
510.0,510.0,483.0,521.0
515.0,498.0,498.0,519.0
528.0,480.0,517.0,513.0
531.0,478.0,529.0,509.0
527.0,492.0,542.0,507.0
517.0,511.0,544.0,507.0
499.0,534.0,540.0,508.0
497.0,537.0,537.0,508.0
495.0,544.0,531.0,507.0
499.0,527.0,522.0,509.0
518.0,484.0,510.0,514.0
529.0,474.0,498.0,519.0
526.0,477.0,490.0,522.0
519.0,488.0,476.0,524.0
503.0,519.0,468.0,524.0
505.0,523.0,471.0,520.0
504.0,524.0,477.0,523.0
512.0,514.0,483.0,518.0
517.0,506.0,494.0,514.0
532.0,473.0,524.0,508.0
528.0,482.0,536.0,508.0
525.0,482.0,546.0,508.0
513.0,509.0,544.0,511.0
498.0,528.0,543.0,506.0
491.0,529.0,536.0,506.0
494.0,535.0,525.0,510.0
499.0,522.0,513.0,513.0
529.0,485.0,505.0,514.0
531.0,476.0,495.0,517.0
529.0,479.0,484.0,516.0
524.0,498.0,471.0,518.0
510.0,520.0,471.0,523.0
507.0,524.0,476.0,523.0
498.0,538.0,481.0,517.0
499.0,533.0,492.0,515.0
518.0,505.0,511.0,513.0
529.0,481.0,533.0,510.0
525.0,486.0,539.0,510.0
519.0,487.0,545.0,504.0
498.0,516.0,542.0,504.0
496.0,516.0,534.0,508.0
493.0,513.0,532.0,505.0
505.0,504.0,523.0,510.0
504.0,499.0,516.0,513.0
523.0,484.0,502.0,515.0
521.0,493.0,495.0,518.0
521.0,494.0,481.0,521.0
506.0,531.0,471.0,524.0
504.0,516.0,472.0,523.0
505.0,522.0,474.0,521.0
511.0,514.0,484.0,520.0
511.0,512.0,499.0,517.0
528.0,481.0,519.0,512.0
529.0,481.0,533.0,507.0
526.0,482.0,540.0,506.0
509.0,509.0,544.0,509.0
491.0,560.0,539.0,511.0
499.0,523.0,538.0,507.0
499.0,509.0,532.0,508.0
498.0,540.0,523.0,514.0
512.0,520.0,513.0,513.0
524.0,503.0,501.0,514.0
522.0,522.0,490.0,517.0
516.0,529.0,478.0,520.0
498.0,547.0,472.0,521.0
502.0,503.0,470.0,521.0
500.0,497.0,478.0,518.0
503.0,506.0,489.0,516.0
510.0,494.0,504.0,515.0
526.0,483.0,524.0,512.0
530.0,483.0,535.0,510.0
530.0,498.0,540.0,506.0
511.0,525.0,539.0,504.0
502.0,506.0,536.0,505.0
501.0,512.0,534.0,506.0
502.0,511.0,526.0,508.0
509.0,517.0,517.0,512.0
519.0,483.0,512.0,512.0
524.0,491.0,499.0,511.0
519.0,506.0,488.0,517.0
507.0,528.0,476.0,521.0
497.0,549.0,473.0,519.0
507.0,530.0,474.0,521.0
505.0,529.0,481.0,521.0
513.0,515.0,496.0,513.0
529.0,483.0,508.0,510.0
538.0,471.0,526.0,506.0
530.0,480.0,538.0,505.0
521.0,492.0,543.0,505.0
503.0,525.0,539.0,502.0
503.0,520.0,540.0,506.0
496.0,530.0,533.0,508.0
499.0,525.0,526.0,509.0
507.0,518.0,515.0,511.0
524.0,488.0,502.0,510.0
525.0,488.0,495.0,513.0
524.0,492.0,482.0,518.0
512.0,529.0,475.0,517.0
504.0,526.0,474.0,519.0
507.0,522.0,478.0,520.0
506.0,511.0,485.0,518.0
511.0,504.0,501.0,513.0
529.0,480.0,514.0,510.0
529.0,474.0,533.0,507.0
526.0,484.0,542.0,507.0
515.0,515.0,540.0,506.0
503.0,522.0,538.0,505.0
503.0,515.0,531.0,506.0
501.0,518.0,529.0,505.0
502.0,523.0,519.0,507.0
513.0,500.0,513.0,510.0
523.0,487.0,508.0,511.0
519.0,491.0,494.0,516.0
516.0,513.0,482.0,522.0
510.0,553.0,474.0,520.0
509.0,513.0,470.0,517.0
506.0,515.0,478.0,516.0
509.0,508.0,489.0,516.0
516.0,509.0,503.0,514.0
539.0,482.0,522.0,507.0
531.0,481.0,536.0,505.0
525.0,477.0,538.0,503.0
507.0,510.0,544.0,508.0
507.0,516.0,533.0,507.0
501.0,519.0,529.0,506.0
495.0,537.0,525.0,508.0
494.0,547.0,520.0,512.0
521.0,506.0,512.0,513.0
520.0,499.0,493.0,513.0
527.0,489.0,487.0,517.0
515.0,514.0,476.0,520.0
505.0,519.0,476.0,524.0
510.0,506.0,476.0,519.0
500.0,517.0,478.0,514.0
507.0,505.0,493.0,516.0
521.0,483.0,510.0,513.0
528.0,471.0,529.0,508.0
522.0,505.0,537.0,506.0
517.0,520.0,542.0,506.0
499.0,565.0,541.0,508.0
508.0,494.0,538.0,506.0
507.0,507.0,529.0,503.0
502.0,516.0,519.0,503.0
509.0,520.0,513.0,509.0
528.0,481.0,507.0,508.0
528.0,490.0,496.0,513.0
522.0,488.0,491.0,515.0
511.0,512.0,480.0,516.0
511.0,517.0,474.0,523.0
509.0,525.0,479.0,519.0
508.0,525.0,492.0,519.0
507.0,516.0,499.0,520.0
525.0,482.0,518.0,515.0
530.0,476.0,533.0,507.0
525.0,480.0,541.0,505.0
509.0,520.0,540.0,508.0
493.0,554.0,533.0,513.0
500.0,543.0,535.0,512.0
498.0,535.0,536.0,513.0
501.0,510.0,525.0,511.0
514.0,492.0,512.0,508.0
520.0,487.0,500.0,508.0
524.0,487.0,489.0,506.0
521.0,491.0,477.0,516.0
504.0,541.0,468.0,515.0
501.0,534.0,476.0,518.0
505.0,526.0,480.0,516.0
518.0,501.0,488.0,513.0
522.0,485.0,504.0,509.0
534.0,460.0,522.0,505.0
530.0,492.0,533.0,504.0
519.0,525.0,537.0,501.0
497.0,553.0,538.0,504.0
498.0,532.0,535.0,503.0
499.0,497.0,529.0,503.0
504.0,500.0,524.0,507.0
502.0,511.0,517.0,509.0
520.0,499.0,505.0,509.0
526.0,504.0,498.0,510.0
523.0,504.0,487.0,516.0
517.0,509.0,479.0,520.0
508.0,525.0,477.0,519.0
510.0,515.0,481.0,518.0
508.0,524.0,485.0,518.0
506.0,514.0,496.0,515.0
522.0,489.0,513.0,512.0
542.0,463.0,527.0,508.0
531.0,463.0,535.0,507.0
522.0,490.0,539.0,507.0
499.0,496.0,537.0,510.0
499.0,506.0,536.0,508.0
498.0,545.0,526.0,512.0
495.0,558.0,519.0,508.0
504.0,525.0,510.0,510.0
522.0,492.0,507.0,514.0
523.0,494.0,496.0,518.0
526.0,499.0,490.0,520.0
515.0,523.0,482.0,526.0
504.0,541.0,480.0,524.0
499.0,546.0,476.0,521.0
501.0,531.0,480.0,515.0
517.0,508.0,498.0,513.0
532.0,482.0,519.0,510.0
535.0,469.0,536.0,507.0
529.0,479.0,548.0,501.0
516.0,497.0,546.0,505.0
494.0,523.0,532.0,502.0
495.0,527.0,528.0,496.0
490.0,539.0,528.0,501.0
504.0,520.0,521.0,508.0
520.0,499.0,510.0,508.0
527.0,493.0,502.0,510.0
524.0,480.0,490.0,512.0
515.0,493.0,481.0,518.0
496.0,527.0,474.0,519.0
499.0,522.0,479.0,518.0
497.0,523.0,483.0,513.0
499.0,510.0,492.0,514.0
516.0,498.0,506.0,509.0
540.0,457.0,524.0,505.0
535.0,483.0,536.0,504.0
524.0,498.0,537.0,504.0
509.0,525.0,537.0,504.0
505.0,532.0,534.0,505.0
503.0,536.0,531.0,509.0
497.0,530.0,525.0,508.0
505.0,520.0,514.0,508.0
523.0,492.0,508.0,510.0
530.0,487.0,498.0,514.0
528.0,489.0,488.0,520.0
515.0,501.0,478.0,520.0
499.0,529.0,480.0,522.0
508.0,513.0,481.0,520.0
504.0,516.0,485.0,520.0
509.0,504.0,493.0,516.0
512.0,493.0,514.0,513.0
534.0,476.0,529.0,508.0
536.0,479.0,536.0,505.0
521.0,491.0,539.0,508.0
499.0,532.0,538.0,508.0
497.0,532.0,532.0,506.0
495.0,537.0,527.0,505.0
497.0,556.0,521.0,507.0
502.0,543.0,510.0,512.0
522.0,510.0,506.0,512.0
528.0,473.0,498.0,517.0
525.0,445.0,489.0,520.0
512.0,506.0,483.0,520.0
507.0,513.0,481.0,519.0
504.0,534.0,486.0,517.0
505.0,529.0,492.0,517.0
511.0,507.0,503.0,514.0
530.0,488.0,516.0,509.0
529.0,490.0,530.0,508.0
527.0,484.0,538.0,500.0
520.0,493.0,534.0,501.0
502.0,490.0,538.0,501.0
499.0,520.0,530.0,503.0
490.0,536.0,527.0,505.0
497.0,527.0,517.0,505.0
517.0,496.0,505.0,502.0
525.0,493.0,500.0,510.0
522.0,491.0,498.0,516.0
519.0,504.0,487.0,517.0
498.0,531.0,476.0,520.0
499.0,520.0,482.0,518.0
506.0,512.0,485.0,514.0
515.0,488.0,492.0,510.0
523.0,495.0,504.0,512.0
532.0,485.0,520.0,507.0
532.0,459.0,536.0,507.0
525.0,490.0,544.0,505.0
498.0,532.0,533.0,504.0
502.0,502.0,544.0,512.0
505.0,516.0,533.0,510.0
501.0,519.0,522.0,504.0
499.0,532.0,515.0,509.0
520.0,500.0,506.0,511.0
524.0,498.0,501.0,513.0
526.0,494.0,492.0,517.0
510.0,515.0,484.0,521.0
501.0,522.0,485.0,521.0
507.0,515.0,485.0,521.0
505.0,531.0,484.0,522.0
511.0,518.0,500.0,518.0
521.0,493.0,516.0,512.0
531.0,468.0,530.0,508.0
525.0,474.0,536.0,502.0
519.0,489.0,541.0,504.0
498.0,524.0,542.0,507.0
501.0,518.0,536.0,507.0
495.0,501.0,534.0,513.0
494.0,498.0,532.0,514.0
503.0,489.0,515.0,511.0
522.0,472.0,506.0,507.0
523.0,486.0,492.0,512.0
522.0,513.0,483.0,508.0
509.0,536.0,479.0,512.0
504.0,529.0,481.0,519.0
513.0,505.0,486.0,515.0
516.0,501.0,493.0,514.0
518.0,511.0,500.0,509.0
534.0,482.0,517.0,502.0
534.0,480.0,529.0,500.0
530.0,490.0,537.0,499.0
509.0,513.0,539.0,502.0
497.0,523.0,530.0,503.0
501.0,512.0,532.0,505.0
493.0,517.0,527.0,505.0
493.0,523.0,519.0,508.0
509.0,508.0,514.0,509.0
519.0,503.0,506.0,514.0
523.0,513.0,499.0,515.0
520.0,530.0,491.0,518.0
498.0,552.0,485.0,520.0
515.0,516.0,488.0,520.0
506.0,500.0,489.0,519.0
510.0,497.0,498.0,519.0
520.0,492.0,515.0,514.0
532.0,466.0,522.0,511.0
528.0,472.0,534.0,506.0
516.0,480.0,541.0,502.0
497.0,533.0,533.0,503.0
493.0,530.0,532.0,505.0
503.0,516.0,532.0,504.0
501.0,516.0,521.0,504.0
504.0,506.0,517.0,510.0
523.0,478.0,511.0,511.0
525.0,480.0,503.0,514.0
525.0,487.0,492.0,516.0
511.0,511.0,484.0,519.0
498.0,534.0,479.0,519.0
499.0,534.0,487.0,518.0
507.0,523.0,490.0,516.0
512.0,534.0,495.0,513.0
522.0,505.0,513.0,511.0
532.0,453.0,530.0,509.0
527.0,481.0,539.0,506.0
512.0,498.0,537.0,508.0
496.0,534.0,533.0,508.0
502.0,520.0,531.0,502.0
496.0,519.0,526.0,508.0
505.0,493.0,519.0,507.0
513.0,486.0,513.0,510.0
522.0,481.0,514.0,513.0
517.0,509.0,500.0,518.0
516.0,515.0,490.0,518.0
504.0,545.0,484.0,517.0
503.0,544.0,487.0,521.0
509.0,532.0,488.0,519.0
506.0,528.0,497.0,519.0
514.0,496.0,504.0,516.0
525.0,471.0,523.0,512.0
526.0,470.0,531.0,509.0
524.0,467.0,534.0,504.0
514.0,516.0,534.0,503.0
497.0,547.0,534.0,504.0
503.0,529.0,534.0,508.0
495.0,533.0,527.0,510.0
501.0,507.0,515.0,510.0
517.0,487.0,509.0,508.0
522.0,486.0,506.0,511.0
521.0,492.0,502.0,515.0
514.0,513.0,493.0,521.0
502.0,532.0,489.0,518.0
506.0,522.0,484.0,514.0
510.0,499.0,485.0,511.0
515.0,486.0,492.0,509.0
517.0,503.0,505.0,507.0
529.0,476.0,525.0,508.0
526.0,480.0,536.0,504.0
518.0,500.0,541.0,505.0
501.0,527.0,538.0,507.0
500.0,526.0,535.0,507.0
498.0,528.0,529.0,502.0
497.0,525.0,526.0,503.0
501.0,511.0,514.0,509.0
518.0,482.0,507.0,513.0
523.0,474.0,501.0,513.0
527.0,482.0,492.0,518.0
513.0,531.0,483.0,521.0
497.0,551.0,478.0,515.0
515.0,516.0,487.0,516.0
506.0,522.0,493.0,517.0
516.0,506.0,501.0,514.0
525.0,477.0,514.0,510.0
531.0,463.0,527.0,507.0
526.0,468.0,534.0,503.0
517.0,481.0,538.0,504.0
496.0,527.0,537.0,504.0
499.0,514.0,534.0,505.0
503.0,524.0,525.0,506.0
507.0,538.0,520.0,510.0
510.0,506.0,514.0,509.0
517.0,480.0,511.0,512.0
512.0,503.0,500.0,517.0
508.0,490.0,496.0,521.0
498.0,543.0,483.0,522.0
501.0,519.0,487.0,521.0
511.0,507.0,489.0,519.0
522.0,515.0,487.0,512.0
521.0,512.0,506.0,513.0
533.0,475.0,525.0,511.0
529.0,480.0,533.0,509.0
524.0,488.0,538.0,505.0
509.0,517.0,535.0,504.0
495.0,550.0,535.0,506.0
501.0,540.0,534.0,505.0
500.0,548.0,527.0,506.0
506.0,518.0,521.0,509.0
524.0,476.0,517.0,515.0
528.0,491.0,507.0,512.0
527.0,488.0,499.0,516.0
516.0,503.0,488.0,524.0
496.0,541.0,485.0,518.0
507.0,518.0,484.0,515.0
502.0,518.0,484.0,515.0
507.0,518.0,493.0,513.0
520.0,499.0,510.0,512.0
533.0,475.0,526.0,510.0
528.0,485.0,535.0,513.0
522.0,489.0,542.0,505.0
500.0,500.0,537.0,504.0
496.0,520.0,531.0,504.0
502.0,513.0,528.0,500.0
498.0,531.0,521.0,501.0
504.0,521.0,512.0,506.0
527.0,476.0,509.0,508.0
524.0,477.0,503.0,512.0
521.0,484.0,491.0,517.0
507.0,507.0,485.0,518.0
498.0,518.0,482.0,522.0
508.0,514.0,487.0,521.0
511.0,510.0,495.0,520.0
511.0,505.0,504.0,519.0
530.0,484.0,521.0,518.0
534.0,483.0,544.0,515.0
528.0,491.0,535.0,513.0
515.0,519.0,538.0,512.0
493.0,545.0,534.0,511.0
505.0,517.0,533.0,509.0
502.0,489.0,534.0,505.0
508.0,499.0,527.0,504.0
512.0,529.0,513.0,506.0
525.0,493.0,505.0,506.0
525.0,485.0,495.0,508.0
524.0,484.0,487.0,512.0
506.0,525.0,480.0,518.0
506.0,514.0,481.0,516.0
515.0,505.0,487.0,515.0
513.0,511.0,491.0,517.0
515.0,513.0,508.0,513.0
525.0,491.0,522.0,507.0
523.0,489.0,533.0,501.0
516.0,490.0,535.0,503.0
508.0,520.0,536.0,501.0
497.0,527.0,534.0,503.0
502.0,518.0,529.0,504.0
489.0,539.0,527.0,502.0
496.0,533.0,521.0,510.0
514.0,502.0,508.0,510.0
526.0,492.0,510.0,511.0
523.0,491.0,510.0,515.0
518.0,502.0,501.0,517.0
503.0,534.0,482.0,515.0
504.0,519.0,481.0,517.0
495.0,524.0,486.0,514.0
504.0,522.0,489.0,517.0
516.0,495.0,508.0,513.0
531.0,454.0,528.0,505.0
529.0,459.0,532.0,507.0
528.0,463.0,538.0,506.0
507.0,530.0,537.0,508.0
495.0,547.0,536.0,509.0
496.0,548.0,530.0,508.0
494.0,540.0,522.0,507.0
500.0,523.0,521.0,510.0
520.0,496.0,508.0,512.0
519.0,499.0,501.0,515.0
520.0,507.0,495.0,518.0
509.0,524.0,485.0,521.0
502.0,529.0,482.0,519.0
507.0,516.0,485.0,518.0
499.0,519.0,493.0,518.0
511.0,502.0,500.0,515.0
531.0,481.0,515.0,510.0
533.0,472.0,531.0,506.0
526.0,478.0,538.0,508.0
517.0,499.0,537.0,505.0
488.0,557.0,535.0,507.0
503.0,502.0,535.0,508.0
502.0,508.0,529.0,506.0
502.0,517.0,524.0,510.0
510.0,504.0,511.0,510.0
529.0,487.0,507.0,516.0
524.0,483.0,501.0,520.0
522.0,478.0,494.0,525.0
507.0,515.0,488.0,523.0
504.0,530.0,483.0,519.0
504.0,534.0,487.0,514.0
504.0,526.0,494.0,515.0
503.0,517.0,502.0,514.0
523.0,481.0,523.0,511.0
526.0,483.0,532.0,509.0
521.0,486.0,543.0,510.0
507.0,497.0,541.0,514.0
492.0,527.0,539.0,510.0
499.0,524.0,533.0,509.0
500.0,548.0,529.0,510.0
503.0,525.0,523.0,511.0
520.0,498.0,514.0,510.0
524.0,507.0,506.0,513.0
526.0,503.0,500.0,515.0
518.0,480.0,491.0,519.0
501.0,510.0,483.0,517.0
504.0,509.0,480.0,513.0
495.0,515.0,485.0,508.0
500.0,501.0,494.0,510.0
514.0,475.0,511.0,505.0
529.0,457.0,523.0,503.0
521.0,473.0,533.0,502.0
519.0,490.0,537.0,504.0
503.0,538.0,536.0,505.0
498.0,537.0,531.0,505.0
505.0,531.0,527.0,505.0
505.0,534.0,524.0,508.0
509.0,526.0,518.0,512.0
522.0,489.0,510.0,513.0
522.0,488.0,507.0,516.0
525.0,484.0,499.0,519.0
514.0,510.0,491.0,522.0
505.0,533.0,487.0,525.0
512.0,514.0,486.0,518.0
510.0,512.0,496.0,515.0
511.0,503.0,503.0,512.0
530.0,474.0,519.0,508.0
530.0,476.0,526.0,505.0
523.0,485.0,535.0,501.0
518.0,502.0,537.0,498.0
496.0,535.0,533.0,504.0
500.0,532.0,530.0,504.0
491.0,541.0,525.0,505.0
499.0,530.0,520.0,506.0
511.0,494.0,516.0,511.0
524.0,479.0,510.0,513.0
524.0,494.0,508.0,515.0
519.0,501.0,499.0,518.0
500.0,541.0,478.0,518.0
505.0,509.0,479.0,518.0
502.0,519.0,485.0,519.0
504.0,526.0,493.0,517.0
510.0,520.0,504.0,514.0
530.0,485.0,524.0,510.0
532.0,469.0,532.0,505.0
527.0,462.0,540.0,508.0
506.0,491.0,545.0,513.0
493.0,511.0,540.0,510.0
501.0,503.0,535.0,507.0
498.0,510.0,528.0,505.0
503.0,528.0,517.0,509.0
521.0,497.0,514.0,510.0
526.0,493.0,505.0,516.0
523.0,486.0,504.0,521.0
516.0,493.0,498.0,523.0
500.0,524.0,486.0,526.0
501.0,539.0,482.0,520.0
504.0,544.0,492.0,521.0
503.0,524.0,499.0,520.0
519.0,497.0,516.0,513.0
528.0,488.0,525.0,506.0
523.0,495.0,536.0,498.0
519.0,502.0,538.0,498.0
497.0,527.0,534.0,505.0
491.0,513.0,533.0,504.0
496.0,515.0,528.0,508.0
492.0,518.0,527.0,508.0
503.0,500.0,516.0,508.0
525.0,502.0,516.0,511.0
526.0,499.0,503.0,511.0
523.0,502.0,497.0,517.0
509.0,528.0,491.0,519.0
504.0,503.0,484.0,525.0
509.0,498.0,488.0,520.0
498.0,518.0,493.0,516.0
508.0,507.0,502.0,513.0
525.0,477.0,519.0,510.0
527.0,472.0,529.0,506.0
530.0,491.0,538.0,505.0
515.0,506.0,535.0,506.0
496.0,518.0,536.0,509.0
504.0,503.0,537.0,506.0
504.0,512.0,529.0,507.0
499.0,531.0,519.0,507.0
511.0,531.0,511.0,509.0
526.0,497.0,507.0,511.0
526.0,471.0,496.0,517.0
521.0,485.0,490.0,519.0
505.0,517.0,486.0,525.0
502.0,519.0,490.0,525.0
509.0,505.0,495.0,523.0
508.0,516.0,503.0,523.0
513.0,513.0,519.0,517.0
535.0,469.0,532.0,509.0
530.0,457.0,540.0,508.0
527.0,463.0,542.0,508.0
511.0,495.0,531.0,502.0
502.0,527.0,525.0,500.0
503.0,557.0,526.0,502.0
490.0,579.0,523.0,500.0
494.0,563.0,516.0,507.0
510.0,527.0,511.0,511.0
527.0,454.0,507.0,513.0
525.0,475.0,496.0,512.0
518.0,503.0,489.0,519.0
499.0,532.0,481.0,523.0
506.0,523.0,486.0,521.0
510.0,510.0,493.0,517.0
512.0,505.0,498.0,517.0
526.0,480.0,509.0,512.0
535.0,458.0,529.0,508.0
536.0,469.0,536.0,508.0
524.0,475.0,539.0,506.0
499.0,531.0,538.0,508.0
490.0,545.0,531.0,507.0
503.0,525.0,532.0,508.0
500.0,534.0,524.0,508.0
507.0,517.0,517.0,511.0
523.0,486.0,508.0,513.0
521.0,490.0,498.0,516.0
522.0,494.0,491.0,516.0
510.0,515.0,485.0,520.0
498.0,531.0,482.0,523.0
505.0,513.0,488.0,520.0
503.0,513.0,494.0,520.0
506.0,492.0,507.0,521.0
519.0,466.0,526.0,521.0
521.0,474.0,539.0,516.0
517.0,488.0,542.0,512.0
503.0,524.0,539.0,508.0
495.0,559.0,534.0,504.0
502.0,529.0,530.0,504.0
506.0,508.0,525.0,504.0
506.0,519.0,523.0,508.0
510.0,510.0,513.0,511.0
521.0,492.0,509.0,510.0
521.0,492.0,504.0,515.0
523.0,489.0,493.0,513.0
500.0,531.0,483.0,521.0
496.0,537.0,483.0,521.0
510.0,512.0,489.0,516.0
516.0,495.0,498.0,517.0
520.0,483.0,510.0,517.0
532.0,458.0,523.0,511.0
527.0,456.0,534.0,511.0
523.0,464.0,540.0,504.0
507.0,505.0,535.0,503.0
497.0,534.0,530.0,503.0
502.0,535.0,529.0,504.0
501.0,524.0,527.0,505.0
498.0,519.0,520.0,507.0
517.0,519.0,515.0,513.0
526.0,500.0,504.0,511.0
526.0,495.0,495.0,512.0
517.0,494.0,491.0,521.0
504.0,515.0,487.0,526.0
505.0,519.0,491.0,528.0
511.0,516.0,498.0,522.0
512.0,525.0,499.0,517.0
523.0,510.0,511.0,515.0
533.0,480.0,524.0,505.0
527.0,483.0,531.0,500.0
515.0,494.0,535.0,501.0
501.0,510.0,535.0,503.0
501.0,505.0,529.0,506.0
498.0,522.0,541.0,506.0
491.0,532.0,529.0,507.0
500.0,513.0,513.0,510.0
523.0,479.0,510.0,506.0
526.0,478.0,504.0,514.0
528.0,504.0,492.0,513.0
511.0,539.0,484.0,517.0
499.0,541.0,483.0,519.0
511.0,507.0,489.0,520.0
509.0,514.0,491.0,520.0
516.0,503.0,503.0,516.0
529.0,479.0,519.0,510.0
531.0,466.0,528.0,510.0
526.0,471.0,538.0,502.0
512.0,498.0,538.0,506.0
490.0,531.0,538.0,508.0
494.0,523.0,536.0,505.0
494.0,530.0,532.0,507.0
502.0,522.0,524.0,510.0
514.0,499.0,517.0,514.0
526.0,479.0,511.0,516.0
533.0,482.0,503.0,520.0
525.0,484.0,491.0,519.0
504.0,515.0,483.0,519.0
497.0,539.0,480.0,517.0
505.0,525.0,486.0,516.0
507.0,515.0,494.0,517.0
512.0,497.0,510.0,514.0
530.0,466.0,526.0,511.0
529.0,477.0,537.0,506.0
523.0,505.0,541.0,506.0
502.0,540.0,539.0,508.0
491.0,539.0,534.0,509.0
491.0,501.0,531.0,510.0
496.0,519.0,523.0,511.0
505.0,511.0,517.0,511.0
517.0,489.0,511.0,509.0
523.0,475.0,503.0,516.0
525.0,478.0,493.0,517.0
512.0,498.0,491.0,523.0
497.0,525.0,487.0,522.0
503.0,515.0,489.0,522.0
499.0,526.0,491.0,519.0
504.0,518.0,496.0,515.0
514.0,498.0,510.0,507.0
528.0,488.0,528.0,508.0
528.0,480.0,533.0,504.0
521.0,486.0,539.0,504.0
509.0,473.0,537.0,502.0
496.0,503.0,533.0,503.0
495.0,524.0,532.0,510.0
491.0,540.0,525.0,510.0
503.0,518.0,518.0,511.0
521.0,484.0,518.0,511.0
523.0,482.0,502.0,517.0
518.0,482.0,496.0,519.0
511.0,505.0,489.0,524.0
501.0,528.0,484.0,525.0
504.0,526.0,488.0,528.0
504.0,517.0,494.0,517.0
513.0,502.0,503.0,515.0
523.0,482.0,516.0,510.0
531.0,471.0,530.0,508.0
527.0,487.0,536.0,503.0
516.0,499.0,537.0,503.0
496.0,523.0,535.0,508.0
502.0,519.0,528.0,507.0
501.0,516.0,528.0,508.0
498.0,525.0,518.0,509.0
508.0,503.0,514.0,511.0
524.0,484.0,505.0,509.0
525.0,483.0,501.0,515.0
521.0,493.0,492.0,518.0
500.0,513.0,489.0,524.0
501.0,523.0,483.0,523.0
504.0,525.0,490.0,520.0
500.0,545.0,493.0,522.0
514.0,509.0,508.0,516.0
531.0,462.0,524.0,518.0
529.0,454.0,537.0,515.0
522.0,483.0,548.0,515.0
506.0,515.0,543.0,513.0
497.0,537.0,536.0,506.0
506.0,511.0,526.0,509.0
505.0,515.0,520.0,506.0
507.0,507.0,513.0,509.0
522.0,481.0,513.0,511.0
524.0,482.0,509.0,516.0
524.0,491.0,506.0,524.0
517.0,506.0,490.0,524.0
497.0,535.0,479.0,522.0
502.0,527.0,481.0,517.0
506.0,525.0,487.0,510.0
513.0,505.0,497.0,510.0
519.0,487.0,514.0,506.0
531.0,468.0,529.0,506.0
530.0,487.0,542.0,503.0
523.0,499.0,542.0,503.0
497.0,539.0,534.0,502.0
499.0,527.0,530.0,500.0
499.0,522.0,525.0,500.0
497.0,523.0,521.0,503.0
507.0,509.0,516.0,505.0
528.0,479.0,509.0,510.0
524.0,482.0,501.0,515.0
523.0,491.0,494.0,513.0
511.0,497.0,485.0,515.0
501.0,514.0,484.0,520.0
508.0,503.0,489.0,517.0
507.0,494.0,493.0,517.0
510.0,498.0,504.0,513.0
525.0,484.0,519.0,513.0
526.0,485.0,532.0,507.0
520.0,489.0,540.0,506.0
509.0,509.0,540.0,509.0
500.0,518.0,538.0,508.0
499.0,520.0,535.0,506.0
503.0,528.0,528.0,507.0
500.0,525.0,521.0,510.0
511.0,504.0,513.0,510.0
525.0,489.0,508.0,511.0
523.0,492.0,499.0,521.0
518.0,489.0,492.0,521.0
497.0,515.0,483.0,522.0
500.0,507.0,486.0,522.0
507.0,500.0,488.0,518.0
512.0,519.0,497.0,515.0
515.0,516.0,506.0,511.0
529.0,489.0,522.0,506.0
527.0,482.0,532.0,506.0
523.0,481.0,538.0,506.0
504.0,517.0,534.0,508.0
492.0,530.0,533.0,510.0
499.0,542.0,530.0,506.0
492.0,553.0,525.0,509.0
498.0,532.0,521.0,511.0
516.0,451.0,521.0,515.0
525.0,451.0,512.0,518.0
521.0,485.0,496.0,516.0
505.0,514.0,485.0,521.0
497.0,531.0,486.0,521.0
509.0,512.0,487.0,523.0
517.0,498.0,488.0,519.0
513.0,504.0,498.0,518.0
521.0,492.0,516.0,514.0
536.0,477.0,529.0,512.0
529.0,495.0,538.0,505.0
521.0,510.0,540.0,509.0
496.0,546.0,539.0,506.0
494.0,547.0,536.0,505.0
500.0,512.0,532.0,508.0
502.0,511.0,527.0,510.0
506.0,512.0,517.0,510.0
525.0,489.0,509.0,509.0
523.0,470.0,499.0,513.0
526.0,451.0,493.0,515.0
513.0,507.0,482.0,515.0
504.0,544.0,479.0,516.0
514.0,509.0,488.0,517.0
512.0,501.0,490.0,517.0
514.0,500.0,504.0,513.0
524.0,472.0,525.0,512.0
525.0,478.0,532.0,508.0
526.0,486.0,540.0,506.0
513.0,505.0,541.0,509.0
494.0,550.0,534.0,507.0
494.0,548.0,533.0,508.0
495.0,537.0,528.0,506.0
495.0,526.0,520.0,510.0
508.0,478.0,513.0,509.0
524.0,466.0,506.0,514.0
522.0,493.0,492.0,513.0
520.0,513.0,486.0,517.0
505.0,531.0,484.0,518.0
505.0,525.0,489.0,523.0
503.0,521.0,497.0,524.0
512.0,509.0,506.0,521.0
513.0,496.0,514.0,510.0
532.0,471.0,523.0,505.0
530.0,474.0,530.0,503.0
520.0,484.0,538.0,502.0
507.0,510.0,537.0,505.0
495.0,532.0,533.0,506.0
494.0,534.0,532.0,504.0
492.0,539.0,520.0,502.0
507.0,508.0,514.0,503.0
522.0,485.0,512.0,512.0
525.0,485.0,504.0,513.0
522.0,482.0,498.0,517.0
511.0,506.0,484.0,521.0
500.0,523.0,483.0,519.0
506.0,515.0,482.0,519.0
506.0,536.0,490.0,518.0
517.0,515.0,499.0,518.0
524.0,497.0,514.0,514.0
532.0,469.0,529.0,509.0
529.0,450.0,537.0,508.0
522.0,465.0,543.0,506.0
497.0,530.0,539.0,510.0
496.0,535.0,537.0,505.0
496.0,520.0,530.0,504.0
495.0,523.0,521.0,506.0
506.0,511.0,516.0,509.0
521.0,485.0,509.0,511.0
522.0,486.0,502.0,516.0
523.0,487.0,497.0,519.0
511.0,504.0,496.0,526.0
501.0,520.0,487.0,522.0
506.0,523.0,485.0,518.0
501.0,523.0,490.0,516.0
500.0,524.0,502.0,514.0
514.0,469.0,520.0,507.0
525.0,454.0,531.0,503.0
522.0,473.0,535.0,506.0
515.0,510.0,538.0,504.0
502.0,528.0,536.0,505.0
504.0,533.0,535.0,509.0
503.0,524.0,531.0,513.0
506.0,512.0,523.0,514.0
513.0,497.0,516.0,517.0
527.0,494.0,510.0,514.0
524.0,504.0,498.0,515.0
513.0,517.0,488.0,515.0
499.0,539.0,483.0,516.0
508.0,495.0,483.0,515.0
507.0,507.0,489.0,515.0
514.0,504.0,496.0,517.0
525.0,502.0,509.0,517.0
534.0,481.0,525.0,512.0
526.0,491.0,536.0,511.0
521.0,489.0,543.0,511.0
504.0,532.0,537.0,507.0
494.0,521.0,530.0,507.0
502.0,495.0,529.0,508.0
500.0,504.0,526.0,513.0
500.0,506.0,524.0,513.0
518.0,478.0,516.0,513.0
520.0,493.0,506.0,515.0
522.0,510.0,499.0,516.0
513.0,526.0,487.0,517.0
500.0,531.0,484.0,516.0
506.0,517.0,483.0,518.0
507.0,515.0,490.0,515.0
508.0,510.0,498.0,517.0
518.0,487.0,514.0,510.0
530.0,476.0,528.0,506.0
526.0,479.0,537.0,506.0
520.0,485.0,540.0,506.0
496.0,526.0,539.0,510.0
498.0,511.0,536.0,509.0
501.0,512.0,531.0,509.0
499.0,514.0,524.0,514.0
502.0,522.0,517.0,511.0
522.0,491.0,510.0,513.0
524.0,486.0,497.0,513.0
520.0,490.0,492.0,515.0
505.0,532.0,482.0,523.0
495.0,539.0,479.0,521.0
503.0,521.0,489.0,518.0
512.0,505.0,500.0,519.0
512.0,494.0,505.0,514.0
527.0,472.0,518.0,507.0
530.0,473.0,528.0,505.0
521.0,486.0,536.0,502.0
513.0,509.0,534.0,505.0
490.0,530.0,533.0,509.0
493.0,529.0,535.0,509.0
502.0,510.0,533.0,509.0
501.0,508.0,523.0,513.0
513.0,478.0,516.0,511.0
529.0,453.0,504.0,508.0
531.0,457.0,495.0,512.0
521.0,491.0,489.0,520.0
498.0,553.0,483.0,521.0
493.0,570.0,485.0,521.0
498.0,540.0,488.0,517.0
497.0,537.0,501.0,516.0
511.0,516.0,515.0,512.0
527.0,462.0,528.0,507.0
529.0,465.0,533.0,504.0
522.0,479.0,540.0,506.0
502.0,518.0,539.0,507.0
481.0,571.0,536.0,510.0
483.0,579.0,531.0,515.0
492.0,540.0,526.0,513.0
507.0,503.0,518.0,512.0
534.0,424.0,509.0,506.0
530.0,470.0,503.0,508.0
522.0,487.0,494.0,516.0
511.0,512.0,487.0,518.0
487.0,537.0,483.0,523.0
492.0,539.0,489.0,522.0
511.0,509.0,495.0,518.0
519.0,509.0,501.0,520.0
523.0,484.0,518.0,515.0
534.0,471.0,532.0,508.0
532.0,477.0,535.0,505.0
521.0,481.0,534.0,502.0
498.0,509.0,534.0,500.0
498.0,508.0,531.0,502.0
488.0,513.0,523.0,505.0
489.0,532.0,521.0,508.0
499.0,512.0,513.0,511.0
523.0,480.0,512.0,514.0
527.0,487.0,503.0,515.0
526.0,493.0,493.0,520.0
513.0,545.0,489.0,521.0
501.0,526.0,490.0,522.0
502.0,500.0,490.0,517.0
503.0,508.0,492.0,516.0
510.0,499.0,507.0,513.0
524.0,474.0,524.0,509.0
527.0,484.0,534.0,505.0
525.0,487.0,541.0,507.0
512.0,510.0,539.0,504.0
492.0,541.0,534.0,511.0
491.0,541.0,534.0,511.0
501.0,550.0,526.0,511.0
498.0,548.0,519.0,512.0
516.0,490.0,514.0,513.0
529.0,475.0,508.0,515.0
528.0,484.0,501.0,518.0
523.0,493.0,490.0,521.0
504.0,531.0,480.0,521.0
499.0,522.0,486.0,522.0
504.0,510.0,491.0,519.0
509.0,502.0,501.0,518.0
517.0,492.0,511.0,513.0
534.0,482.0,527.0,507.0
532.0,477.0,537.0,504.0
524.0,485.0,541.0,507.0
506.0,520.0,541.0,505.0
494.0,527.0,540.0,506.0
491.0,528.0,531.0,508.0
497.0,509.0,522.0,504.0
505.0,497.0,513.0,507.0
523.0,496.0,508.0,512.0
518.0,502.0,506.0,515.0
522.0,520.0,503.0,519.0
504.0,553.0,488.0,524.0
494.0,527.0,485.0,526.0
506.0,507.0,493.0,525.0
512.0,498.0,491.0,520.0
512.0,485.0,494.0,515.0
521.0,466.0,507.0,508.0
529.0,471.0,525.0,507.0
522.0,467.0,541.0,508.0
515.0,481.0,548.0,505.0
500.0,513.0,541.0,507.0
500.0,508.0,533.0,502.0
502.0,525.0,524.0,501.0
497.0,536.0,518.0,502.0
503.0,522.0,510.0,505.0
526.0,480.0,505.0,513.0
526.0,484.0,501.0,520.0
524.0,489.0,498.0,523.0
506.0,518.0,491.0,518.0
501.0,520.0,481.0,521.0
505.0,519.0,485.0,519.0
509.0,507.0,491.0,523.0
510.0,507.0,503.0,512.0
525.0,483.0,520.0,510.0
530.0,472.0,530.0,509.0
526.0,477.0,538.0,508.0
513.0,498.0,540.0,506.0
499.0,514.0,538.0,508.0
496.0,522.0,535.0,509.0
501.0,510.0,528.0,508.0
501.0,507.0,519.0,512.0
515.0,503.0,514.0,511.0
522.0,493.0,508.0,513.0
518.0,493.0,498.0,517.0
515.0,512.0,490.0,520.0
496.0,531.0,483.0,521.0
496.0,524.0,487.0,520.0
503.0,523.0,490.0,519.0
511.0,516.0,498.0,517.0
524.0,484.0,513.0,515.0
535.0,457.0,529.0,508.0
529.0,467.0,535.0,508.0
524.0,475.0,538.0,507.0
503.0,513.0,538.0,509.0
499.0,510.0,535.0,510.0
498.0,515.0,534.0,510.0
501.0,514.0,527.0,509.0
503.0,525.0,518.0,512.0
518.0,490.0,516.0,513.0
527.0,489.0,505.0,513.0
525.0,481.0,493.0,518.0
514.0,501.0,487.0,518.0
498.0,525.0,491.0,522.0
504.0,518.0,490.0,521.0
508.0,513.0,493.0,520.0
509.0,511.0,504.0,519.0
516.0,489.0,520.0,515.0
523.0,475.0,536.0,514.0
526.0,457.0,539.0,509.0
521.0,493.0,536.0,506.0
495.0,536.0,530.0,503.0
488.0,536.0,531.0,504.0
490.0,532.0,533.0,503.0
491.0,532.0,525.0,507.0
499.0,514.0,514.0,510.0
519.0,484.0,509.0,511.0
523.0,481.0,500.0,516.0
529.0,490.0,496.0,518.0
516.0,524.0,486.0,522.0
504.0,537.0,484.0,520.0
501.0,525.0,491.0,520.0
504.0,515.0,500.0,519.0
505.0,506.0,510.0,516.0
530.0,473.0,521.0,508.0
530.0,470.0,532.0,507.0
527.0,477.0,538.0,503.0
515.0,509.0,536.0,503.0
494.0,540.0,532.0,502.0
498.0,526.0,528.0,505.0
499.0,519.0,522.0,506.0
496.0,523.0,517.0,507.0
514.0,496.0,510.0,515.0
527.0,496.0,505.0,513.0
521.0,501.0,498.0,520.0
512.0,506.0,496.0,522.0
498.0,533.0,493.0,526.0
498.0,510.0,497.0,521.0
511.0,460.0,494.0,517.0
513.0,502.0,500.0,514.0
520.0,501.0,509.0,512.0
530.0,467.0,524.0,507.0
529.0,471.0,534.0,506.0
519.0,483.0,542.0,507.0
500.0,524.0,536.0,508.0
494.0,542.0,535.0,508.0
492.0,567.0,530.0,506.0
493.0,555.0,529.0,505.0
499.0,514.0,518.0,505.0
522.0,479.0,511.0,511.0
525.0,460.0,503.0,515.0
524.0,459.0,496.0,517.0
513.0,491.0,488.0,524.0
500.0,525.0,484.0,524.0
505.0,514.0,489.0,523.0
504.0,521.0,498.0,521.0
513.0,506.0,510.0,518.0
524.0,479.0,520.0,506.0
528.0,482.0,529.0,505.0
525.0,482.0,533.0,501.0
519.0,502.0,538.0,502.0
493.0,534.0,539.0,505.0
493.0,532.0,533.0,505.0
493.0,531.0,530.0,504.0
492.0,526.0,521.0,506.0
499.0,513.0,514.0,510.0
521.0,491.0,509.0,514.0
524.0,491.0,505.0,514.0
528.0,503.0,493.0,519.0
512.0,514.0,483.0,522.0
504.0,510.0,486.0,521.0
503.0,515.0,492.0,520.0
510.0,506.0,498.0,522.0
510.0,496.0,508.0,515.0
534.0,466.0,524.0,510.0
528.0,471.0,532.0,507.0
523.0,471.0,539.0,505.0
508.0,508.0,538.0,507.0
493.0,526.0,537.0,507.0
495.0,520.0,532.0,506.0
505.0,528.0,530.0,505.0
500.0,531.0,525.0,509.0
509.0,518.0,509.0,507.0
514.0,507.0,505.0,515.0
521.0,488.0,501.0,522.0
519.0,467.0,492.0,523.0
509.0,504.0,491.0,524.0
504.0,525.0,491.0,527.0
503.0,523.0,501.0,527.0
511.0,503.0,505.0,521.0
517.0,489.0,510.0,508.0
530.0,470.0,524.0,506.0
528.0,472.0,532.0,500.0
521.0,488.0,536.0,498.0
503.0,524.0,530.0,500.0
495.0,527.0,528.0,497.0
494.0,521.0,527.0,501.0
499.0,515.0,521.0,500.0
501.0,513.0,513.0,507.0
519.0,479.0,509.0,507.0
522.0,484.0,499.0,513.0
521.0,491.0,491.0,516.0
514.0,513.0,485.0,521.0
500.0,533.0,485.0,521.0
504.0,526.0,489.0,521.0
512.0,516.0,492.0,517.0
505.0,510.0,503.0,519.0
520.0,506.0,519.0,514.0
526.0,515.0,535.0,511.0
522.0,504.0,541.0,508.0
517.0,477.0,538.0,507.0
502.0,495.0,536.0,506.0
508.0,499.0,534.0,506.0
501.0,510.0,528.0,507.0
502.0,511.0,520.0,505.0
514.0,500.0,514.0,509.0
525.0,476.0,509.0,512.0
524.0,481.0,499.0,517.0
522.0,482.0,494.0,517.0
507.0,516.0,487.0,524.0
502.0,531.0,489.0,523.0
505.0,521.0,493.0,519.0
508.0,503.0,499.0,516.0
509.0,493.0,507.0,512.0
526.0,465.0,517.0,510.0
528.0,468.0,528.0,506.0
520.0,494.0,538.0,505.0
509.0,517.0,536.0,504.0
494.0,536.0,537.0,503.0
495.0,527.0,529.0,503.0
497.0,535.0,529.0,503.0
492.0,540.0,522.0,509.0
506.0,507.0,510.0,510.0
519.0,498.0,506.0,514.0
525.0,490.0,497.0,516.0
517.0,482.0,489.0,519.0
507.0,514.0,487.0,522.0
501.0,519.0,485.0,521.0
510.0,490.0,494.0,516.0
511.0,528.0,499.0,515.0
515.0,523.0,510.0,513.0
528.0,478.0,526.0,509.0
527.0,478.0,536.0,507.0
521.0,490.0,540.0,505.0
501.0,513.0,534.0,508.0
496.0,507.0,534.0,509.0
493.0,527.0,532.0,507.0
494.0,532.0,525.0,505.0
502.0,525.0,516.0,508.0
518.0,497.0,508.0,510.0
521.0,487.0,497.0,514.0
523.0,480.0,494.0,517.0
508.0,505.0,486.0,522.0
498.0,518.0,484.0,525.0
505.0,511.0,485.0,518.0
512.0,501.0,492.0,519.0
512.0,515.0,501.0,514.0
525.0,471.0,516.0,510.0
533.0,475.0,530.0,509.0
527.0,508.0,538.0,502.0
514.0,516.0,539.0,506.0
496.0,534.0,538.0,506.0
488.0,511.0,533.0,504.0
493.0,512.0,528.0,506.0
488.0,537.0,520.0,509.0
507.0,522.0,516.0,511.0
520.0,502.0,510.0,515.0
522.0,457.0,502.0,520.0
521.0,473.0,493.0,520.0
507.0,515.0,487.0,521.0
501.0,532.0,484.0,529.0
505.0,513.0,492.0,521.0
508.0,503.0,495.0,521.0
512.0,489.0,502.0,514.0
533.0,466.0,520.0,509.0
527.0,447.0,532.0,508.0
522.0,461.0,538.0,503.0
507.0,505.0,537.0,506.0
493.0,532.0,530.0,503.0
494.0,545.0,532.0,506.0
500.0,550.0,526.0,509.0
500.0,548.0,519.0,513.0
518.0,506.0,513.0,513.0
530.0,489.0,506.0,510.0
528.0,493.0,497.0,516.0
519.0,516.0,490.0,517.0
500.0,540.0,481.0,522.0
504.0,527.0,482.0,521.0
509.0,510.0,492.0,520.0
511.0,500.0,501.0,521.0
523.0,480.0,517.0,517.0
533.0,471.0,530.0,514.0
530.0,471.0,540.0,511.0
520.0,480.0,540.0,506.0
501.0,513.0,532.0,500.0
493.0,521.0,528.0,505.0
497.0,522.0,530.0,503.0
495.0,518.0,528.0,511.0
498.0,518.0,516.0,515.0
526.0,478.0,517.0,515.0
524.0,480.0,504.0,516.0
525.0,485.0,497.0,516.0
518.0,513.0,491.0,517.0
506.0,521.0,499.0,520.0
508.0,532.0,490.0,510.0
509.0,523.0,489.0,508.0
509.0,515.0,496.0,518.0
528.0,487.0,514.0,514.0
530.0,479.0,526.0,508.0
527.0,481.0,538.0,506.0
516.0,492.0,545.0,508.0
499.0,518.0,537.0,507.0
497.0,501.0,529.0,507.0
501.0,519.0,529.0,505.0
497.0,530.0,516.0,511.0
506.0,516.0,507.0,503.0
522.0,488.0,505.0,510.0
523.0,491.0,501.0,520.0
525.0,479.0,491.0,524.0
507.0,521.0,487.0,525.0
502.0,500.0,486.0,524.0
504.0,501.0,487.0,520.0
509.0,497.0,493.0,518.0
515.0,486.0,505.0,515.0
528.0,464.0,523.0,509.0
527.0,469.0,534.0,511.0
524.0,474.0,544.0,508.0
509.0,495.0,541.0,508.0
493.0,527.0,536.0,509.0
505.0,521.0,534.0,506.0
500.0,531.0,527.0,510.0
498.0,534.0,517.0,512.0
512.0,496.0,509.0,514.0
524.0,462.0,502.0,514.0
532.0,479.0,495.0,514.0
516.0,512.0,488.0,519.0
495.0,537.0,485.0,520.0
498.0,517.0,484.0,521.0
501.0,511.0,491.0,519.0
512.0,488.0,498.0,516.0
528.0,493.0,511.0,509.0
534.0,464.0,526.0,507.0
526.0,500.0,534.0,502.0
514.0,532.0,535.0,505.0
490.0,562.0,533.0,502.0
485.0,568.0,532.0,505.0
498.0,497.0,528.0,504.0
502.0,484.0,522.0,509.0
507.0,504.0,518.0,513.0
522.0,484.0,510.0,515.0
524.0,494.0,504.0,516.0
526.0,483.0,494.0,518.0
514.0,493.0,490.0,519.0
502.0,509.0,486.0,522.0
501.0,511.0,488.0,520.0
506.0,516.0,493.0,517.0
512.0,505.0,501.0,514.0
524.0,478.0,518.0,506.0
527.0,474.0,530.0,504.0
531.0,484.0,538.0,505.0
520.0,504.0,542.0,504.0
504.0,522.0,539.0,508.0
501.0,525.0,534.0,504.0
494.0,530.0,529.0,506.0
499.0,505.0,519.0,505.0
506.0,491.0,513.0,510.0
519.0,477.0,507.0,514.0
521.0,484.0,498.0,517.0
521.0,502.0,488.0,519.0
505.0,534.0,490.0,526.0
498.0,523.0,491.0,526.0
498.0,521.0,492.0,524.0
515.0,503.0,499.0,519.0
517.0,498.0,512.0,514.0
530.0,467.0,526.0,513.0
528.0,464.0,534.0,507.0
520.0,471.0,537.0,505.0
503.0,499.0,536.0,506.0
486.0,537.0,534.0,507.0
493.0,517.0,532.0,505.0
501.0,525.0,526.0,502.0
503.0,520.0,519.0,503.0
520.0,507.0,511.0,508.0
522.0,497.0,503.0,511.0
523.0,491.0,495.0,516.0
516.0,500.0,489.0,516.0
493.0,535.0,480.0,524.0
500.0,518.0,485.0,523.0
505.0,512.0,489.0,518.0
509.0,518.0,495.0,516.0
521.0,494.0,515.0,513.0
530.0,468.0,530.0,507.0
526.0,471.0,536.0,508.0
520.0,485.0,542.0,507.0
501.0,515.0,538.0,506.0
495.0,519.0,535.0,505.0
491.0,532.0,530.0,502.0
495.0,524.0,524.0,505.0
503.0,518.0,517.0,507.0
520.0,485.0,509.0,513.0
527.0,484.0,502.0,517.0
526.0,482.0,493.0,521.0
514.0,517.0,488.0,521.0
504.0,520.0,489.0,526.0
508.0,507.0,498.0,525.0
504.0,502.0,503.0,525.0
507.0,496.0,509.0,522.0
526.0,470.0,518.0,513.0
533.0,465.0,528.0,504.0
527.0,490.0,531.0,498.0
515.0,504.0,534.0,501.0
493.0,528.0,529.0,504.0
494.0,534.0,528.0,501.0
486.0,542.0,526.0,504.0
493.0,504.0,521.0,507.0
519.0,490.0,517.0,511.0
524.0,498.0,512.0,516.0
525.0,491.0,502.0,518.0
523.0,498.0,492.0,517.0
508.0,530.0,483.0,520.0
502.0,519.0,483.0,515.0
507.0,498.0,490.0,517.0
506.0,496.0,494.0,519.0
514.0,487.0,509.0,513.0
529.0,470.0,524.0,505.0
526.0,481.0,533.0,504.0
520.0,487.0,541.0,503.0
502.0,510.0,539.0,503.0
497.0,527.0,534.0,505.0
496.0,515.0,530.0,506.0
501.0,525.0,528.0,507.0
505.0,546.0,520.0,509.0
513.0,517.0,515.0,513.0
523.0,500.0,506.0,510.0
531.0,455.0,495.0,513.0
520.0,488.0,488.0,520.0
500.0,526.0,482.0,522.0
498.0,520.0,488.0,522.0
504.0,487.0,494.0,522.0
513.0,476.0,506.0,523.0
522.0,476.0,521.0,517.0
532.0,461.0,530.0,512.0
524.0,481.0,538.0,507.0
526.0,483.0,542.0,506.0
501.0,513.0,533.0,505.0
497.0,517.0,530.0,501.0
494.0,520.0,532.0,505.0
496.0,516.0,519.0,505.0
500.0,504.0,518.0,506.0
524.0,476.0,513.0,511.0
525.0,494.0,502.0,514.0
522.0,497.0,496.0,524.0
508.0,517.0,490.0,522.0
501.0,532.0,481.0,518.0
500.0,509.0,489.0,516.0
501.0,501.0,492.0,520.0
502.0,500.0,500.0,521.0
522.0,490.0,517.0,514.0
525.0,470.0,528.0,513.0
529.0,472.0,538.0,510.0
513.0,493.0,538.0,512.0
498.0,521.0,536.0,512.0
507.0,512.0,537.0,510.0
500.0,515.0,526.0,506.0
501.0,523.0,513.0,506.0
514.0,500.0,514.0,509.0
525.0,482.0,507.0,512.0
526.0,486.0,494.0,516.0
520.0,492.0,492.0,521.0
502.0,509.0,492.0,521.0
495.0,513.0,486.0,523.0
502.0,504.0,485.0,514.0
512.0,489.0,496.0,513.0
513.0,525.0,514.0,512.0
530.0,481.0,523.0,510.0
531.0,482.0,535.0,507.0
527.0,483.0,539.0,506.0
502.0,521.0,539.0,506.0
489.0,542.0,537.0,508.0
498.0,522.0,534.0,507.0
505.0,513.0,525.0,505.0
503.0,507.0,513.0,505.0
514.0,493.0,510.0,505.0
522.0,484.0,499.0,511.0
517.0,490.0,496.0,511.0
512.0,520.0,489.0,517.0
500.0,538.0,485.0,522.0
508.0,518.0,491.0,520.0
505.0,526.0,498.0,522.0
509.0,508.0,504.0,517.0
515.0,491.0,512.0,515.0
531.0,465.0,529.0,515.0
526.0,476.0,538.0,508.0
520.0,481.0,538.0,502.0
498.0,509.0,536.0,503.0
496.0,520.0,531.0,503.0
494.0,528.0,529.0,505.0
490.0,534.0,520.0,505.0
501.0,515.0,514.0,511.0
524.0,477.0,506.0,517.0
526.0,484.0,503.0,520.0
524.0,491.0,495.0,525.0
508.0,521.0,481.0,524.0
495.0,551.0,480.0,518.0
500.0,539.0,485.0,522.0
510.0,521.0,495.0,515.0
510.0,489.0,505.0,515.0
535.0,424.0,522.0,509.0
537.0,440.0,532.0,505.0
530.0,479.0,538.0,506.0
519.0,506.0,540.0,505.0
492.0,538.0,534.0,508.0
487.0,539.0,534.0,509.0
486.0,545.0,529.0,507.0
500.0,524.0,523.0,506.0
510.0,502.0,511.0,508.0
527.0,484.0,501.0,509.0
527.0,486.0,497.0,513.0
525.0,494.0,491.0,518.0
512.0,518.0,482.0,520.0
502.0,521.0,486.0,520.0
498.0,532.0,488.0,520.0
502.0,517.0,501.0,518.0
514.0,492.0,505.0,512.0
529.0,463.0,519.0,506.0
526.0,467.0,534.0,507.0
527.0,475.0,541.0,504.0
507.0,504.0,537.0,507.0
494.0,531.0,537.0,507.0
495.0,536.0,531.0,506.0
497.0,541.0,527.0,511.0
502.0,531.0,520.0,512.0
517.0,498.0,514.0,514.0
527.0,429.0,507.0,514.0
522.0,458.0,499.0,519.0
517.0,492.0,489.0,522.0
499.0,549.0,488.0,523.0
499.0,526.0,488.0,522.0
505.0,511.0,493.0,521.0
514.0,500.0,498.0,516.0
522.0,489.0,509.0,511.0
529.0,477.0,526.0,504.0
525.0,481.0,534.0,503.0
516.0,493.0,536.0,506.0
501.0,531.0,537.0,507.0
488.0,548.0,531.0,509.0
489.0,529.0,528.0,508.0
501.0,523.0,521.0,509.0
507.0,521.0,510.0,508.0
525.0,491.0,508.0,512.0
527.0,464.0,501.0,514.0
525.0,474.0,492.0,516.0
510.0,507.0,487.0,520.0
499.0,520.0,487.0,523.0
499.0,521.0,489.0,521.0
511.0,500.0,495.0,518.0
513.0,487.0,504.0,516.0
526.0,457.0,518.0,517.0
531.0,451.0,530.0,510.0
530.0,478.0,535.0,510.0
513.0,520.0,538.0,507.0
490.0,556.0,535.0,507.0
494.0,532.0,540.0,508.0
495.0,516.0,541.0,510.0
498.0,518.0,524.0,506.0
509.0,499.0,509.0,508.0
530.0,477.0,506.0,509.0
523.0,490.0,497.0,510.0
514.0,495.0,488.0,514.0
500.0,524.0,484.0,516.0
498.0,527.0,483.0,518.0
504.0,531.0,492.0,515.0
505.0,520.0,498.0,513.0
512.0,504.0,508.0,511.0
527.0,456.0,526.0,504.0
526.0,424.0,529.0,497.0
523.0,443.0,539.0,508.0
509.0,487.0,535.0,505.0
494.0,521.0,532.0,505.0
493.0,551.0,528.0,506.0
502.0,545.0,521.0,508.0
505.0,541.0,519.0,512.0
520.0,507.0,512.0,515.0
528.0,491.0,507.0,515.0
526.0,491.0,497.0,519.0
517.0,510.0,489.0,519.0
509.0,524.0,487.0,521.0
510.0,515.0,483.0,521.0
509.0,512.0,488.0,518.0
516.0,507.0,498.0,513.0
530.0,478.0,515.0,513.0
541.0,471.0,529.0,509.0
534.0,468.0,538.0,510.0
522.0,494.0,540.0,511.0
507.0,512.0,538.0,513.0
499.0,528.0,535.0,507.0
492.0,526.0,528.0,503.0
498.0,525.0,528.0,503.0
503.0,520.0,515.0,510.0
520.0,486.0,512.0,512.0
524.0,486.0,500.0,516.0
520.0,488.0,495.0,521.0
507.0,519.0,482.0,522.0
499.0,528.0,484.0,518.0
504.0,520.0,486.0,515.0
511.0,505.0,495.0,516.0
514.0,500.0,509.0,513.0
531.0,470.0,519.0,511.0
533.0,461.0,531.0,507.0
527.0,466.0,537.0,506.0
514.0,487.0,534.0,504.0
492.0,523.0,530.0,504.0
487.0,541.0,530.0,502.0
489.0,547.0,527.0,505.0
494.0,523.0,521.0,507.0
507.0,517.0,514.0,507.0
526.0,449.0,508.0,514.0
525.0,478.0,500.0,517.0
522.0,495.0,491.0,519.0
503.0,526.0,484.0,519.0
498.0,516.0,484.0,519.0
505.0,496.0,486.0,515.0
510.0,487.0,496.0,515.0
515.0,495.0,506.0,513.0
531.0,472.0,525.0,507.0
529.0,476.0,535.0,508.0
523.0,482.0,541.0,504.0
504.0,521.0,539.0,508.0
488.0,536.0,535.0,508.0
503.0,515.0,540.0,509.0
503.0,509.0,528.0,509.0
503.0,517.0,519.0,508.0
514.0,499.0,513.0,510.0
523.0,483.0,503.0,513.0
521.0,472.0,497.0,514.0
514.0,472.0,488.0,518.0
502.0,503.0,486.0,522.0
511.0,538.0,493.0,522.0
508.0,524.0,496.0,519.0
508.0,514.0,501.0,516.0
518.0,495.0,513.0,514.0
533.0,485.0,530.0,508.0
528.0,489.0,538.0,504.0
519.0,499.0,539.0,501.0
495.0,536.0,535.0,503.0
492.0,533.0,531.0,511.0
493.0,537.0,530.0,507.0
495.0,529.0,522.0,505.0
503.0,521.0,513.0,506.0
523.0,470.0,510.0,514.0
526.0,453.0,497.0,516.0
527.0,485.0,494.0,522.0
505.0,525.0,486.0,522.0
499.0,522.0,486.0,522.0
508.0,501.0,493.0,519.0
507.0,511.0,497.0,514.0
507.0,512.0,510.0,510.0
524.0,483.0,521.0,509.0
527.0,475.0,526.0,506.0
521.0,480.0,538.0,502.0
514.0,494.0,540.0,507.0
494.0,531.0,534.0,509.0
498.0,521.0,534.0,509.0
493.0,523.0,528.0,508.0
495.0,522.0,520.0,509.0
513.0,492.0,513.0,510.0
525.0,474.0,507.0,514.0
523.0,503.0,500.0,518.0
519.0,519.0,493.0,521.0
502.0,540.0,491.0,523.0
504.0,531.0,490.0,522.0
512.0,484.0,492.0,518.0
518.0,476.0,496.0,517.0
520.0,489.0,508.0,516.0
530.0,461.0,528.0,509.0
527.0,468.0,541.0,512.0
523.0,475.0,545.0,507.0
504.0,509.0,537.0,504.0
500.0,505.0,534.0,502.0
500.0,513.0,529.0,500.0
501.0,514.0,525.0,510.0
497.0,521.0,517.0,510.0
518.0,494.0,509.0,508.0
520.0,488.0,508.0,514.0
523.0,475.0,493.0,519.0
509.0,504.0,483.0,520.0
490.0,520.0,488.0,522.0
497.0,516.0,491.0,519.0
500.0,521.0,490.0,517.0
505.0,518.0,503.0,519.0
522.0,486.0,519.0,516.0
530.0,468.0,530.0,513.0
524.0,471.0,537.0,506.0
526.0,486.0,535.0,501.0
502.0,549.0,534.0,500.0
500.0,536.0,533.0,500.0
486.0,536.0,525.0,502.0
498.0,522.0,520.0,505.0
502.0,489.0,519.0,509.0
520.0,465.0,503.0,508.0
526.0,461.0,501.0,513.0
525.0,473.0,492.0,519.0
509.0,520.0,484.0,522.0
505.0,537.0,484.0,518.0
506.0,523.0,486.0,518.0
507.0,523.0,492.0,517.0
511.0,521.0,506.0,517.0
530.0,485.0,524.0,512.0
532.0,473.0,534.0,508.0
526.0,489.0,540.0,506.0
513.0,526.0,542.0,510.0
493.0,556.0,537.0,508.0
492.0,547.0,533.0,511.0
500.0,496.0,529.0,506.0
508.0,492.0,519.0,510.0
512.0,500.0,518.0,512.0
524.0,483.0,513.0,514.0
527.0,490.0,498.0,511.0
521.0,490.0,493.0,513.0
504.0,516.0,483.0,517.0
500.0,519.0,484.0,517.0
501.0,505.0,498.0,520.0
514.0,518.0,502.0,520.0
515.0,508.0,510.0,515.0
533.0,477.0,514.0,505.0
534.0,483.0,532.0,506.0
523.0,484.0,540.0,504.0
509.0,532.0,536.0,505.0
500.0,549.0,532.0,507.0
501.0,502.0,529.0,507.0
499.0,495.0,520.0,508.0
505.0,503.0,516.0,504.0
519.0,482.0,516.0,506.0
523.0,475.0,503.0,513.0
524.0,483.0,493.0,517.0
510.0,508.0,488.0,517.0
501.0,526.0,486.0,519.0
504.0,519.0,484.0,518.0
501.0,520.0,489.0,518.0
507.0,508.0,499.0,516.0
521.0,491.0,515.0,511.0
528.0,480.0,524.0,508.0
524.0,489.0,538.0,504.0
516.0,498.0,539.0,505.0
496.0,515.0,536.0,507.0
496.0,502.0,532.0,504.0
498.0,503.0,528.0,509.0
495.0,513.0,523.0,510.0
501.0,512.0,516.0,515.0
525.0,481.0,510.0,516.0
525.0,481.0,502.0,514.0
521.0,481.0,498.0,518.0
510.0,518.0,488.0,518.0
499.0,527.0,486.0,523.0
503.0,517.0,487.0,520.0
506.0,511.0,495.0,519.0
512.0,493.0,507.0,516.0
522.0,475.0,522.0,514.0
530.0,475.0,537.0,512.0
526.0,484.0,540.0,507.0
511.0,509.0,539.0,507.0
491.0,533.0,535.0,507.0
491.0,528.0,530.0,504.0
493.0,518.0,525.0,504.0
498.0,514.0,525.0,508.0
516.0,491.0,513.0,511.0
523.0,464.0,508.0,515.0
524.0,477.0,499.0,513.0
517.0,485.0,486.0,519.0
502.0,516.0,483.0,518.0
495.0,525.0,485.0,518.0
496.0,527.0,491.0,517.0
504.0,526.0,502.0,516.0
520.0,510.0,510.0,511.0
537.0,476.0,526.0,508.0
535.0,470.0,534.0,505.0
527.0,471.0,539.0,501.0
505.0,501.0,536.0,504.0
496.0,522.0,532.0,509.0
496.0,535.0,532.0,509.0
497.0,554.0,526.0,508.0
498.0,546.0,519.0,513.0
522.0,474.0,511.0,512.0
525.0,462.0,507.0,515.0
527.0,468.0,500.0,521.0
517.0,495.0,489.0,524.0
499.0,525.0,486.0,526.0
501.0,518.0,492.0,523.0
499.0,513.0,493.0,521.0
505.0,499.0,501.0,514.0
519.0,457.0,516.0,512.0
532.0,457.0,522.0,508.0
523.0,494.0,529.0,497.0
521.0,509.0,536.0,499.0
501.0,538.0,527.0,501.0
495.0,549.0,526.0,502.0
495.0,512.0,532.0,503.0
501.0,515.0,525.0,502.0
502.0,546.0,513.0,507.0
521.0,516.0,505.0,509.0
525.0,482.0,499.0,513.0
527.0,464.0,491.0,512.0
514.0,495.0,485.0,517.0
503.0,528.0,484.0,518.0
503.0,523.0,488.0,516.0
501.0,521.0,496.0,519.0
506.0,508.0,509.0,513.0
525.0,474.0,524.0,510.0
529.0,471.0,529.0,510.0
523.0,478.0,539.0,505.0
512.0,498.0,536.0,507.0
494.0,518.0,535.0,509.0
492.0,526.0,534.0,507.0
492.0,527.0,525.0,507.0
498.0,523.0,519.0,510.0
511.0,508.0,512.0,512.0
524.0,462.0,509.0,514.0
522.0,467.0,498.0,519.0
519.0,476.0,491.0,522.0
503.0,499.0,485.0,525.0
512.0,520.0,487.0,522.0
511.0,520.0,488.0,521.0
513.0,506.0,495.0,516.0
514.0,492.0,507.0,513.0
529.0,469.0,523.0,508.0
528.0,467.0,533.0,504.0
521.0,477.0,537.0,504.0
507.0,511.0,536.0,503.0
494.0,531.0,534.0,504.0
490.0,544.0,526.0,505.0
495.0,546.0,519.0,505.0
499.0,527.0,515.0,507.0
520.0,494.0,509.0,506.0
523.0,487.0,505.0,514.0
526.0,491.0,497.0,518.0
515.0,508.0,486.0,522.0
504.0,522.0,481.0,523.0
507.0,509.0,485.0,517.0
501.0,518.0,491.0,518.0
510.0,506.0,499.0,520.0
525.0,489.0,513.0,511.0
530.0,479.0,528.0,508.0
525.0,480.0,536.0,506.0
518.0,485.0,538.0,502.0
498.0,521.0,535.0,504.0
497.0,518.0,534.0,509.0
497.0,520.0,527.0,509.0
497.0,522.0,519.0,512.0
505.0,508.0,514.0,514.0
520.0,477.0,509.0,517.0
522.0,479.0,501.0,518.0
519.0,482.0,493.0,520.0
512.0,502.0,483.0,522.0
502.0,523.0,483.0,520.0
498.0,525.0,486.0,515.0
507.0,509.0,492.0,514.0
508.0,502.0,502.0,510.0
529.0,482.0,519.0,507.0
527.0,475.0,529.0,508.0
517.0,488.0,537.0,506.0
509.0,512.0,536.0,508.0
493.0,534.0,541.0,507.0
492.0,534.0,537.0,507.0
494.0,520.0,523.0,505.0
501.0,505.0,518.0,508.0
516.0,479.0,515.0,512.0
521.0,456.0,508.0,518.0
521.0,466.0,500.0,522.0
517.0,521.0,491.0,521.0
492.0,581.0,482.0,522.0
503.0,572.0,483.0,520.0
504.0,548.0,486.0,516.0
512.0,477.0,491.0,514.0
519.0,469.0,511.0,519.0
532.0,459.0,531.0,516.0
532.0,466.0,534.0,516.0
524.0,480.0,544.0,512.0
503.0,516.0,537.0,505.0
499.0,519.0,526.0,500.0
502.0,512.0,522.0,501.0
497.0,508.0,518.0,502.0
499.0,493.0,514.0,505.0
512.0,469.0,512.0,511.0
521.0,457.0,499.0,512.0
528.0,468.0,493.0,515.0
512.0,510.0,486.0,521.0
496.0,535.0,482.0,522.0
504.0,552.0,484.0,520.0
510.0,537.0,492.0,518.0
512.0,519.0,500.0,513.0
526.0,477.0,514.0,512.0
538.0,468.0,528.0,506.0
527.0,475.0,537.0,509.0
515.0,491.0,540.0,505.0
490.0,534.0,536.0,507.0
494.0,527.0,534.0,507.0
496.0,523.0,530.0,507.0
501.0,517.0,525.0,510.0
509.0,507.0,515.0,512.0
524.0,488.0,506.0,519.0
525.0,488.0,499.0,511.0
515.0,498.0,492.0,518.0
502.0,526.0,482.0,519.0
494.0,546.0,484.0,520.0
507.0,517.0,484.0,518.0
516.0,457.0,492.0,517.0
522.0,481.0,505.0,513.0
529.0,466.0,519.0,509.0
528.0,459.0,531.0,508.0
519.0,475.0,541.0,508.0
508.0,495.0,540.0,511.0
494.0,538.0,537.0,514.0
494.0,541.0,538.0,514.0
505.0,518.0,532.0,515.0
505.0,514.0,521.0,512.0
513.0,505.0,513.0,511.0
524.0,484.0,503.0,510.0
525.0,485.0,495.0,508.0
520.0,497.0,492.0,512.0
504.0,528.0,483.0,518.0
507.0,513.0,484.0,521.0
508.0,510.0,489.0,514.0
513.0,499.0,503.0,510.0
514.0,504.0,511.0,512.0
526.0,484.0,523.0,508.0
526.0,476.0,530.0,503.0
521.0,481.0,539.0,507.0
510.0,501.0,539.0,506.0
502.0,505.0,533.0,504.0
493.0,520.0,532.0,507.0
490.0,514.0,525.0,507.0
499.0,513.0,515.0,507.0
518.0,505.0,510.0,511.0
526.0,486.0,506.0,516.0
524.0,485.0,497.0,521.0
511.0,516.0,485.0,524.0
500.0,536.0,485.0,524.0
502.0,538.0,491.0,521.0
502.0,531.0,492.0,520.0
506.0,515.0,500.0,517.0
523.0,487.0,517.0,513.0
529.0,471.0,529.0,506.0
525.0,478.0,533.0,506.0
515.0,516.0,535.0,509.0
494.0,528.0,532.0,506.0
498.0,486.0,529.0,509.0
496.0,510.0,525.0,506.0
496.0,512.0,520.0,511.0
505.0,500.0,515.0,512.0
522.0,485.0,515.0,513.0
522.0,500.0,504.0,514.0
520.0,496.0,497.0,519.0
507.0,519.0,486.0,519.0
499.0,528.0,482.0,518.0
504.0,514.0,485.0,517.0
503.0,500.0,488.0,518.0
508.0,494.0,500.0,517.0
534.0,468.0,519.0,513.0
535.0,468.0,534.0,507.0
522.0,468.0,540.0,504.0
509.0,495.0,536.0,503.0
496.0,526.0,530.0,506.0
492.0,538.0,532.0,505.0
484.0,541.0,527.0,505.0
488.0,532.0,516.0,505.0
516.0,510.0,512.0,508.0
523.0,490.0,506.0,511.0
516.0,496.0,499.0,515.0
513.0,508.0,483.0,517.0
502.0,533.0,481.0,519.0
500.0,524.0,483.0,515.0
495.0,529.0,487.0,516.0
501.0,521.0,494.0,520.0
511.0,502.0,504.0,513.0
526.0,465.0,525.0,514.0
524.0,463.0,536.0,507.0
525.0,472.0,538.0,505.0
512.0,497.0,536.0,508.0
504.0,514.0,534.0,508.0
499.0,513.0,529.0,508.0
489.0,520.0,523.0,504.0
494.0,507.0,515.0,512.0
523.0,471.0,512.0,514.0
536.0,500.0,503.0,517.0
528.0,507.0,498.0,520.0
515.0,521.0,490.0,520.0
508.0,543.0,485.0,516.0
507.0,552.0,487.0,516.0
507.0,550.0,490.0,518.0
508.0,530.0,504.0,517.0
525.0,460.0,518.0,514.0
532.0,474.0,529.0,506.0
527.0,486.0,535.0,508.0
518.0,478.0,544.0,510.0
504.0,499.0,544.0,518.0
497.0,510.0,538.0,514.0
494.0,526.0,531.0,510.0
497.0,511.0,519.0,505.0
504.0,500.0,508.0,503.0
523.0,465.0,504.0,508.0
523.0,463.0,499.0,513.0
524.0,470.0,489.0,516.0
512.0,502.0,483.0,521.0
506.0,521.0,481.0,519.0
510.0,504.0,488.0,515.0
502.0,515.0,494.0,518.0
510.0,512.0,502.0,516.0
526.0,480.0,524.0,512.0
526.0,495.0,535.0,509.0
524.0,497.0,544.0,509.0
512.0,495.0,546.0,511.0
490.0,538.0,528.0,504.0
494.0,530.0,525.0,505.0
492.0,529.0,522.0,509.0
497.0,506.0,517.0,508.0
518.0,491.0,507.0,508.0
526.0,490.0,505.0,510.0
523.0,499.0,497.0,519.0
518.0,505.0,490.0,521.0
503.0,530.0,486.0,522.0
497.0,531.0,488.0,522.0
502.0,524.0,493.0,519.0
503.0,514.0,502.0,519.0
525.0,476.0,511.0,511.0
536.0,457.0,523.0,501.0
535.0,469.0,530.0,499.0
525.0,484.0,533.0,500.0
501.0,524.0,535.0,503.0
489.0,530.0,529.0,505.0
488.0,525.0,527.0,503.0
497.0,521.0,521.0,504.0
497.0,518.0,516.0,507.0
518.0,489.0,507.0,510.0
525.0,487.0,502.0,512.0
524.0,489.0,496.0,519.0
515.0,503.0,491.0,522.0
502.0,517.0,482.0,521.0
508.0,497.0,489.0,520.0
506.0,512.0,493.0,518.0
512.0,513.0,504.0,516.0
523.0,489.0,517.0,510.0
530.0,476.0,528.0,509.0
525.0,480.0,533.0,505.0
515.0,498.0,534.0,506.0
493.0,528.0,533.0,506.0
490.0,531.0,536.0,506.0
490.0,530.0,533.0,504.0
495.0,520.0,526.0,509.0
509.0,499.0,514.0,510.0
519.0,484.0,505.0,508.0
523.0,489.0,501.0,516.0
519.0,488.0,492.0,520.0
504.0,514.0,483.0,522.0
497.0,527.0,485.0,520.0
504.0,513.0,487.0,520.0
505.0,514.0,492.0,517.0
510.0,504.0,502.0,513.0
531.0,471.0,519.0,509.0
528.0,465.0,528.0,510.0
526.0,467.0,539.0,507.0
511.0,495.0,541.0,503.0
495.0,526.0,533.0,507.0
495.0,527.0,534.0,506.0
497.0,514.0,532.0,508.0
500.0,510.0,521.0,508.0
514.0,483.0,511.0,510.0
525.0,473.0,508.0,513.0
523.0,500.0,497.0,516.0
515.0,530.0,491.0,521.0
503.0,543.0,491.0,516.0
507.0,520.0,484.0,515.0
504.0,508.0,484.0,515.0
512.0,490.0,490.0,513.0
518.0,489.0,507.0,511.0
533.0,473.0,524.0,506.0
529.0,477.0,536.0,506.0
514.0,505.0,537.0,506.0
500.0,525.0,537.0,505.0
496.0,516.0,533.0,503.0
489.0,526.0,533.0,504.0
493.0,525.0,521.0,507.0
501.0,507.0,515.0,512.0
521.0,471.0,510.0,512.0
521.0,473.0,502.0,516.0
523.0,470.0,495.0,517.0
510.0,501.0,491.0,521.0
496.0,526.0,486.0,523.0
506.0,520.0,487.0,518.0
510.0,511.0,490.0,517.0
515.0,512.0,499.0,514.0
527.0,479.0,519.0,507.0
527.0,474.0,537.0,508.0
523.0,502.0,536.0,511.0
511.0,524.0,540.0,509.0
489.0,574.0,539.0,511.0
493.0,509.0,535.0,506.0
495.0,495.0,529.0,506.0
