CH1,CH2,CH3,CH4
518.0,467.0,494.0,525.0
514.0,471.0,495.0,524.0
498.0,462.0,494.0,523.0
492.0,474.0,501.0,518.0
494.0,495.0,506.0,511.0
503.0,509.0,518.0,507.0
506.0,524.0,527.0,505.0
510.0,522.0,527.0,502.0
510.0,529.0,525.0,502.0
511.0,525.0,526.0,500.0
512.0,517.0,523.0,502.0
507.0,511.0,521.0,504.0
512.0,498.0,514.0,512.0
521.0,501.0,506.0,511.0
520.0,499.0,501.0,516.0
518.0,498.0,499.0,522.0
517.0,487.0,499.0,530.0
509.0,485.0,498.0,528.0
509.0,503.0,499.0,530.0
501.0,493.0,504.0,528.0
496.0,486.0,509.0,523.0
505.0,501.0,517.0,515.0
516.0,523.0,520.0,503.0
525.0,533.0,523.0,499.0
540.0,535.0,521.0,498.0
534.0,533.0,527.0,500.0
532.0,535.0,522.0,500.0
526.0,534.0,520.0,500.0
517.0,529.0,516.0,502.0
497.0,524.0,509.0,509.0
499.0,531.0,504.0,510.0
497.0,522.0,499.0,517.0
506.0,514.0,495.0,526.0
503.0,504.0,493.0,527.0
499.0,507.0,497.0,529.0
502.0,504.0,499.0,524.0
496.0,479.0,502.0,522.0
494.0,497.0,508.0,515.0
500.0,525.0,515.0,507.0
509.0,535.0,521.0,507.0
516.0,540.0,523.0,504.0
517.0,552.0,525.0,502.0
504.0,538.0,524.0,497.0
506.0,494.0,522.0,500.0
503.0,489.0,520.0,500.0
508.0,498.0,511.0,508.0
515.0,495.0,510.0,514.0
517.0,473.0,505.0,517.0
523.0,480.0,501.0,523.0
517.0,477.0,500.0,528.0
505.0,476.0,496.0,531.0
508.0,483.0,501.0,532.0
494.0,485.0,503.0,527.0
494.0,494.0,510.0,523.0
499.0,501.0,512.0,518.0
502.0,510.0,519.0,516.0
505.0,511.0,523.0,505.0
511.0,512.0,525.0,502.0
513.0,525.0,526.0,500.0
515.0,525.0,524.0,501.0
514.0,527.0,523.0,502.0
519.0,525.0,518.0,506.0
515.0,523.0,513.0,511.0
520.0,513.0,506.0,518.0
518.0,501.0,503.0,520.0
510.0,480.0,499.0,520.0
519.0,463.0,497.0,526.0
505.0,461.0,496.0,526.0
509.0,469.0,501.0,527.0
498.0,471.0,498.0,526.0
498.0,486.0,509.0,522.0
506.0,504.0,517.0,515.0
508.0,510.0,525.0,512.0
510.0,519.0,529.0,507.0
520.0,529.0,532.0,505.0
514.0,528.0,527.0,506.0
507.0,534.0,524.0,505.0
510.0,531.0,522.0,505.0
516.0,533.0,517.0,509.0
516.0,521.0,512.0,513.0
525.0,513.0,510.0,517.0
521.0,500.0,504.0,522.0
524.0,496.0,499.0,522.0
525.0,486.0,491.0,524.0
518.0,477.0,492.0,523.0
503.0,470.0,495.0,524.0
492.0,476.0,502.0,517.0
497.0,479.0,509.0,514.0
498.0,489.0,518.0,512.0
501.0,509.0,522.0,509.0
509.0,518.0,528.0,506.0
517.0,526.0,525.0,502.0
511.0,529.0,529.0,506.0
517.0,529.0,523.0,506.0
512.0,523.0,519.0,503.0
514.0,513.0,522.0,505.0
518.0,507.0,501.0,511.0
524.0,493.0,500.0,517.0
532.0,484.0,501.0,524.0
529.0,478.0,497.0,530.0
517.0,454.0,495.0,533.0
514.0,466.0,500.0,534.0
496.0,475.0,503.0,530.0
495.0,495.0,507.0,522.0
498.0,501.0,513.0,517.0
499.0,504.0,519.0,507.0
504.0,518.0,523.0,504.0
519.0,517.0,523.0,502.0
524.0,517.0,521.0,503.0
524.0,517.0,521.0,499.0
520.0,514.0,519.0,500.0
513.0,514.0,514.0,502.0
520.0,544.0,510.0,506.0
528.0,555.0,505.0,511.0
519.0,550.0,503.0,517.0
512.0,526.0,502.0,521.0
523.0,519.0,499.0,525.0
509.0,488.0,497.0,526.0
496.0,482.0,499.0,525.0
480.0,473.0,504.0,518.0
484.0,479.0,508.0,514.0
494.0,483.0,515.0,513.0
499.0,504.0,520.0,507.0
497.0,493.0,521.0,506.0
509.0,512.0,523.0,499.0
505.0,506.0,520.0,497.0
509.0,516.0,518.0,497.0
516.0,501.0,513.0,496.0
513.0,499.0,512.0,502.0
519.0,509.0,507.0,507.0
519.0,524.0,505.0,513.0
519.0,524.0,503.0,520.0
525.0,515.0,503.0,524.0
525.0,506.0,502.0,526.0
523.0,509.0,496.0,520.0
515.0,470.0,497.0,519.0
497.0,446.0,501.0,522.0
490.0,465.0,512.0,513.0
494.0,503.0,527.0,512.0
503.0,537.0,527.0,507.0
504.0,534.0,529.0,504.0
516.0,531.0,529.0,502.0
504.0,515.0,523.0,493.0
499.0,522.0,517.0,491.0
506.0,548.0,509.0,498.0
512.0,540.0,508.0,498.0
519.0,527.0,502.0,501.0
527.0,521.0,499.0,509.0
529.0,503.0,494.0,512.0
527.0,474.0,492.0,515.0
514.0,458.0,489.0,519.0
516.0,466.0,492.0,519.0
512.0,464.0,498.0,518.0
503.0,447.0,500.0,514.0
510.0,469.0,508.0,508.0
511.0,500.0,514.0,503.0
508.0,507.0,518.0,499.0
512.0,521.0,521.0,497.0
511.0,528.0,520.0,498.0
516.0,522.0,523.0,498.0
510.0,522.0,514.0,500.0
508.0,524.0,514.0,502.0
512.0,541.0,511.0,506.0
517.0,555.0,510.0,513.0
528.0,534.0,509.0,517.0
518.0,500.0,503.0,521.0
521.0,474.0,501.0,523.0
518.0,469.0,496.0,513.0
514.0,459.0,493.0,521.0
493.0,497.0,497.0,516.0
491.0,502.0,499.0,511.0
492.0,485.0,506.0,506.0
506.0,503.0,515.0,501.0
526.0,516.0,520.0,499.0
533.0,524.0,519.0,497.0
512.0,547.0,516.0,498.0
504.0,550.0,517.0,491.0
512.0,539.0,515.0,498.0
506.0,525.0,509.0,498.0
511.0,520.0,508.0,507.0
509.0,495.0,505.0,514.0
515.0,501.0,502.0,518.0
524.0,501.0,498.0,528.0
521.0,499.0,499.0,530.0
518.0,496.0,504.0,531.0
511.0,493.0,507.0,531.0
499.0,495.0,512.0,524.0
501.0,493.0,508.0,513.0
496.0,491.0,509.0,506.0
496.0,494.0,508.0,499.0
502.0,506.0,511.0,494.0
512.0,511.0,516.0,496.0
514.0,506.0,518.0,497.0
515.0,525.0,521.0,497.0
513.0,518.0,521.0,501.0
518.0,500.0,516.0,504.0
518.0,476.0,505.0,509.0
521.0,482.0,505.0,515.0
513.0,481.0,500.0,521.0
518.0,470.0,498.0,525.0
515.0,474.0,500.0,532.0
515.0,511.0,497.0,529.0
495.0,487.0,497.0,518.0
488.0,490.0,502.0,514.0
505.0,507.0,505.0,503.0
501.0,500.0,510.0,504.0
509.0,515.0,517.0,504.0
519.0,548.0,519.0,494.0
521.0,557.0,523.0,500.0
516.0,574.0,527.0,500.0
509.0,566.0,526.0,497.0
498.0,505.0,522.0,502.0
503.0,472.0,513.0,500.0
522.0,512.0,502.0,503.0
529.0,517.0,495.0,507.0
526.0,494.0,491.0,513.0
518.0,502.0,491.0,518.0
501.0,464.0,488.0,521.0
508.0,444.0,489.0,523.0
493.0,431.0,494.0,521.0
494.0,461.0,506.0,518.0
494.0,531.0,517.0,517.0
506.0,535.0,528.0,512.0
509.0,520.0,532.0,515.0
510.0,503.0,536.0,512.0
515.0,496.0,530.0,508.0
515.0,534.0,520.0,501.0
522.0,533.0,507.0,494.0
527.0,511.0,503.0,492.0
524.0,504.0,498.0,497.0
529.0,488.0,501.0,508.0
528.0,486.0,504.0,517.0
528.0,485.0,499.0,520.0
519.0,486.0,499.0,521.0
501.0,516.0,494.0,519.0
502.0,494.0,494.0,514.0
496.0,494.0,496.0,510.0
486.0,516.0,504.0,508.0
497.0,515.0,511.0,506.0
514.0,515.0,518.0,506.0
522.0,524.0,526.0,502.0
527.0,539.0,526.0,498.0
519.0,537.0,515.0,496.0
520.0,527.0,516.0,500.0
509.0,523.0,514.0,504.0
505.0,533.0,504.0,504.0
511.0,523.0,505.0,507.0
520.0,518.0,507.0,514.0
523.0,500.0,506.0,523.0
513.0,484.0,502.0,533.0
498.0,455.0,507.0,532.0
504.0,459.0,505.0,528.0
500.0,451.0,503.0,523.0
495.0,455.0,500.0,511.0
495.0,487.0,503.0,502.0
495.0,511.0,511.0,503.0
500.0,516.0,524.0,506.0
497.0,504.0,528.0,506.0
515.0,549.0,527.0,512.0
512.0,540.0,525.0,511.0
510.0,545.0,522.0,510.0
508.0,525.0,514.0,507.0
513.0,519.0,514.0,512.0
517.0,515.0,510.0,514.0
522.0,507.0,514.0,519.0
521.0,492.0,506.0,519.0
523.0,502.0,499.0,515.0
512.0,487.0,492.0,513.0
514.0,479.0,486.0,511.0
494.0,483.0,489.0,512.0
493.0,479.0,496.0,508.0
498.0,486.0,512.0,506.0
512.0,506.0,515.0,506.0
520.0,520.0,517.0,502.0
525.0,509.0,519.0,497.0
518.0,506.0,513.0,494.0
513.0,498.0,515.0,496.0
514.0,498.0,514.0,500.0
518.0,514.0,512.0,502.0
518.0,507.0,512.0,507.0
521.0,521.0,505.0,511.0
524.0,513.0,504.0,515.0
509.0,501.0,498.0,521.0
500.0,488.0,493.0,521.0
495.0,475.0,495.0,520.0
498.0,466.0,494.0,522.0
487.0,471.0,505.0,523.0
491.0,509.0,512.0,517.0
501.0,506.0,520.0,514.0
503.0,526.0,526.0,508.0
515.0,522.0,524.0,505.0
519.0,531.0,523.0,502.0
515.0,525.0,520.0,501.0
517.0,521.0,519.0,500.0
511.0,519.0,517.0,505.0
513.0,526.0,514.0,509.0
516.0,525.0,511.0,511.0
522.0,518.0,507.0,514.0
524.0,505.0,507.0,521.0
520.0,493.0,501.0,522.0
513.0,488.0,501.0,525.0
513.0,486.0,502.0,525.0
500.0,481.0,502.0,521.0
499.0,478.0,507.0,519.0
500.0,482.0,512.0,512.0
499.0,473.0,519.0,511.0
507.0,490.0,525.0,508.0
519.0,514.0,526.0,506.0
517.0,542.0,524.0,505.0
509.0,532.0,522.0,501.0
514.0,516.0,521.0,502.0
501.0,476.0,520.0,506.0
509.0,517.0,518.0,510.0
523.0,521.0,511.0,514.0
540.0,543.0,503.0,516.0
541.0,557.0,497.0,519.0
543.0,529.0,496.0,520.0
493.0,461.0,497.0,523.0
483.0,429.0,498.0,524.0
495.0,473.0,503.0,522.0
492.0,487.0,506.0,520.0
498.0,491.0,514.0,512.0
506.0,517.0,521.0,510.0
512.0,520.0,528.0,507.0
513.0,512.0,524.0,504.0
517.0,510.0,520.0,502.0
522.0,522.0,518.0,502.0
517.0,526.0,517.0,505.0
518.0,522.0,516.0,514.0
517.0,506.0,516.0,516.0
512.0,484.0,518.0,524.0
510.0,463.0,518.0,539.0
509.0,463.0,516.0,539.0
519.0,492.0,508.0,534.0
521.0,488.0,499.0,522.0
523.0,496.0,498.0,521.0
514.0,488.0,504.0,519.0
507.0,485.0,512.0,517.0
495.0,483.0,523.0,516.0
489.0,526.0,526.0,514.0
501.0,566.0,522.0,509.0
507.0,563.0,523.0,503.0
498.0,504.0,522.0,497.0
503.0,527.0,521.0,497.0
508.0,517.0,511.0,493.0
516.0,508.0,505.0,496.0
519.0,494.0,500.0,499.0
525.0,493.0,494.0,503.0
528.0,499.0,491.0,509.0
527.0,491.0,490.0,513.0
522.0,487.0,494.0,515.0
514.0,480.0,493.0,517.0
495.0,471.0,498.0,516.0
481.0,468.0,504.0,517.0
487.0,458.0,509.0,516.0
489.0,488.0,518.0,506.0
499.0,519.0,518.0,502.0
499.0,527.0,520.0,497.0
509.0,544.0,524.0,500.0
508.0,538.0,524.0,502.0
507.0,527.0,532.0,504.0
508.0,516.0,518.0,502.0
517.0,515.0,509.0,502.0
521.0,528.0,510.0,504.0
527.0,524.0,513.0,514.0
527.0,502.0,499.0,522.0
523.0,495.0,494.0,525.0
501.0,473.0,497.0,527.0
506.0,484.0,499.0,526.0
499.0,481.0,507.0,522.0
500.0,489.0,513.0,521.0
504.0,504.0,520.0,514.0
504.0,515.0,522.0,512.0
509.0,517.0,520.0,506.0
519.0,533.0,524.0,502.0
510.0,521.0,524.0,499.0
514.0,523.0,524.0,498.0
515.0,522.0,530.0,501.0
516.0,518.0,521.0,504.0
511.0,508.0,518.0,507.0
516.0,516.0,507.0,516.0
520.0,508.0,502.0,519.0
524.0,491.0,502.0,524.0
525.0,485.0,499.0,523.0
511.0,471.0,500.0,525.0
506.0,475.0,502.0,525.0
494.0,484.0,504.0,522.0
495.0,496.0,512.0,517.0
498.0,497.0,519.0,513.0
503.0,508.0,528.0,507.0
506.0,516.0,527.0,504.0
515.0,529.0,523.0,497.0
514.0,523.0,521.0,500.0
515.0,522.0,521.0,501.0
512.0,505.0,518.0,503.0
518.0,503.0,516.0,505.0
519.0,496.0,515.0,511.0
522.0,520.0,505.0,512.0
522.0,516.0,504.0,522.0
519.0,504.0,501.0,522.0
513.0,482.0,500.0,525.0
509.0,483.0,501.0,527.0
497.0,479.0,503.0,525.0
499.0,487.0,508.0,520.0
503.0,495.0,514.0,516.0
507.0,502.0,519.0,507.0
509.0,496.0,522.0,506.0
506.0,507.0,523.0,502.0
512.0,518.0,526.0,499.0
500.0,510.0,522.0,502.0
504.0,526.0,523.0,501.0
507.0,509.0,519.0,504.0
511.0,505.0,514.0,506.0
517.0,516.0,512.0,514.0
523.0,511.0,509.0,518.0
523.0,501.0,505.0,524.0
531.0,487.0,501.0,527.0
510.0,446.0,501.0,524.0
511.0,453.0,501.0,525.0
495.0,450.0,505.0,525.0
496.0,489.0,511.0,522.0
497.0,531.0,517.0,517.0
511.0,529.0,523.0,510.0
515.0,550.0,528.0,509.0
524.0,568.0,530.0,510.0
525.0,567.0,530.0,509.0
529.0,555.0,529.0,507.0
508.0,474.0,527.0,505.0
505.0,446.0,520.0,502.0
519.0,460.0,512.0,504.0
511.0,478.0,511.0,512.0
509.0,532.0,504.0,521.0
507.0,539.0,507.0,529.0
512.0,506.0,501.0,528.0
504.0,476.0,497.0,524.0
507.0,478.0,495.0,516.0
494.0,481.0,497.0,510.0
493.0,485.0,506.0,511.0
498.0,498.0,514.0,505.0
503.0,524.0,518.0,502.0
508.0,525.0,520.0,500.0
514.0,534.0,521.0,497.0
512.0,518.0,524.0,498.0
499.0,474.0,511.0,514.0
505.0,488.0,513.0,510.0
513.0,503.0,521.0,506.0
513.0,527.0,522.0,502.0
520.0,535.0,521.0,498.0
514.0,535.0,519.0,499.0
514.0,534.0,521.0,502.0
513.0,530.0,520.0,501.0
516.0,542.0,512.0,507.0
518.0,524.0,511.0,512.0
519.0,501.0,508.0,518.0
524.0,491.0,505.0,520.0
520.0,489.0,502.0,524.0
518.0,486.0,499.0,526.0
515.0,488.0,500.0,526.0
498.0,478.0,502.0,522.0
498.0,488.0,507.0,519.0
499.0,496.0,516.0,514.0
507.0,497.0,519.0,508.0
510.0,505.0,523.0,506.0
516.0,518.0,524.0,502.0
517.0,524.0,523.0,497.0
519.0,519.0,522.0,499.0
509.0,506.0,520.0,499.0
521.0,506.0,513.0,502.0
525.0,502.0,509.0,508.0
526.0,502.0,507.0,513.0
531.0,520.0,504.0,519.0
531.0,527.0,503.0,523.0
519.0,522.0,505.0,528.0
510.0,507.0,503.0,530.0
499.0,461.0,506.0,530.0
494.0,468.0,508.0,526.0
496.0,490.0,513.0,520.0
493.0,486.0,516.0,514.0
497.0,496.0,520.0,508.0
502.0,505.0,521.0,502.0
509.0,512.0,521.0,498.0
510.0,531.0,516.0,496.0
512.0,540.0,517.0,495.0
507.0,529.0,515.0,497.0
508.0,531.0,515.0,504.0
514.0,524.0,510.0,508.0
521.0,516.0,505.0,516.0
525.0,509.0,504.0,518.0
526.0,502.0,501.0,521.0
520.0,493.0,498.0,527.0
513.0,465.0,496.0,523.0
501.0,457.0,505.0,523.0
495.0,469.0,505.0,519.0
502.0,496.0,508.0,517.0
501.0,514.0,519.0,512.0
508.0,511.0,524.0,508.0
511.0,518.0,526.0,504.0
513.0,522.0,528.0,504.0
514.0,519.0,528.0,500.0
510.0,519.0,523.0,499.0
508.0,518.0,515.0,502.0
513.0,519.0,511.0,508.0
520.0,518.0,510.0,507.0
524.0,510.0,507.0,514.0
528.0,497.0,501.0,521.0
526.0,490.0,499.0,522.0
523.0,483.0,497.0,525.0
517.0,486.0,502.0,524.0
501.0,478.0,505.0,522.0
493.0,479.0,511.0,521.0
493.0,491.0,516.0,514.0
502.0,483.0,519.0,507.0
507.0,497.0,518.0,501.0
513.0,507.0,519.0,497.0
517.0,526.0,519.0,497.0
511.0,539.0,521.0,497.0
503.0,529.0,518.0,499.0
508.0,524.0,517.0,503.0
514.0,519.0,513.0,508.0
520.0,517.0,512.0,515.0
526.0,503.0,512.0,520.0
523.0,490.0,512.0,529.0
526.0,490.0,506.0,527.0
521.0,485.0,499.0,527.0
519.0,486.0,498.0,520.0
498.0,476.0,498.0,517.0
499.0,488.0,506.0,516.0
497.0,503.0,510.0,512.0
502.0,505.0,516.0,510.0
507.0,514.0,520.0,504.0
513.0,532.0,526.0,501.0
513.0,529.0,521.0,495.0
511.0,523.0,522.0,497.0
511.0,530.0,520.0,498.0
515.0,534.0,510.0,503.0
513.0,536.0,508.0,507.0
518.0,523.0,500.0,512.0
521.0,499.0,501.0,518.0
518.0,469.0,499.0,520.0
520.0,477.0,503.0,522.0
514.0,474.0,501.0,525.0
500.0,471.0,506.0,525.0
493.0,473.0,508.0,521.0
492.0,484.0,516.0,519.0
501.0,497.0,515.0,513.0
507.0,511.0,519.0,508.0
515.0,528.0,523.0,504.0
523.0,534.0,524.0,502.0
520.0,530.0,528.0,503.0
511.0,526.0,524.0,501.0
506.0,521.0,519.0,504.0
511.0,515.0,512.0,505.0
515.0,509.0,508.0,506.0
514.0,506.0,504.0,515.0
520.0,496.0,504.0,520.0
520.0,492.0,498.0,522.0
515.0,488.0,500.0,520.0
515.0,488.0,497.0,519.0
498.0,474.0,500.0,519.0
496.0,477.0,507.0,516.0
499.0,496.0,510.0,514.0
507.0,503.0,516.0,514.0
515.0,513.0,522.0,508.0
518.0,526.0,522.0,499.0
520.0,523.0,521.0,498.0
509.0,504.0,519.0,496.0
508.0,517.0,517.0,497.0
510.0,529.0,515.0,500.0
516.0,519.0,510.0,509.0
517.0,513.0,508.0,509.0
520.0,504.0,504.0,513.0
522.0,491.0,499.0,518.0
520.0,485.0,501.0,522.0
511.0,474.0,505.0,527.0
502.0,478.0,503.0,527.0
498.0,485.0,507.0,522.0
497.0,486.0,510.0,514.0
499.0,485.0,514.0,512.0
504.0,506.0,519.0,508.0
510.0,510.0,521.0,504.0
514.0,515.0,523.0,499.0
517.0,522.0,524.0,499.0
517.0,544.0,522.0,501.0
510.0,523.0,520.0,502.0
510.0,513.0,516.0,506.0
517.0,518.0,515.0,505.0
523.0,501.0,507.0,511.0
523.0,484.0,504.0,520.0
524.0,481.0,504.0,524.0
522.0,502.0,499.0,530.0
511.0,490.0,504.0,528.0
499.0,480.0,503.0,526.0
495.0,483.0,508.0,521.0
498.0,480.0,517.0,518.0
506.0,494.0,520.0,511.0
509.0,517.0,521.0,506.0
512.0,523.0,522.0,504.0
516.0,534.0,521.0,498.0
511.0,550.0,522.0,498.0
512.0,547.0,516.0,496.0
517.0,544.0,513.0,500.0
517.0,540.0,512.0,503.0
513.0,492.0,507.0,510.0
515.0,487.0,506.0,514.0
518.0,491.0,503.0,521.0
520.0,483.0,499.0,523.0
517.0,489.0,496.0,522.0
509.0,480.0,499.0,524.0
493.0,480.0,503.0,524.0
500.0,494.0,507.0,520.0
496.0,501.0,513.0,516.0
504.0,499.0,517.0,511.0
508.0,501.0,522.0,507.0
510.0,516.0,523.0,502.0
515.0,523.0,524.0,498.0
514.0,534.0,521.0,496.0
512.0,531.0,521.0,499.0
509.0,516.0,520.0,500.0
510.0,513.0,511.0,506.0
516.0,507.0,504.0,512.0
521.0,501.0,501.0,517.0
521.0,498.0,503.0,523.0
525.0,493.0,503.0,526.0
519.0,486.0,505.0,530.0
512.0,488.0,504.0,529.0
500.0,476.0,506.0,525.0
495.0,471.0,512.0,517.0
504.0,481.0,515.0,510.0
501.0,500.0,516.0,509.0
515.0,512.0,520.0,499.0
516.0,524.0,522.0,497.0
517.0,532.0,522.0,496.0
513.0,531.0,521.0,499.0
510.0,529.0,514.0,499.0
510.0,526.0,510.0,502.0
515.0,522.0,513.0,505.0
522.0,518.0,511.0,515.0
522.0,498.0,508.0,515.0
519.0,476.0,505.0,518.0
518.0,483.0,502.0,524.0
513.0,475.0,501.0,522.0
502.0,470.0,499.0,525.0
492.0,480.0,505.0,518.0
492.0,482.0,510.0,515.0
499.0,490.0,515.0,508.0
506.0,500.0,523.0,507.0
507.0,510.0,527.0,502.0
516.0,521.0,527.0,503.0
519.0,521.0,522.0,494.0
513.0,520.0,520.0,496.0
509.0,527.0,518.0,500.0
517.0,517.0,513.0,503.0
512.0,518.0,511.0,508.0
520.0,510.0,507.0,513.0
524.0,496.0,504.0,519.0
524.0,505.0,498.0,520.0
521.0,499.0,497.0,522.0
516.0,486.0,496.0,521.0
503.0,477.0,501.0,520.0
501.0,479.0,509.0,517.0
500.0,498.0,514.0,516.0
504.0,524.0,516.0,504.0
513.0,530.0,520.0,504.0
522.0,526.0,520.0,500.0
515.0,511.0,522.0,500.0
510.0,509.0,521.0,498.0
507.0,517.0,520.0,501.0
507.0,512.0,516.0,506.0
507.0,521.0,513.0,505.0
511.0,519.0,509.0,512.0
519.0,498.0,504.0,515.0
519.0,482.0,504.0,522.0
521.0,497.0,500.0,521.0
514.0,486.0,499.0,524.0
512.0,479.0,500.0,524.0
504.0,487.0,506.0,522.0
500.0,485.0,507.0,519.0
495.0,500.0,514.0,514.0
502.0,525.0,516.0,512.0
506.0,525.0,521.0,505.0
517.0,535.0,523.0,504.0
523.0,528.0,524.0,505.0
525.0,537.0,523.0,504.0
519.0,539.0,519.0,498.0
521.0,528.0,512.0,502.0
514.0,508.0,510.0,504.0
510.0,499.0,505.0,511.0
514.0,499.0,502.0,512.0
514.0,488.0,499.0,518.0
512.0,483.0,498.0,525.0
507.0,467.0,499.0,524.0
501.0,458.0,502.0,525.0
495.0,467.0,508.0,520.0
496.0,478.0,513.0,517.0
502.0,505.0,517.0,511.0
511.0,530.0,519.0,506.0
508.0,531.0,523.0,503.0
514.0,537.0,525.0,501.0
516.0,529.0,523.0,499.0
514.0,521.0,521.0,501.0
510.0,528.0,519.0,501.0
510.0,524.0,514.0,506.0
519.0,524.0,510.0,510.0
525.0,518.0,509.0,517.0
522.0,508.0,503.0,521.0
521.0,492.0,502.0,523.0
513.0,460.0,496.0,524.0
512.0,461.0,497.0,520.0
500.0,455.0,499.0,522.0
502.0,478.0,503.0,517.0
501.0,499.0,511.0,515.0
500.0,509.0,521.0,509.0
505.0,518.0,518.0,500.0
509.0,520.0,523.0,500.0
514.0,531.0,521.0,501.0
513.0,531.0,522.0,500.0
507.0,516.0,520.0,500.0
508.0,516.0,514.0,503.0
513.0,516.0,512.0,506.0
517.0,510.0,509.0,510.0
523.0,510.0,509.0,518.0
523.0,492.0,506.0,519.0
522.0,486.0,503.0,524.0
518.0,478.0,499.0,525.0
511.0,475.0,499.0,522.0
493.0,484.0,502.0,521.0
493.0,494.0,508.0,519.0
497.0,500.0,512.0,515.0
499.0,506.0,517.0,510.0
513.0,524.0,519.0,506.0
522.0,534.0,521.0,501.0
525.0,535.0,525.0,500.0
522.0,539.0,523.0,503.0
519.0,513.0,521.0,501.0
514.0,497.0,516.0,505.0
515.0,510.0,510.0,508.0
521.0,509.0,507.0,515.0
517.0,498.0,507.0,520.0
510.0,484.0,503.0,524.0
515.0,480.0,495.0,523.0
507.0,477.0,497.0,520.0
502.0,471.0,497.0,519.0
499.0,478.0,501.0,519.0
503.0,484.0,508.0,515.0
507.0,491.0,514.0,509.0
511.0,504.0,521.0,504.0
516.0,522.0,522.0,503.0
518.0,532.0,522.0,500.0
514.0,531.0,522.0,499.0
502.0,528.0,525.0,504.0
498.0,517.0,515.0,507.0
505.0,523.0,513.0,501.0
514.0,516.0,510.0,509.0
520.0,518.0,508.0,514.0
522.0,502.0,504.0,518.0
521.0,492.0,501.0,525.0
519.0,485.0,503.0,523.0
514.0,490.0,501.0,522.0
499.0,484.0,503.0,522.0
496.0,486.0,508.0,519.0
497.0,491.0,512.0,517.0
507.0,495.0,520.0,511.0
509.0,506.0,522.0,506.0
512.0,513.0,528.0,501.0
515.0,522.0,525.0,507.0
513.0,524.0,526.0,503.0
516.0,529.0,525.0,503.0
520.0,532.0,518.0,509.0
517.0,533.0,511.0,505.0
513.0,529.0,507.0,509.0
518.0,501.0,506.0,514.0
515.0,488.0,503.0,520.0
520.0,479.0,501.0,523.0
514.0,479.0,499.0,523.0
508.0,473.0,504.0,524.0
496.0,462.0,505.0,522.0
492.0,481.0,510.0,520.0
494.0,482.0,513.0,510.0
500.0,500.0,518.0,504.0
508.0,517.0,523.0,503.0
517.0,525.0,522.0,501.0
519.0,526.0,520.0,498.0
519.0,542.0,522.0,500.0
512.0,526.0,518.0,500.0
512.0,503.0,514.0,502.0
512.0,503.0,514.0,509.0
517.0,505.0,508.0,518.0
522.0,506.0,507.0,517.0
519.0,502.0,505.0,519.0
524.0,492.0,500.0,527.0
519.0,490.0,502.0,527.0
510.0,488.0,502.0,527.0
500.0,494.0,507.0,524.0
502.0,506.0,509.0,515.0
498.0,518.0,517.0,513.0
504.0,522.0,524.0,507.0
501.0,476.0,526.0,505.0
508.0,499.0,529.0,503.0
511.0,505.0,527.0,497.0
511.0,510.0,525.0,501.0
506.0,521.0,518.0,502.0
512.0,528.0,514.0,505.0
517.0,525.0,505.0,508.0
520.0,514.0,506.0,515.0
522.0,502.0,500.0,523.0
519.0,494.0,501.0,524.0
516.0,490.0,500.0,525.0
510.0,483.0,503.0,525.0
502.0,472.0,507.0,523.0
501.0,478.0,513.0,525.0
502.0,490.0,516.0,517.0
507.0,500.0,518.0,511.0
511.0,511.0,518.0,505.0
513.0,514.0,520.0,506.0
517.0,518.0,522.0,501.0
518.0,530.0,521.0,505.0
509.0,539.0,521.0,504.0
503.0,536.0,518.0,501.0
507.0,526.0,514.0,507.0
515.0,509.0,510.0,508.0
516.0,501.0,503.0,512.0
517.0,487.0,499.0,518.0
521.0,492.0,500.0,522.0
518.0,502.0,496.0,523.0
507.0,491.0,499.0,523.0
498.0,488.0,503.0,523.0
497.0,488.0,509.0,518.0
498.0,492.0,513.0,513.0
503.0,498.0,518.0,509.0
506.0,506.0,519.0,504.0
516.0,511.0,525.0,502.0
519.0,525.0,523.0,501.0
519.0,520.0,522.0,499.0
512.0,512.0,523.0,500.0
509.0,512.0,519.0,505.0
514.0,527.0,511.0,511.0
520.0,530.0,508.0,513.0
523.0,518.0,506.0,517.0
522.0,500.0,501.0,523.0
522.0,488.0,504.0,526.0
516.0,480.0,507.0,528.0
506.0,477.0,504.0,528.0
497.0,479.0,505.0,527.0
497.0,488.0,510.0,515.0
498.0,491.0,517.0,510.0
503.0,522.0,518.0,505.0
508.0,518.0,525.0,503.0
517.0,533.0,526.0,502.0
516.0,533.0,520.0,503.0
517.0,525.0,517.0,498.0
510.0,519.0,518.0,502.0
508.0,501.0,516.0,508.0
514.0,496.0,512.0,510.0
524.0,496.0,510.0,512.0
523.0,494.0,504.0,517.0
531.0,486.0,497.0,518.0
528.0,479.0,502.0,520.0
520.0,477.0,496.0,525.0
501.0,480.0,496.0,520.0
499.0,484.0,505.0,517.0
495.0,496.0,513.0,513.0
497.0,507.0,519.0,509.0
509.0,521.0,522.0,505.0
515.0,526.0,525.0,501.0
522.0,526.0,520.0,500.0
511.0,522.0,521.0,499.0
508.0,513.0,523.0,502.0
505.0,503.0,520.0,505.0
512.0,511.0,516.0,511.0
512.0,506.0,512.0,514.0
520.0,515.0,505.0,516.0
520.0,514.0,501.0,519.0
517.0,506.0,497.0,522.0
514.0,491.0,499.0,521.0
509.0,485.0,501.0,523.0
497.0,473.0,503.0,523.0
498.0,479.0,511.0,519.0
498.0,498.0,516.0,512.0
508.0,502.0,518.0,507.0
508.0,517.0,519.0,502.0
513.0,522.0,522.0,501.0
513.0,527.0,523.0,499.0
514.0,528.0,523.0,500.0
513.0,523.0,522.0,501.0
514.0,518.0,517.0,503.0
518.0,510.0,517.0,506.0
521.0,506.0,510.0,515.0
521.0,496.0,506.0,522.0
522.0,477.0,503.0,525.0
522.0,480.0,502.0,525.0
517.0,474.0,502.0,526.0
508.0,485.0,500.0,525.0
501.0,489.0,502.0,521.0
503.0,503.0,510.0,516.0
499.0,519.0,515.0,512.0
498.0,498.0,521.0,507.0
499.0,495.0,524.0,502.0
511.0,514.0,525.0,501.0
512.0,515.0,524.0,500.0
507.0,517.0,522.0,502.0
506.0,508.0,516.0,502.0
513.0,516.0,512.0,505.0
513.0,508.0,510.0,509.0
518.0,498.0,507.0,516.0
518.0,497.0,504.0,521.0
520.0,482.0,498.0,524.0
516.0,478.0,502.0,527.0
511.0,485.0,503.0,525.0
500.0,480.0,501.0,526.0
498.0,483.0,507.0,521.0
507.0,508.0,515.0,518.0
502.0,519.0,519.0,512.0
511.0,530.0,519.0,508.0
519.0,535.0,522.0,504.0
514.0,525.0,523.0,504.0
514.0,523.0,520.0,499.0
511.0,524.0,519.0,500.0
513.0,521.0,516.0,503.0
514.0,521.0,515.0,508.0
519.0,520.0,516.0,509.0
527.0,513.0,506.0,518.0
528.0,494.0,507.0,524.0
529.0,493.0,502.0,525.0
524.0,486.0,497.0,523.0
515.0,476.0,499.0,525.0
496.0,473.0,504.0,522.0
495.0,487.0,504.0,517.0
495.0,503.0,512.0,517.0
494.0,504.0,517.0,509.0
501.0,508.0,524.0,508.0
508.0,524.0,528.0,511.0
513.0,535.0,530.0,506.0
515.0,525.0,529.0,507.0
516.0,527.0,523.0,507.0
515.0,526.0,513.0,505.0
514.0,511.0,514.0,507.0
520.0,509.0,502.0,510.0
522.0,510.0,501.0,514.0
519.0,504.0,498.0,519.0
521.0,504.0,497.0,524.0
512.0,499.0,500.0,525.0
508.0,488.0,502.0,525.0
499.0,478.0,506.0,521.0
494.0,472.0,512.0,518.0
502.0,485.0,515.0,514.0
506.0,505.0,518.0,505.0
511.0,519.0,520.0,505.0
514.0,532.0,521.0,502.0
518.0,535.0,519.0,499.0
519.0,536.0,519.0,499.0
515.0,523.0,516.0,494.0
512.0,513.0,510.0,503.0
514.0,510.0,510.0,508.0
523.0,505.0,505.0,510.0
524.0,487.0,501.0,517.0
526.0,489.0,494.0,525.0
518.0,486.0,500.0,525.0
516.0,474.0,497.0,523.0
498.0,466.0,500.0,524.0
496.0,474.0,504.0,523.0
500.0,491.0,512.0,517.0
500.0,506.0,518.0,515.0
510.0,517.0,525.0,510.0
506.0,518.0,525.0,504.0
511.0,525.0,525.0,503.0
505.0,525.0,521.0,499.0
511.0,524.0,519.0,501.0
506.0,517.0,518.0,501.0
516.0,514.0,515.0,508.0
517.0,517.0,507.0,507.0
522.0,510.0,502.0,515.0
524.0,503.0,499.0,521.0
518.0,498.0,500.0,524.0
513.0,486.0,499.0,525.0
513.0,487.0,499.0,523.0
500.0,464.0,505.0,524.0
498.0,464.0,510.0,519.0
502.0,486.0,519.0,515.0
505.0,501.0,514.0,504.0
509.0,510.0,520.0,504.0
507.0,529.0,521.0,501.0
511.0,530.0,522.0,499.0
515.0,528.0,524.0,499.0
514.0,527.0,518.0,501.0
512.0,521.0,516.0,502.0
513.0,519.0,514.0,509.0
514.0,518.0,509.0,514.0
512.0,520.0,505.0,519.0
518.0,513.0,504.0,523.0
522.0,509.0,502.0,527.0
511.0,487.0,499.0,526.0
511.0,484.0,502.0,523.0
498.0,482.0,505.0,521.0
494.0,481.0,511.0,512.0
498.0,480.0,515.0,508.0
504.0,503.0,517.0,509.0
508.0,508.0,519.0,505.0
514.0,518.0,524.0,503.0
515.0,518.0,527.0,500.0
515.0,527.0,521.0,500.0
512.0,524.0,520.0,502.0
513.0,516.0,518.0,508.0
515.0,517.0,514.0,513.0
522.0,515.0,510.0,518.0
516.0,486.0,504.0,521.0
514.0,490.0,499.0,522.0
518.0,502.0,500.0,522.0
513.0,504.0,502.0,525.0
499.0,480.0,502.0,525.0
497.0,480.0,506.0,519.0
499.0,489.0,512.0,515.0
502.0,502.0,518.0,514.0
509.0,512.0,520.0,508.0
510.0,519.0,526.0,504.0
514.0,524.0,522.0,502.0
512.0,524.0,522.0,502.0
515.0,537.0,519.0,500.0
511.0,534.0,518.0,503.0
516.0,530.0,517.0,504.0
521.0,520.0,513.0,508.0
526.0,500.0,507.0,514.0
519.0,497.0,506.0,522.0
523.0,500.0,502.0,523.0
513.0,484.0,500.0,524.0
512.0,481.0,501.0,524.0
497.0,475.0,509.0,525.0
497.0,482.0,515.0,522.0
497.0,486.0,517.0,513.0
506.0,496.0,520.0,506.0
510.0,509.0,518.0,504.0
508.0,514.0,524.0,502.0
514.0,521.0,517.0,499.0
512.0,523.0,518.0,495.0
509.0,518.0,520.0,498.0
509.0,516.0,515.0,502.0
514.0,515.0,514.0,507.0
518.0,514.0,511.0,512.0
520.0,512.0,507.0,517.0
518.0,497.0,506.0,524.0
520.0,491.0,500.0,525.0
515.0,486.0,498.0,523.0
513.0,482.0,496.0,516.0
501.0,480.0,500.0,514.0
504.0,494.0,507.0,512.0
509.0,507.0,512.0,511.0
509.0,514.0,520.0,503.0
506.0,509.0,522.0,503.0
509.0,514.0,522.0,500.0
510.0,526.0,520.0,498.0
510.0,518.0,522.0,499.0
513.0,524.0,519.0,500.0
507.0,524.0,517.0,506.0
513.0,517.0,514.0,509.0
519.0,508.0,514.0,517.0
523.0,499.0,505.0,519.0
526.0,488.0,500.0,519.0
520.0,482.0,501.0,527.0
511.0,477.0,503.0,526.0
499.0,476.0,502.0,527.0
496.0,487.0,503.0,518.0
496.0,493.0,511.0,512.0
496.0,495.0,516.0,507.0
508.0,509.0,521.0,506.0
514.0,518.0,524.0,502.0
515.0,526.0,525.0,501.0
516.0,528.0,522.0,499.0
514.0,526.0,521.0,498.0
509.0,519.0,515.0,501.0
518.0,510.0,511.0,505.0
524.0,508.0,508.0,509.0
529.0,510.0,507.0,515.0
534.0,503.0,500.0,523.0
530.0,490.0,500.0,526.0
514.0,473.0,498.0,522.0
509.0,474.0,500.0,525.0
496.0,459.0,503.0,526.0
493.0,459.0,508.0,518.0
493.0,473.0,517.0,517.0
496.0,500.0,519.0,511.0
505.0,532.0,524.0,506.0
504.0,562.0,525.0,503.0
512.0,546.0,522.0,502.0
514.0,529.0,522.0,500.0
510.0,528.0,523.0,502.0
507.0,521.0,517.0,504.0
507.0,518.0,514.0,509.0
519.0,510.0,508.0,513.0
520.0,507.0,505.0,516.0
520.0,507.0,499.0,520.0
523.0,499.0,502.0,523.0
515.0,484.0,504.0,522.0
511.0,481.0,502.0,523.0
498.0,485.0,507.0,523.0
497.0,487.0,504.0,514.0
501.0,497.0,513.0,510.0
504.0,515.0,521.0,509.0
512.0,519.0,525.0,506.0
519.0,529.0,523.0,505.0
521.0,529.0,522.0,505.0
514.0,527.0,520.0,497.0
508.0,521.0,514.0,496.0
514.0,523.0,514.0,502.0
517.0,517.0,508.0,506.0
524.0,516.0,503.0,509.0
522.0,502.0,500.0,516.0
522.0,487.0,501.0,522.0
520.0,481.0,497.0,525.0
514.0,483.0,497.0,524.0
500.0,470.0,504.0,525.0
499.0,479.0,510.0,524.0
500.0,490.0,511.0,514.0
502.0,505.0,517.0,507.0
501.0,517.0,522.0,505.0
499.0,517.0,523.0,503.0
505.0,529.0,526.0,501.0
507.0,529.0,522.0,497.0
514.0,527.0,516.0,496.0
508.0,523.0,516.0,501.0
511.0,520.0,511.0,511.0
514.0,515.0,510.0,509.0
524.0,513.0,501.0,516.0
523.0,497.0,502.0,520.0
521.0,475.0,504.0,527.0
515.0,476.0,500.0,526.0
509.0,464.0,502.0,530.0
496.0,455.0,505.0,523.0
493.0,468.0,506.0,521.0
498.0,490.0,514.0,512.0
507.0,506.0,518.0,511.0
508.0,511.0,524.0,506.0
512.0,534.0,527.0,501.0
515.0,531.0,526.0,500.0
514.0,529.0,521.0,498.0
510.0,526.0,518.0,502.0
508.0,523.0,517.0,503.0
517.0,524.0,511.0,510.0
525.0,516.0,510.0,513.0
526.0,504.0,506.0,515.0
523.0,497.0,503.0,520.0
522.0,493.0,500.0,525.0
509.0,484.0,502.0,524.0
508.0,482.0,502.0,524.0
499.0,475.0,505.0,525.0
497.0,479.0,512.0,516.0
497.0,492.0,516.0,514.0
503.0,502.0,520.0,508.0
516.0,517.0,524.0,503.0
520.0,527.0,522.0,499.0
521.0,526.0,521.0,496.0
517.0,525.0,521.0,497.0
511.0,520.0,519.0,500.0
513.0,509.0,514.0,505.0
514.0,514.0,514.0,507.0
519.0,512.0,514.0,512.0
526.0,512.0,507.0,518.0
523.0,504.0,508.0,523.0
519.0,488.0,504.0,525.0
512.0,482.0,498.0,519.0
502.0,481.0,500.0,523.0
489.0,476.0,505.0,519.0
496.0,483.0,512.0,513.0
500.0,496.0,517.0,511.0
511.0,509.0,522.0,506.0
511.0,511.0,525.0,503.0
515.0,519.0,522.0,498.0
513.0,519.0,519.0,496.0
501.0,522.0,519.0,496.0
492.0,521.0,517.0,499.0
498.0,528.0,514.0,505.0
502.0,529.0,511.0,511.0
521.0,518.0,505.0,510.0
525.0,503.0,505.0,518.0
534.0,492.0,503.0,523.0
529.0,485.0,497.0,522.0
519.0,477.0,505.0,522.0
501.0,468.0,511.0,522.0
493.0,473.0,509.0,522.0
500.0,489.0,512.0,515.0
507.0,505.0,519.0,508.0
507.0,516.0,522.0,505.0
510.0,518.0,523.0,502.0
517.0,522.0,524.0,496.0
517.0,533.0,523.0,500.0
512.0,532.0,521.0,497.0
509.0,530.0,516.0,507.0
512.0,527.0,513.0,506.0
524.0,519.0,509.0,510.0
523.0,516.0,506.0,516.0
517.0,472.0,503.0,523.0
517.0,483.0,502.0,526.0
513.0,484.0,501.0,525.0
510.0,477.0,502.0,524.0
495.0,471.0,503.0,519.0
496.0,478.0,509.0,516.0
501.0,496.0,514.0,512.0
503.0,506.0,522.0,506.0
508.0,517.0,525.0,508.0
509.0,530.0,528.0,506.0
513.0,530.0,527.0,504.0
512.0,534.0,526.0,502.0
502.0,528.0,523.0,504.0
495.0,518.0,521.0,509.0
502.0,507.0,517.0,513.0
509.0,507.0,510.0,517.0
511.0,502.0,503.0,515.0
511.0,496.0,499.0,517.0
511.0,495.0,494.0,522.0
515.0,483.0,501.0,520.0
515.0,477.0,494.0,520.0
506.0,477.0,506.0,516.0
514.0,482.0,511.0,514.0
510.0,494.0,513.0,512.0
512.0,503.0,521.0,505.0
514.0,511.0,525.0,500.0
519.0,531.0,523.0,502.0
513.0,530.0,522.0,501.0
514.0,525.0,522.0,499.0
506.0,515.0,516.0,498.0
513.0,514.0,509.0,504.0
527.0,524.0,508.0,509.0
527.0,521.0,501.0,517.0
533.0,519.0,503.0,522.0
527.0,507.0,498.0,522.0
519.0,494.0,497.0,521.0
517.0,487.0,498.0,520.0
498.0,460.0,502.0,520.0
494.0,465.0,509.0,517.0
496.0,487.0,512.0,511.0
506.0,491.0,519.0,507.0
507.0,502.0,519.0,509.0
504.0,521.0,522.0,504.0
511.0,512.0,524.0,502.0
518.0,504.0,527.0,503.0
513.0,513.0,523.0,501.0
510.0,521.0,518.0,506.0
513.0,526.0,510.0,504.0
521.0,548.0,503.0,506.0
523.0,521.0,496.0,510.0
514.0,484.0,500.0,519.0
518.0,486.0,499.0,524.0
513.0,495.0,500.0,520.0
505.0,500.0,502.0,525.0
497.0,490.0,506.0,525.0
497.0,498.0,509.0,515.0
501.0,496.0,512.0,507.0
503.0,504.0,515.0,506.0
512.0,518.0,522.0,504.0
514.0,525.0,521.0,499.0
516.0,526.0,523.0,494.0
514.0,529.0,522.0,498.0
513.0,517.0,512.0,495.0
509.0,516.0,514.0,501.0
511.0,519.0,515.0,510.0
517.0,509.0,511.0,512.0
516.0,504.0,510.0,518.0
517.0,501.0,501.0,522.0
516.0,495.0,501.0,525.0
512.0,489.0,500.0,529.0
502.0,480.0,501.0,523.0
495.0,476.0,506.0,521.0
499.0,482.0,514.0,515.0
501.0,502.0,517.0,510.0
507.0,514.0,518.0,508.0
510.0,521.0,526.0,501.0
514.0,531.0,526.0,502.0
513.0,532.0,527.0,500.0
516.0,523.0,525.0,498.0
509.0,518.0,517.0,502.0
511.0,517.0,511.0,498.0
516.0,508.0,509.0,507.0
517.0,498.0,505.0,515.0
530.0,494.0,502.0,519.0
520.0,491.0,499.0,519.0
503.0,483.0,501.0,525.0
497.0,484.0,503.0,532.0
493.0,480.0,503.0,528.0
498.0,485.0,506.0,518.0
494.0,492.0,513.0,514.0
504.0,503.0,522.0,510.0
504.0,509.0,530.0,505.0
522.0,523.0,528.0,502.0
526.0,529.0,525.0,501.0
513.0,526.0,522.0,499.0
505.0,519.0,523.0,502.0
500.0,521.0,513.0,501.0
503.0,513.0,513.0,510.0
512.0,515.0,510.0,513.0
518.0,505.0,507.0,519.0
517.0,490.0,503.0,520.0
521.0,495.0,501.0,528.0
527.0,488.0,500.0,528.0
515.0,483.0,500.0,524.0
495.0,474.0,503.0,519.0
491.0,478.0,508.0,512.0
496.0,492.0,515.0,512.0
499.0,504.0,517.0,513.0
502.0,516.0,521.0,502.0
515.0,521.0,521.0,500.0
521.0,530.0,522.0,498.0
517.0,529.0,521.0,500.0
505.0,527.0,515.0,500.0
515.0,526.0,515.0,504.0
520.0,523.0,510.0,510.0
525.0,502.0,508.0,512.0
524.0,497.0,505.0,525.0
529.0,491.0,504.0,532.0
536.0,492.0,502.0,525.0
524.0,480.0,502.0,520.0
513.0,481.0,506.0,525.0
500.0,479.0,505.0,521.0
502.0,492.0,510.0,513.0
507.0,501.0,517.0,513.0
512.0,503.0,521.0,511.0
513.0,525.0,521.0,506.0
518.0,534.0,522.0,501.0
510.0,532.0,517.0,494.0
508.0,532.0,515.0,492.0
502.0,526.0,520.0,498.0
502.0,512.0,510.0,505.0
508.0,502.0,508.0,514.0
511.0,503.0,509.0,517.0
508.0,496.0,506.0,524.0
521.0,510.0,503.0,526.0
529.0,531.0,503.0,528.0
521.0,514.0,506.0,539.0
503.0,495.0,503.0,522.0
491.0,465.0,499.0,510.0
494.0,468.0,509.0,510.0
499.0,490.0,521.0,509.0
509.0,505.0,525.0,514.0
514.0,505.0,535.0,521.0
520.0,516.0,523.0,506.0
512.0,522.0,513.0,488.0
510.0,530.0,522.0,496.0
517.0,524.0,521.0,509.0
519.0,518.0,511.0,501.0
526.0,516.0,509.0,514.0
528.0,518.0,511.0,514.0
526.0,510.0,501.0,520.0
523.0,497.0,502.0,522.0
511.0,484.0,504.0,531.0
508.0,470.0,504.0,530.0
496.0,466.0,498.0,504.0
498.0,481.0,500.0,502.0
501.0,494.0,516.0,515.0
505.0,507.0,520.0,516.0
511.0,517.0,527.0,518.0
512.0,521.0,535.0,529.0
512.0,522.0,525.0,537.0
510.0,517.0,518.0,511.0
507.0,523.0,509.0,479.0
511.0,523.0,517.0,497.0
511.0,523.0,521.0,535.0
518.0,528.0,509.0,510.0
521.0,520.0,498.0,510.0
522.0,508.0,500.0,521.0
518.0,485.0,505.0,522.0
514.0,474.0,503.0,522.0
509.0,481.0,504.0,521.0
496.0,474.0,507.0,524.0
493.0,482.0,512.0,514.0
493.0,493.0,508.0,496.0
504.0,515.0,515.0,493.0
507.0,519.0,525.0,507.0
514.0,526.0,526.0,511.0
516.0,525.0,516.0,508.0
514.0,525.0,517.0,507.0
518.0,522.0,518.0,500.0
514.0,509.0,523.0,508.0
506.0,509.0,522.0,539.0
510.0,503.0,507.0,558.0
512.0,489.0,499.0,518.0
515.0,475.0,507.0,507.0
506.0,468.0,491.0,500.0
501.0,487.0,492.0,520.0
505.0,490.0,505.0,523.0
503.0,507.0,513.0,520.0
505.0,515.0,519.0,513.0
498.0,488.0,515.0,505.0
504.0,508.0,524.0,501.0
502.0,512.0,527.0,501.0
518.0,524.0,527.0,500.0
513.0,525.0,522.0,501.0
509.0,528.0,509.0,501.0
499.0,519.0,515.0,524.0
498.0,517.0,513.0,533.0
502.0,511.0,515.0,523.0
510.0,506.0,511.0,516.0
515.0,499.0,504.0,511.0
524.0,493.0,495.0,510.0
523.0,483.0,493.0,526.0
520.0,484.0,507.0,548.0
504.0,482.0,507.0,530.0
492.0,479.0,515.0,508.0
503.0,493.0,520.0,499.0
506.0,511.0,518.0,502.0
511.0,519.0,524.0,510.0
523.0,524.0,526.0,499.0
525.0,527.0,525.0,502.0
520.0,528.0,537.0,505.0
517.0,521.0,522.0,500.0
524.0,513.0,496.0,486.0
523.0,512.0,510.0,509.0
521.0,510.0,495.0,504.0
529.0,521.0,510.0,510.0
525.0,512.0,512.0,518.0
524.0,489.0,496.0,521.0
512.0,478.0,507.0,535.0
502.0,468.0,513.0,563.0
495.0,471.0,496.0,529.0
501.0,473.0,501.0,491.0
502.0,474.0,516.0,492.0
502.0,483.0,526.0,502.0
513.0,493.0,523.0,502.0
513.0,522.0,524.0,498.0
512.0,529.0,521.0,493.0
512.0,536.0,521.0,503.0
505.0,528.0,515.0,501.0
515.0,519.0,513.0,497.0
519.0,515.0,511.0,503.0
526.0,515.0,498.0,508.0
527.0,502.0,493.0,523.0
525.0,500.0,498.0,526.0
519.0,489.0,505.0,512.0
510.0,488.0,501.0,525.0
504.0,476.0,498.0,534.0
494.0,481.0,505.0,517.0
495.0,495.0,513.0,511.0
499.0,502.0,520.0,502.0
509.0,512.0,522.0,497.0
514.0,519.0,523.0,498.0
515.0,523.0,524.0,497.0
516.0,527.0,528.0,498.0
514.0,521.0,520.0,498.0
509.0,511.0,519.0,497.0
504.0,514.0,493.0,485.0
513.0,512.0,503.0,508.0
521.0,505.0,519.0,531.0
523.0,495.0,506.0,525.0
523.0,495.0,485.0,505.0
516.0,488.0,495.0,512.0
510.0,488.0,518.0,535.0
497.0,475.0,520.0,557.0
496.0,478.0,494.0,501.0
496.0,483.0,509.0,505.0
503.0,498.0,521.0,510.0
512.0,507.0,532.0,496.0
513.0,523.0,518.0,511.0
518.0,528.0,512.0,495.0
513.0,528.0,515.0,477.0
514.0,528.0,525.0,492.0
509.0,516.0,520.0,501.0
513.0,517.0,516.0,512.0
519.0,512.0,514.0,518.0
523.0,497.0,509.0,530.0
517.0,489.0,504.0,547.0
519.0,488.0,482.0,496.0
512.0,487.0,494.0,516.0
505.0,481.0,496.0,541.0
496.0,479.0,507.0,523.0
497.0,485.0,517.0,518.0
498.0,494.0,528.0,513.0
509.0,510.0,538.0,506.0
511.0,520.0,511.0,493.0
517.0,524.0,520.0,500.0
513.0,530.0,511.0,482.0
513.0,521.0,514.0,504.0
511.0,518.0,521.0,492.0
512.0,509.0,526.0,503.0
515.0,505.0,507.0,506.0
519.0,512.0,504.0,508.0
523.0,510.0,491.0,524.0
518.0,503.0,501.0,542.0
514.0,475.0,507.0,549.0
508.0,474.0,478.0,523.0
500.0,469.0,499.0,507.0
495.0,486.0,516.0,483.0
502.0,499.0,522.0,506.0
504.0,504.0,525.0,527.0
506.0,513.0,533.0,548.0
507.0,519.0,515.0,501.0
510.0,513.0,519.0,476.0
511.0,510.0,515.0,497.0
512.0,527.0,506.0,490.0
517.0,529.0,518.0,496.0
514.0,525.0,529.0,539.0
519.0,518.0,505.0,516.0
524.0,513.0,511.0,525.0
525.0,519.0,507.0,554.0
526.0,510.0,493.0,533.0
522.0,499.0,507.0,512.0
516.0,493.0,485.0,510.0
501.0,474.0,499.0,517.0
488.0,446.0,524.0,536.0
489.0,474.0,521.0,525.0
498.0,497.0,503.0,505.0
496.0,510.0,526.0,496.0
519.0,525.0,517.0,508.0
521.0,528.0,529.0,510.0
511.0,529.0,534.0,498.0
504.0,524.0,520.0,499.0
496.0,510.0,527.0,501.0
511.0,512.0,513.0,482.0
522.0,501.0,513.0,533.0
520.0,490.0,486.0,528.0
517.0,486.0,496.0,509.0
530.0,494.0,507.0,512.0
521.0,489.0,505.0,526.0
513.0,481.0,498.0,513.0
499.0,486.0,503.0,519.0
498.0,496.0,515.0,524.0
502.0,503.0,520.0,519.0
505.0,508.0,508.0,486.0
509.0,513.0,492.0,473.0
515.0,523.0,520.0,496.0
521.0,522.0,533.0,503.0
518.0,530.0,527.0,506.0
513.0,527.0,511.0,497.0
514.0,522.0,525.0,509.0
518.0,516.0,503.0,500.0
523.0,516.0,499.0,528.0
523.0,502.0,494.0,499.0
524.0,478.0,492.0,530.0
519.0,481.0,499.0,532.0
508.0,478.0,501.0,516.0
498.0,472.0,506.0,524.0
499.0,479.0,502.0,518.0
500.0,493.0,509.0,507.0
502.0,499.0,517.0,506.0
506.0,512.0,519.0,498.0
514.0,529.0,522.0,502.0
521.0,528.0,523.0,503.0
511.0,522.0,523.0,495.0
511.0,526.0,513.0,498.0
510.0,511.0,510.0,503.0
512.0,504.0,517.0,499.0
516.0,508.0,504.0,508.0
521.0,507.0,501.0,518.0
522.0,498.0,508.0,532.0
522.0,495.0,504.0,516.0
518.0,485.0,498.0,514.0
511.0,480.0,508.0,539.0
499.0,471.0,494.0,507.0
498.0,478.0,488.0,484.0
500.0,493.0,518.0,513.0
507.0,504.0,519.0,508.0
509.0,518.0,516.0,507.0
513.0,522.0,525.0,508.0
513.0,527.0,519.0,512.0
511.0,522.0,516.0,503.0
510.0,518.0,527.0,486.0
509.0,513.0,524.0,501.0
517.0,507.0,513.0,506.0
521.0,501.0,504.0,510.0
522.0,500.0,505.0,513.0
520.0,498.0,491.0,515.0
521.0,497.0,491.0,523.0
511.0,490.0,499.0,520.0
510.0,483.0,499.0,513.0
495.0,480.0,504.0,514.0
495.0,489.0,498.0,509.0
491.0,494.0,520.0,519.0
502.0,505.0,520.0,505.0
506.0,515.0,521.0,498.0
513.0,524.0,523.0,495.0
514.0,526.0,513.0,499.0
516.0,527.0,516.0,499.0
516.0,522.0,519.0,499.0
515.0,522.0,516.0,499.0
516.0,514.0,507.0,483.0
517.0,510.0,484.0,491.0
517.0,502.0,502.0,531.0
514.0,491.0,502.0,534.0
514.0,487.0,482.0,520.0
508.0,482.0,500.0,518.0
504.0,482.0,503.0,543.0
493.0,486.0,494.0,532.0
501.0,496.0,503.0,519.0
515.0,511.0,528.0,516.0
515.0,510.0,528.0,488.0
514.0,516.0,535.0,487.0
519.0,521.0,519.0,482.0
515.0,542.0,515.0,515.0
516.0,547.0,529.0,504.0
515.0,542.0,527.0,494.0
514.0,540.0,519.0,506.0
523.0,522.0,498.0,499.0
524.0,510.0,490.0,503.0
521.0,474.0,500.0,533.0
523.0,467.0,495.0,543.0
517.0,476.0,495.0,532.0
501.0,461.0,508.0,534.0
493.0,472.0,485.0,503.0
490.0,477.0,501.0,508.0
494.0,472.0,522.0,522.0
499.0,505.0,528.0,502.0
507.0,511.0,519.0,493.0
507.0,514.0,515.0,507.0
509.0,512.0,502.0,493.0
508.0,524.0,521.0,505.0
524.0,534.0,517.0,473.0
527.0,549.0,502.0,504.0
528.0,537.0,523.0,537.0
523.0,537.0,517.0,517.0
514.0,494.0,510.0,510.0
500.0,462.0,502.0,547.0
506.0,472.0,487.0,486.0
494.0,478.0,511.0,510.0
481.0,469.0,511.0,520.0
468.0,468.0,508.0,563.0
488.0,484.0,487.0,509.0
504.0,499.0,495.0,492.0
507.0,525.0,529.0,493.0
511.0,528.0,556.0,516.0
528.0,534.0,532.0,496.0
544.0,534.0,525.0,498.0
541.0,532.0,535.0,505.0
525.0,520.0,540.0,501.0
522.0,526.0,518.0,525.0
523.0,515.0,511.0,507.0
528.0,519.0,509.0,506.0
531.0,512.0,513.0,518.0
522.0,499.0,506.0,519.0
524.0,504.0,502.0,529.0
522.0,513.0,479.0,488.0
515.0,508.0,488.0,503.0
505.0,498.0,504.0,551.0
499.0,481.0,520.0,526.0
503.0,505.0,523.0,518.0
510.0,515.0,509.0,505.0
509.0,516.0,518.0,511.0
511.0,510.0,541.0,497.0
515.0,501.0,536.0,478.0
513.0,510.0,496.0,437.0
509.0,505.0,494.0,464.0
504.0,507.0,519.0,533.0
513.0,505.0,535.0,534.0
519.0,503.0,502.0,510.0
518.0,488.0,503.0,534.0
515.0,476.0,521.0,513.0
510.0,470.0,514.0,520.0
513.0,476.0,480.0,506.0
507.0,476.0,505.0,547.0
498.0,481.0,487.0,535.0
494.0,498.0,513.0,512.0
500.0,506.0,525.0,491.0
504.0,513.0,528.0,494.0
508.0,518.0,527.0,505.0
513.0,527.0,466.0,487.0
513.0,529.0,549.0,495.0
511.0,530.0,524.0,499.0
510.0,523.0,515.0,505.0
516.0,511.0,516.0,511.0
514.0,505.0,529.0,551.0
522.0,501.0,514.0,528.0
521.0,491.0,494.0,537.0
519.0,496.0,497.0,553.0
517.0,486.0,505.0,557.0
507.0,482.0,472.0,511.0
492.0,474.0,497.0,456.0
498.0,485.0,534.0,529.0
503.0,493.0,530.0,528.0
505.0,506.0,521.0,509.0
503.0,514.0,543.0,506.0
507.0,516.0,542.0,477.0
512.0,514.0,519.0,490.0
513.0,523.0,495.0,479.0
510.0,521.0,512.0,495.0
516.0,526.0,535.0,529.0
516.0,519.0,532.0,517.0
519.0,522.0,511.0,505.0
520.0,511.0,491.0,529.0
523.0,514.0,514.0,538.0
522.0,513.0,501.0,504.0
520.0,512.0,506.0,506.0
502.0,486.0,471.0,497.0
499.0,474.0,508.0,546.0
499.0,480.0,522.0,511.0
501.0,494.0,557.0,519.0
512.0,511.0,487.0,527.0
510.0,517.0,519.0,503.0
517.0,534.0,573.0,490.0
514.0,547.0,563.0,464.0
517.0,538.0,509.0,544.0
513.0,525.0,494.0,494.0
515.0,524.0,542.0,459.0
519.0,519.0,536.0,529.0
517.0,491.0,519.0,542.0
518.0,482.0,512.0,512.0
517.0,485.0,495.0,488.0
514.0,485.0,496.0,510.0
511.0,473.0,512.0,605.0
500.0,476.0,522.0,542.0
497.0,489.0,491.0,529.0
497.0,479.0,501.0,478.0
500.0,502.0,600.0,484.0
508.0,524.0,611.0,538.0
506.0,515.0,539.0,500.0
514.0,545.0,515.0,525.0
520.0,552.0,490.0,547.0
518.0,532.0,558.0,528.0
507.0,494.0,564.0,527.0
506.0,471.0,507.0,539.0
513.0,486.0,484.0,463.0
519.0,502.0,511.0,486.0
517.0,487.0,468.0,482.0
521.0,494.0,459.0,535.0
515.0,487.0,443.0,574.0
503.0,483.0,523.0,532.0
490.0,477.0,523.0,472.0
480.0,475.0,520.0,518.0
495.0,500.0,526.0,537.0
505.0,527.0,550.0,517.0
503.0,530.0,529.0,491.0
523.0,536.0,493.0,424.0
532.0,562.0,511.0,476.0
522.0,540.0,495.0,450.0
510.0,495.0,459.0,455.0
515.0,492.0,511.0,583.0
517.0,509.0,512.0,510.0
522.0,506.0,535.0,518.0
524.0,491.0,539.0,538.0
519.0,475.0,612.0,550.0
522.0,487.0,477.0,484.0
517.0,484.0,470.0,499.0
502.0,474.0,494.0,505.0
499.0,475.0,522.0,520.0
498.0,485.0,535.0,524.0
503.0,500.0,487.0,546.0
509.0,502.0,495.0,506.0
513.0,513.0,558.0,495.0
516.0,540.0,560.0,508.0
515.0,548.0,526.0,499.0
512.0,553.0,618.0,511.0
508.0,534.0,520.0,557.0
513.0,520.0,559.0,527.0
520.0,519.0,492.0,470.0
521.0,485.0,523.0,465.0
520.0,472.0,562.0,481.0
522.0,489.0,497.0,518.0
515.0,495.0,471.0,516.0
508.0,491.0,471.0,447.0
496.0,484.0,456.0,538.0
493.0,471.0,542.0,626.0
497.0,486.0,532.0,517.0
497.0,497.0,508.0,548.0
503.0,503.0,579.0,514.0
510.0,513.0,554.0,529.0
513.0,526.0,516.0,488.0
506.0,524.0,554.0,519.0
509.0,535.0,502.0,499.0
513.0,521.0,506.0,494.0
520.0,520.0,522.0,548.0
532.0,536.0,505.0,525.0
537.0,540.0,546.0,445.0
533.0,529.0,503.0,534.0
529.0,502.0,521.0,619.0
509.0,470.0,520.0,556.0
504.0,470.0,457.0,537.0
490.0,441.0,505.0,477.0
489.0,456.0,525.0,500.0
500.0,483.0,498.0,478.0
507.0,510.0,564.0,558.0
510.0,506.0,523.0,564.0
515.0,504.0,536.0,462.0
514.0,536.0,542.0,516.0
515.0,538.0,534.0,473.0
510.0,526.0,503.0,490.0
509.0,512.0,462.0,468.0
513.0,510.0,470.0,498.0
521.0,514.0,558.0,516.0
523.0,509.0,582.0,514.0
524.0,489.0,529.0,387.0
517.0,493.0,459.0,338.0
509.0,488.0,509.0,559.0
502.0,485.0,490.0,618.0
496.0,491.0,536.0,649.0
491.0,477.0,547.0,559.0
500.0,500.0,511.0,529.0
504.0,536.0,536.0,532.0
503.0,538.0,538.0,502.0
500.0,521.0,550.0,489.0
493.0,503.0,480.0,477.0
495.0,501.0,546.0,498.0
498.0,517.0,515.0,535.0
520.0,525.0,454.0,504.0
536.0,534.0,474.0,590.0
538.0,534.0,485.0,516.0
529.0,495.0,575.0,496.0
524.0,493.0,522.0,447.0
513.0,496.0,532.0,596.0
512.0,504.0,487.0,601.0
513.0,479.0,483.0,472.0
514.0,497.0,572.0,469.0
508.0,505.0,512.0,441.0
504.0,486.0,542.0,454.0
495.0,447.0,553.0,600.0
507.0,472.0,595.0,492.0
517.0,538.0,558.0,441.0
531.0,567.0,501.0,579.0
521.0,550.0,459.0,518.0
514.0,523.0,504.0,548.0
511.0,473.0,622.0,618.0
525.0,488.0,548.0,551.0
529.0,501.0,493.0,497.0
530.0,501.0,485.0,500.0
528.0,486.0,545.0,545.0
524.0,478.0,546.0,433.0
517.0,476.0,442.0,494.0
500.0,473.0,484.0,577.0
493.0,466.0,546.0,578.0
499.0,492.0,521.0,473.0
508.0,527.0,539.0,441.0
515.0,528.0,471.0,513.0
518.0,538.0,499.0,505.0
516.0,540.0,540.0,498.0
508.0,519.0,537.0,522.0
506.0,515.0,555.0,602.0
512.0,528.0,465.0,456.0
522.0,534.0,452.0,520.0
516.0,506.0,586.0,607.0
527.0,510.0,515.0,384.0
519.0,500.0,526.0,573.0
520.0,499.0,543.0,629.0
519.0,491.0,534.0,590.0
509.0,482.0,627.0,497.0
498.0,486.0,504.0,465.0
494.0,481.0,448.0,536.0
495.0,461.0,457.0,507.0
499.0,487.0,472.0,583.0
506.0,503.0,519.0,514.0
512.0,526.0,522.0,486.0
515.0,526.0,530.0,440.0
512.0,546.0,521.0,535.0
515.0,552.0,521.0,502.0
523.0,561.0,517.0,527.0
525.0,563.0,494.0,568.0
528.0,545.0,538.0,452.0
526.0,498.0,509.0,530.0
519.0,460.0,518.0,556.0
509.0,440.0,492.0,578.0
504.0,458.0,531.0,569.0
494.0,464.0,531.0,526.0
494.0,465.0,650.0,532.0
496.0,487.0,515.0,398.0
502.0,514.0,342.0,408.0
501.0,513.0,454.0,571.0
501.0,508.0,614.0,567.0
506.0,503.0,596.0,512.0
508.0,512.0,502.0,523.0
510.0,522.0,507.0,530.0
503.0,541.0,499.0,509.0
527.0,544.0,530.0,507.0
531.0,527.0,516.0,550.0
531.0,494.0,465.0,493.0
520.0,498.0,468.0,480.0
522.0,507.0,474.0,485.0
519.0,508.0,511.0,547.0
514.0,508.0,465.0,564.0
503.0,490.0,469.0,551.0
500.0,491.0,523.0,513.0
504.0,459.0,550.0,493.0
501.0,463.0,589.0,523.0
510.0,509.0,545.0,507.0
517.0,516.0,482.0,505.0
516.0,514.0,476.0,512.0
510.0,512.0,516.0,500.0
509.0,524.0,571.0,517.0
510.0,533.0,484.0,515.0
504.0,513.0,501.0,442.0
502.0,517.0,538.0,519.0
498.0,517.0,471.0,502.0
508.0,489.0,510.0,599.0
517.0,492.0,521.0,555.0
519.0,502.0,547.0,396.0
512.0,480.0,449.0,551.0
505.0,478.0,521.0,494.0
502.0,487.0,463.0,516.0
504.0,507.0,548.0,340.0
496.0,521.0,578.0,469.0
495.0,502.0,500.0,636.0
497.0,502.0,482.0,562.0
511.0,522.0,524.0,577.0
512.0,528.0,624.0,473.0
507.0,502.0,603.0,578.0
507.0,506.0,464.0,578.0
517.0,534.0,511.0,586.0
533.0,519.0,531.0,521.0
540.0,495.0,527.0,516.0
526.0,480.0,498.0,514.0
522.0,479.0,473.0,522.0
516.0,474.0,554.0,541.0
510.0,464.0,516.0,479.0
518.0,492.0,558.0,523.0
518.0,514.0,533.0,539.0
524.0,520.0,478.0,564.0
514.0,507.0,468.0,506.0
502.0,468.0,536.0,406.0
507.0,503.0,540.0,410.0
514.0,543.0,478.0,503.0
512.0,528.0,491.0,547.0
510.0,519.0,490.0,532.0
514.0,517.0,503.0,515.0
521.0,521.0,523.0,510.0
527.0,512.0,506.0,513.0
524.0,503.0,458.0,444.0
528.0,506.0,547.0,437.0
522.0,505.0,523.0,575.0
512.0,505.0,525.0,656.0
498.0,500.0,477.0,494.0
498.0,484.0,479.0,532.0
498.0,475.0,507.0,549.0
506.0,499.0,436.0,513.0
508.0,507.0,560.0,534.0
509.0,514.0,571.0,526.0
511.0,523.0,537.0,518.0
510.0,525.0,534.0,462.0
506.0,509.0,568.0,479.0
507.0,503.0,559.0,587.0
512.0,495.0,597.0,541.0
520.0,498.0,453.0,552.0
528.0,502.0,456.0,527.0
527.0,495.0,561.0,535.0
516.0,487.0,507.0,538.0
506.0,475.0,551.0,496.0
498.0,470.0,481.0,463.0
492.0,475.0,446.0,488.0
495.0,483.0,504.0,500.0
493.0,491.0,497.0,517.0
505.0,507.0,502.0,510.0
512.0,522.0,530.0,549.0
513.0,531.0,609.0,556.0
511.0,530.0,524.0,516.0
518.0,534.0,452.0,465.0
524.0,535.0,444.0,444.0
524.0,524.0,610.0,524.0
527.0,511.0,530.0,551.0
530.0,508.0,528.0,517.0
527.0,502.0,430.0,464.0
520.0,479.0,574.0,591.0
516.0,466.0,536.0,571.0
512.0,467.0,526.0,541.0
493.0,468.0,504.0,442.0
500.0,520.0,450.0,540.0
504.0,511.0,506.0,466.0
507.0,501.0,484.0,497.0
510.0,529.0,533.0,561.0
519.0,543.0,527.0,524.0
513.0,485.0,583.0,548.0
515.0,502.0,490.0,518.0
505.0,551.0,494.0,487.0
512.0,589.0,554.0,566.0
513.0,561.0,542.0,548.0
522.0,568.0,453.0,452.0
526.0,567.0,504.0,511.0
520.0,492.0,507.0,520.0
508.0,427.0,495.0,568.0
506.0,456.0,516.0,558.0
513.0,460.0,543.0,529.0
497.0,471.0,637.0,365.0
492.0,490.0,579.0,539.0
500.0,479.0,420.0,632.0
513.0,494.0,502.0,513.0
512.0,516.0,531.0,524.0
510.0,512.0,475.0,511.0
500.0,513.0,548.0,544.0
511.0,542.0,576.0,502.0
513.0,548.0,511.0,479.0
507.0,510.0,476.0,521.0
501.0,486.0,431.0,513.0
514.0,515.0,543.0,476.0
530.0,479.0,592.0,515.0
520.0,457.0,387.0,509.0
518.0,459.0,494.0,537.0
514.0,509.0,482.0,525.0
502.0,468.0,528.0,548.0
482.0,447.0,516.0,368.0
473.0,476.0,430.0,386.0
484.0,495.0,514.0,584.0
495.0,520.0,530.0,595.0
475.0,530.0,509.0,548.0
466.0,526.0,566.0,512.0
457.0,526.0,521.0,507.0
501.0,534.0,543.0,462.0
494.0,508.0,502.0,469.0
498.0,499.0,518.0,491.0
532.0,519.0,576.0,573.0
571.0,529.0,504.0,578.0
556.0,520.0,444.0,561.0
546.0,516.0,475.0,568.0
544.0,497.0,614.0,517.0
537.0,499.0,647.0,423.0
519.0,487.0,509.0,508.0
517.0,490.0,404.0,565.0
517.0,507.0,505.0,527.0
515.0,514.0,534.0,538.0
510.0,487.0,536.0,530.0
510.0,498.0,481.0,438.0
515.0,516.0,542.0,354.0
515.0,524.0,553.0,619.0
513.0,522.0,573.0,538.0
507.0,508.0,415.0,519.0
516.0,499.0,487.0,567.0
518.0,501.0,495.0,493.0
519.0,495.0,514.0,398.0
532.0,488.0,503.0,562.0
527.0,483.0,541.0,468.0
520.0,480.0,536.0,619.0
511.0,488.0,585.0,554.0
505.0,497.0,481.0,521.0
504.0,522.0,471.0,557.0
513.0,534.0,535.0,659.0
514.0,516.0,495.0,463.0
507.0,483.0,501.0,455.0
511.0,495.0,494.0,506.0
518.0,511.0,497.0,536.0
516.0,518.0,569.0,543.0
511.0,522.0,589.0,478.0
513.0,519.0,487.0,464.0
513.0,515.0,454.0,521.0
514.0,511.0,445.0,522.0
523.0,494.0,518.0,538.0
527.0,497.0,484.0,430.0
527.0,508.0,516.0,580.0
526.0,494.0,531.0,513.0
512.0,482.0,438.0,431.0
498.0,470.0,499.0,542.0
500.0,504.0,496.0,530.0
507.0,517.0,478.0,468.0
511.0,501.0,543.0,501.0
499.0,485.0,599.0,537.0
499.0,499.0,458.0,458.0
507.0,508.0,516.0,584.0
505.0,514.0,558.0,482.0
506.0,530.0,576.0,495.0
509.0,528.0,560.0,565.0
517.0,532.0,536.0,489.0
517.0,518.0,559.0,485.0
517.0,508.0,494.0,552.0
516.0,469.0,462.0,541.0
520.0,490.0,515.0,642.0
515.0,493.0,505.0,507.0
505.0,495.0,456.0,434.0
504.0,507.0,564.0,542.0
505.0,512.0,507.0,600.0
504.0,510.0,514.0,479.0
505.0,500.0,545.0,503.0
506.0,478.0,478.0,425.0
509.0,513.0,489.0,544.0
511.0,523.0,509.0,531.0
511.0,532.0,598.0,509.0
510.0,534.0,534.0,495.0
514.0,538.0,453.0,385.0
525.0,547.0,507.0,503.0
522.0,532.0,512.0,595.0
520.0,472.0,508.0,501.0
515.0,458.0,546.0,544.0
507.0,470.0,536.0,576.0
511.0,477.0,486.0,470.0
486.0,443.0,430.0,535.0
493.0,533.0,626.0,515.0
510.0,558.0,446.0,514.0
518.0,567.0,487.0,554.0
512.0,523.0,531.0,501.0
512.0,543.0,543.0,521.0
511.0,508.0,548.0,478.0
492.0,470.0,419.0,518.0
484.0,484.0,498.0,580.0
496.0,491.0,523.0,500.0
513.0,484.0,565.0,488.0
522.0,499.0,519.0,538.0
514.0,480.0,502.0,494.0
540.0,490.0,472.0,486.0
541.0,490.0,503.0,484.0
524.0,490.0,481.0,369.0
519.0,502.0,514.0,443.0
512.0,515.0,475.0,661.0
512.0,525.0,533.0,605.0
510.0,486.0,502.0,518.0
516.0,496.0,538.0,476.0
508.0,479.0,529.0,525.0
511.0,500.0,548.0,439.0
510.0,529.0,555.0,513.0
512.0,548.0,564.0,499.0
517.0,545.0,478.0,495.0
509.0,533.0,472.0,534.0
481.0,479.0,511.0,555.0
467.0,473.0,473.0,540.0
484.0,472.0,501.0,540.0
486.0,488.0,540.0,537.0
458.0,478.0,501.0,466.0
469.0,487.0,467.0,445.0
494.0,500.0,555.0,518.0
504.0,487.0,446.0,483.0
502.0,496.0,502.0,655.0
507.0,487.0,556.0,587.0
538.0,505.0,623.0,459.0
527.0,487.0,541.0,495.0
517.0,506.0,471.0,511.0
518.0,531.0,486.0,518.0
529.0,536.0,628.0,509.0
530.0,520.0,510.0,497.0
522.0,512.0,462.0,517.0
526.0,510.0,483.0,524.0
527.0,502.0,505.0,490.0
535.0,499.0,460.0,448.0
531.0,497.0,739.0,466.0
526.0,491.0,454.0,521.0
523.0,490.0,421.0,517.0
506.0,486.0,470.0,619.0
504.0,499.0,532.0,506.0
506.0,506.0,533.0,527.0
509.0,499.0,542.0,516.0
509.0,513.0,540.0,510.0
510.0,509.0,642.0,525.0
526.0,525.0,472.0,510.0
522.0,531.0,436.0,492.0
521.0,533.0,528.0,446.0
525.0,536.0,482.0,494.0
521.0,535.0,465.0,493.0
533.0,544.0,537.0,523.0
536.0,540.0,504.0,520.0
526.0,513.0,495.0,520.0
522.0,503.0,587.0,550.0
517.0,488.0,494.0,524.0
507.0,468.0,523.0,501.0
488.0,446.0,525.0,522.0
493.0,464.0,407.0,549.0
495.0,479.0,476.0,495.0
503.0,507.0,535.0,465.0
501.0,499.0,549.0,577.0
507.0,503.0,499.0,523.0
515.0,518.0,534.0,512.0
515.0,534.0,570.0,433.0
512.0,526.0,461.0,532.0
513.0,527.0,574.0,449.0
519.0,514.0,414.0,487.0
521.0,520.0,499.0,590.0
517.0,494.0,485.0,438.0
509.0,486.0,482.0,631.0
511.0,483.0,540.0,518.0
511.0,516.0,539.0,470.0
495.0,474.0,528.0,599.0
489.0,453.0,503.0,533.0
496.0,505.0,483.0,514.0
495.0,521.0,510.0,518.0
506.0,506.0,554.0,515.0
505.0,522.0,537.0,497.0
514.0,548.0,628.0,515.0
520.0,545.0,540.0,458.0
524.0,538.0,481.0,402.0
525.0,546.0,420.0,514.0
516.0,482.0,559.0,548.0
514.0,479.0,551.0,515.0
510.0,477.0,432.0,462.0
514.0,493.0,484.0,513.0
505.0,486.0,478.0,508.0
508.0,471.0,450.0,537.0
505.0,465.0,458.0,581.0
488.0,475.0,587.0,572.0
492.0,486.0,533.0,493.0
518.0,529.0,479.0,406.0
537.0,560.0,464.0,523.0
541.0,566.0,535.0,541.0
524.0,538.0,496.0,506.0
524.0,513.0,542.0,541.0
518.0,488.0,571.0,529.0
519.0,532.0,485.0,481.0
521.0,536.0,511.0,523.0
525.0,536.0,534.0,517.0
522.0,495.0,567.0,527.0
506.0,457.0,536.0,541.0
489.0,435.0,494.0,526.0
489.0,477.0,483.0,515.0
488.0,487.0,405.0,489.0
490.0,473.0,507.0,498.0
489.0,477.0,460.0,478.0
499.0,479.0,549.0,451.0
504.0,489.0,456.0,659.0
514.0,499.0,540.0,518.0
507.0,509.0,666.0,479.0
516.0,527.0,605.0,461.0
508.0,531.0,515.0,460.0
512.0,530.0,469.0,461.0
523.0,530.0,488.0,561.0
517.0,529.0,514.0,537.0
509.0,530.0,495.0,535.0
528.0,523.0,507.0,481.0
538.0,520.0,622.0,493.0
532.0,489.0,490.0,524.0
524.0,476.0,368.0,558.0
517.0,478.0,602.0,534.0
504.0,483.0,492.0,505.0
499.0,494.0,492.0,541.0
494.0,515.0,485.0,563.0
504.0,522.0,523.0,527.0
496.0,492.0,534.0,516.0
498.0,506.0,664.0,522.0
523.0,531.0,489.0,345.0
541.0,524.0,363.0,424.0
524.0,529.0,517.0,619.0
514.0,523.0,557.0,542.0
511.0,488.0,498.0,461.0
510.0,491.0,519.0,467.0
524.0,511.0,484.0,527.0
517.0,463.0,594.0,576.0
520.0,451.0,440.0,504.0
515.0,476.0,489.0,568.0
515.0,482.0,520.0,543.0
505.0,497.0,445.0,496.0
498.0,497.0,510.0,517.0
501.0,517.0,567.0,528.0
512.0,537.0,521.0,504.0
522.0,551.0,524.0,506.0
523.0,564.0,509.0,464.0
517.0,514.0,531.0,519.0
508.0,484.0,538.0,561.0
500.0,478.0,558.0,549.0
501.0,505.0,582.0,461.0
508.0,518.0,527.0,425.0
517.0,513.0,399.0,476.0
518.0,496.0,462.0,585.0
521.0,495.0,670.0,589.0
522.0,492.0,487.0,483.0
514.0,489.0,372.0,516.0
508.0,474.0,503.0,556.0
493.0,474.0,595.0,486.0
494.0,494.0,601.0,584.0
507.0,509.0,534.0,533.0
506.0,515.0,521.0,503.0
510.0,531.0,540.0,500.0
510.0,529.0,425.0,504.0
517.0,528.0,509.0,527.0
521.0,541.0,546.0,512.0
523.0,549.0,514.0,518.0
517.0,511.0,474.0,513.0
519.0,533.0,526.0,471.0
525.0,536.0,472.0,534.0
522.0,510.0,524.0,520.0
517.0,517.0,719.0,511.0
515.0,491.0,612.0,446.0
516.0,484.0,424.0,490.0
502.0,455.0,368.0,505.0
499.0,438.0,441.0,500.0
493.0,439.0,552.0,501.0
488.0,440.0,544.0,530.0
500.0,511.0,529.0,497.0
512.0,557.0,503.0,492.0
516.0,576.0,454.0,550.0
512.0,585.0,490.0,551.0
503.0,544.0,474.0,476.0
498.0,510.0,550.0,454.0
494.0,504.0,547.0,544.0
498.0,534.0,480.0,504.0
515.0,488.0,465.0,472.0
517.0,458.0,480.0,527.0
524.0,463.0,455.0,502.0
536.0,464.0,477.0,497.0
525.0,470.0,457.0,578.0
498.0,481.0,493.0,515.0
494.0,493.0,519.0,438.0
493.0,490.0,497.0,432.0
498.0,499.0,565.0,517.0
492.0,527.0,579.0,581.0
515.0,536.0,594.0,502.0
529.0,521.0,510.0,493.0
517.0,520.0,492.0,512.0
510.0,528.0,518.0,594.0
504.0,504.0,540.0,552.0
507.0,493.0,538.0,471.0
517.0,498.0,524.0,512.0
524.0,511.0,530.0,499.0
523.0,504.0,431.0,543.0
544.0,512.0,495.0,542.0
534.0,497.0,522.0,563.0
514.0,489.0,487.0,521.0
508.0,500.0,517.0,503.0
493.0,474.0,488.0,504.0
484.0,466.0,440.0,507.0
496.0,494.0,526.0,525.0
498.0,495.0,605.0,488.0
493.0,493.0,554.0,488.0
499.0,547.0,613.0,507.0
503.0,541.0,440.0,509.0
480.0,491.0,501.0,443.0
473.0,507.0,517.0,513.0
479.0,508.0,524.0,535.0
502.0,502.0,430.0,478.0
507.0,496.0,500.0,544.0
536.0,494.0,527.0,492.0
533.0,474.0,505.0,491.0
558.0,483.0,424.0,474.0
538.0,507.0,468.0,508.0
514.0,504.0,518.0,560.0
504.0,499.0,522.0,542.0
510.0,512.0,508.0,524.0
525.0,533.0,522.0,500.0
533.0,547.0,520.0,488.0
535.0,552.0,625.0,524.0
535.0,566.0,531.0,501.0
532.0,546.0,508.0,501.0
518.0,499.0,493.0,539.0
517.0,487.0,520.0,503.0
524.0,515.0,638.0,509.0
525.0,500.0,514.0,449.0
514.0,479.0,326.0,463.0
502.0,477.0,534.0,555.0
508.0,480.0,628.0,496.0
511.0,483.0,547.0,449.0
499.0,474.0,421.0,587.0
492.0,484.0,513.0,599.0
490.0,495.0,485.0,524.0
505.0,510.0,541.0,518.0
514.0,530.0,656.0,446.0
518.0,542.0,619.0,502.0
518.0,529.0,505.0,596.0
515.0,528.0,481.0,500.0
513.0,530.0,463.0,464.0
516.0,511.0,617.0,543.0
510.0,507.0,569.0,506.0
522.0,523.0,492.0,537.0
528.0,529.0,403.0,511.0
526.0,513.0,474.0,545.0
523.0,495.0,448.0,542.0
516.0,482.0,480.0,526.0
515.0,457.0,457.0,525.0
496.0,471.0,478.0,524.0
495.0,494.0,500.0,529.0
491.0,521.0,470.0,549.0
505.0,559.0,528.0,531.0
507.0,542.0,539.0,462.0
501.0,520.0,502.0,456.0
504.0,514.0,546.0,470.0
504.0,531.0,577.0,477.0
519.0,509.0,432.0,508.0
525.0,526.0,396.0,466.0
517.0,512.0,615.0,511.0
513.0,490.0,514.0,450.0
518.0,486.0,504.0,517.0
520.0,491.0,506.0,531.0
516.0,466.0,508.0,506.0
515.0,462.0,525.0,515.0
501.0,453.0,504.0,552.0
492.0,450.0,477.0,590.0
492.0,455.0,525.0,532.0
495.0,492.0,537.0,522.0
501.0,491.0,522.0,521.0
504.0,516.0,528.0,501.0
512.0,523.0,509.0,492.0
510.0,526.0,487.0,504.0
508.0,525.0,509.0,483.0
503.0,516.0,517.0,476.0
504.0,514.0,512.0,515.0
521.0,518.0,487.0,485.0
512.0,511.0,544.0,481.0
514.0,494.0,529.0,566.0
514.0,507.0,596.0,512.0
511.0,513.0,494.0,459.0
503.0,465.0,474.0,549.0
486.0,471.0,514.0,514.0
500.0,488.0,475.0,551.0
508.0,505.0,505.0,508.0
513.0,526.0,553.0,506.0
532.0,545.0,528.0,500.0
538.0,564.0,490.0,502.0
524.0,581.0,526.0,506.0
514.0,564.0,508.0,516.0
496.0,490.0,491.0,480.0
495.0,492.0,542.0,496.0
506.0,490.0,433.0,527.0
505.0,482.0,572.0,516.0
510.0,484.0,520.0,498.0
528.0,486.0,406.0,499.0
543.0,491.0,512.0,569.0
538.0,503.0,508.0,518.0
519.0,503.0,526.0,521.0
499.0,443.0,528.0,523.0
490.0,435.0,472.0,542.0
491.0,498.0,605.0,521.0
510.0,504.0,476.0,482.0
512.0,503.0,510.0,493.0
517.0,540.0,469.0,462.0
518.0,539.0,651.0,468.0
512.0,530.0,450.0,497.0
508.0,524.0,448.0,447.0
510.0,519.0,521.0,467.0
511.0,513.0,463.0,472.0
523.0,512.0,526.0,572.0
515.0,505.0,499.0,506.0
510.0,492.0,487.0,545.0
507.0,488.0,479.0,542.0
503.0,481.0,505.0,603.0
495.0,471.0,565.0,509.0
496.0,472.0,493.0,502.0
520.0,503.0,558.0,511.0
505.0,492.0,461.0,526.0
510.0,518.0,522.0,527.0
513.0,542.0,574.0,533.0
521.0,556.0,486.0,492.0
523.0,531.0,547.0,519.0
527.0,531.0,533.0,503.0
519.0,528.0,551.0,489.0
521.0,524.0,512.0,488.0
523.0,510.0,487.0,520.0
519.0,491.0,499.0,493.0
513.0,486.0,503.0,536.0
515.0,486.0,478.0,544.0
518.0,486.0,550.0,519.0
514.0,499.0,625.0,563.0
500.0,502.0,492.0,527.0
501.0,511.0,474.0,489.0
502.0,516.0,450.0,531.0
507.0,515.0,509.0,487.0
505.0,487.0,494.0,490.0
503.0,506.0,466.0,545.0
510.0,521.0,503.0,508.0
513.0,532.0,524.0,504.0
515.0,540.0,487.0,518.0
517.0,555.0,521.0,469.0
519.0,526.0,503.0,494.0
515.0,478.0,508.0,521.0
516.0,506.0,485.0,506.0
520.0,516.0,502.0,502.0
519.0,502.0,516.0,466.0
504.0,479.0,596.0,555.0
503.0,489.0,479.0,541.0
494.0,456.0,451.0,490.0
491.0,463.0,522.0,508.0
496.0,469.0,460.0,515.0
501.0,498.0,496.0,495.0
501.0,513.0,533.0,523.0
503.0,514.0,557.0,495.0
511.0,538.0,495.0,461.0
510.0,531.0,491.0,455.0
506.0,504.0,548.0,512.0
506.0,505.0,494.0,502.0
516.0,504.0,555.0,476.0
518.0,517.0,512.0,626.0
518.0,513.0,539.0,561.0
514.0,509.0,562.0,543.0
516.0,522.0,458.0,507.0
505.0,498.0,458.0,524.0
502.0,484.0,477.0,510.0
495.0,493.0,491.0,512.0
503.0,513.0,525.0,514.0
504.0,501.0,571.0,523.0
488.0,472.0,511.0,475.0
502.0,557.0,492.0,512.0
507.0,514.0,537.0,518.0
501.0,502.0,497.0,429.0
504.0,529.0,502.0,513.0
515.0,506.0,516.0,529.0
524.0,503.0,502.0,492.0
528.0,523.0,508.0,504.0
537.0,488.0,555.0,548.0
547.0,471.0,513.0,470.0
535.0,463.0,461.0,487.0
522.0,475.0,472.0,548.0
506.0,466.0,504.0,540.0
495.0,479.0,566.0,518.0
491.0,520.0,487.0,534.0
481.0,506.0,451.0,485.0
488.0,514.0,573.0,399.0
485.0,510.0,602.0,509.0
488.0,480.0,509.0,535.0
509.0,498.0,430.0,524.0
519.0,520.0,527.0,548.0
525.0,524.0,521.0,507.0
517.0,528.0,516.0,497.0
518.0,525.0,463.0,500.0
531.0,534.0,527.0,533.0
528.0,507.0,482.0,486.0
527.0,497.0,511.0,517.0
546.0,492.0,430.0,507.0
533.0,480.0,458.0,537.0
520.0,474.0,521.0,531.0
501.0,479.0,442.0,518.0
505.0,498.0,512.0,532.0
505.0,488.0,553.0,510.0
511.0,518.0,539.0,515.0
514.0,520.0,521.0,499.0
504.0,508.0,530.0,499.0
514.0,514.0,553.0,517.0
520.0,527.0,612.0,518.0
510.0,514.0,447.0,468.0
509.0,513.0,515.0,487.0
512.0,512.0,503.0,503.0
520.0,506.0,539.0,510.0
522.0,501.0,485.0,537.0
523.0,496.0,479.0,484.0
518.0,488.0,472.0,488.0
518.0,489.0,464.0,480.0
511.0,482.0,514.0,553.0
496.0,479.0,549.0,576.0
501.0,495.0,503.0,503.0
503.0,506.0,534.0,527.0
507.0,517.0,479.0,499.0
513.0,526.0,538.0,471.0
514.0,530.0,556.0,526.0
517.0,537.0,530.0,457.0
514.0,538.0,490.0,524.0
507.0,530.0,602.0,497.0
509.0,512.0,552.0,520.0
513.0,510.0,556.0,567.0
518.0,502.0,541.0,560.0
519.0,490.0,489.0,542.0
519.0,488.0,482.0,499.0
514.0,476.0,522.0,515.0
510.0,491.0,491.0,532.0
501.0,494.0,478.0,554.0
497.0,476.0,490.0,504.0
500.0,482.0,597.0,513.0
503.0,503.0,424.0,501.0
507.0,510.0,507.0,479.0
505.0,519.0,584.0,431.0
509.0,533.0,475.0,535.0
514.0,540.0,531.0,529.0
512.0,525.0,488.0,489.0
507.0,512.0,529.0,512.0
516.0,514.0,503.0,556.0
517.0,510.0,478.0,518.0
520.0,494.0,463.0,490.0
520.0,495.0,513.0,476.0
518.0,506.0,464.0,397.0
516.0,502.0,459.0,531.0
508.0,499.0,498.0,590.0
500.0,488.0,473.0,546.0
500.0,498.0,516.0,537.0
501.0,482.0,525.0,507.0
508.0,493.0,514.0,506.0
509.0,493.0,519.0,505.0
511.0,501.0,535.0,503.0
516.0,530.0,503.0,483.0
514.0,532.0,507.0,489.0
511.0,537.0,510.0,492.0
515.0,549.0,515.0,496.0
521.0,531.0,489.0,505.0
528.0,520.0,526.0,513.0
531.0,516.0,494.0,504.0
523.0,493.0,508.0,533.0
515.0,484.0,472.0,525.0
504.0,469.0,474.0,507.0
495.0,454.0,487.0,515.0
482.0,455.0,479.0,504.0
482.0,490.0,507.0,514.0
482.0,495.0,500.0,495.0
485.0,504.0,520.0,510.0
510.0,520.0,515.0,498.0
510.0,518.0,522.0,495.0
507.0,520.0,556.0,488.0
516.0,527.0,503.0,491.0
515.0,495.0,502.0,494.0
524.0,516.0,511.0,500.0
529.0,529.0,504.0,504.0
527.0,530.0,503.0,514.0
525.0,521.0,498.0,530.0
521.0,488.0,493.0,506.0
525.0,472.0,497.0,534.0
508.0,477.0,497.0,500.0
495.0,482.0,499.0,506.0
492.0,476.0,502.0,509.0
492.0,492.0,527.0,484.0
499.0,534.0,549.0,491.0
510.0,544.0,490.0,499.0
536.0,562.0,517.0,492.0
548.0,545.0,516.0,501.0
533.0,533.0,531.0,529.0
509.0,472.0,531.0,509.0
504.0,489.0,535.0,524.0
514.0,508.0,550.0,524.0
517.0,508.0,578.0,505.0
525.0,511.0,481.0,505.0
525.0,486.0,542.0,522.0
524.0,480.0,488.0,508.0
520.0,474.0,493.0,521.0
513.0,470.0,484.0,510.0
499.0,471.0,539.0,510.0
496.0,481.0,491.0,538.0
498.0,491.0,479.0,529.0
502.0,507.0,483.0,514.0
509.0,516.0,493.0,483.0
512.0,520.0,514.0,494.0
516.0,523.0,524.0,479.0
517.0,520.0,513.0,516.0
504.0,511.0,516.0,524.0
504.0,512.0,530.0,523.0
515.0,529.0,506.0,530.0
520.0,518.0,498.0,493.0
515.0,501.0,498.0,510.0
519.0,495.0,469.0,519.0
522.0,494.0,510.0,534.0
515.0,490.0,506.0,520.0
503.0,484.0,489.0,515.0
498.0,483.0,502.0,517.0
500.0,492.0,505.0,521.0
502.0,501.0,496.0,502.0
502.0,503.0,537.0,513.0
508.0,522.0,544.0,514.0
512.0,527.0,532.0,500.0
515.0,532.0,505.0,496.0
518.0,535.0,517.0,495.0
513.0,520.0,509.0,493.0
514.0,518.0,507.0,500.0
517.0,524.0,504.0,509.0
521.0,514.0,493.0,501.0
514.0,490.0,498.0,525.0
517.0,509.0,490.0,523.0
516.0,499.0,494.0,535.0
509.0,480.0,481.0,493.0
496.0,472.0,484.0,492.0
496.0,480.0,507.0,532.0
499.0,483.0,515.0,520.0
508.0,509.0,515.0,513.0
511.0,514.0,515.0,494.0
510.0,508.0,523.0,492.0
508.0,500.0,523.0,493.0
504.0,523.0,539.0,505.0
509.0,542.0,525.0,488.0
506.0,531.0,513.0,475.0
515.0,528.0,539.0,505.0
521.0,533.0,489.0,504.0
522.0,512.0,493.0,523.0
518.0,484.0,493.0,521.0
517.0,483.0,489.0,513.0
509.0,484.0,490.0,515.0
509.0,473.0,488.0,514.0
496.0,472.0,495.0,515.0
496.0,464.0,501.0,510.0
499.0,492.0,516.0,511.0
504.0,510.0,515.0,503.0
510.0,520.0,518.0,490.0
512.0,523.0,521.0,493.0
514.0,530.0,523.0,495.0
512.0,528.0,521.0,494.0
514.0,524.0,517.0,494.0
510.0,528.0,513.0,498.0
515.0,501.0,506.0,507.0
518.0,495.0,503.0,504.0
524.0,497.0,496.0,513.0
519.0,503.0,494.0,513.0
515.0,488.0,492.0,518.0
517.0,485.0,491.0,520.0
513.0,487.0,495.0,518.0
501.0,494.0,498.0,514.0
497.0,485.0,507.0,510.0
490.0,470.0,517.0,505.0
498.0,497.0,519.0,501.0
503.0,518.0,522.0,497.0
509.0,534.0,523.0,494.0
512.0,526.0,523.0,497.0
512.0,526.0,522.0,499.0
510.0,516.0,517.0,497.0
513.0,523.0,511.0,501.0
515.0,514.0,507.0,503.0
514.0,505.0,500.0,507.0
525.0,510.0,494.0,514.0
535.0,501.0,492.0,517.0
522.0,484.0,491.0,520.0
511.0,467.0,490.0,519.0
498.0,463.0,495.0,516.0
497.0,479.0,500.0,511.0
499.0,500.0,506.0,512.0
503.0,509.0,514.0,504.0
511.0,506.0,522.0,499.0
508.0,516.0,522.0,497.0
515.0,536.0,521.0,491.0
515.0,529.0,523.0,495.0
516.0,525.0,521.0,495.0
512.0,527.0,516.0,497.0
517.0,525.0,512.0,503.0
518.0,506.0,507.0,507.0
518.0,487.0,503.0,517.0
521.0,494.0,498.0,519.0
516.0,488.0,494.0,518.0
514.0,486.0,488.0,515.0
505.0,483.0,491.0,515.0
497.0,477.0,494.0,515.0
496.0,486.0,504.0,509.0
499.0,502.0,512.0,505.0
505.0,520.0,517.0,500.0
510.0,520.0,521.0,501.0
518.0,526.0,521.0,498.0
517.0,528.0,523.0,498.0
516.0,533.0,521.0,491.0
513.0,528.0,518.0,494.0
512.0,523.0,513.0,501.0
519.0,515.0,507.0,503.0
522.0,510.0,502.0,505.0
524.0,510.0,497.0,512.0
522.0,504.0,497.0,519.0
518.0,495.0,496.0,523.0
510.0,480.0,496.0,523.0
501.0,476.0,502.0,519.0
494.0,476.0,503.0,515.0
493.0,488.0,508.0,511.0
497.0,496.0,514.0,507.0
504.0,505.0,522.0,506.0
508.0,519.0,528.0,507.0
514.0,525.0,529.0,507.0
516.0,531.0,530.0,504.0
518.0,533.0,526.0,500.0
515.0,520.0,515.0,496.0
514.0,510.0,505.0,493.0
516.0,506.0,502.0,498.0
521.0,503.0,500.0,503.0
516.0,496.0,493.0,510.0
520.0,496.0,492.0,518.0
518.0,500.0,493.0,518.0
518.0,486.0,491.0,518.0
502.0,475.0,495.0,516.0
498.0,483.0,499.0,509.0
499.0,492.0,509.0,506.0
500.0,501.0,515.0,504.0
504.0,510.0,519.0,500.0
507.0,502.0,524.0,501.0
513.0,521.0,523.0,497.0
517.0,534.0,523.0,495.0
514.0,532.0,519.0,494.0
512.0,529.0,513.0,497.0
516.0,520.0,510.0,501.0
518.0,520.0,505.0,510.0
523.0,519.0,501.0,516.0
518.0,498.0,497.0,516.0
516.0,487.0,495.0,520.0
511.0,485.0,492.0,522.0
510.0,498.0,497.0,521.0
493.0,463.0,501.0,519.0
491.0,477.0,511.0,513.0
501.0,493.0,519.0,512.0
505.0,501.0,519.0,507.0
507.0,492.0,525.0,503.0
512.0,497.0,523.0,497.0
519.0,512.0,527.0,498.0
511.0,519.0,523.0,499.0
509.0,513.0,522.0,498.0
513.0,522.0,520.0,504.0
517.0,539.0,511.0,509.0
521.0,534.0,505.0,511.0
529.0,536.0,499.0,512.0
524.0,527.0,492.0,517.0
517.0,485.0,493.0,518.0
513.0,468.0,493.0,519.0
508.0,462.0,498.0,517.0
501.0,459.0,501.0,515.0
505.0,478.0,509.0,510.0
503.0,507.0,515.0,508.0
510.0,524.0,522.0,503.0
511.0,531.0,523.0,503.0
515.0,557.0,524.0,498.0
514.0,545.0,522.0,499.0
511.0,530.0,522.0,499.0
507.0,506.0,516.0,498.0
513.0,515.0,511.0,504.0
519.0,521.0,510.0,506.0
522.0,508.0,506.0,510.0
526.0,501.0,497.0,516.0
523.0,501.0,496.0,518.0
518.0,494.0,493.0,523.0
512.0,491.0,494.0,522.0
503.0,478.0,500.0,523.0
500.0,484.0,507.0,518.0
503.0,489.0,515.0,515.0
502.0,500.0,518.0,511.0
500.0,492.0,523.0,506.0
516.0,545.0,525.0,502.0
523.0,559.0,528.0,500.0
522.0,549.0,525.0,498.0
511.0,539.0,523.0,497.0
507.0,527.0,516.0,499.0
514.0,523.0,507.0,500.0
523.0,523.0,503.0,507.0
528.0,514.0,499.0,512.0
526.0,496.0,495.0,518.0
527.0,498.0,493.0,521.0
524.0,499.0,492.0,525.0
511.0,485.0,492.0,516.0
491.0,466.0,497.0,516.0
487.0,462.0,505.0,511.0
486.0,469.0,514.0,509.0
497.0,482.0,521.0,509.0
505.0,506.0,527.0,504.0
511.0,525.0,534.0,506.0
521.0,557.0,536.0,507.0
520.0,563.0,528.0,506.0
519.0,558.0,523.0,502.0
514.0,517.0,517.0,499.0
514.0,499.0,505.0,496.0
516.0,501.0,498.0,503.0
519.0,496.0,500.0,510.0
516.0,493.0,497.0,515.0
511.0,480.0,495.0,517.0
510.0,489.0,496.0,524.0
512.0,489.0,495.0,524.0
501.0,483.0,502.0,518.0
498.0,477.0,507.0,512.0
503.0,485.0,511.0,506.0
504.0,512.0,521.0,503.0
513.0,516.0,520.0,501.0
511.0,497.0,522.0,493.0
502.0,491.0,521.0,492.0
509.0,490.0,523.0,495.0
504.0,482.0,516.0,499.0
506.0,481.0,511.0,498.0
523.0,505.0,503.0,499.0
533.0,533.0,504.0,508.0
539.0,530.0,497.0,519.0
532.0,525.0,497.0,521.0
524.0,522.0,499.0,522.0
514.0,507.0,494.0,522.0
493.0,484.0,500.0,524.0
481.0,483.0,504.0,520.0
477.0,490.0,512.0,516.0
495.0,502.0,520.0,510.0
507.0,520.0,524.0,500.0
514.0,525.0,523.0,501.0
518.0,532.0,525.0,496.0
522.0,537.0,520.0,496.0
521.0,523.0,520.0,493.0
510.0,541.0,517.0,499.0
512.0,539.0,510.0,506.0
517.0,535.0,509.0,510.0
521.0,515.0,506.0,516.0
528.0,487.0,497.0,524.0
526.0,458.0,499.0,524.0
507.0,472.0,494.0,522.0
499.0,484.0,498.0,525.0
492.0,481.0,501.0,518.0
497.0,497.0,509.0,513.0
497.0,494.0,514.0,515.0
512.0,517.0,524.0,511.0
511.0,525.0,528.0,509.0
506.0,523.0,529.0,506.0
507.0,544.0,527.0,503.0
507.0,532.0,528.0,502.0
495.0,524.0,525.0,509.0
501.0,509.0,520.0,510.0
513.0,519.0,518.0,509.0
521.0,515.0,516.0,513.0
521.0,507.0,502.0,516.0
520.0,497.0,494.0,513.0
516.0,488.0,491.0,517.0
515.0,463.0,492.0,520.0
506.0,466.0,492.0,518.0
499.0,471.0,502.0,513.0
499.0,485.0,510.0,510.0
504.0,491.0,516.0,509.0
512.0,514.0,520.0,507.0
507.0,535.0,524.0,500.0
514.0,561.0,526.0,501.0
518.0,569.0,523.0,506.0
520.0,562.0,524.0,501.0
509.0,512.0,519.0,504.0
512.0,515.0,518.0,506.0
516.0,511.0,517.0,510.0
516.0,510.0,510.0,516.0
523.0,493.0,503.0,517.0
517.0,470.0,500.0,523.0
513.0,463.0,499.0,524.0
507.0,460.0,500.0,522.0
497.0,453.0,497.0,522.0
493.0,471.0,504.0,520.0
500.0,494.0,514.0,515.0
509.0,500.0,521.0,510.0
509.0,516.0,525.0,507.0
509.0,530.0,528.0,500.0
518.0,525.0,524.0,500.0
516.0,517.0,521.0,496.0
517.0,512.0,520.0,499.0
512.0,498.0,520.0,504.0
512.0,489.0,514.0,510.0
512.0,507.0,507.0,510.0
513.0,527.0,501.0,516.0
520.0,513.0,500.0,528.0
526.0,489.0,500.0,529.0
528.0,478.0,502.0,527.0
524.0,474.0,502.0,528.0
502.0,477.0,502.0,525.0
496.0,498.0,508.0,517.0
500.0,500.0,513.0,510.0
503.0,515.0,517.0,503.0
501.0,533.0,522.0,500.0
494.0,543.0,522.0,498.0
505.0,536.0,522.0,495.0
511.0,540.0,522.0,495.0
514.0,549.0,523.0,502.0
513.0,529.0,519.0,506.0
506.0,513.0,516.0,514.0
506.0,513.0,521.0,514.0
514.0,502.0,509.0,521.0
517.0,491.0,494.0,528.0
514.0,488.0,493.0,526.0
512.0,481.0,498.0,524.0
510.0,474.0,501.0,527.0
504.0,480.0,510.0,521.0
505.0,490.0,514.0,517.0
511.0,498.0,515.0,510.0
517.0,505.0,519.0,504.0
516.0,519.0,520.0,501.0
507.0,484.0,524.0,502.0
513.0,506.0,526.0,502.0
514.0,512.0,528.0,513.0
493.0,478.0,524.0,517.0
490.0,472.0,522.0,520.0
501.0,506.0,518.0,519.0
510.0,491.0,520.0,522.0
518.0,491.0,507.0,522.0
523.0,510.0,504.0,519.0
515.0,511.0,497.0,515.0
515.0,493.0,492.0,508.0
505.0,468.0,491.0,504.0
510.0,481.0,493.0,502.0
518.0,496.0,501.0,499.0
509.0,500.0,512.0,499.0
516.0,530.0,514.0,498.0
515.0,560.0,519.0,493.0
517.0,557.0,521.0,489.0
514.0,543.0,515.0,486.0
504.0,535.0,513.0,485.0
498.0,516.0,506.0,491.0
508.0,509.0,507.0,499.0
518.0,511.0,500.0,500.0
518.0,508.0,497.0,504.0
519.0,493.0,491.0,512.0
514.0,487.0,493.0,516.0
516.0,490.0,494.0,522.0
509.0,476.0,497.0,522.0
492.0,468.0,503.0,523.0
493.0,477.0,508.0,519.0
496.0,482.0,517.0,515.0
510.0,506.0,523.0,506.0
515.0,532.0,531.0,506.0
515.0,542.0,531.0,504.0
518.0,546.0,531.0,500.0
514.0,539.0,523.0,498.0
504.0,492.0,521.0,497.0
510.0,487.0,514.0,498.0
519.0,500.0,509.0,505.0
529.0,524.0,506.0,509.0
529.0,514.0,503.0,519.0
533.0,509.0,505.0,530.0
529.0,508.0,509.0,538.0
525.0,503.0,505.0,534.0
519.0,484.0,503.0,532.0
503.0,482.0,505.0,515.0
499.0,488.0,504.0,507.0
485.0,491.0,507.0,501.0
492.0,504.0,513.0,499.0
499.0,519.0,519.0,494.0
499.0,525.0,522.0,495.0
502.0,512.0,521.0,498.0
510.0,508.0,524.0,495.0
507.0,506.0,516.0,494.0
506.0,507.0,509.0,494.0
513.0,506.0,507.0,506.0
519.0,512.0,503.0,514.0
522.0,510.0,503.0,519.0
522.0,497.0,495.0,522.0
515.0,497.0,496.0,526.0
508.0,488.0,496.0,527.0
491.0,466.0,502.0,523.0
491.0,461.0,510.0,524.0
491.0,486.0,517.0,517.0
495.0,509.0,520.0,513.0
511.0,512.0,528.0,507.0
515.0,521.0,524.0,501.0
521.0,528.0,521.0,498.0
529.0,527.0,518.0,498.0
531.0,516.0,513.0,497.0
520.0,502.0,513.0,501.0
521.0,506.0,510.0,505.0
525.0,504.0,509.0,511.0
521.0,512.0,511.0,521.0
510.0,506.0,510.0,528.0
504.0,510.0,508.0,526.0
512.0,503.0,504.0,528.0
511.0,494.0,502.0,526.0
499.0,471.0,495.0,520.0
494.0,475.0,503.0,514.0
495.0,486.0,507.0,506.0
504.0,505.0,513.0,503.0
508.0,513.0,516.0,497.0
512.0,517.0,522.0,498.0
520.0,497.0,520.0,497.0
521.0,523.0,519.0,502.0
527.0,532.0,520.0,504.0
522.0,526.0,517.0,510.0
520.0,504.0,517.0,518.0
517.0,505.0,518.0,523.0
512.0,490.0,519.0,526.0
511.0,466.0,520.0,527.0
511.0,454.0,513.0,528.0
509.0,456.0,499.0,525.0
499.0,474.0,492.0,516.0
497.0,495.0,502.0,514.0
493.0,516.0,504.0,508.0
498.0,509.0,506.0,506.0
511.0,507.0,514.0,500.0
507.0,491.0,514.0,500.0
509.0,482.0,517.0,496.0
507.0,524.0,522.0,494.0
505.0,545.0,520.0,492.0
502.0,558.0,514.0,495.0
514.0,552.0,506.0,494.0
510.0,523.0,503.0,502.0
517.0,494.0,502.0,509.0
525.0,496.0,496.0,512.0
524.0,510.0,494.0,519.0
517.0,509.0,499.0,523.0
516.0,501.0,502.0,525.0
497.0,490.0,509.0,527.0
490.0,464.0,512.0,523.0
494.0,509.0,517.0,518.0
502.0,526.0,520.0,509.0
509.0,532.0,517.0,502.0
517.0,495.0,517.0,498.0
517.0,515.0,517.0,495.0
520.0,520.0,517.0,492.0
513.0,488.0,514.0,497.0
501.0,497.0,512.0,501.0
505.0,505.0,511.0,507.0
511.0,503.0,508.0,512.0
516.0,487.0,509.0,518.0
520.0,489.0,506.0,521.0
519.0,515.0,500.0,526.0
510.0,507.0,504.0,529.0
512.0,490.0,506.0,532.0
497.0,473.0,509.0,532.0
497.0,476.0,514.0,524.0
499.0,483.0,518.0,515.0
499.0,489.0,520.0,508.0
506.0,511.0,520.0,502.0
513.0,530.0,517.0,497.0
513.0,527.0,516.0,497.0
515.0,522.0,517.0,496.0
517.0,523.0,517.0,498.0
510.0,525.0,511.0,499.0
512.0,518.0,509.0,502.0
520.0,525.0,505.0,514.0
524.0,535.0,506.0,515.0
523.0,515.0,504.0,522.0
518.0,492.0,502.0,521.0
508.0,479.0,497.0,524.0
508.0,474.0,497.0,521.0
498.0,461.0,498.0,521.0
499.0,478.0,506.0,512.0
500.0,491.0,515.0,511.0
508.0,509.0,522.0,506.0
516.0,522.0,531.0,507.0
512.0,538.0,532.0,502.0
517.0,535.0,530.0,501.0
518.0,525.0,515.0,500.0
515.0,506.0,512.0,500.0
514.0,513.0,513.0,504.0
514.0,509.0,513.0,512.0
515.0,505.0,504.0,509.0
522.0,491.0,504.0,515.0
528.0,474.0,507.0,522.0
519.0,483.0,500.0,525.0
514.0,496.0,499.0,523.0
498.0,474.0,500.0,527.0
504.0,472.0,511.0,524.0
502.0,479.0,517.0,519.0
500.0,491.0,526.0,512.0
497.0,502.0,526.0,509.0
501.0,524.0,523.0,498.0
512.0,544.0,524.0,494.0
514.0,548.0,513.0,492.0
516.0,548.0,512.0,491.0
508.0,531.0,510.0,497.0
514.0,515.0,509.0,501.0
513.0,498.0,506.0,505.0
508.0,509.0,502.0,508.0
517.0,502.0,499.0,518.0
521.0,488.0,498.0,523.0
518.0,468.0,498.0,523.0
515.0,471.0,499.0,520.0
502.0,461.0,503.0,522.0
490.0,462.0,512.0,518.0
508.0,462.0,514.0,516.0
524.0,480.0,527.0,509.0
531.0,539.0,528.0,510.0
546.0,548.0,530.0,508.0
544.0,581.0,526.0,509.0
530.0,538.0,526.0,508.0
499.0,519.0,526.0,514.0
483.0,477.0,523.0,517.0
502.0,504.0,526.0,517.0
512.0,524.0,522.0,521.0
515.0,523.0,517.0,520.0
524.0,512.0,517.0,521.0
520.0,484.0,503.0,513.0
514.0,449.0,496.0,509.0
506.0,439.0,480.0,507.0
491.0,459.0,493.0,507.0
489.0,500.0,503.0,505.0
495.0,518.0,508.0,502.0
497.0,509.0,513.0,499.0
508.0,521.0,514.0,501.0
508.0,544.0,518.0,495.0
516.0,556.0,518.0,499.0
511.0,518.0,522.0,498.0
509.0,507.0,515.0,502.0
508.0,498.0,514.0,503.0
506.0,511.0,514.0,508.0
510.0,511.0,510.0,522.0
513.0,513.0,512.0,524.0
512.0,516.0,512.0,530.0
507.0,508.0,508.0,528.0
513.0,508.0,501.0,524.0
503.0,489.0,502.0,517.0
500.0,488.0,501.0,514.0
494.0,494.0,520.0,506.0
498.0,507.0,519.0,497.0
508.0,520.0,508.0,498.0
512.0,531.0,513.0,503.0
510.0,532.0,516.0,499.0
513.0,539.0,517.0,496.0
512.0,531.0,520.0,498.0
511.0,511.0,528.0,501.0
505.0,508.0,521.0,507.0
515.0,503.0,508.0,508.0
518.0,507.0,504.0,509.0
518.0,496.0,495.0,517.0
519.0,487.0,497.0,519.0
516.0,482.0,495.0,519.0
512.0,482.0,497.0,520.0
497.0,477.0,501.0,518.0
500.0,484.0,508.0,512.0
499.0,497.0,518.0,509.0
505.0,512.0,517.0,508.0
508.0,512.0,521.0,508.0
511.0,508.0,525.0,501.0
512.0,511.0,522.0,503.0
518.0,515.0,521.0,501.0
511.0,509.0,519.0,503.0
511.0,509.0,518.0,502.0
515.0,518.0,513.0,507.0
520.0,515.0,507.0,512.0
523.0,510.0,506.0,515.0
521.0,495.0,501.0,521.0
514.0,487.0,500.0,522.0
511.0,468.0,502.0,523.0
509.0,479.0,503.0,523.0
497.0,470.0,507.0,521.0
498.0,479.0,512.0,517.0
503.0,507.0,515.0,513.0
509.0,524.0,524.0,508.0
508.0,530.0,527.0,507.0
511.0,503.0,525.0,501.0
516.0,492.0,522.0,501.0
519.0,505.0,523.0,497.0
521.0,507.0,517.0,503.0
517.0,531.0,517.0,504.0
505.0,526.0,514.0,508.0
513.0,527.0,507.0,513.0
519.0,505.0,501.0,514.0
517.0,501.0,502.0,521.0
506.0,488.0,502.0,524.0
510.0,484.0,502.0,523.0
501.0,478.0,504.0,525.0
496.0,487.0,506.0,520.0
498.0,506.0,514.0,513.0
504.0,510.0,516.0,506.0
511.0,519.0,522.0,503.0
508.0,524.0,521.0,500.0
508.0,500.0,521.0,504.0
509.0,516.0,522.0,498.0
515.0,520.0,522.0,500.0
507.0,504.0,516.0,504.0
511.0,503.0,513.0,507.0
518.0,508.0,515.0,509.0
526.0,505.0,508.0,515.0
527.0,511.0,509.0,520.0
521.0,516.0,505.0,525.0
522.0,498.0,505.0,526.0
514.0,482.0,504.0,530.0
501.0,452.0,512.0,524.0
500.0,464.0,509.0,519.0
508.0,487.0,513.0,514.0
515.0,504.0,523.0,509.0
504.0,514.0,525.0,508.0
513.0,544.0,528.0,506.0
515.0,541.0,529.0,510.0
513.0,539.0,529.0,505.0
506.0,536.0,523.0,508.0
514.0,508.0,524.0,515.0
514.0,482.0,517.0,513.0
521.0,496.0,510.0,509.0
526.0,525.0,506.0,515.0
528.0,523.0,502.0,522.0
521.0,523.0,502.0,520.0
518.0,516.0,502.0,521.0
504.0,458.0,497.0,521.0
492.0,433.0,500.0,517.0
477.0,469.0,507.0,514.0
495.0,501.0,513.0,508.0
510.0,510.0,518.0,505.0
505.0,525.0,520.0,500.0
519.0,546.0,518.0,499.0
513.0,544.0,518.0,498.0
499.0,537.0,517.0,497.0
501.0,522.0,515.0,498.0
509.0,529.0,512.0,502.0
512.0,511.0,508.0,508.0
520.0,487.0,506.0,515.0
522.0,489.0,507.0,520.0
520.0,491.0,504.0,525.0
507.0,475.0,503.0,522.0
505.0,495.0,504.0,525.0
496.0,497.0,503.0,525.0
494.0,491.0,510.0,519.0
496.0,493.0,515.0,513.0
500.0,504.0,515.0,506.0
508.0,513.0,518.0,506.0
509.0,520.0,521.0,504.0
508.0,526.0,526.0,501.0
513.0,529.0,523.0,500.0
510.0,527.0,522.0,503.0
513.0,526.0,521.0,507.0
518.0,522.0,519.0,509.0
520.0,515.0,514.0,512.0
520.0,508.0,509.0,518.0
518.0,495.0,503.0,520.0
514.0,486.0,500.0,523.0
512.0,490.0,502.0,527.0
510.0,483.0,502.0,526.0
497.0,473.0,503.0,523.0
496.0,479.0,507.0,515.0
497.0,487.0,510.0,512.0
505.0,502.0,522.0,507.0
508.0,514.0,524.0,502.0
514.0,520.0,517.0,498.0
511.0,524.0,523.0,503.0
515.0,526.0,519.0,501.0
514.0,520.0,520.0,501.0
513.0,509.0,525.0,505.0
514.0,504.0,518.0,503.0
519.0,504.0,507.0,511.0
525.0,520.0,505.0,518.0
523.0,500.0,504.0,522.0
519.0,485.0,500.0,526.0
516.0,472.0,497.0,529.0
507.0,461.0,510.0,526.0
500.0,463.0,515.0,521.0
492.0,473.0,513.0,521.0
496.0,499.0,516.0,517.0
505.0,511.0,523.0,512.0
509.0,524.0,526.0,509.0
506.0,537.0,526.0,508.0
512.0,544.0,529.0,506.0
510.0,518.0,533.0,505.0
504.0,511.0,523.0,507.0
514.0,519.0,516.0,509.0
520.0,512.0,519.0,510.0
521.0,514.0,500.0,509.0
525.0,525.0,491.0,513.0
526.0,485.0,493.0,519.0
519.0,475.0,496.0,521.0
516.0,485.0,502.0,522.0
502.0,479.0,503.0,525.0
495.0,490.0,509.0,519.0
486.0,446.0,509.0,515.0
493.0,482.0,515.0,506.0
502.0,504.0,516.0,502.0
511.0,511.0,519.0,503.0
509.0,544.0,522.0,499.0
512.0,555.0,521.0,499.0
520.0,539.0,521.0,498.0
512.0,529.0,516.0,504.0
516.0,524.0,514.0,504.0
520.0,512.0,511.0,511.0
525.0,518.0,507.0,517.0
527.0,517.0,501.0,520.0
526.0,499.0,502.0,523.0
518.0,487.0,502.0,527.0
514.0,504.0,500.0,529.0
498.0,478.0,507.0,523.0
488.0,478.0,512.0,522.0
501.0,488.0,517.0,517.0
501.0,517.0,524.0,513.0
503.0,520.0,523.0,508.0
516.0,517.0,523.0,502.0
513.0,516.0,524.0,500.0
519.0,521.0,522.0,501.0
519.0,519.0,519.0,502.0
517.0,515.0,518.0,505.0
519.0,513.0,514.0,510.0
523.0,515.0,513.0,512.0
521.0,518.0,508.0,516.0
520.0,503.0,504.0,522.0
515.0,493.0,504.0,525.0
507.0,479.0,501.0,532.0
509.0,474.0,504.0,526.0
499.0,477.0,508.0,528.0
498.0,481.0,511.0,520.0
499.0,492.0,515.0,514.0
503.0,509.0,519.0,508.0
507.0,517.0,521.0,501.0
510.0,523.0,525.0,499.0
505.0,524.0,524.0,501.0
506.0,515.0,527.0,499.0
502.0,508.0,518.0,504.0
509.0,508.0,517.0,509.0
519.0,511.0,514.0,513.0
522.0,512.0,507.0,517.0
530.0,512.0,505.0,523.0
536.0,491.0,503.0,530.0
530.0,479.0,503.0,531.0
528.0,480.0,504.0,531.0
516.0,475.0,503.0,534.0
500.0,486.0,505.0,524.0
484.0,506.0,510.0,515.0
475.0,515.0,519.0,512.0
494.0,518.0,528.0,509.0
507.0,523.0,533.0,506.0
507.0,523.0,525.0,501.0
508.0,519.0,524.0,501.0
509.0,522.0,517.0,498.0
506.0,508.0,516.0,503.0
510.0,508.0,512.0,505.0
518.0,518.0,507.0,506.0
522.0,508.0,503.0,515.0
523.0,498.0,497.0,518.0
521.0,492.0,499.0,525.0
518.0,483.0,502.0,528.0
511.0,482.0,502.0,534.0
501.0,481.0,511.0,527.0
498.0,477.0,511.0,522.0
498.0,477.0,521.0,517.0
505.0,481.0,525.0,513.0
500.0,501.0,521.0,506.0
509.0,519.0,521.0,500.0
516.0,523.0,519.0,496.0
519.0,530.0,520.0,498.0
524.0,524.0,517.0,499.0
526.0,520.0,513.0,503.0
527.0,533.0,511.0,506.0
528.0,531.0,512.0,513.0
529.0,517.0,506.0,519.0
519.0,489.0,502.0,529.0
505.0,479.0,501.0,531.0
505.0,502.0,502.0,533.0
508.0,501.0,501.0,531.0
495.0,485.0,503.0,527.0
495.0,485.0,510.0,521.0
506.0,495.0,516.0,517.0
508.0,521.0,522.0,510.0
508.0,536.0,527.0,505.0
505.0,504.0,528.0,506.0
508.0,501.0,526.0,501.0
513.0,526.0,527.0,496.0
513.0,511.0,512.0,497.0
512.0,510.0,514.0,501.0
518.0,502.0,513.0,509.0
518.0,504.0,507.0,515.0
518.0,519.0,505.0,523.0
519.0,503.0,498.0,525.0
515.0,485.0,494.0,523.0
512.0,477.0,495.0,527.0
505.0,469.0,501.0,524.0
496.0,466.0,503.0,519.0
500.0,484.0,515.0,510.0
502.0,502.0,518.0,507.0
508.0,515.0,514.0,502.0
510.0,525.0,521.0,502.0
509.0,522.0,523.0,499.0
508.0,543.0,520.0,500.0
514.0,540.0,521.0,500.0
510.0,518.0,518.0,502.0
512.0,513.0,513.0,508.0
517.0,507.0,507.0,510.0
519.0,508.0,502.0,519.0
521.0,500.0,502.0,528.0
523.0,490.0,499.0,530.0
516.0,482.0,498.0,533.0
516.0,492.0,502.0,527.0
501.0,490.0,502.0,524.0
498.0,488.0,512.0,516.0
499.0,488.0,524.0,516.0
501.0,495.0,515.0,506.0
504.0,510.0,520.0,504.0
515.0,525.0,522.0,503.0
516.0,537.0,522.0,501.0
517.0,541.0,519.0,497.0
518.0,541.0,517.0,495.0
514.0,530.0,516.0,505.0
517.0,517.0,515.0,512.0
521.0,495.0,512.0,516.0
519.0,497.0,506.0,521.0
521.0,490.0,501.0,522.0
514.0,490.0,501.0,529.0
518.0,483.0,499.0,529.0
515.0,488.0,499.0,529.0
500.0,468.0,511.0,525.0
496.0,464.0,518.0,519.0
498.0,483.0,520.0,516.0
502.0,522.0,522.0,509.0
511.0,537.0,525.0,504.0
514.0,536.0,524.0,500.0
509.0,533.0,516.0,499.0
512.0,527.0,518.0,496.0
511.0,517.0,515.0,499.0
514.0,516.0,511.0,501.0
517.0,512.0,508.0,506.0
519.0,525.0,505.0,511.0
524.0,507.0,503.0,521.0
521.0,493.0,502.0,525.0
514.0,479.0,498.0,526.0
515.0,480.0,496.0,521.0
505.0,479.0,495.0,519.0
494.0,478.0,501.0,516.0
497.0,485.0,510.0,511.0
503.0,503.0,512.0,509.0
509.0,513.0,518.0,503.0
510.0,515.0,522.0,501.0
513.0,527.0,522.0,496.0
517.0,533.0,519.0,500.0
515.0,536.0,519.0,502.0
510.0,531.0,515.0,500.0
516.0,535.0,512.0,506.0
514.0,513.0,509.0,511.0
526.0,506.0,506.0,520.0
528.0,497.0,502.0,523.0
518.0,456.0,502.0,526.0
515.0,473.0,503.0,530.0
512.0,481.0,506.0,532.0
497.0,461.0,510.0,531.0
492.0,474.0,516.0,524.0
500.0,488.0,519.0,521.0
505.0,504.0,522.0,512.0
512.0,517.0,519.0,501.0
522.0,523.0,516.0,493.0
509.0,522.0,521.0,493.0
512.0,528.0,519.0,495.0
510.0,532.0,515.0,497.0
508.0,523.0,514.0,497.0
510.0,515.0,511.0,505.0
508.0,494.0,506.0,513.0
519.0,486.0,505.0,514.0
525.0,481.0,507.0,522.0
523.0,485.0,502.0,525.0
523.0,498.0,503.0,526.0
510.0,490.0,503.0,525.0
499.0,479.0,504.0,523.0
494.0,495.0,508.0,517.0
493.0,515.0,515.0,513.0
500.0,533.0,521.0,507.0
508.0,532.0,526.0,507.0
504.0,482.0,533.0,502.0
511.0,504.0,527.0,501.0
513.0,513.0,522.0,499.0
509.0,531.0,515.0,501.0
511.0,524.0,514.0,509.0
516.0,513.0,510.0,512.0
519.0,514.0,508.0,518.0
519.0,502.0,507.0,520.0
516.0,498.0,505.0,524.0
516.0,499.0,501.0,529.0
519.0,480.0,501.0,523.0
514.0,483.0,499.0,520.0
504.0,482.0,503.0,515.0
505.0,485.0,506.0,513.0
505.0,487.0,516.0,510.0
513.0,510.0,518.0,505.0
508.0,534.0,520.0,505.0
503.0,541.0,521.0,501.0
507.0,554.0,521.0,505.0
511.0,539.0,520.0,501.0
510.0,527.0,519.0,506.0
510.0,520.0,514.0,509.0
515.0,500.0,513.0,510.0
523.0,492.0,511.0,516.0
522.0,502.0,508.0,521.0
520.0,491.0,506.0,527.0
509.0,480.0,503.0,526.0
510.0,478.0,501.0,524.0
500.0,481.0,499.0,521.0
496.0,496.0,505.0,518.0
504.0,515.0,511.0,514.0
512.0,523.0,513.0,512.0
506.0,498.0,521.0,506.0
510.0,494.0,523.0,503.0
506.0,515.0,523.0,500.0
510.0,526.0,523.0,500.0
512.0,533.0,521.0,500.0
508.0,521.0,516.0,501.0
510.0,512.0,512.0,508.0
516.0,509.0,511.0,516.0
521.0,503.0,508.0,521.0
524.0,495.0,508.0,526.0
519.0,491.0,506.0,530.0
513.0,495.0,502.0,527.0
512.0,486.0,501.0,523.0
497.0,478.0,502.0,520.0
491.0,486.0,507.0,517.0
492.0,498.0,510.0,510.0
502.0,509.0,517.0,505.0
505.0,517.0,519.0,500.0
516.0,520.0,522.0,497.0
511.0,522.0,521.0,498.0
517.0,528.0,518.0,499.0
511.0,517.0,519.0,499.0
502.0,505.0,515.0,504.0
503.0,500.0,507.0,509.0
514.0,498.0,510.0,511.0
518.0,504.0,505.0,521.0
525.0,508.0,504.0,524.0
521.0,486.0,501.0,527.0
516.0,477.0,504.0,524.0
509.0,474.0,507.0,527.0
498.0,475.0,511.0,522.0
497.0,480.0,509.0,515.0
500.0,507.0,517.0,510.0
506.0,516.0,521.0,505.0
509.0,527.0,523.0,502.0
510.0,541.0,524.0,501.0
510.0,532.0,523.0,501.0
510.0,530.0,519.0,497.0
506.0,523.0,513.0,500.0
513.0,516.0,513.0,503.0
514.0,518.0,510.0,504.0
520.0,499.0,502.0,515.0
522.0,489.0,503.0,521.0
521.0,492.0,503.0,524.0
519.0,480.0,506.0,526.0
517.0,468.0,501.0,521.0
511.0,475.0,495.0,522.0
508.0,485.0,510.0,522.0
507.0,500.0,523.0,515.0
506.0,538.0,517.0,507.0
498.0,497.0,521.0,506.0
507.0,513.0,522.0,502.0
505.0,539.0,525.0,501.0
509.0,535.0,524.0,500.0
511.0,526.0,521.0,503.0
511.0,518.0,518.0,505.0
511.0,515.0,512.0,504.0
517.0,506.0,512.0,510.0
518.0,505.0,508.0,520.0
515.0,483.0,506.0,525.0
511.0,483.0,502.0,527.0
509.0,479.0,500.0,527.0
507.0,472.0,497.0,524.0
501.0,481.0,499.0,518.0
503.0,483.0,507.0,515.0
501.0,491.0,515.0,513.0
506.0,513.0,519.0,507.0
512.0,509.0,523.0,503.0
514.0,513.0,527.0,503.0
512.0,512.0,526.0,505.0
518.0,518.0,524.0,506.0
513.0,533.0,524.0,505.0
512.0,536.0,516.0,506.0
519.0,529.0,506.0,505.0
523.0,510.0,501.0,504.0
517.0,499.0,497.0,516.0
508.0,497.0,502.0,517.0
503.0,488.0,498.0,525.0
507.0,476.0,504.0,525.0
506.0,469.0,500.0,523.0
494.0,468.0,505.0,519.0
494.0,496.0,512.0,512.0
503.0,510.0,517.0,512.0
506.0,525.0,520.0,509.0
509.0,529.0,525.0,505.0
513.0,531.0,523.0,504.0
513.0,525.0,523.0,498.0
514.0,527.0,520.0,498.0
514.0,523.0,509.0,498.0
517.0,520.0,509.0,500.0
516.0,517.0,506.0,502.0
521.0,511.0,503.0,510.0
524.0,500.0,499.0,517.0
524.0,492.0,500.0,522.0
512.0,482.0,501.0,525.0
516.0,486.0,503.0,524.0
498.0,479.0,503.0,523.0
493.0,471.0,505.0,518.0
498.0,483.0,511.0,515.0
501.0,496.0,518.0,511.0
506.0,506.0,518.0,504.0
511.0,522.0,522.0,500.0
508.0,527.0,523.0,497.0
512.0,523.0,523.0,496.0
515.0,518.0,521.0,499.0
507.0,513.0,519.0,503.0
516.0,512.0,511.0,503.0
522.0,518.0,506.0,510.0
525.0,519.0,503.0,513.0
524.0,505.0,499.0,522.0
522.0,488.0,501.0,527.0
514.0,476.0,504.0,524.0
507.0,480.0,501.0,526.0
497.0,475.0,503.0,525.0
500.0,481.0,511.0,518.0
504.0,489.0,514.0,513.0
507.0,507.0,519.0,507.0
510.0,523.0,523.0,501.0
511.0,529.0,526.0,501.0
504.0,527.0,522.0,498.0
510.0,529.0,522.0,499.0
506.0,525.0,519.0,500.0
509.0,518.0,516.0,505.0
511.0,507.0,514.0,504.0
513.0,512.0,511.0,514.0
523.0,512.0,505.0,518.0
526.0,510.0,503.0,522.0
523.0,507.0,502.0,528.0
515.0,499.0,500.0,527.0
503.0,447.0,501.0,527.0
492.0,477.0,507.0,522.0
496.0,480.0,515.0,518.0
502.0,492.0,519.0,511.0
509.0,500.0,523.0,508.0
512.0,505.0,520.0,503.0
512.0,521.0,528.0,502.0
515.0,513.0,525.0,504.0
509.0,515.0,523.0,503.0
511.0,513.0,518.0,506.0
511.0,533.0,512.0,503.0
514.0,528.0,510.0,507.0
517.0,518.0,507.0,513.0
522.0,503.0,503.0,522.0
524.0,497.0,501.0,525.0
514.0,483.0,497.0,525.0
514.0,478.0,493.0,521.0
502.0,467.0,499.0,521.0
496.0,474.0,505.0,516.0
504.0,490.0,511.0,513.0
499.0,491.0,516.0,508.0
505.0,502.0,520.0,505.0
515.0,534.0,522.0,501.0
520.0,556.0,522.0,502.0
521.0,560.0,520.0,498.0
506.0,530.0,516.0,494.0
500.0,499.0,514.0,498.0
508.0,513.0,515.0,505.0
516.0,519.0,509.0,511.0
523.0,522.0,509.0,517.0
519.0,505.0,506.0,524.0
521.0,508.0,500.0,524.0
515.0,486.0,502.0,526.0
520.0,482.0,500.0,532.0
498.0,467.0,503.0,523.0
490.0,478.0,507.0,517.0
491.0,491.0,524.0,515.0
503.0,511.0,523.0,510.0
508.0,512.0,537.0,506.0
512.0,508.0,524.0,501.0
505.0,517.0,516.0,499.0
519.0,523.0,518.0,500.0
514.0,523.0,517.0,500.0
513.0,521.0,515.0,505.0
517.0,510.0,512.0,507.0
522.0,509.0,509.0,512.0
527.0,505.0,503.0,517.0
527.0,490.0,496.0,520.0
518.0,483.0,495.0,525.0
515.0,485.0,497.0,523.0
513.0,480.0,498.0,521.0
504.0,471.0,504.0,518.0
497.0,463.0,513.0,514.0
505.0,504.0,513.0,513.0
512.0,521.0,519.0,505.0
520.0,522.0,517.0,501.0
520.0,533.0,522.0,499.0
513.0,539.0,519.0,498.0
520.0,535.0,521.0,498.0
511.0,517.0,517.0,502.0
516.0,507.0,512.0,506.0
517.0,505.0,509.0,509.0
510.0,513.0,508.0,516.0
510.0,508.0,503.0,520.0
517.0,493.0,503.0,524.0
507.0,482.0,498.0,524.0
506.0,486.0,499.0,525.0
505.0,483.0,499.0,525.0
498.0,491.0,503.0,517.0
498.0,507.0,512.0,514.0
505.0,511.0,519.0,509.0
500.0,504.0,523.0,508.0
504.0,510.0,526.0,504.0
508.0,515.0,528.0,502.0
512.0,516.0,525.0,501.0
515.0,516.0,526.0,501.0
511.0,508.0,519.0,505.0
512.0,520.0,516.0,509.0
523.0,526.0,511.0,509.0
525.0,510.0,501.0,514.0
520.0,495.0,502.0,518.0
519.0,489.0,497.0,519.0
516.0,484.0,496.0,520.0
511.0,475.0,499.0,523.0
497.0,468.0,503.0,524.0
493.0,477.0,516.0,519.0
495.0,482.0,518.0,517.0
504.0,504.0,522.0,510.0
507.0,512.0,524.0,507.0
515.0,530.0,526.0,503.0
509.0,532.0,522.0,500.0
505.0,537.0,520.0,494.0
511.0,526.0,511.0,498.0
515.0,535.0,508.0,498.0
517.0,529.0,507.0,504.0
523.0,526.0,507.0,511.0
523.0,512.0,508.0,521.0
521.0,493.0,505.0,526.0
514.0,482.0,504.0,530.0
513.0,484.0,509.0,529.0
511.0,475.0,505.0,523.0
496.0,473.0,503.0,516.0
494.0,482.0,504.0,510.0
499.0,491.0,511.0,509.0
507.0,513.0,514.0,503.0
512.0,522.0,519.0,497.0
512.0,529.0,522.0,493.0
513.0,532.0,518.0,492.0
516.0,542.0,518.0,497.0
518.0,531.0,516.0,500.0
515.0,513.0,512.0,504.0
519.0,501.0,503.0,510.0
521.0,456.0,505.0,514.0
523.0,480.0,498.0,517.0
528.0,498.0,501.0,522.0
518.0,488.0,501.0,526.0
511.0,481.0,493.0,525.0
499.0,490.0,505.0,527.0
493.0,494.0,513.0,523.0
499.0,497.0,518.0,516.0
499.0,503.0,525.0,513.0
505.0,513.0,526.0,507.0
509.0,521.0,525.0,501.0
512.0,518.0,524.0,497.0
513.0,529.0,517.0,494.0
516.0,525.0,514.0,497.0
512.0,521.0,515.0,498.0
515.0,527.0,514.0,508.0
520.0,528.0,511.0,513.0
528.0,510.0,509.0,518.0
521.0,488.0,502.0,524.0
523.0,478.0,501.0,523.0
519.0,471.0,496.0,523.0
519.0,482.0,498.0,526.0
501.0,473.0,502.0,526.0
492.0,479.0,507.0,519.0
491.0,503.0,511.0,511.0
495.0,507.0,517.0,504.0
499.0,506.0,519.0,501.0
506.0,526.0,523.0,500.0
507.0,516.0,524.0,501.0
510.0,515.0,524.0,501.0
508.0,514.0,524.0,504.0
511.0,513.0,518.0,507.0
516.0,513.0,513.0,509.0
519.0,505.0,506.0,511.0
517.0,501.0,499.0,520.0
521.0,497.0,496.0,521.0
521.0,486.0,498.0,524.0
518.0,477.0,499.0,525.0
512.0,463.0,501.0,526.0
497.0,466.0,506.0,522.0
491.0,499.0,514.0,518.0
498.0,509.0,517.0,518.0
512.0,546.0,519.0,507.0
516.0,553.0,522.0,503.0
521.0,542.0,520.0,504.0
510.0,537.0,519.0,497.0
511.0,512.0,519.0,498.0
506.0,522.0,516.0,502.0
512.0,522.0,511.0,508.0
515.0,513.0,512.0,515.0
520.0,510.0,508.0,519.0
525.0,512.0,506.0,523.0
523.0,503.0,502.0,525.0
512.0,489.0,501.0,526.0
516.0,490.0,507.0,525.0
499.0,480.0,501.0,527.0
495.0,482.0,506.0,522.0
497.0,490.0,506.0,509.0
500.0,502.0,509.0,503.0
509.0,515.0,520.0,508.0
509.0,524.0,523.0,500.0
509.0,526.0,516.0,497.0
515.0,526.0,520.0,500.0
516.0,527.0,522.0,500.0
507.0,518.0,516.0,505.0
516.0,517.0,511.0,505.0
520.0,511.0,506.0,510.0
523.0,509.0,500.0,513.0
521.0,498.0,500.0,517.0
520.0,489.0,497.0,525.0
510.0,475.0,500.0,524.0
512.0,477.0,500.0,527.0
500.0,483.0,502.0,524.0
500.0,497.0,506.0,519.0
497.0,518.0,511.0,511.0
509.0,529.0,519.0,508.0
510.0,494.0,523.0,507.0
511.0,506.0,523.0,506.0
512.0,509.0,521.0,510.0
517.0,512.0,521.0,504.0
512.0,515.0,517.0,499.0
506.0,524.0,515.0,501.0
515.0,519.0,514.0,511.0
521.0,512.0,509.0,512.0
520.0,506.0,502.0,516.0
517.0,497.0,499.0,525.0
510.0,489.0,504.0,520.0
511.0,476.0,490.0,518.0
506.0,468.0,492.0,520.0
492.0,470.0,505.0,519.0
489.0,481.0,508.0,515.0
499.0,492.0,513.0,510.0
509.0,513.0,518.0,507.0
511.0,520.0,523.0,505.0
513.0,521.0,524.0,503.0
509.0,521.0,522.0,500.0
512.0,525.0,519.0,502.0
511.0,520.0,514.0,505.0
511.0,516.0,513.0,506.0
516.0,515.0,511.0,508.0
523.0,500.0,505.0,518.0
521.0,482.0,504.0,524.0
522.0,474.0,500.0,524.0
512.0,469.0,497.0,525.0
510.0,475.0,495.0,522.0
500.0,476.0,498.0,522.0
498.0,495.0,507.0,518.0
497.0,501.0,517.0,516.0
502.0,505.0,520.0,511.0
505.0,524.0,521.0,506.0
514.0,535.0,517.0,500.0
520.0,530.0,517.0,497.0
520.0,526.0,522.0,501.0
522.0,521.0,519.0,502.0
513.0,507.0,517.0,506.0
517.0,503.0,516.0,508.0
525.0,521.0,507.0,513.0
527.0,515.0,506.0,513.0
526.0,497.0,496.0,517.0
520.0,493.0,498.0,520.0
508.0,482.0,501.0,522.0
506.0,490.0,503.0,521.0
492.0,481.0,503.0,518.0
496.0,485.0,506.0,513.0
501.0,492.0,508.0,508.0
509.0,501.0,513.0,503.0
515.0,508.0,517.0,500.0
523.0,516.0,521.0,499.0
517.0,524.0,520.0,499.0
509.0,545.0,518.0,498.0
501.0,540.0,515.0,502.0
511.0,526.0,511.0,504.0
513.0,523.0,508.0,503.0
521.0,511.0,507.0,509.0
517.0,500.0,502.0,516.0
517.0,502.0,499.0,518.0
520.0,499.0,499.0,522.0
521.0,492.0,499.0,525.0
516.0,479.0,501.0,524.0
508.0,478.0,507.0,521.0
499.0,440.0,508.0,517.0
510.0,484.0,515.0,509.0
518.0,523.0,518.0,506.0
504.0,539.0,520.0,503.0
499.0,535.0,521.0,499.0
506.0,534.0,521.0,499.0
513.0,533.0,519.0,499.0
501.0,529.0,517.0,503.0
504.0,533.0,515.0,506.0
510.0,506.0,508.0,508.0
520.0,499.0,505.0,513.0
522.0,503.0,501.0,520.0
521.0,505.0,499.0,525.0
513.0,486.0,496.0,526.0
514.0,484.0,499.0,525.0
503.0,474.0,501.0,525.0
502.0,484.0,509.0,520.0
502.0,486.0,515.0,512.0
500.0,495.0,519.0,511.0
509.0,509.0,522.0,507.0
502.0,496.0,525.0,503.0
511.0,519.0,521.0,503.0
507.0,520.0,519.0,499.0
515.0,506.0,515.0,496.0
512.0,525.0,516.0,504.0
509.0,501.0,512.0,507.0
518.0,513.0,505.0,514.0
525.0,535.0,502.0,514.0
528.0,520.0,499.0,518.0
529.0,496.0,498.0,523.0
514.0,463.0,500.0,523.0
513.0,478.0,502.0,520.0
496.0,484.0,508.0,527.0
492.0,499.0,515.0,524.0
496.0,511.0,512.0,515.0
505.0,520.0,512.0,504.0
505.0,522.0,521.0,501.0
515.0,533.0,522.0,503.0
509.0,528.0,521.0,503.0
510.0,525.0,520.0,498.0
511.0,527.0,519.0,499.0
508.0,518.0,511.0,501.0
513.0,513.0,509.0,509.0
519.0,512.0,508.0,511.0
523.0,506.0,504.0,517.0
522.0,496.0,500.0,522.0
517.0,487.0,502.0,522.0
513.0,485.0,496.0,518.0
513.0,486.0,495.0,523.0
499.0,480.0,504.0,525.0
496.0,484.0,515.0,516.0
500.0,496.0,515.0,515.0
505.0,511.0,518.0,508.0
506.0,518.0,520.0,503.0
518.0,527.0,526.0,504.0
509.0,517.0,519.0,500.0
513.0,513.0,517.0,501.0
514.0,511.0,515.0,503.0
511.0,512.0,515.0,508.0
518.0,508.0,518.0,516.0
524.0,507.0,513.0,523.0
526.0,504.0,511.0,527.0
521.0,490.0,503.0,527.0
506.0,476.0,497.0,523.0
505.0,478.0,493.0,516.0
499.0,473.0,494.0,515.0
489.0,473.0,498.0,510.0
496.0,493.0,505.0,507.0
499.0,495.0,513.0,505.0
505.0,501.0,518.0,501.0
505.0,507.0,519.0,500.0
509.0,521.0,518.0,499.0
513.0,527.0,521.0,498.0
515.0,525.0,518.0,499.0
512.0,520.0,513.0,501.0
514.0,519.0,510.0,505.0
518.0,507.0,507.0,509.0
525.0,499.0,508.0,515.0
523.0,489.0,503.0,515.0
528.0,483.0,498.0,524.0
515.0,495.0,496.0,529.0
510.0,495.0,501.0,529.0
501.0,485.0,505.0,526.0
499.0,497.0,508.0,520.0
502.0,506.0,514.0,516.0
507.0,521.0,515.0,506.0
508.0,517.0,519.0,499.0
509.0,498.0,519.0,499.0
505.0,513.0,520.0,498.0
511.0,511.0,518.0,497.0
511.0,522.0,517.0,499.0
512.0,514.0,512.0,498.0
513.0,505.0,513.0,507.0
523.0,499.0,508.0,512.0
524.0,491.0,504.0,518.0
522.0,480.0,501.0,520.0
514.0,479.0,500.0,522.0
507.0,495.0,498.0,524.0
508.0,488.0,500.0,526.0
498.0,471.0,503.0,522.0
494.0,488.0,511.0,515.0
498.0,496.0,515.0,511.0
513.0,510.0,521.0,508.0
516.0,530.0,521.0,502.0
525.0,536.0,524.0,502.0
513.0,524.0,524.0,501.0
521.0,525.0,521.0,504.0
509.0,518.0,517.0,505.0
507.0,514.0,512.0,505.0
509.0,517.0,514.0,509.0
515.0,521.0,508.0,520.0
522.0,506.0,506.0,518.0
519.0,497.0,502.0,524.0
516.0,494.0,500.0,525.0
506.0,491.0,501.0,524.0
499.0,482.0,500.0,524.0
499.0,490.0,503.0,523.0
500.0,486.0,510.0,512.0
500.0,496.0,516.0,505.0
508.0,522.0,519.0,505.0
503.0,519.0,522.0,501.0
512.0,528.0,523.0,498.0
512.0,525.0,523.0,499.0
515.0,527.0,522.0,499.0
511.0,522.0,516.0,501.0
515.0,514.0,514.0,506.0
524.0,506.0,510.0,512.0
524.0,507.0,505.0,513.0
530.0,503.0,499.0,520.0
530.0,497.0,498.0,523.0
512.0,479.0,497.0,525.0
506.0,476.0,501.0,524.0
490.0,469.0,506.0,522.0
488.0,467.0,507.0,519.0
496.0,490.0,514.0,514.0
505.0,522.0,521.0,508.0
514.0,540.0,526.0,510.0
522.0,550.0,528.0,507.0
516.0,524.0,528.0,502.0
516.0,505.0,523.0,497.0
509.0,493.0,516.0,498.0
502.0,494.0,510.0,499.0
507.0,529.0,504.0,501.0
512.0,519.0,504.0,507.0
515.0,514.0,500.0,512.0
518.0,504.0,498.0,518.0
519.0,493.0,497.0,522.0
510.0,484.0,494.0,525.0
508.0,481.0,498.0,522.0
495.0,478.0,504.0,519.0
497.0,485.0,507.0,516.0
502.0,495.0,513.0,511.0
503.0,508.0,521.0,508.0
507.0,513.0,521.0,503.0
514.0,513.0,523.0,500.0
508.0,510.0,522.0,499.0
512.0,518.0,522.0,499.0
510.0,516.0,520.0,501.0
512.0,523.0,515.0,502.0
516.0,517.0,512.0,506.0
523.0,508.0,503.0,511.0
527.0,506.0,499.0,516.0
527.0,504.0,496.0,519.0
520.0,495.0,495.0,521.0
516.0,491.0,498.0,523.0
507.0,483.0,500.0,523.0
496.0,486.0,501.0,520.0
497.0,492.0,509.0,513.0
500.0,505.0,516.0,507.0
509.0,515.0,519.0,502.0
508.0,520.0,525.0,502.0
514.0,527.0,524.0,499.0
508.0,525.0,523.0,498.0
513.0,528.0,526.0,498.0
504.0,520.0,517.0,500.0
514.0,517.0,509.0,502.0
517.0,514.0,505.0,507.0
523.0,511.0,504.0,512.0
523.0,502.0,500.0,519.0
522.0,505.0,499.0,524.0
508.0,479.0,497.0,523.0
511.0,475.0,497.0,525.0
496.0,470.0,501.0,522.0
497.0,479.0,510.0,517.0
499.0,489.0,521.0,512.0
504.0,503.0,514.0,508.0
510.0,510.0,519.0,507.0
518.0,524.0,520.0,501.0
510.0,521.0,524.0,500.0
514.0,522.0,522.0,498.0
508.0,524.0,519.0,502.0
508.0,518.0,514.0,501.0
512.0,511.0,512.0,509.0
518.0,512.0,508.0,511.0
525.0,507.0,502.0,518.0
522.0,497.0,504.0,523.0
519.0,482.0,499.0,527.0
512.0,482.0,502.0,525.0
509.0,496.0,503.0,527.0
499.0,493.0,506.0,525.0
500.0,496.0,511.0,520.0
502.0,498.0,518.0,513.0
509.0,493.0,518.0,507.0
507.0,509.0,524.0,502.0
511.0,524.0,522.0,501.0
506.0,523.0,518.0,498.0
514.0,525.0,519.0,499.0
512.0,522.0,518.0,503.0
511.0,516.0,514.0,500.0
512.0,514.0,512.0,508.0
522.0,510.0,510.0,511.0
524.0,503.0,496.0,514.0
525.0,495.0,499.0,523.0
515.0,475.0,497.0,530.0
510.0,466.0,499.0,524.0
503.0,470.0,501.0,525.0
495.0,489.0,505.0,519.0
497.0,495.0,510.0,516.0
502.0,495.0,517.0,510.0
510.0,502.0,520.0,508.0
517.0,506.0,524.0,505.0
517.0,519.0,523.0,502.0
513.0,521.0,520.0,499.0
517.0,522.0,518.0,497.0
511.0,518.0,514.0,503.0
520.0,527.0,513.0,505.0
523.0,525.0,512.0,513.0
526.0,527.0,509.0,516.0
532.0,518.0,509.0,522.0
530.0,503.0,506.0,526.0
516.0,486.0,503.0,526.0
513.0,486.0,498.0,524.0
500.0,498.0,499.0,527.0
494.0,492.0,506.0,520.0
497.0,459.0,511.0,515.0
501.0,488.0,517.0,510.0
511.0,507.0,521.0,505.0
509.0,520.0,525.0,503.0
515.0,521.0,522.0,498.0
515.0,531.0,518.0,495.0
516.0,520.0,517.0,500.0
507.0,517.0,516.0,505.0
513.0,521.0,511.0,512.0
520.0,506.0,510.0,515.0
524.0,503.0,504.0,516.0
522.0,503.0,502.0,519.0
518.0,497.0,498.0,523.0
504.0,494.0,499.0,522.0
508.0,489.0,500.0,524.0
497.0,487.0,502.0,519.0
501.0,486.0,504.0,513.0
506.0,504.0,510.0,505.0
508.0,522.0,516.0,502.0
509.0,498.0,517.0,503.0
519.0,519.0,521.0,498.0
513.0,525.0,521.0,497.0
515.0,522.0,524.0,498.0
502.0,526.0,517.0,498.0
501.0,519.0,515.0,505.0
507.0,517.0,507.0,505.0
514.0,516.0,504.0,509.0
518.0,502.0,498.0,517.0
523.0,487.0,499.0,520.0
516.0,477.0,495.0,524.0
512.0,475.0,499.0,522.0
507.0,478.0,501.0,523.0
497.0,484.0,507.0,521.0
497.0,495.0,510.0,511.0
499.0,493.0,514.0,511.0
501.0,505.0,517.0,501.0
511.0,525.0,522.0,501.0
515.0,528.0,521.0,497.0
514.0,531.0,519.0,498.0
512.0,539.0,520.0,498.0
507.0,524.0,515.0,501.0
512.0,516.0,513.0,505.0
512.0,511.0,511.0,511.0
521.0,508.0,510.0,516.0
524.0,500.0,506.0,524.0
525.0,494.0,503.0,522.0
514.0,479.0,502.0,525.0
513.0,480.0,503.0,524.0
499.0,469.0,503.0,525.0
496.0,479.0,506.0,520.0
499.0,491.0,511.0,514.0
503.0,505.0,516.0,506.0
508.0,514.0,518.0,500.0
517.0,522.0,519.0,496.0
515.0,518.0,523.0,498.0
516.0,520.0,522.0,500.0
517.0,515.0,520.0,497.0
518.0,506.0,514.0,502.0
517.0,512.0,513.0,504.0
522.0,520.0,508.0,507.0
515.0,514.0,503.0,514.0
516.0,494.0,503.0,516.0
514.0,485.0,499.0,522.0
510.0,477.0,498.0,528.0
509.0,470.0,499.0,523.0
497.0,472.0,505.0,521.0
496.0,493.0,510.0,515.0
497.0,507.0,509.0,510.0
503.0,519.0,519.0,505.0
509.0,535.0,521.0,503.0
521.0,553.0,520.0,497.0
512.0,544.0,518.0,495.0
522.0,552.0,519.0,500.0
514.0,520.0,516.0,502.0
513.0,506.0,513.0,502.0
515.0,508.0,511.0,507.0
518.0,486.0,506.0,506.0
524.0,502.0,502.0,521.0
524.0,498.0,502.0,526.0
515.0,485.0,501.0,527.0
514.0,474.0,504.0,530.0
511.0,456.0,516.0,530.0
501.0,464.0,520.0,530.0
503.0,469.0,523.0,525.0
505.0,489.0,525.0,511.0
509.0,511.0,519.0,501.0
509.0,539.0,515.0,492.0
511.0,549.0,517.0,488.0
502.0,533.0,511.0,487.0
511.0,522.0,513.0,492.0
517.0,506.0,515.0,497.0
516.0,504.0,508.0,503.0
515.0,519.0,505.0,508.0
522.0,522.0,504.0,512.0
521.0,502.0,500.0,515.0
519.0,493.0,498.0,520.0
509.0,490.0,498.0,521.0
510.0,482.0,497.0,521.0
501.0,488.0,499.0,521.0
500.0,496.0,503.0,516.0
501.0,499.0,511.0,512.0
503.0,505.0,517.0,507.0
502.0,500.0,518.0,504.0
511.0,511.0,522.0,502.0
503.0,499.0,518.0,500.0
503.0,515.0,522.0,497.0
511.0,519.0,520.0,499.0
507.0,526.0,516.0,505.0
514.0,531.0,516.0,509.0
520.0,511.0,510.0,516.0
525.0,499.0,504.0,518.0
526.0,489.0,500.0,528.0
522.0,488.0,504.0,526.0
511.0,476.0,499.0,527.0
510.0,483.0,506.0,528.0
501.0,479.0,509.0,524.0
496.0,481.0,518.0,521.0
500.0,494.0,518.0,509.0
501.0,512.0,515.0,504.0
509.0,522.0,517.0,498.0
517.0,528.0,519.0,496.0
510.0,520.0,520.0,495.0
514.0,532.0,518.0,498.0
512.0,524.0,517.0,497.0
513.0,522.0,512.0,505.0
518.0,522.0,509.0,508.0
520.0,516.0,507.0,511.0
521.0,503.0,506.0,521.0
527.0,492.0,509.0,524.0
518.0,492.0,498.0,528.0
511.0,478.0,496.0,526.0
505.0,482.0,498.0,521.0
502.0,495.0,505.0,515.0
501.0,509.0,519.0,517.0
501.0,513.0,526.0,518.0
507.0,470.0,524.0,508.0
506.0,495.0,521.0,502.0
513.0,517.0,518.0,498.0
504.0,524.0,520.0,497.0
512.0,531.0,515.0,499.0
507.0,520.0,514.0,501.0
513.0,515.0,511.0,504.0
522.0,512.0,508.0,506.0
521.0,506.0,503.0,513.0
522.0,500.0,503.0,521.0
523.0,503.0,502.0,525.0
515.0,491.0,498.0,527.0
508.0,490.0,500.0,526.0
499.0,473.0,503.0,522.0
496.0,462.0,507.0,517.0
499.0,481.0,514.0,516.0
508.0,496.0,519.0,509.0
522.0,507.0,522.0,508.0
525.0,525.0,523.0,502.0
520.0,522.0,523.0,501.0
517.0,514.0,521.0,500.0
513.0,520.0,520.0,501.0
499.0,533.0,515.0,507.0
502.0,537.0,512.0,509.0
514.0,519.0,509.0,518.0
519.0,507.0,514.0,522.0
518.0,499.0,504.0,522.0
519.0,490.0,499.0,524.0
510.0,485.0,498.0,524.0
513.0,478.0,497.0,521.0
497.0,465.0,500.0,519.0
491.0,475.0,506.0,511.0
498.0,483.0,507.0,508.0
506.0,502.0,513.0,501.0
507.0,516.0,517.0,500.0
513.0,525.0,519.0,497.0
510.0,524.0,519.0,497.0
516.0,533.0,519.0,498.0
509.0,523.0,519.0,498.0
512.0,526.0,516.0,505.0
514.0,514.0,514.0,507.0
524.0,504.0,508.0,513.0
527.0,498.0,509.0,517.0
527.0,487.0,503.0,524.0
518.0,476.0,499.0,526.0
513.0,487.0,497.0,526.0
507.0,487.0,505.0,523.0
495.0,483.0,503.0,520.0
498.0,478.0,509.0,515.0
502.0,490.0,516.0,510.0
508.0,494.0,520.0,505.0
512.0,506.0,519.0,505.0
517.0,534.0,523.0,500.0
509.0,536.0,522.0,499.0
514.0,534.0,522.0,497.0
509.0,523.0,516.0,502.0
510.0,520.0,510.0,505.0
516.0,519.0,510.0,509.0
522.0,506.0,507.0,514.0
526.0,494.0,504.0,518.0
519.0,500.0,502.0,521.0
509.0,479.0,501.0,525.0
509.0,493.0,498.0,528.0
499.0,485.0,503.0,524.0
496.0,487.0,511.0,522.0
499.0,496.0,514.0,515.0
505.0,504.0,516.0,510.0
508.0,514.0,520.0,502.0
515.0,523.0,524.0,498.0
514.0,526.0,522.0,498.0
514.0,529.0,523.0,497.0
514.0,530.0,522.0,498.0
519.0,523.0,515.0,502.0
514.0,511.0,512.0,506.0
518.0,508.0,508.0,507.0
526.0,515.0,501.0,516.0
529.0,520.0,499.0,517.0
526.0,524.0,494.0,518.0
516.0,509.0,500.0,523.0
510.0,488.0,499.0,523.0
491.0,436.0,504.0,521.0
494.0,452.0,509.0,518.0
497.0,461.0,515.0,512.0
503.0,478.0,520.0,505.0
509.0,503.0,518.0,501.0
520.0,525.0,522.0,499.0
519.0,532.0,521.0,498.0
516.0,528.0,520.0,497.0
512.0,524.0,520.0,500.0
515.0,519.0,518.0,503.0
510.0,516.0,510.0,507.0
517.0,504.0,508.0,512.0
523.0,491.0,506.0,517.0
518.0,495.0,504.0,526.0
513.0,498.0,505.0,527.0
511.0,486.0,503.0,523.0
505.0,483.0,500.0,523.0
500.0,484.0,504.0,518.0
502.0,488.0,509.0,514.0
502.0,493.0,512.0,511.0
507.0,504.0,516.0,502.0
512.0,526.0,520.0,496.0
517.0,535.0,520.0,494.0
513.0,532.0,513.0,494.0
516.0,530.0,517.0,500.0
508.0,526.0,515.0,501.0
513.0,517.0,514.0,504.0
515.0,514.0,514.0,509.0
520.0,510.0,508.0,515.0
522.0,496.0,506.0,522.0
524.0,497.0,502.0,526.0
512.0,482.0,496.0,520.0
513.0,475.0,499.0,522.0
503.0,470.0,500.0,523.0
498.0,467.0,507.0,519.0
496.0,476.0,515.0,513.0
501.0,487.0,521.0,511.0
505.0,505.0,524.0,506.0
508.0,533.0,526.0,501.0
510.0,548.0,522.0,499.0
504.0,531.0,520.0,496.0
512.0,528.0,518.0,499.0
509.0,522.0,513.0,499.0
514.0,513.0,513.0,502.0
524.0,509.0,506.0,506.0
527.0,499.0,503.0,510.0
525.0,485.0,499.0,518.0
525.0,493.0,499.0,520.0
510.0,483.0,498.0,520.0
513.0,497.0,498.0,523.0
501.0,486.0,501.0,524.0
502.0,490.0,506.0,515.0
506.0,498.0,513.0,511.0
513.0,509.0,516.0,507.0
507.0,515.0,524.0,505.0
506.0,525.0,525.0,504.0
501.0,522.0,526.0,503.0
504.0,529.0,527.0,501.0
500.0,524.0,522.0,502.0
500.0,522.0,517.0,505.0
510.0,514.0,511.0,510.0
518.0,511.0,504.0,513.0
522.0,509.0,503.0,516.0
521.0,499.0,501.0,519.0
518.0,487.0,502.0,522.0
513.0,478.0,500.0,527.0
505.0,472.0,506.0,528.0
498.0,473.0,505.0,522.0
501.0,483.0,511.0,517.0
503.0,492.0,516.0,510.0
507.0,508.0,519.0,500.0
510.0,517.0,522.0,500.0
519.0,529.0,526.0,499.0
514.0,523.0,525.0,495.0
516.0,535.0,516.0,496.0
510.0,525.0,517.0,496.0
514.0,531.0,511.0,500.0
514.0,517.0,509.0,507.0
517.0,484.0,505.0,512.0
518.0,490.0,500.0,520.0
524.0,492.0,503.0,523.0
507.0,473.0,495.0,522.0
508.0,490.0,503.0,524.0
501.0,487.0,502.0,523.0
502.0,487.0,511.0,519.0
504.0,492.0,517.0,513.0
508.0,504.0,519.0,511.0
509.0,512.0,523.0,506.0
513.0,532.0,524.0,502.0
517.0,539.0,521.0,500.0
514.0,534.0,521.0,498.0
517.0,539.0,518.0,497.0
511.0,508.0,516.0,504.0
511.0,494.0,512.0,507.0
516.0,508.0,511.0,509.0
520.0,503.0,504.0,518.0
520.0,495.0,502.0,528.0
522.0,497.0,499.0,522.0
514.0,484.0,501.0,523.0
513.0,477.0,505.0,527.0
497.0,467.0,509.0,529.0
495.0,476.0,515.0,525.0
497.0,485.0,521.0,518.0
509.0,510.0,520.0,507.0
512.0,515.0,520.0,499.0
517.0,517.0,523.0,498.0
514.0,517.0,520.0,494.0
513.0,521.0,517.0,496.0
509.0,529.0,518.0,496.0
509.0,526.0,512.0,501.0
515.0,526.0,512.0,505.0
517.0,518.0,508.0,512.0
521.0,509.0,501.0,517.0
517.0,488.0,501.0,520.0
516.0,483.0,500.0,522.0
509.0,472.0,500.0,525.0
510.0,474.0,503.0,524.0
501.0,471.0,505.0,520.0
496.0,482.0,512.0,515.0
501.0,499.0,516.0,511.0
510.0,517.0,521.0,505.0
514.0,524.0,522.0,507.0
516.0,532.0,522.0,499.0
513.0,519.0,520.0,500.0
517.0,536.0,519.0,499.0
516.0,539.0,518.0,503.0
513.0,530.0,514.0,508.0
515.0,528.0,516.0,511.0
525.0,511.0,511.0,518.0
526.0,489.0,508.0,524.0
522.0,470.0,508.0,524.0
513.0,470.0,498.0,527.0
506.0,483.0,501.0,526.0
495.0,478.0,508.0,525.0
492.0,490.0,509.0,520.0
495.0,495.0,511.0,512.0
502.0,506.0,512.0,506.0
507.0,516.0,520.0,505.0
512.0,521.0,522.0,503.0
511.0,524.0,523.0,502.0
505.0,525.0,523.0,500.0
514.0,533.0,528.0,501.0
507.0,524.0,521.0,505.0
515.0,514.0,514.0,504.0
525.0,510.0,510.0,509.0
523.0,498.0,503.0,514.0
521.0,482.0,499.0,521.0
522.0,486.0,503.0,527.0
510.0,477.0,501.0,527.0
504.0,487.0,505.0,525.0
494.0,482.0,508.0,523.0
494.0,489.0,510.0,520.0
500.0,494.0,516.0,513.0
504.0,504.0,518.0,506.0
507.0,507.0,523.0,499.0
516.0,522.0,524.0,500.0
513.0,519.0,519.0,500.0
510.0,520.0,517.0,500.0
514.0,525.0,515.0,500.0
512.0,524.0,512.0,499.0
516.0,519.0,509.0,504.0
521.0,513.0,505.0,512.0
525.0,510.0,503.0,516.0
525.0,511.0,500.0,523.0
516.0,486.0,500.0,527.0
505.0,472.0,501.0,525.0
511.0,473.0,501.0,523.0
493.0,477.0,506.0,521.0
501.0,491.0,510.0,517.0
503.0,507.0,521.0,510.0
513.0,518.0,521.0,509.0
516.0,540.0,523.0,506.0
515.0,508.0,523.0,503.0
512.0,501.0,525.0,501.0
516.0,511.0,524.0,502.0
509.0,506.0,522.0,502.0
510.0,500.0,515.0,504.0
514.0,512.0,507.0,507.0
523.0,501.0,504.0,511.0
520.0,491.0,501.0,519.0
524.0,493.0,501.0,526.0
514.0,477.0,497.0,525.0
508.0,470.0,498.0,526.0
502.0,472.0,503.0,524.0
493.0,472.0,505.0,520.0
495.0,499.0,514.0,517.0
500.0,522.0,519.0,511.0
506.0,515.0,523.0,506.0
510.0,517.0,523.0,502.0
517.0,534.0,525.0,500.0
515.0,519.0,523.0,501.0
514.0,510.0,519.0,500.0
511.0,511.0,513.0,500.0
513.0,508.0,511.0,507.0
516.0,516.0,506.0,506.0
521.0,517.0,505.0,517.0
521.0,507.0,505.0,523.0
523.0,500.0,499.0,523.0
514.0,482.0,503.0,527.0
514.0,482.0,502.0,527.0
502.0,479.0,505.0,525.0
504.0,494.0,510.0,520.0
505.0,504.0,515.0,514.0
503.0,508.0,517.0,508.0
503.0,517.0,522.0,504.0
507.0,510.0,523.0,503.0
505.0,520.0,521.0,502.0
507.0,530.0,521.0,498.0
509.0,529.0,518.0,499.0
510.0,521.0,510.0,504.0
515.0,531.0,508.0,504.0
521.0,531.0,508.0,510.0
524.0,512.0,507.0,517.0
525.0,494.0,499.0,519.0
523.0,477.0,499.0,524.0
510.0,462.0,500.0,524.0
510.0,471.0,504.0,525.0
499.0,488.0,503.0,526.0
498.0,492.0,510.0,519.0
502.0,504.0,516.0,513.0
502.0,515.0,523.0,511.0
506.0,523.0,526.0,506.0
518.0,531.0,530.0,505.0
509.0,526.0,527.0,501.0
514.0,522.0,524.0,497.0
509.0,510.0,519.0,501.0
513.0,499.0,524.0,505.0
518.0,496.0,512.0,506.0
521.0,500.0,504.0,510.0
523.0,498.0,498.0,516.0
520.0,500.0,498.0,518.0
516.0,501.0,496.0,521.0
510.0,493.0,499.0,523.0
503.0,479.0,499.0,522.0
493.0,477.0,504.0,519.0
500.0,485.0,509.0,514.0
505.0,501.0,514.0,512.0
509.0,516.0,521.0,506.0
512.0,523.0,521.0,501.0
517.0,529.0,528.0,501.0
511.0,524.0,526.0,500.0
517.0,527.0,524.0,502.0
513.0,518.0,520.0,502.0
516.0,513.0,508.0,501.0
519.0,509.0,510.0,513.0
525.0,501.0,508.0,515.0
520.0,499.0,501.0,522.0
520.0,494.0,502.0,526.0
512.0,479.0,500.0,525.0
511.0,479.0,498.0,522.0
499.0,473.0,500.0,519.0
498.0,477.0,506.0,514.0
500.0,483.0,511.0,515.0
509.0,498.0,516.0,507.0
507.0,526.0,518.0,502.0
516.0,535.0,522.0,503.0
512.0,536.0,524.0,497.0
515.0,531.0,521.0,502.0
514.0,525.0,522.0,503.0
512.0,516.0,517.0,504.0
514.0,491.0,516.0,511.0
522.0,492.0,516.0,513.0
523.0,506.0,507.0,520.0
523.0,498.0,503.0,525.0
516.0,492.0,501.0,525.0
506.0,477.0,502.0,524.0
507.0,485.0,497.0,519.0
502.0,482.0,502.0,518.0
499.0,488.0,513.0,515.0
502.0,493.0,518.0,511.0
510.0,508.0,523.0,506.0
509.0,518.0,524.0,504.0
520.0,530.0,521.0,499.0
515.0,531.0,519.0,495.0
511.0,520.0,516.0,498.0
506.0,510.0,516.0,500.0
513.0,512.0,514.0,505.0
511.0,502.0,513.0,508.0
516.0,508.0,508.0,513.0
519.0,505.0,501.0,520.0
517.0,495.0,500.0,523.0
511.0,490.0,496.0,523.0
507.0,489.0,498.0,521.0
505.0,476.0,501.0,520.0
502.0,476.0,509.0,518.0
501.0,489.0,512.0,514.0
506.0,505.0,519.0,511.0
508.0,521.0,524.0,506.0
511.0,534.0,522.0,503.0
513.0,535.0,523.0,499.0
511.0,518.0,522.0,499.0
516.0,520.0,520.0,498.0
516.0,514.0,517.0,503.0
520.0,499.0,512.0,503.0
526.0,506.0,509.0,511.0
534.0,512.0,507.0,514.0
531.0,512.0,500.0,521.0
530.0,513.0,501.0,522.0
518.0,494.0,498.0,527.0
508.0,492.0,503.0,521.0
485.0,444.0,503.0,519.0
482.0,460.0,511.0,514.0
492.0,498.0,515.0,512.0
501.0,511.0,518.0,507.0
508.0,528.0,521.0,502.0
513.0,518.0,524.0,502.0
508.0,526.0,525.0,496.0
510.0,530.0,519.0,497.0
510.0,528.0,513.0,499.0
510.0,517.0,515.0,501.0
511.0,509.0,511.0,509.0
518.0,508.0,513.0,513.0
523.0,512.0,507.0,517.0
526.0,502.0,503.0,524.0
520.0,498.0,503.0,526.0
509.0,484.0,501.0,523.0
507.0,483.0,499.0,526.0
496.0,474.0,506.0,519.0
498.0,485.0,512.0,515.0
501.0,495.0,520.0,511.0
503.0,504.0,519.0,507.0
503.0,520.0,521.0,503.0
513.0,527.0,523.0,498.0
513.0,531.0,519.0,495.0
516.0,533.0,522.0,499.0
512.0,525.0,518.0,501.0
516.0,522.0,516.0,505.0
517.0,518.0,514.0,508.0
525.0,512.0,507.0,514.0
526.0,508.0,503.0,518.0
524.0,499.0,503.0,523.0
517.0,484.0,495.0,522.0
509.0,480.0,497.0,525.0
501.0,470.0,502.0,522.0
496.0,474.0,506.0,517.0
497.0,482.0,510.0,513.0
502.0,490.0,518.0,508.0
509.0,502.0,522.0,505.0
514.0,520.0,523.0,502.0
512.0,531.0,524.0,502.0
513.0,530.0,521.0,496.0
518.0,536.0,517.0,496.0
514.0,522.0,516.0,506.0
515.0,513.0,512.0,507.0
521.0,512.0,510.0,510.0
523.0,505.0,504.0,514.0
518.0,495.0,500.0,521.0
517.0,492.0,499.0,524.0
510.0,479.0,498.0,525.0
508.0,478.0,498.0,523.0
498.0,472.0,503.0,521.0
496.0,478.0,510.0,518.0
499.0,489.0,518.0,514.0
506.0,504.0,520.0,509.0
507.0,513.0,522.0,505.0
515.0,520.0,526.0,502.0
511.0,522.0,523.0,498.0
502.0,524.0,522.0,500.0
504.0,531.0,522.0,501.0
505.0,526.0,518.0,506.0
515.0,522.0,515.0,508.0
522.0,514.0,512.0,515.0
528.0,513.0,509.0,523.0
523.0,479.0,508.0,525.0
523.0,477.0,500.0,526.0
506.0,483.0,501.0,527.0
508.0,490.0,500.0,526.0
497.0,487.0,505.0,520.0
492.0,491.0,509.0,517.0
495.0,499.0,516.0,512.0
504.0,514.0,521.0,506.0
504.0,522.0,522.0,501.0
517.0,541.0,523.0,502.0
513.0,537.0,518.0,497.0
513.0,522.0,518.0,496.0
511.0,518.0,511.0,497.0
511.0,518.0,508.0,501.0
513.0,513.0,509.0,506.0
519.0,505.0,511.0,513.0
522.0,501.0,501.0,522.0
524.0,495.0,499.0,519.0
514.0,487.0,499.0,523.0
508.0,479.0,500.0,526.0
502.0,468.0,500.0,522.0
497.0,472.0,506.0,521.0
498.0,481.0,515.0,514.0
506.0,487.0,516.0,507.0
504.0,496.0,521.0,504.0
506.0,507.0,526.0,505.0
514.0,523.0,525.0,503.0
511.0,538.0,519.0,500.0
511.0,541.0,524.0,500.0
513.0,552.0,516.0,505.0
519.0,548.0,513.0,508.0
520.0,540.0,510.0,514.0
526.0,520.0,505.0,521.0
523.0,486.0,499.0,523.0
519.0,459.0,496.0,527.0
514.0,463.0,502.0,531.0
511.0,467.0,504.0,527.0
493.0,467.0,511.0,527.0
494.0,463.0,520.0,523.0
499.0,493.0,523.0,520.0
505.0,523.0,522.0,510.0
505.0,530.0,520.0,501.0
517.0,531.0,518.0,496.0
517.0,533.0,517.0,495.0
514.0,528.0,517.0,498.0
516.0,527.0,516.0,494.0
514.0,511.0,511.0,507.0
514.0,513.0,506.0,503.0
519.0,507.0,507.0,507.0
518.0,501.0,504.0,514.0
520.0,500.0,501.0,517.0
523.0,500.0,500.0,523.0
502.0,485.0,498.0,524.0
502.0,488.0,500.0,523.0
492.0,473.0,509.0,518.0
499.0,478.0,508.0,514.0
494.0,497.0,512.0,509.0
501.0,512.0,518.0,507.0
509.0,521.0,520.0,505.0
515.0,526.0,522.0,501.0
513.0,523.0,522.0,499.0
514.0,524.0,520.0,500.0
508.0,514.0,519.0,500.0
509.0,515.0,517.0,506.0
511.0,511.0,512.0,507.0
518.0,514.0,506.0,512.0
519.0,512.0,501.0,518.0
522.0,501.0,499.0,521.0
515.0,491.0,500.0,523.0
503.0,476.0,509.0,522.0
499.0,470.0,498.0,521.0
490.0,480.0,503.0,519.0
497.0,492.0,509.0,514.0
503.0,505.0,519.0,508.0
511.0,516.0,528.0,505.0
511.0,520.0,524.0,505.0
515.0,527.0,522.0,501.0
514.0,522.0,524.0,501.0
519.0,524.0,520.0,501.0
513.0,518.0,516.0,500.0
516.0,521.0,507.0,509.0
521.0,517.0,509.0,510.0
523.0,510.0,503.0,513.0
522.0,499.0,502.0,521.0
523.0,492.0,502.0,524.0
508.0,487.0,501.0,524.0
511.0,487.0,503.0,525.0
497.0,479.0,502.0,521.0
492.0,483.0,508.0,515.0
500.0,491.0,513.0,513.0
504.0,503.0,517.0,511.0
509.0,515.0,523.0,504.0
517.0,527.0,524.0,501.0
515.0,525.0,524.0,499.0
507.0,519.0,520.0,500.0
514.0,523.0,518.0,500.0
511.0,517.0,514.0,502.0
510.0,519.0,513.0,508.0
520.0,515.0,507.0,510.0
523.0,507.0,502.0,518.0
517.0,494.0,502.0,523.0
521.0,487.0,502.0,523.0
513.0,479.0,500.0,525.0
511.0,474.0,503.0,523.0
498.0,474.0,507.0,522.0
498.0,483.0,511.0,518.0
501.0,491.0,515.0,509.0
509.0,499.0,519.0,510.0
511.0,509.0,522.0,503.0
515.0,527.0,525.0,502.0
517.0,537.0,524.0,502.0
511.0,537.0,522.0,499.0
512.0,527.0,519.0,504.0
513.0,522.0,516.0,507.0
517.0,505.0,510.0,513.0
519.0,494.0,506.0,513.0
519.0,495.0,503.0,518.0
529.0,498.0,500.0,520.0
517.0,490.0,499.0,522.0
504.0,489.0,495.0,523.0
500.0,479.0,502.0,525.0
493.0,476.0,506.0,518.0
498.0,485.0,515.0,515.0
497.0,478.0,520.0,513.0
501.0,497.0,526.0,510.0
510.0,526.0,524.0,504.0
516.0,540.0,523.0,500.0
511.0,528.0,521.0,496.0
518.0,540.0,517.0,499.0
509.0,524.0,517.0,501.0
512.0,511.0,510.0,502.0
515.0,508.0,509.0,509.0
522.0,516.0,506.0,517.0
522.0,505.0,500.0,521.0
523.0,493.0,501.0,523.0
509.0,467.0,498.0,523.0
509.0,469.0,501.0,523.0
496.0,462.0,504.0,522.0
492.0,466.0,507.0,519.0
496.0,490.0,513.0,518.0
506.0,505.0,520.0,510.0
507.0,516.0,523.0,504.0
513.0,524.0,524.0,502.0
510.0,524.0,526.0,505.0
509.0,528.0,523.0,508.0
512.0,533.0,523.0,507.0
512.0,522.0,519.0,509.0
516.0,515.0,516.0,515.0
523.0,513.0,513.0,521.0
526.0,505.0,511.0,520.0
520.0,495.0,511.0,526.0
523.0,493.0,511.0,526.0
514.0,479.0,501.0,521.0
509.0,481.0,497.0,520.0
496.0,481.0,495.0,518.0
498.0,494.0,502.0,511.0
498.0,503.0,509.0,505.0
499.0,511.0,512.0,501.0
502.0,514.0,519.0,497.0
508.0,523.0,518.0,498.0
499.0,510.0,518.0,497.0
495.0,518.0,516.0,498.0
500.0,524.0,517.0,498.0
504.0,518.0,513.0,502.0
519.0,518.0,511.0,507.0
531.0,518.0,507.0,513.0
535.0,512.0,503.0,513.0
534.0,496.0,500.0,517.0
528.0,483.0,498.0,521.0
511.0,477.0,501.0,525.0
501.0,477.0,502.0,526.0
497.0,481.0,506.0,524.0
496.0,486.0,513.0,519.0
496.0,498.0,518.0,512.0
512.0,511.0,519.0,506.0
518.0,515.0,519.0,502.0
520.0,522.0,521.0,502.0
519.0,521.0,522.0,499.0
516.0,523.0,521.0,502.0
515.0,515.0,521.0,502.0
524.0,525.0,514.0,505.0
524.0,521.0,508.0,511.0
523.0,512.0,507.0,516.0
522.0,501.0,501.0,519.0
520.0,492.0,502.0,524.0
501.0,480.0,502.0,527.0
503.0,484.0,501.0,529.0
486.0,476.0,506.0,525.0
482.0,488.0,512.0,522.0
488.0,502.0,521.0,522.0
495.0,500.0,524.0,513.0
513.0,509.0,524.0,505.0
517.0,524.0,522.0,501.0
523.0,529.0,521.0,498.0
515.0,517.0,519.0,499.0
510.0,516.0,518.0,501.0
507.0,510.0,515.0,504.0
512.0,512.0,510.0,506.0
516.0,510.0,507.0,511.0
527.0,503.0,507.0,519.0
541.0,494.0,501.0,519.0
536.0,488.0,500.0,523.0
523.0,481.0,496.0,525.0
516.0,485.0,500.0,526.0
500.0,477.0,508.0,521.0
497.0,490.0,508.0,517.0
501.0,498.0,520.0,513.0
501.0,510.0,519.0,509.0
500.0,510.0,521.0,504.0
506.0,525.0,523.0,501.0
502.0,518.0,523.0,501.0
502.0,523.0,523.0,500.0
506.0,512.0,520.0,504.0
521.0,509.0,514.0,504.0
528.0,510.0,511.0,507.0
532.0,519.0,506.0,515.0
533.0,509.0,507.0,518.0
531.0,501.0,504.0,519.0
522.0,488.0,499.0,523.0
511.0,468.0,501.0,524.0
508.0,466.0,501.0,525.0
502.0,472.0,510.0,522.0
501.0,487.0,511.0,517.0
503.0,500.0,519.0,511.0
507.0,513.0,523.0,506.0
509.0,518.0,523.0,504.0
517.0,519.0,524.0,503.0
513.0,519.0,524.0,500.0
522.0,523.0,526.0,506.0
514.0,516.0,517.0,506.0
516.0,514.0,512.0,504.0
521.0,517.0,508.0,508.0
518.0,502.0,506.0,519.0
516.0,501.0,505.0,521.0
511.0,491.0,502.0,523.0
514.0,501.0,502.0,524.0
515.0,494.0,502.0,527.0
504.0,479.0,506.0,529.0
505.0,477.0,511.0,524.0
500.0,487.0,513.0,516.0
504.0,501.0,517.0,507.0
506.0,517.0,524.0,504.0
514.0,524.0,524.0,499.0
513.0,529.0,517.0,499.0
509.0,527.0,524.0,500.0
513.0,529.0,522.0,499.0
514.0,521.0,520.0,504.0
513.0,518.0,511.0,510.0
521.0,509.0,506.0,513.0
525.0,506.0,504.0,518.0
525.0,501.0,504.0,529.0
521.0,494.0,504.0,529.0
510.0,485.0,504.0,528.0
508.0,477.0,512.0,528.0
495.0,468.0,517.0,531.0
498.0,485.0,510.0,529.0
500.0,491.0,520.0,517.0
504.0,504.0,521.0,508.0
506.0,515.0,519.0,501.0
518.0,538.0,519.0,495.0
514.0,532.0,522.0,496.0
509.0,529.0,519.0,496.0
511.0,526.0,517.0,499.0
513.0,520.0,511.0,504.0
513.0,517.0,509.0,506.0
521.0,513.0,505.0,514.0
522.0,517.0,502.0,519.0
524.0,504.0,503.0,523.0
521.0,499.0,497.0,525.0
508.0,487.0,500.0,528.0
504.0,484.0,502.0,525.0
495.0,472.0,509.0,520.0
497.0,483.0,513.0,516.0
497.0,493.0,518.0,511.0
504.0,508.0,520.0,508.0
506.0,515.0,517.0,499.0
514.0,523.0,517.0,494.0
514.0,518.0,521.0,498.0
515.0,523.0,519.0,502.0
509.0,517.0,518.0,504.0
514.0,513.0,512.0,508.0
519.0,514.0,507.0,503.0
522.0,509.0,506.0,507.0
523.0,498.0,506.0,523.0
520.0,496.0,506.0,533.0
509.0,475.0,502.0,532.0
508.0,472.0,498.0,526.0
499.0,470.0,493.0,512.0
497.0,478.0,505.0,513.0
497.0,491.0,516.0,516.0
501.0,500.0,522.0,508.0
502.0,515.0,518.0,500.0
513.0,526.0,522.0,502.0
516.0,533.0,523.0,507.0
509.0,528.0,522.0,501.0
511.0,526.0,510.0,492.0
506.0,517.0,513.0,502.0
507.0,504.0,520.0,520.0
507.0,501.0,519.0,516.0
507.0,501.0,501.0,526.0
511.0,489.0,498.0,522.0
512.0,485.0,504.0,519.0
496.0,473.0,501.0,521.0
503.0,485.0,503.0,528.0
496.0,476.0,507.0,543.0
509.0,488.0,513.0,532.0
515.0,495.0,511.0,511.0
519.0,510.0,514.0,506.0
517.0,517.0,520.0,504.0
519.0,529.0,524.0,497.0
513.0,525.0,521.0,499.0
509.0,523.0,518.0,499.0
511.0,524.0,522.0,499.0
512.0,519.0,514.0,501.0
515.0,510.0,509.0,505.0
523.0,508.0,507.0,512.0
532.0,504.0,504.0,517.0
526.0,500.0,501.0,524.0
519.0,487.0,504.0,525.0
506.0,480.0,498.0,525.0
508.0,479.0,501.0,517.0
496.0,475.0,505.0,520.0
492.0,485.0,515.0,517.0
490.0,502.0,518.0,510.0
503.0,513.0,521.0,505.0
508.0,518.0,527.0,502.0
