CH1,CH2,CH3,CH4
501.0,524.0,516.0,512.0
507.0,515.0,511.0,514.0
507.0,501.0,504.0,520.0
507.0,488.0,502.0,522.0
510.0,483.0,500.0,528.0
508.0,476.0,500.0,521.0
498.0,481.0,500.0,523.0
494.0,478.0,506.0,520.0
493.0,488.0,510.0,513.0
499.0,498.0,518.0,507.0
501.0,520.0,521.0,507.0
508.0,525.0,523.0,502.0
514.0,521.0,519.0,503.0
512.0,520.0,519.0,499.0
516.0,521.0,517.0,500.0
510.0,513.0,516.0,505.0
512.0,521.0,515.0,507.0
518.0,516.0,513.0,513.0
520.0,506.0,507.0,516.0
521.0,497.0,507.0,520.0
519.0,485.0,505.0,520.0
512.0,488.0,495.0,519.0
507.0,485.0,499.0,523.0
499.0,474.0,504.0,523.0
494.0,479.0,512.0,521.0
500.0,495.0,516.0,517.0
506.0,509.0,519.0,512.0
505.0,520.0,521.0,507.0
508.0,528.0,524.0,506.0
513.0,535.0,524.0,505.0
512.0,536.0,524.0,505.0
506.0,530.0,523.0,505.0
508.0,520.0,515.0,506.0
515.0,526.0,512.0,507.0
524.0,497.0,509.0,510.0
526.0,490.0,508.0,514.0
526.0,488.0,506.0,521.0
524.0,479.0,503.0,522.0
524.0,470.0,496.0,521.0
513.0,467.0,498.0,520.0
498.0,467.0,502.0,518.0
494.0,487.0,508.0,513.0
494.0,509.0,512.0,511.0
502.0,528.0,517.0,508.0
505.0,537.0,521.0,506.0
510.0,515.0,521.0,504.0
506.0,527.0,525.0,501.0
510.0,534.0,523.0,505.0
505.0,524.0,523.0,504.0
510.0,510.0,521.0,511.0
517.0,511.0,514.0,511.0
519.0,508.0,507.0,513.0
520.0,498.0,498.0,513.0
522.0,494.0,491.0,515.0
516.0,490.0,501.0,516.0
505.0,481.0,499.0,521.0
498.0,482.0,499.0,525.0
496.0,485.0,504.0,517.0
499.0,499.0,506.0,516.0
501.0,507.0,515.0,507.0
507.0,522.0,519.0,505.0
511.0,529.0,524.0,506.0
517.0,540.0,523.0,503.0
515.0,525.0,521.0,504.0
515.0,511.0,519.0,501.0
510.0,499.0,520.0,507.0
510.0,498.0,518.0,512.0
516.0,516.0,514.0,514.0
521.0,509.0,508.0,518.0
526.0,506.0,501.0,519.0
528.0,505.0,497.0,519.0
524.0,498.0,500.0,521.0
516.0,490.0,498.0,519.0
501.0,468.0,504.0,523.0
499.0,485.0,508.0,520.0
504.0,498.0,517.0,517.0
508.0,509.0,521.0,512.0
514.0,519.0,528.0,511.0
513.0,527.0,529.0,508.0
516.0,537.0,529.0,507.0
515.0,523.0,525.0,499.0
516.0,518.0,517.0,495.0
509.0,503.0,512.0,502.0
508.0,505.0,505.0,504.0
512.0,496.0,504.0,509.0
518.0,490.0,497.0,510.0
518.0,488.0,499.0,519.0
524.0,499.0,499.0,526.0
512.0,474.0,494.0,523.0
507.0,492.0,498.0,523.0
495.0,487.0,504.0,523.0
492.0,490.0,509.0,521.0
496.0,508.0,512.0,513.0
502.0,520.0,518.0,510.0
504.0,511.0,518.0,502.0
515.0,525.0,522.0,504.0
517.0,525.0,524.0,502.0
513.0,519.0,524.0,504.0
509.0,516.0,521.0,503.0
515.0,523.0,517.0,509.0
514.0,518.0,513.0,510.0
515.0,501.0,505.0,515.0
520.0,505.0,501.0,518.0
520.0,505.0,500.0,521.0
520.0,495.0,500.0,519.0
514.0,488.0,500.0,520.0
499.0,472.0,502.0,523.0
493.0,473.0,508.0,522.0
492.0,484.0,512.0,516.0
497.0,499.0,516.0,512.0
508.0,509.0,522.0,508.0
513.0,525.0,524.0,507.0
520.0,540.0,522.0,503.0
515.0,540.0,520.0,499.0
516.0,541.0,519.0,502.0
508.0,507.0,515.0,503.0
510.0,507.0,513.0,510.0
518.0,511.0,516.0,513.0
523.0,507.0,508.0,520.0
526.0,506.0,507.0,522.0
521.0,498.0,506.0,522.0
518.0,491.0,506.0,524.0
516.0,479.0,504.0,521.0
502.0,470.0,500.0,517.0
495.0,477.0,501.0,511.0
498.0,487.0,513.0,505.0
501.0,506.0,515.0,508.0
505.0,520.0,518.0,506.0
510.0,525.0,524.0,504.0
514.0,529.0,527.0,503.0
514.0,525.0,523.0,499.0
515.0,523.0,514.0,494.0
512.0,519.0,509.0,498.0
517.0,512.0,507.0,505.0
523.0,509.0,503.0,506.0
524.0,512.0,504.0,517.0
524.0,497.0,502.0,521.0
523.0,491.0,500.0,524.0
519.0,488.0,500.0,525.0
510.0,473.0,505.0,527.0
493.0,468.0,507.0,526.0
494.0,477.0,515.0,522.0
499.0,500.0,521.0,518.0
506.0,516.0,524.0,511.0
509.0,528.0,523.0,502.0
516.0,536.0,518.0,494.0
516.0,533.0,513.0,491.0
514.0,527.0,513.0,494.0
508.0,512.0,510.0,499.0
511.0,514.0,508.0,495.0
511.0,522.0,507.0,504.0
518.0,510.0,503.0,510.0
524.0,503.0,500.0,514.0
526.0,495.0,499.0,521.0
522.0,489.0,499.0,522.0
518.0,488.0,500.0,525.0
504.0,475.0,506.0,522.0
498.0,478.0,510.0,522.0
492.0,493.0,510.0,516.0
500.0,507.0,515.0,506.0
506.0,516.0,517.0,503.0
511.0,514.0,518.0,504.0
522.0,523.0,520.0,500.0
519.0,525.0,521.0,499.0
517.0,523.0,518.0,500.0
506.0,518.0,513.0,503.0
511.0,498.0,509.0,506.0
512.0,496.0,504.0,508.0
518.0,505.0,504.0,519.0
516.0,502.0,506.0,523.0
526.0,492.0,507.0,528.0
516.0,482.0,505.0,527.0
507.0,475.0,507.0,524.0
498.0,471.0,505.0,520.0
496.0,477.0,509.0,515.0
497.0,492.0,514.0,512.0
501.0,508.0,517.0,507.0
509.0,519.0,521.0,503.0
511.0,526.0,524.0,501.0
520.0,528.0,519.0,496.0
521.0,525.0,518.0,497.0
518.0,522.0,515.0,497.0
518.0,511.0,515.0,501.0
527.0,508.0,509.0,505.0
528.0,517.0,507.0,514.0
525.0,504.0,506.0,515.0
519.0,499.0,501.0,519.0
520.0,496.0,503.0,527.0
504.0,485.0,501.0,523.0
499.0,474.0,499.0,523.0
494.0,470.0,502.0,517.0
499.0,491.0,510.0,512.0
504.0,510.0,512.0,505.0
506.0,520.0,518.0,509.0
509.0,526.0,519.0,502.0
509.0,499.0,523.0,502.0
511.0,508.0,521.0,498.0
513.0,522.0,519.0,502.0
507.0,513.0,518.0,504.0
508.0,513.0,518.0,513.0
517.0,520.0,516.0,515.0
525.0,516.0,510.0,520.0
525.0,496.0,504.0,523.0
520.0,487.0,501.0,524.0
519.0,485.0,501.0,521.0
514.0,481.0,501.0,523.0
499.0,478.0,501.0,523.0
487.0,488.0,506.0,515.0
487.0,493.0,511.0,512.0
500.0,507.0,516.0,507.0
507.0,518.0,520.0,503.0
509.0,521.0,520.0,500.0
516.0,531.0,522.0,501.0
511.0,529.0,519.0,500.0
516.0,524.0,519.0,499.0
512.0,516.0,513.0,503.0
514.0,515.0,509.0,506.0
520.0,515.0,507.0,506.0
521.0,512.0,504.0,513.0
524.0,512.0,502.0,518.0
527.0,504.0,505.0,523.0
519.0,491.0,501.0,528.0
516.0,490.0,501.0,523.0
500.0,475.0,504.0,522.0
501.0,482.0,513.0,516.0
500.0,486.0,514.0,511.0
502.0,498.0,519.0,508.0
509.0,514.0,523.0,506.0
509.0,530.0,524.0,500.0
513.0,536.0,523.0,500.0
515.0,528.0,524.0,503.0
513.0,505.0,515.0,501.0
514.0,509.0,513.0,500.0
515.0,509.0,506.0,503.0
519.0,507.0,502.0,506.0
518.0,495.0,501.0,510.0
517.0,481.0,503.0,517.0
524.0,478.0,505.0,521.0
514.0,474.0,499.0,526.0
511.0,473.0,497.0,519.0
501.0,487.0,504.0,515.0
499.0,498.0,514.0,514.0
496.0,493.0,520.0,514.0
500.0,506.0,522.0,511.0
505.0,518.0,529.0,507.0
512.0,530.0,526.0,507.0
515.0,539.0,525.0,504.0
515.0,535.0,521.0,501.0
513.0,525.0,516.0,503.0
520.0,517.0,510.0,497.0
524.0,507.0,498.0,499.0
523.0,499.0,498.0,506.0
516.0,485.0,506.0,515.0
517.0,474.0,503.0,519.0
515.0,482.0,499.0,519.0
511.0,474.0,503.0,522.0
498.0,461.0,505.0,518.0
496.0,487.0,506.0,515.0
494.0,500.0,510.0,512.0
496.0,504.0,517.0,505.0
503.0,510.0,518.0,500.0
510.0,516.0,520.0,498.0
514.0,516.0,524.0,498.0
518.0,518.0,523.0,501.0
521.0,524.0,523.0,501.0
513.0,513.0,518.0,504.0
517.0,524.0,508.0,504.0
518.0,537.0,505.0,509.0
523.0,519.0,503.0,513.0
520.0,499.0,499.0,518.0
514.0,483.0,502.0,522.0
516.0,492.0,501.0,523.0
508.0,484.0,502.0,522.0
495.0,484.0,503.0,521.0
496.0,492.0,509.0,516.0
496.0,503.0,511.0,510.0
501.0,507.0,517.0,506.0
509.0,502.0,522.0,504.0
506.0,488.0,524.0,503.0
509.0,523.0,527.0,503.0
509.0,533.0,527.0,503.0
509.0,529.0,525.0,505.0
513.0,524.0,517.0,507.0
518.0,522.0,512.0,509.0
524.0,514.0,507.0,512.0
524.0,504.0,503.0,516.0
524.0,493.0,503.0,523.0
521.0,490.0,504.0,523.0
509.0,491.0,502.0,521.0
507.0,478.0,501.0,521.0
502.0,473.0,506.0,519.0
503.0,501.0,510.0,514.0
507.0,507.0,516.0,510.0
509.0,519.0,521.0,504.0
508.0,529.0,521.0,502.0
505.0,517.0,519.0,499.0
510.0,528.0,519.0,498.0
511.0,533.0,518.0,499.0
508.0,521.0,518.0,501.0
508.0,517.0,515.0,506.0
513.0,515.0,514.0,510.0
518.0,506.0,510.0,511.0
521.0,496.0,500.0,516.0
515.0,488.0,501.0,519.0
518.0,476.0,496.0,520.0
512.0,470.0,501.0,520.0
500.0,463.0,503.0,519.0
495.0,471.0,506.0,518.0
498.0,487.0,511.0,515.0
501.0,513.0,516.0,508.0
507.0,514.0,521.0,505.0
512.0,523.0,523.0,500.0
514.0,534.0,522.0,500.0
514.0,538.0,522.0,499.0
516.0,534.0,520.0,500.0
513.0,521.0,515.0,502.0
514.0,508.0,518.0,508.0
519.0,509.0,511.0,513.0
525.0,503.0,509.0,517.0
527.0,492.0,507.0,524.0
528.0,490.0,507.0,526.0
519.0,486.0,502.0,529.0
512.0,488.0,501.0,523.0
497.0,482.0,507.0,522.0
495.0,484.0,511.0,516.0
497.0,498.0,521.0,511.0
499.0,514.0,518.0,508.0
506.0,515.0,518.0,503.0
509.0,526.0,518.0,500.0
510.0,532.0,520.0,498.0
511.0,527.0,522.0,499.0
510.0,527.0,520.0,502.0
513.0,516.0,516.0,505.0
515.0,512.0,514.0,510.0
521.0,514.0,510.0,514.0
522.0,505.0,505.0,517.0
521.0,500.0,506.0,523.0
522.0,487.0,502.0,523.0
515.0,446.0,501.0,525.0
507.0,472.0,501.0,522.0
505.0,489.0,504.0,521.0
505.0,488.0,513.0,517.0
503.0,494.0,516.0,515.0
508.0,513.0,522.0,509.0
505.0,515.0,524.0,503.0
503.0,521.0,521.0,504.0
508.0,527.0,523.0,500.0
513.0,526.0,523.0,503.0
511.0,528.0,516.0,504.0
514.0,522.0,515.0,504.0
520.0,524.0,507.0,509.0
518.0,501.0,506.0,511.0
517.0,490.0,501.0,519.0
519.0,475.0,499.0,524.0
519.0,475.0,500.0,524.0
510.0,475.0,501.0,524.0
496.0,479.0,506.0,524.0
494.0,488.0,511.0,519.0
498.0,487.0,519.0,513.0
502.0,505.0,522.0,510.0
517.0,505.0,522.0,506.0
522.0,519.0,521.0,502.0
521.0,528.0,521.0,509.0
520.0,520.0,528.0,540.0
513.0,514.0,521.0,510.0
505.0,527.0,511.0,490.0
500.0,528.0,515.0,492.0
514.0,522.0,512.0,504.0
521.0,507.0,507.0,516.0
524.0,502.0,500.0,524.0
523.0,508.0,502.0,521.0
518.0,501.0,502.0,521.0
510.0,479.0,501.0,519.0
492.0,479.0,509.0,519.0
496.0,492.0,512.0,516.0
497.0,494.0,512.0,507.0
504.0,507.0,511.0,504.0
510.0,512.0,518.0,504.0
514.0,514.0,520.0,502.0
516.0,528.0,517.0,500.0
514.0,538.0,515.0,492.0
511.0,545.0,512.0,493.0
515.0,531.0,511.0,501.0
518.0,512.0,516.0,509.0
515.0,491.0,513.0,514.0
519.0,492.0,505.0,516.0
516.0,487.0,499.0,517.0
519.0,482.0,500.0,518.0
525.0,472.0,498.0,519.0
522.0,476.0,495.0,519.0
510.0,469.0,503.0,518.0
505.0,479.0,510.0,515.0
505.0,501.0,515.0,510.0
503.0,517.0,520.0,509.0
493.0,533.0,526.0,503.0
495.0,534.0,525.0,501.0
508.0,532.0,521.0,500.0
510.0,532.0,519.0,500.0
508.0,520.0,513.0,499.0
509.0,513.0,514.0,505.0
515.0,513.0,512.0,508.0
520.0,512.0,511.0,509.0
518.0,506.0,503.0,518.0
518.0,493.0,501.0,522.0
520.0,486.0,499.0,522.0
508.0,486.0,501.0,522.0
503.0,475.0,505.0,521.0
494.0,488.0,506.0,518.0
495.0,496.0,514.0,516.0
503.0,511.0,518.0,512.0
511.0,516.0,521.0,507.0
514.0,516.0,524.0,498.0
515.0,526.0,523.0,503.0
517.0,533.0,521.0,500.0
513.0,531.0,521.0,500.0
505.0,526.0,517.0,503.0
515.0,513.0,516.0,507.0
521.0,516.0,512.0,515.0
524.0,519.0,511.0,517.0
527.0,514.0,500.0,524.0
520.0,505.0,498.0,520.0
510.0,458.0,499.0,516.0
506.0,449.0,501.0,520.0
491.0,462.0,514.0,519.0
491.0,469.0,516.0,512.0
497.0,476.0,510.0,508.0
505.0,489.0,512.0,504.0
511.0,496.0,520.0,504.0
511.0,504.0,525.0,506.0
516.0,511.0,524.0,496.0
512.0,522.0,518.0,500.0
509.0,536.0,515.0,503.0
512.0,515.0,515.0,504.0
514.0,508.0,514.0,507.0
521.0,502.0,509.0,514.0
527.0,494.0,504.0,518.0
531.0,492.0,502.0,524.0
527.0,496.0,498.0,525.0
519.0,502.0,503.0,528.0
503.0,507.0,504.0,523.0
494.0,500.0,507.0,515.0
494.0,499.0,510.0,515.0
488.0,502.0,515.0,505.0
514.0,501.0,509.0,510.0
521.0,495.0,509.0,515.0
522.0,492.0,507.0,525.0
528.0,492.0,507.0,529.0
526.0,475.0,498.0,527.0
517.0,477.0,496.0,530.0
503.0,471.0,501.0,524.0
507.0,481.0,503.0,516.0
502.0,492.0,510.0,508.0
502.0,503.0,515.0,507.0
508.0,524.0,520.0,501.0
505.0,533.0,521.0,500.0
509.0,534.0,523.0,498.0
513.0,533.0,520.0,500.0
504.0,522.0,517.0,497.0
501.0,516.0,511.0,500.0
505.0,512.0,510.0,504.0
512.0,507.0,509.0,510.0
519.0,501.0,501.0,516.0
520.0,505.0,501.0,520.0
520.0,499.0,503.0,527.0
512.0,486.0,502.0,530.0
513.0,477.0,502.0,532.0
502.0,475.0,507.0,528.0
499.0,481.0,512.0,520.0
507.0,491.0,515.0,513.0
517.0,509.0,516.0,501.0
518.0,516.0,515.0,497.0
522.0,528.0,518.0,499.0
520.0,538.0,521.0,494.0
509.0,531.0,519.0,495.0
504.0,515.0,520.0,496.0
510.0,506.0,514.0,504.0
509.0,514.0,506.0,506.0
517.0,510.0,505.0,513.0
522.0,506.0,501.0,519.0
522.0,510.0,499.0,524.0
516.0,498.0,499.0,525.0
515.0,489.0,497.0,526.0
504.0,472.0,499.0,525.0
496.0,481.0,504.0,519.0
494.0,498.0,514.0,515.0
496.0,506.0,516.0,510.0
501.0,510.0,521.0,505.0
508.0,516.0,522.0,503.0
515.0,527.0,527.0,499.0
514.0,527.0,523.0,498.0
511.0,526.0,520.0,499.0
506.0,523.0,518.0,501.0
513.0,520.0,516.0,501.0
520.0,510.0,510.0,512.0
521.0,505.0,508.0,516.0
520.0,495.0,503.0,522.0
520.0,491.0,503.0,525.0
515.0,491.0,497.0,523.0
515.0,485.0,499.0,526.0
503.0,474.0,501.0,528.0
503.0,475.0,506.0,523.0
498.0,481.0,512.0,517.0
506.0,503.0,519.0,509.0
512.0,518.0,528.0,504.0
516.0,546.0,526.0,500.0
521.0,556.0,522.0,497.0
516.0,517.0,519.0,495.0
513.0,516.0,514.0,495.0
508.0,518.0,513.0,500.0
502.0,501.0,512.0,507.0
514.0,507.0,509.0,513.0
521.0,515.0,503.0,520.0
521.0,494.0,500.0,523.0
521.0,499.0,497.0,523.0
513.0,485.0,494.0,524.0
507.0,481.0,497.0,523.0
493.0,476.0,502.0,522.0
496.0,485.0,506.0,518.0
498.0,503.0,513.0,513.0
506.0,520.0,517.0,504.0
511.0,526.0,521.0,503.0
516.0,533.0,522.0,502.0
513.0,521.0,523.0,498.0
515.0,516.0,518.0,499.0
512.0,510.0,518.0,499.0
513.0,507.0,510.0,503.0
515.0,517.0,507.0,505.0
522.0,523.0,506.0,515.0
527.0,509.0,504.0,522.0
525.0,508.0,503.0,522.0
520.0,476.0,500.0,523.0
509.0,453.0,499.0,527.0
505.0,461.0,502.0,523.0
502.0,465.0,505.0,519.0
499.0,476.0,509.0,513.0
500.0,500.0,512.0,506.0
505.0,515.0,518.0,506.0
509.0,528.0,523.0,503.0
513.0,538.0,523.0,501.0
516.0,536.0,521.0,505.0
513.0,529.0,524.0,502.0
506.0,513.0,522.0,502.0
503.0,516.0,517.0,509.0
513.0,509.0,512.0,512.0
516.0,505.0,507.0,515.0
515.0,494.0,502.0,519.0
527.0,488.0,496.0,519.0
518.0,487.0,495.0,522.0
511.0,477.0,491.0,523.0
497.0,469.0,497.0,520.0
496.0,472.0,501.0,516.0
498.0,484.0,509.0,511.0
507.0,497.0,520.0,508.0
506.0,509.0,518.0,502.0
511.0,509.0,525.0,503.0
514.0,519.0,528.0,502.0
518.0,531.0,526.0,499.0
523.0,518.0,522.0,499.0
517.0,514.0,514.0,505.0
520.0,518.0,511.0,504.0
521.0,501.0,507.0,518.0
520.0,500.0,503.0,518.0
523.0,502.0,502.0,525.0
522.0,498.0,499.0,526.0
517.0,485.0,498.0,526.0
509.0,486.0,497.0,523.0
491.0,488.0,500.0,518.0
485.0,489.0,508.0,516.0
499.0,504.0,511.0,510.0
505.0,512.0,515.0,504.0
508.0,518.0,519.0,501.0
516.0,524.0,519.0,501.0
515.0,531.0,518.0,498.0
513.0,546.0,521.0,497.0
511.0,541.0,518.0,501.0
515.0,529.0,513.0,506.0
518.0,515.0,512.0,511.0
519.0,491.0,507.0,514.0
520.0,481.0,506.0,522.0
523.0,485.0,503.0,529.0
519.0,488.0,503.0,528.0
519.0,489.0,500.0,526.0
505.0,478.0,489.0,525.0
499.0,472.0,499.0,517.0
494.0,491.0,515.0,516.0
499.0,506.0,528.0,511.0
505.0,514.0,521.0,505.0
509.0,524.0,518.0,499.0
519.0,530.0,524.0,498.0
521.0,534.0,519.0,496.0
518.0,527.0,516.0,494.0
512.0,526.0,516.0,501.0
513.0,520.0,509.0,504.0
516.0,506.0,505.0,510.0
520.0,510.0,503.0,514.0
516.0,505.0,498.0,523.0
519.0,497.0,502.0,526.0
514.0,494.0,499.0,528.0
512.0,489.0,504.0,532.0
500.0,488.0,505.0,526.0
497.0,473.0,508.0,519.0
490.0,463.0,512.0,516.0
502.0,492.0,517.0,510.0
509.0,509.0,520.0,509.0
509.0,512.0,527.0,503.0
512.0,519.0,523.0,502.0
509.0,533.0,524.0,496.0
506.0,524.0,521.0,497.0
510.0,515.0,516.0,501.0
516.0,509.0,513.0,508.0
519.0,510.0,510.0,514.0
524.0,506.0,508.0,521.0
524.0,496.0,496.0,522.0
522.0,496.0,491.0,521.0
519.0,489.0,493.0,522.0
513.0,481.0,492.0,521.0
498.0,476.0,499.0,518.0
499.0,479.0,511.0,515.0
501.0,492.0,513.0,510.0
507.0,507.0,521.0,504.0
511.0,512.0,521.0,504.0
507.0,521.0,523.0,497.0
506.0,532.0,521.0,493.0
511.0,529.0,520.0,496.0
510.0,525.0,515.0,499.0
509.0,525.0,513.0,504.0
519.0,512.0,509.0,509.0
521.0,504.0,506.0,515.0
524.0,495.0,505.0,523.0
520.0,486.0,499.0,524.0
516.0,486.0,501.0,524.0
510.0,489.0,500.0,525.0
503.0,480.0,498.0,521.0
497.0,481.0,500.0,517.0
503.0,489.0,508.0,510.0
505.0,496.0,513.0,507.0
509.0,504.0,519.0,504.0
510.0,512.0,520.0,497.0
513.0,509.0,522.0,499.0
510.0,522.0,520.0,498.0
512.0,527.0,517.0,498.0
504.0,509.0,520.0,501.0
510.0,504.0,518.0,506.0
515.0,516.0,512.0,513.0
519.0,519.0,506.0,518.0
525.0,512.0,503.0,522.0
531.0,502.0,499.0,523.0
518.0,483.0,497.0,525.0
511.0,475.0,496.0,524.0
500.0,465.0,502.0,525.0
499.0,462.0,508.0,519.0
506.0,508.0,512.0,516.0
511.0,528.0,517.0,508.0
515.0,522.0,519.0,503.0
517.0,527.0,525.0,500.0
515.0,507.0,524.0,498.0
512.0,512.0,521.0,498.0
515.0,518.0,517.0,499.0
510.0,513.0,514.0,503.0
512.0,529.0,510.0,507.0
512.0,533.0,505.0,511.0
519.0,528.0,506.0,523.0
521.0,519.0,504.0,527.0
525.0,514.0,502.0,531.0
512.0,487.0,505.0,529.0
504.0,471.0,501.0,524.0
491.0,482.0,496.0,515.0
492.0,494.0,503.0,506.0
501.0,505.0,509.0,502.0
504.0,504.0,517.0,503.0
506.0,506.0,520.0,499.0
511.0,517.0,524.0,497.0
512.0,514.0,523.0,495.0
512.0,524.0,522.0,495.0
510.0,521.0,515.0,495.0
511.0,513.0,515.0,508.0
513.0,495.0,513.0,510.0
517.0,486.0,507.0,516.0
521.0,486.0,503.0,522.0
516.0,478.0,504.0,526.0
519.0,481.0,500.0,529.0
517.0,472.0,498.0,527.0
508.0,464.0,499.0,527.0
501.0,490.0,505.0,519.0
501.0,507.0,511.0,512.0
503.0,523.0,513.0,507.0
504.0,524.0,518.0,504.0
501.0,521.0,522.0,500.0
510.0,530.0,524.0,503.0
510.0,530.0,525.0,502.0
509.0,535.0,526.0,502.0
505.0,521.0,520.0,502.0
513.0,517.0,512.0,502.0
517.0,510.0,504.0,503.0
519.0,503.0,498.0,509.0
522.0,496.0,497.0,522.0
523.0,490.0,501.0,521.0
516.0,484.0,495.0,523.0
516.0,477.0,500.0,522.0
503.0,471.0,501.0,521.0
495.0,478.0,505.0,521.0
497.0,491.0,515.0,511.0
500.0,508.0,517.0,506.0
503.0,514.0,523.0,502.0
505.0,515.0,521.0,497.0
509.0,523.0,523.0,498.0
506.0,526.0,520.0,495.0
512.0,534.0,520.0,500.0
511.0,530.0,514.0,508.0
514.0,521.0,513.0,510.0
518.0,518.0,510.0,513.0
523.0,509.0,509.0,521.0
520.0,500.0,501.0,526.0
522.0,492.0,497.0,526.0
515.0,475.0,497.0,526.0
508.0,474.0,497.0,524.0
497.0,472.0,504.0,520.0
494.0,488.0,509.0,516.0
502.0,493.0,515.0,511.0
504.0,502.0,519.0,505.0
510.0,508.0,522.0,503.0
519.0,518.0,524.0,500.0
523.0,514.0,525.0,501.0
517.0,522.0,525.0,498.0
513.0,515.0,520.0,501.0
515.0,516.0,514.0,503.0
518.0,525.0,510.0,505.0
518.0,502.0,499.0,506.0
522.0,488.0,497.0,517.0
513.0,494.0,499.0,524.0
513.0,490.0,495.0,527.0
514.0,488.0,496.0,526.0
503.0,493.0,501.0,526.0
493.0,498.0,508.0,521.0
495.0,509.0,515.0,515.0
503.0,518.0,520.0,511.0
505.0,514.0,523.0,505.0
506.0,502.0,524.0,496.0
520.0,525.0,522.0,497.0
516.0,527.0,524.0,495.0
516.0,523.0,523.0,498.0
510.0,508.0,518.0,501.0
512.0,522.0,512.0,508.0
517.0,524.0,507.0,508.0
521.0,516.0,504.0,512.0
520.0,503.0,502.0,522.0
519.0,484.0,502.0,529.0
513.0,479.0,497.0,528.0
509.0,479.0,498.0,526.0
493.0,464.0,507.0,523.0
488.0,475.0,509.0,519.0
488.0,485.0,516.0,517.0
499.0,499.0,520.0,506.0
506.0,510.0,522.0,502.0
508.0,519.0,523.0,498.0
512.0,525.0,523.0,497.0
516.0,530.0,523.0,500.0
514.0,525.0,519.0,498.0
514.0,515.0,512.0,500.0
516.0,517.0,511.0,507.0
520.0,514.0,508.0,512.0
524.0,504.0,502.0,518.0
523.0,498.0,496.0,527.0
521.0,486.0,498.0,522.0
518.0,474.0,499.0,527.0
516.0,477.0,499.0,523.0
503.0,469.0,505.0,522.0
495.0,468.0,508.0,514.0
500.0,475.0,512.0,513.0
502.0,514.0,516.0,501.0
502.0,534.0,522.0,504.0
506.0,537.0,523.0,499.0
512.0,535.0,521.0,498.0
513.0,534.0,521.0,499.0
509.0,538.0,520.0,502.0
518.0,531.0,516.0,509.0
522.0,529.0,513.0,514.0
525.0,512.0,516.0,521.0
521.0,492.0,509.0,527.0
515.0,488.0,502.0,533.0
516.0,478.0,501.0,535.0
508.0,482.0,503.0,531.0
497.0,474.0,503.0,528.0
495.0,478.0,507.0,519.0
497.0,487.0,509.0,508.0
499.0,497.0,513.0,502.0
508.0,507.0,514.0,496.0
514.0,519.0,520.0,493.0
519.0,525.0,519.0,492.0
518.0,526.0,518.0,494.0
516.0,525.0,519.0,495.0
511.0,518.0,518.0,503.0
509.0,514.0,522.0,508.0
510.0,510.0,507.0,509.0
516.0,505.0,503.0,519.0
521.0,500.0,495.0,521.0
520.0,487.0,500.0,528.0
518.0,486.0,500.0,527.0
509.0,476.0,496.0,524.0
496.0,448.0,503.0,519.0
494.0,475.0,504.0,513.0
498.0,492.0,512.0,512.0
495.0,511.0,514.0,504.0
507.0,518.0,522.0,499.0
509.0,523.0,522.0,496.0
515.0,541.0,525.0,498.0
514.0,533.0,527.0,501.0
510.0,531.0,519.0,502.0
512.0,529.0,513.0,503.0
515.0,518.0,511.0,507.0
521.0,514.0,506.0,512.0
525.0,507.0,504.0,519.0
523.0,492.0,501.0,526.0
522.0,493.0,501.0,527.0
515.0,487.0,498.0,529.0
509.0,477.0,499.0,525.0
501.0,480.0,503.0,518.0
496.0,497.0,508.0,513.0
498.0,500.0,514.0,506.0
505.0,516.0,519.0,504.0
512.0,532.0,520.0,498.0
515.0,531.0,521.0,498.0
520.0,535.0,522.0,497.0
514.0,517.0,521.0,499.0
506.0,496.0,516.0,499.0
513.0,500.0,514.0,503.0
513.0,499.0,515.0,508.0
518.0,510.0,507.0,513.0
521.0,504.0,501.0,524.0
516.0,487.0,502.0,524.0
513.0,485.0,501.0,527.0
506.0,493.0,499.0,528.0
502.0,483.0,500.0,525.0
495.0,484.0,506.0,519.0
496.0,480.0,511.0,514.0
504.0,485.0,517.0,508.0
513.0,497.0,521.0,503.0
520.0,511.0,523.0,501.0
521.0,523.0,525.0,500.0
520.0,533.0,520.0,498.0
518.0,549.0,521.0,498.0
514.0,531.0,520.0,502.0
503.0,511.0,513.0,507.0
509.0,509.0,513.0,514.0
518.0,499.0,507.0,517.0
520.0,503.0,504.0,522.0
516.0,496.0,500.0,528.0
513.0,490.0,499.0,525.0
505.0,483.0,497.0,525.0
495.0,477.0,500.0,520.0
493.0,483.0,510.0,509.0
498.0,494.0,517.0,512.0
507.0,511.0,519.0,506.0
515.0,519.0,523.0,499.0
512.0,523.0,522.0,498.0
518.0,526.0,523.0,494.0
519.0,532.0,520.0,494.0
518.0,523.0,517.0,497.0
513.0,518.0,511.0,504.0
516.0,514.0,513.0,504.0
516.0,517.0,506.0,512.0
521.0,510.0,503.0,520.0
521.0,494.0,501.0,527.0
516.0,480.0,504.0,528.0
515.0,477.0,503.0,527.0
505.0,472.0,502.0,528.0
492.0,466.0,508.0,520.0
489.0,481.0,511.0,516.0
495.0,500.0,518.0,508.0
500.0,503.0,520.0,504.0
504.0,511.0,526.0,498.0
510.0,517.0,520.0,494.0
513.0,520.0,523.0,493.0
512.0,523.0,520.0,497.0
511.0,534.0,518.0,498.0
509.0,532.0,512.0,505.0
517.0,521.0,510.0,509.0
521.0,511.0,508.0,519.0
521.0,504.0,505.0,523.0
518.0,496.0,501.0,526.0
518.0,486.0,498.0,524.0
513.0,479.0,500.0,524.0
500.0,474.0,502.0,521.0
498.0,486.0,507.0,517.0
504.0,496.0,510.0,512.0
505.0,507.0,516.0,506.0
506.0,514.0,522.0,502.0
509.0,514.0,523.0,503.0
512.0,517.0,523.0,496.0
511.0,523.0,522.0,496.0
513.0,524.0,518.0,498.0
516.0,523.0,512.0,503.0
521.0,518.0,516.0,508.0
523.0,518.0,512.0,512.0
528.0,512.0,508.0,521.0
527.0,509.0,502.0,527.0
523.0,492.0,500.0,525.0
512.0,481.0,497.0,532.0
509.0,470.0,498.0,526.0
493.0,448.0,503.0,522.0
492.0,473.0,510.0,519.0
496.0,494.0,514.0,511.0
504.0,509.0,518.0,500.0
505.0,516.0,521.0,498.0
509.0,528.0,523.0,496.0
510.0,533.0,522.0,494.0
508.0,524.0,521.0,497.0
504.0,520.0,518.0,499.0
507.0,514.0,514.0,504.0
511.0,515.0,511.0,511.0
518.0,509.0,506.0,514.0
518.0,506.0,505.0,519.0
518.0,497.0,504.0,523.0
517.0,493.0,502.0,526.0
512.0,489.0,502.0,529.0
503.0,482.0,500.0,526.0
495.0,482.0,505.0,524.0
498.0,490.0,509.0,512.0
501.0,500.0,514.0,507.0
507.0,515.0,522.0,500.0
509.0,517.0,522.0,496.0
516.0,524.0,522.0,495.0
514.0,528.0,520.0,492.0
514.0,526.0,521.0,494.0
509.0,519.0,517.0,493.0
511.0,514.0,512.0,501.0
514.0,512.0,511.0,506.0
516.0,504.0,503.0,512.0
521.0,496.0,500.0,515.0
517.0,486.0,495.0,523.0
515.0,481.0,496.0,526.0
509.0,482.0,500.0,522.0
495.0,473.0,503.0,523.0
496.0,489.0,501.0,516.0
500.0,493.0,513.0,513.0
503.0,506.0,519.0,507.0
506.0,518.0,521.0,500.0
510.0,520.0,524.0,498.0
512.0,524.0,523.0,495.0
509.0,528.0,521.0,496.0
513.0,524.0,518.0,497.0
516.0,516.0,515.0,501.0
516.0,510.0,511.0,505.0
521.0,507.0,508.0,510.0
524.0,502.0,504.0,515.0
520.0,501.0,500.0,523.0
522.0,494.0,500.0,526.0
511.0,482.0,499.0,525.0
511.0,512.0,500.0,524.0
490.0,478.0,505.0,523.0
493.0,474.0,511.0,517.0
494.0,493.0,516.0,508.0
504.0,500.0,521.0,502.0
509.0,514.0,528.0,503.0
511.0,518.0,534.0,503.0
508.0,524.0,520.0,490.0
510.0,528.0,518.0,497.0
507.0,529.0,519.0,501.0
509.0,518.0,517.0,505.0
513.0,512.0,513.0,510.0
517.0,505.0,508.0,511.0
522.0,497.0,502.0,521.0
521.0,493.0,500.0,525.0
520.0,493.0,497.0,530.0
511.0,488.0,500.0,527.0
497.0,475.0,500.0,523.0
491.0,485.0,506.0,521.0
493.0,489.0,510.0,516.0
502.0,496.0,518.0,512.0
505.0,513.0,521.0,505.0
509.0,507.0,522.0,502.0
512.0,523.0,522.0,502.0
515.0,530.0,523.0,498.0
514.0,534.0,520.0,499.0
505.0,521.0,517.0,502.0
511.0,510.0,514.0,504.0
517.0,509.0,507.0,508.0
526.0,510.0,507.0,517.0
529.0,509.0,503.0,523.0
522.0,493.0,499.0,529.0
516.0,482.0,498.0,528.0
509.0,482.0,500.0,529.0
493.0,476.0,507.0,523.0
492.0,482.0,508.0,519.0
502.0,488.0,513.0,516.0
506.0,501.0,518.0,510.0
508.0,509.0,522.0,505.0
510.0,519.0,522.0,500.0
515.0,522.0,525.0,500.0
515.0,518.0,522.0,501.0
517.0,520.0,519.0,499.0
517.0,513.0,515.0,500.0
516.0,516.0,510.0,507.0
524.0,521.0,507.0,512.0
528.0,512.0,507.0,519.0
522.0,501.0,496.0,523.0
512.0,494.0,499.0,523.0
512.0,488.0,498.0,529.0
508.0,480.0,498.0,527.0
494.0,473.0,504.0,524.0
497.0,484.0,512.0,518.0
501.0,499.0,516.0,510.0
508.0,510.0,523.0,511.0
510.0,514.0,525.0,502.0
513.0,520.0,525.0,500.0
514.0,527.0,527.0,503.0
515.0,525.0,526.0,500.0
505.0,514.0,522.0,504.0
508.0,513.0,518.0,507.0
514.0,508.0,514.0,509.0
520.0,505.0,508.0,511.0
524.0,497.0,502.0,517.0
518.0,491.0,498.0,522.0
515.0,490.0,497.0,528.0
513.0,489.0,498.0,525.0
504.0,484.0,502.0,526.0
497.0,482.0,505.0,522.0
496.0,484.0,514.0,515.0
500.0,493.0,519.0,506.0
505.0,509.0,521.0,501.0
510.0,520.0,525.0,502.0
509.0,523.0,523.0,497.0
515.0,529.0,521.0,495.0
512.0,523.0,518.0,494.0
508.0,508.0,513.0,495.0
513.0,507.0,512.0,499.0
522.0,509.0,505.0,503.0
527.0,511.0,502.0,510.0
526.0,501.0,500.0,518.0
524.0,494.0,498.0,524.0
521.0,487.0,499.0,527.0
515.0,488.0,501.0,525.0
501.0,472.0,504.0,523.0
501.0,488.0,509.0,519.0
500.0,508.0,515.0,510.0
506.0,526.0,516.0,505.0
513.0,543.0,520.0,498.0
520.0,549.0,521.0,497.0
512.0,521.0,522.0,494.0
507.0,504.0,519.0,496.0
505.0,512.0,520.0,496.0
510.0,505.0,514.0,506.0
511.0,508.0,515.0,506.0
517.0,506.0,508.0,512.0
520.0,501.0,502.0,518.0
519.0,494.0,499.0,519.0
513.0,481.0,499.0,526.0
511.0,477.0,500.0,526.0
506.0,477.0,502.0,527.0
491.0,467.0,509.0,520.0
491.0,474.0,512.0,515.0
501.0,496.0,518.0,511.0
505.0,514.0,524.0,506.0
509.0,531.0,527.0,503.0
513.0,536.0,528.0,497.0
518.0,551.0,527.0,501.0
518.0,544.0,519.0,497.0
515.0,521.0,517.0,501.0
506.0,498.0,514.0,506.0
513.0,504.0,510.0,511.0
524.0,509.0,503.0,519.0
530.0,500.0,505.0,521.0
527.0,492.0,498.0,522.0
523.0,479.0,492.0,525.0
513.0,483.0,499.0,526.0
500.0,496.0,503.0,524.0
493.0,485.0,506.0,518.0
493.0,482.0,513.0,514.0
500.0,500.0,520.0,508.0
502.0,506.0,521.0,510.0
502.0,518.0,526.0,501.0
506.0,526.0,518.0,495.0
511.0,530.0,519.0,490.0
512.0,527.0,514.0,490.0
503.0,516.0,509.0,492.0
506.0,511.0,506.0,498.0
514.0,509.0,505.0,503.0
522.0,508.0,502.0,511.0
523.0,494.0,497.0,518.0
513.0,487.0,495.0,524.0
508.0,485.0,498.0,524.0
507.0,481.0,496.0,523.0
506.0,472.0,503.0,523.0
502.0,477.0,509.0,517.0
503.0,485.0,512.0,513.0
510.0,498.0,514.0,503.0
512.0,507.0,519.0,501.0
515.0,519.0,522.0,498.0
516.0,535.0,519.0,496.0
520.0,535.0,517.0,494.0
515.0,534.0,519.0,498.0
511.0,521.0,516.0,500.0
512.0,512.0,514.0,507.0
511.0,507.0,510.0,511.0
513.0,503.0,505.0,520.0
504.0,490.0,501.0,523.0
497.0,483.0,499.0,525.0
492.0,489.0,499.0,525.0
491.0,487.0,500.0,524.0
482.0,470.0,504.0,522.0
486.0,473.0,508.0,516.0
512.0,491.0,516.0,510.0
531.0,511.0,519.0,505.0
520.0,507.0,523.0,501.0
522.0,524.0,522.0,501.0
525.0,539.0,524.0,496.0
525.0,541.0,520.0,497.0
516.0,528.0,519.0,500.0
519.0,506.0,522.0,505.0
516.0,492.0,517.0,507.0
518.0,495.0,504.0,516.0
521.0,496.0,505.0,521.0
521.0,499.0,505.0,526.0
523.0,501.0,502.0,527.0
517.0,495.0,500.0,528.0
500.0,475.0,502.0,525.0
489.0,475.0,506.0,517.0
494.0,486.0,511.0,513.0
501.0,499.0,515.0,504.0
510.0,510.0,519.0,503.0
522.0,521.0,523.0,498.0
515.0,528.0,521.0,495.0
514.0,527.0,521.0,496.0
511.0,519.0,521.0,498.0
507.0,519.0,517.0,501.0
510.0,519.0,511.0,505.0
513.0,511.0,514.0,508.0
524.0,505.0,504.0,515.0
522.0,494.0,503.0,520.0
509.0,476.0,497.0,526.0
516.0,487.0,500.0,529.0
511.0,494.0,503.0,529.0
494.0,474.0,507.0,522.0
496.0,489.0,505.0,519.0
496.0,509.0,513.0,513.0
500.0,510.0,520.0,507.0
523.0,523.0,519.0,502.0
530.0,527.0,523.0,505.0
527.0,531.0,522.0,498.0
521.0,531.0,522.0,497.0
512.0,523.0,517.0,499.0
511.0,507.0,515.0,500.0
512.0,510.0,514.0,508.0
525.0,510.0,507.0,518.0
526.0,508.0,502.0,520.0
522.0,495.0,501.0,527.0
520.0,491.0,498.0,532.0
516.0,483.0,499.0,527.0
515.0,480.0,504.0,526.0
498.0,478.0,505.0,518.0
497.0,484.0,510.0,517.0
499.0,493.0,516.0,511.0
508.0,508.0,524.0,506.0
514.0,521.0,528.0,503.0
513.0,524.0,521.0,491.0
518.0,528.0,521.0,495.0
519.0,535.0,521.0,499.0
512.0,529.0,517.0,499.0
514.0,522.0,514.0,507.0
514.0,502.0,514.0,514.0
517.0,499.0,512.0,520.0
522.0,503.0,504.0,525.0
519.0,490.0,502.0,530.0
512.0,486.0,503.0,532.0
508.0,481.0,504.0,533.0
499.0,474.0,506.0,530.0
495.0,479.0,509.0,523.0
495.0,491.0,512.0,514.0
501.0,498.0,520.0,507.0
507.0,512.0,524.0,501.0
509.0,521.0,522.0,498.0
509.0,522.0,519.0,497.0
511.0,526.0,520.0,495.0
513.0,523.0,518.0,497.0
507.0,518.0,514.0,500.0
516.0,516.0,511.0,502.0
514.0,516.0,506.0,508.0
521.0,511.0,502.0,513.0
522.0,501.0,500.0,522.0
520.0,489.0,498.0,522.0
512.0,479.0,501.0,527.0
509.0,484.0,498.0,525.0
496.0,466.0,501.0,527.0
494.0,472.0,508.0,517.0
497.0,498.0,513.0,511.0
505.0,514.0,519.0,505.0
505.0,515.0,522.0,501.0
511.0,524.0,524.0,500.0
514.0,529.0,532.0,498.0
517.0,537.0,521.0,497.0
508.0,525.0,516.0,499.0
507.0,515.0,518.0,506.0
503.0,514.0,514.0,510.0
505.0,507.0,508.0,518.0
505.0,500.0,508.0,522.0
506.0,493.0,500.0,529.0
503.0,489.0,498.0,524.0
496.0,483.0,499.0,528.0
487.0,473.0,502.0,526.0
495.0,477.0,505.0,522.0
514.0,485.0,508.0,514.0
512.0,502.0,516.0,509.0
509.0,519.0,518.0,502.0
513.0,520.0,522.0,498.0
517.0,529.0,522.0,495.0
526.0,540.0,518.0,492.0
520.0,543.0,520.0,490.0
512.0,521.0,515.0,504.0
516.0,513.0,514.0,505.0
525.0,513.0,511.0,511.0
526.0,499.0,505.0,517.0
515.0,496.0,501.0,525.0
509.0,475.0,502.0,529.0
509.0,477.0,501.0,532.0
501.0,474.0,502.0,525.0
496.0,473.0,503.0,524.0
482.0,480.0,506.0,521.0
483.0,494.0,516.0,515.0
504.0,512.0,516.0,506.0
508.0,518.0,524.0,503.0
508.0,520.0,520.0,498.0
520.0,516.0,521.0,500.0
534.0,530.0,519.0,496.0
531.0,527.0,521.0,498.0
527.0,527.0,517.0,503.0
522.0,516.0,516.0,507.0
526.0,512.0,508.0,513.0
527.0,506.0,507.0,519.0
530.0,502.0,503.0,525.0
530.0,496.0,500.0,527.0
522.0,487.0,501.0,528.0
517.0,484.0,501.0,530.0
498.0,478.0,503.0,524.0
497.0,478.0,509.0,517.0
500.0,491.0,514.0,508.0
507.0,504.0,516.0,503.0
511.0,510.0,519.0,500.0
515.0,520.0,522.0,500.0
513.0,525.0,524.0,496.0
517.0,530.0,522.0,495.0
511.0,539.0,521.0,498.0
515.0,529.0,516.0,502.0
516.0,519.0,513.0,508.0
520.0,510.0,508.0,514.0
524.0,499.0,502.0,519.0
521.0,495.0,499.0,520.0
514.0,485.0,497.0,526.0
513.0,487.0,497.0,526.0
511.0,485.0,502.0,525.0
498.0,477.0,507.0,521.0
499.0,485.0,512.0,515.0
502.0,497.0,518.0,510.0
508.0,516.0,523.0,503.0
504.0,521.0,522.0,500.0
513.0,537.0,527.0,503.0
515.0,538.0,528.0,503.0
515.0,523.0,521.0,504.0
513.0,514.0,512.0,498.0
508.0,515.0,514.0,505.0
519.0,510.0,511.0,512.0
517.0,500.0,508.0,511.0
509.0,497.0,499.0,517.0
508.0,490.0,499.0,526.0
505.0,486.0,495.0,528.0
513.0,486.0,500.0,529.0
505.0,478.0,512.0,532.0
496.0,481.0,511.0,527.0
508.0,492.0,511.0,512.0
509.0,507.0,517.0,501.0
517.0,524.0,523.0,507.0
518.0,526.0,528.0,503.0
512.0,524.0,523.0,506.0
514.0,526.0,525.0,499.0
514.0,526.0,524.0,495.0
509.0,522.0,517.0,503.0
511.0,518.0,507.0,503.0
520.0,512.0,502.0,510.0
523.0,505.0,510.0,516.0
522.0,499.0,498.0,524.0
515.0,491.0,496.0,518.0
511.0,487.0,497.0,524.0
506.0,487.0,491.0,522.0
495.0,474.0,510.0,528.0
493.0,483.0,516.0,527.0
497.0,494.0,519.0,516.0
499.0,509.0,523.0,525.0
512.0,519.0,526.0,507.0
517.0,519.0,516.0,491.0
514.0,522.0,522.0,495.0
511.0,526.0,526.0,502.0
508.0,522.0,530.0,504.0
514.0,517.0,518.0,503.0
509.0,509.0,512.0,513.0
514.0,497.0,511.0,524.0
521.0,493.0,492.0,514.0
519.0,491.0,494.0,514.0
507.0,478.0,498.0,522.0
505.0,479.0,502.0,526.0
496.0,477.0,500.0,525.0
493.0,495.0,501.0,521.0
504.0,495.0,514.0,523.0
510.0,497.0,513.0,509.0
514.0,513.0,503.0,497.0
515.0,519.0,527.0,503.0
510.0,519.0,530.0,498.0
515.0,531.0,524.0,496.0
511.0,528.0,525.0,497.0
506.0,517.0,521.0,504.0
507.0,515.0,514.0,500.0
510.0,505.0,490.0,496.0
513.0,505.0,510.0,508.0
510.0,500.0,511.0,520.0
511.0,496.0,501.0,535.0
508.0,489.0,499.0,526.0
502.0,490.0,504.0,523.0
495.0,486.0,500.0,521.0
501.0,480.0,495.0,514.0
514.0,495.0,510.0,514.0
520.0,500.0,516.0,505.0
520.0,511.0,514.0,491.0
520.0,530.0,527.0,500.0
516.0,523.0,529.0,502.0
520.0,530.0,529.0,510.0
520.0,532.0,516.0,504.0
513.0,516.0,520.0,507.0
518.0,513.0,510.0,519.0
524.0,512.0,507.0,515.0
530.0,508.0,492.0,509.0
524.0,503.0,499.0,517.0
520.0,497.0,508.0,532.0
513.0,488.0,501.0,526.0
512.0,486.0,501.0,523.0
497.0,472.0,507.0,524.0
497.0,478.0,513.0,518.0
501.0,497.0,512.0,508.0
506.0,511.0,518.0,507.0
513.0,517.0,521.0,501.0
517.0,526.0,517.0,494.0
513.0,523.0,524.0,496.0
517.0,526.0,524.0,493.0
513.0,520.0,520.0,498.0
512.0,514.0,515.0,497.0
515.0,507.0,511.0,506.0
517.0,502.0,517.0,515.0
523.0,496.0,518.0,524.0
522.0,492.0,486.0,519.0
517.0,484.0,485.0,529.0
512.0,489.0,500.0,528.0
503.0,479.0,511.0,530.0
493.0,481.0,507.0,521.0
492.0,489.0,510.0,510.0
499.0,503.0,515.0,504.0
505.0,516.0,524.0,501.0
505.0,518.0,522.0,499.0
515.0,522.0,514.0,491.0
514.0,520.0,525.0,498.0
515.0,524.0,520.0,503.0
512.0,524.0,512.0,510.0
517.0,520.0,510.0,512.0
514.0,513.0,512.0,511.0
522.0,511.0,505.0,509.0
518.0,498.0,494.0,504.0
527.0,496.0,494.0,515.0
522.0,488.0,506.0,537.0
512.0,475.0,504.0,544.0
494.0,463.0,489.0,516.0
488.0,460.0,491.0,507.0
494.0,495.0,519.0,509.0
489.0,504.0,531.0,507.0
499.0,535.0,512.0,507.0
504.0,547.0,514.0,497.0
510.0,541.0,531.0,509.0
518.0,536.0,528.0,504.0
509.0,513.0,513.0,490.0
517.0,521.0,512.0,499.0
517.0,525.0,517.0,516.0
523.0,527.0,517.0,514.0
527.0,491.0,502.0,502.0
519.0,466.0,493.0,512.0
510.0,472.0,491.0,523.0
504.0,470.0,504.0,531.0
489.0,470.0,506.0,535.0
479.0,473.0,498.0,523.0
492.0,493.0,508.0,517.0
499.0,500.0,525.0,506.0
508.0,520.0,498.0,475.0
517.0,523.0,524.0,486.0
531.0,531.0,535.0,508.0
520.0,532.0,542.0,514.0
519.0,530.0,513.0,483.0
511.0,514.0,504.0,507.0
509.0,505.0,521.0,530.0
518.0,511.0,510.0,511.0
521.0,510.0,514.0,517.0
526.0,502.0,502.0,525.0
528.0,494.0,497.0,536.0
506.0,488.0,504.0,538.0
510.0,487.0,487.0,511.0
510.0,485.0,499.0,501.0
501.0,488.0,512.0,533.0
501.0,491.0,524.0,562.0
502.0,489.0,516.0,507.0
512.0,512.0,521.0,491.0
519.0,531.0,522.0,502.0
523.0,535.0,513.0,490.0
525.0,541.0,523.0,493.0
522.0,542.0,519.0,496.0
512.0,533.0,522.0,501.0
515.0,511.0,501.0,510.0
515.0,495.0,506.0,520.0
513.0,494.0,504.0,515.0
512.0,495.0,499.0,516.0
511.0,485.0,508.0,527.0
499.0,478.0,501.0,528.0
511.0,480.0,500.0,525.0
499.0,474.0,509.0,519.0
503.0,478.0,509.0,515.0
515.0,494.0,524.0,522.0
509.0,507.0,536.0,513.0
507.0,512.0,510.0,503.0
517.0,518.0,507.0,482.0
515.0,518.0,520.0,482.0
515.0,528.0,532.0,502.0
513.0,518.0,526.0,523.0
507.0,511.0,500.0,516.0
511.0,509.0,510.0,515.0
518.0,518.0,521.0,511.0
522.0,506.0,520.0,518.0
519.0,495.0,502.0,517.0
522.0,490.0,501.0,518.0
517.0,483.0,489.0,526.0
507.0,481.0,484.0,508.0
495.0,474.0,522.0,528.0
497.0,482.0,518.0,508.0
494.0,495.0,510.0,493.0
501.0,505.0,511.0,496.0
504.0,518.0,538.0,520.0
516.0,524.0,525.0,508.0
511.0,524.0,512.0,485.0
515.0,527.0,527.0,489.0
512.0,523.0,520.0,493.0
510.0,523.0,507.0,495.0
514.0,519.0,504.0,505.0
521.0,506.0,529.0,523.0
521.0,499.0,515.0,531.0
521.0,489.0,499.0,514.0
511.0,477.0,497.0,508.0
512.0,476.0,488.0,514.0
500.0,471.0,488.0,515.0
494.0,476.0,501.0,519.0
498.0,485.0,517.0,520.0
500.0,500.0,495.0,514.0
510.0,519.0,493.0,488.0
512.0,527.0,539.0,501.0
516.0,531.0,535.0,510.0
513.0,533.0,534.0,490.0
514.0,532.0,524.0,496.0
506.0,522.0,515.0,506.0
515.0,520.0,524.0,488.0
520.0,519.0,490.0,456.0
523.0,507.0,497.0,499.0
517.0,493.0,502.0,526.0
525.0,486.0,502.0,528.0
511.0,477.0,502.0,514.0
513.0,489.0,477.0,530.0
498.0,481.0,511.0,538.0
500.0,490.0,517.0,535.0
502.0,501.0,506.0,534.0
501.0,502.0,503.0,499.0
500.0,497.0,528.0,468.0
511.0,515.0,540.0,486.0
512.0,527.0,542.0,513.0
510.0,532.0,524.0,516.0
510.0,520.0,533.0,515.0
506.0,506.0,532.0,507.0
509.0,516.0,509.0,484.0
522.0,515.0,509.0,502.0
521.0,509.0,494.0,505.0
527.0,494.0,489.0,517.0
524.0,478.0,511.0,537.0
515.0,473.0,503.0,524.0
511.0,485.0,503.0,520.0
492.0,474.0,482.0,504.0
481.0,485.0,503.0,540.0
490.0,471.0,502.0,529.0
503.0,512.0,518.0,479.0
506.0,530.0,523.0,489.0
515.0,526.0,530.0,501.0
507.0,523.0,519.0,488.0
516.0,530.0,522.0,486.0
509.0,521.0,523.0,497.0
514.0,520.0,510.0,504.0
513.0,517.0,512.0,514.0
517.0,510.0,497.0,525.0
520.0,501.0,483.0,491.0
512.0,488.0,482.0,494.0
505.0,494.0,504.0,527.0
513.0,492.0,499.0,529.0
496.0,478.0,505.0,536.0
503.0,490.0,517.0,520.0
512.0,508.0,504.0,492.0
515.0,519.0,481.0,568.0
518.0,506.0,490.0,516.0
515.0,513.0,568.0,515.0
512.0,538.0,556.0,479.0
508.0,530.0,533.0,476.0
512.0,535.0,529.0,480.0
504.0,538.0,535.0,530.0
508.0,525.0,510.0,468.0
517.0,520.0,507.0,498.0
519.0,505.0,506.0,524.0
533.0,508.0,536.0,537.0
533.0,514.0,511.0,530.0
519.0,469.0,482.0,508.0
512.0,454.0,499.0,532.0
499.0,464.0,511.0,547.0
499.0,469.0,506.0,530.0
501.0,487.0,514.0,509.0
504.0,506.0,509.0,492.0
508.0,514.0,540.0,529.0
513.0,523.0,538.0,478.0
510.0,516.0,530.0,484.0
512.0,520.0,509.0,497.0
510.0,512.0,510.0,467.0
516.0,511.0,516.0,487.0
521.0,517.0,517.0,547.0
518.0,509.0,558.0,546.0
523.0,513.0,490.0,533.0
519.0,514.0,516.0,558.0
511.0,480.0,517.0,559.0
509.0,485.0,492.0,509.0
508.0,484.0,473.0,496.0
496.0,476.0,510.0,515.0
503.0,485.0,501.0,527.0
503.0,497.0,531.0,508.0
512.0,509.0,551.0,491.0
513.0,518.0,507.0,517.0
515.0,528.0,552.0,503.0
509.0,520.0,538.0,486.0
513.0,522.0,517.0,481.0
512.0,521.0,452.0,475.0
517.0,522.0,513.0,481.0
521.0,512.0,583.0,543.0
523.0,503.0,519.0,533.0
529.0,498.0,511.0,546.0
524.0,484.0,544.0,531.0
507.0,480.0,527.0,523.0
508.0,478.0,480.0,482.0
504.0,477.0,501.0,494.0
491.0,478.0,493.0,482.0
488.0,486.0,472.0,496.0
498.0,500.0,539.0,532.0
505.0,520.0,523.0,489.0
504.0,533.0,525.0,463.0
502.0,541.0,519.0,540.0
507.0,539.0,487.0,558.0
521.0,532.0,535.0,431.0
511.0,532.0,517.0,419.0
515.0,505.0,505.0,553.0
516.0,510.0,496.0,526.0
525.0,502.0,531.0,539.0
521.0,498.0,512.0,480.0
524.0,493.0,481.0,543.0
510.0,485.0,524.0,557.0
522.0,494.0,483.0,545.0
504.0,481.0,502.0,482.0
503.0,493.0,549.0,541.0
503.0,493.0,540.0,526.0
509.0,497.0,547.0,490.0
510.0,517.0,546.0,531.0
520.0,537.0,532.0,484.0
519.0,544.0,507.0,483.0
519.0,540.0,477.0,517.0
519.0,523.0,562.0,515.0
514.0,488.0,563.0,521.0
514.0,508.0,520.0,489.0
519.0,517.0,480.0,492.0
522.0,514.0,523.0,547.0
517.0,498.0,487.0,490.0
507.0,474.0,485.0,533.0
503.0,474.0,455.0,472.0
508.0,474.0,490.0,483.0
494.0,461.0,535.0,569.0
497.0,483.0,525.0,530.0
498.0,492.0,480.0,481.0
502.0,502.0,565.0,488.0
508.0,506.0,530.0,454.0
518.0,518.0,495.0,483.0
507.0,506.0,573.0,554.0
513.0,516.0,581.0,541.0
512.0,517.0,510.0,448.0
507.0,519.0,463.0,437.0
509.0,523.0,530.0,517.0
527.0,528.0,532.0,582.0
528.0,520.0,599.0,491.0
530.0,495.0,510.0,481.0
514.0,479.0,475.0,593.0
517.0,469.0,525.0,596.0
504.0,474.0,497.0,504.0
485.0,494.0,481.0,379.0
491.0,502.0,522.0,441.0
508.0,514.0,484.0,513.0
505.0,516.0,540.0,516.0
517.0,556.0,587.0,567.0
515.0,564.0,595.0,595.0
502.0,550.0,596.0,581.0
521.0,510.0,555.0,435.0
521.0,495.0,511.0,453.0
513.0,504.0,494.0,486.0
513.0,493.0,495.0,522.0
518.0,494.0,544.0,539.0
519.0,481.0,528.0,613.0
525.0,493.0,528.0,553.0
517.0,477.0,512.0,483.0
516.0,485.0,462.0,521.0
495.0,471.0,627.0,559.0
486.0,475.0,656.0,460.0
488.0,491.0,551.0,532.0
499.0,507.0,482.0,560.0
496.0,517.0,485.0,515.0
507.0,522.0,559.0,509.0
504.0,524.0,510.0,513.0
520.0,517.0,480.0,464.0
521.0,515.0,505.0,491.0
518.0,526.0,512.0,411.0
524.0,518.0,492.0,436.0
521.0,508.0,507.0,550.0
527.0,506.0,473.0,571.0
529.0,502.0,482.0,531.0
525.0,499.0,494.0,574.0
518.0,494.0,471.0,552.0
514.0,489.0,452.0,450.0
499.0,473.0,468.0,458.0
494.0,475.0,533.0,532.0
496.0,483.0,548.0,533.0
501.0,484.0,521.0,563.0
499.0,510.0,548.0,424.0
512.0,530.0,517.0,461.0
510.0,532.0,541.0,548.0
516.0,526.0,537.0,517.0
508.0,517.0,531.0,556.0
505.0,517.0,539.0,527.0
510.0,522.0,486.0,478.0
521.0,543.0,480.0,556.0
523.0,534.0,456.0,457.0
529.0,518.0,530.0,548.0
524.0,505.0,517.0,583.0
530.0,510.0,449.0,499.0
508.0,465.0,526.0,597.0
495.0,450.0,506.0,489.0
487.0,481.0,504.0,484.0
492.0,505.0,526.0,513.0
498.0,493.0,471.0,414.0
510.0,508.0,534.0,536.0
515.0,514.0,519.0,521.0
511.0,512.0,527.0,521.0
520.0,521.0,527.0,424.0
510.0,518.0,466.0,488.0
513.0,510.0,600.0,573.0
517.0,505.0,613.0,533.0
515.0,503.0,443.0,387.0
509.0,495.0,362.0,483.0
512.0,466.0,463.0,549.0
513.0,489.0,660.0,621.0
507.0,514.0,543.0,557.0
497.0,505.0,519.0,560.0
499.0,510.0,523.0,532.0
505.0,505.0,500.0,556.0
514.0,508.0,519.0,533.0
520.0,523.0,618.0,503.0
517.0,485.0,629.0,464.0
513.0,484.0,421.0,454.0
515.0,521.0,479.0,548.0
517.0,531.0,557.0,479.0
513.0,520.0,516.0,511.0
511.0,491.0,508.0,427.0
516.0,494.0,498.0,458.0
517.0,505.0,507.0,751.0
516.0,500.0,526.0,583.0
515.0,491.0,516.0,520.0
512.0,490.0,499.0,549.0
510.0,505.0,519.0,524.0
501.0,505.0,533.0,527.0
498.0,495.0,508.0,475.0
495.0,498.0,449.0,483.0
492.0,494.0,529.0,571.0
507.0,505.0,547.0,493.0
514.0,531.0,508.0,468.0
508.0,547.0,579.0,550.0
524.0,562.0,503.0,504.0
538.0,545.0,505.0,532.0
525.0,519.0,642.0,443.0
522.0,498.0,565.0,496.0
524.0,498.0,501.0,544.0
517.0,478.0,440.0,572.0
511.0,431.0,543.0,559.0
504.0,441.0,611.0,555.0
504.0,504.0,608.0,541.0
507.0,498.0,509.0,441.0
494.0,467.0,424.0,540.0
498.0,490.0,497.0,529.0
503.0,504.0,496.0,535.0
508.0,511.0,568.0,540.0
507.0,507.0,444.0,468.0
514.0,526.0,564.0,428.0
512.0,536.0,500.0,458.0
511.0,527.0,465.0,494.0
505.0,523.0,478.0,530.0
514.0,511.0,487.0,464.0
522.0,488.0,431.0,384.0
521.0,481.0,604.0,622.0
517.0,481.0,501.0,681.0
519.0,490.0,469.0,518.0
505.0,478.0,553.0,521.0
510.0,487.0,475.0,522.0
501.0,480.0,526.0,557.0
496.0,487.0,509.0,494.0
498.0,497.0,504.0,561.0
512.0,522.0,526.0,541.0
513.0,514.0,499.0,501.0
522.0,528.0,505.0,503.0
511.0,526.0,509.0,499.0
516.0,525.0,508.0,511.0
509.0,512.0,544.0,537.0
512.0,516.0,480.0,480.0
514.0,516.0,553.0,525.0
522.0,510.0,518.0,482.0
526.0,504.0,514.0,415.0
526.0,504.0,567.0,579.0
522.0,515.0,490.0,521.0
514.0,527.0,567.0,583.0
519.0,523.0,533.0,567.0
508.0,516.0,464.0,511.0
505.0,517.0,473.0,548.0
497.0,475.0,687.0,513.0
497.0,444.0,631.0,476.0
495.0,468.0,406.0,538.0
489.0,491.0,448.0,502.0
486.0,493.0,529.0,541.0
516.0,512.0,537.0,497.0
521.0,512.0,494.0,415.0
520.0,512.0,510.0,380.0
520.0,529.0,628.0,558.0
525.0,530.0,539.0,494.0
525.0,496.0,525.0,634.0
518.0,492.0,413.0,571.0
497.0,472.0,355.0,402.0
491.0,492.0,550.0,452.0
479.0,481.0,579.0,586.0
470.0,483.0,505.0,610.0
459.0,473.0,547.0,552.0
463.0,481.0,428.0,448.0
476.0,494.0,569.0,536.0
497.0,525.0,575.0,545.0
519.0,544.0,513.0,515.0
518.0,536.0,518.0,499.0
515.0,543.0,567.0,523.0
515.0,547.0,511.0,429.0
516.0,536.0,490.0,456.0
544.0,529.0,478.0,507.0
567.0,547.0,497.0,554.0
545.0,524.0,485.0,592.0
547.0,486.0,523.0,631.0
536.0,478.0,483.0,545.0
527.0,482.0,502.0,522.0
515.0,512.0,520.0,504.0
507.0,481.0,503.0,520.0
499.0,461.0,499.0,515.0
515.0,523.0,506.0,471.0
521.0,522.0,473.0,499.0
503.0,433.0,530.0,513.0
500.0,436.0,538.0,519.0
509.0,492.0,466.0,511.0
512.0,549.0,474.0,378.0
517.0,542.0,664.0,512.0
521.0,533.0,491.0,561.0
526.0,530.0,510.0,534.0
525.0,483.0,583.0,484.0
516.0,478.0,488.0,487.0
521.0,483.0,511.0,581.0
510.0,484.0,499.0,496.0
507.0,475.0,480.0,301.0
495.0,457.0,639.0,543.0
494.0,477.0,611.0,595.0
502.0,493.0,495.0,539.0
512.0,514.0,464.0,525.0
510.0,510.0,457.0,583.0
513.0,530.0,508.0,515.0
515.0,531.0,504.0,484.0
518.0,538.0,508.0,527.0
512.0,522.0,571.0,512.0
510.0,507.0,569.0,497.0
509.0,504.0,496.0,545.0
512.0,494.0,529.0,512.0
523.0,491.0,490.0,477.0
525.0,488.0,457.0,488.0
516.0,499.0,496.0,576.0
513.0,512.0,539.0,550.0
502.0,499.0,508.0,575.0
502.0,492.0,497.0,555.0
503.0,485.0,522.0,497.0
502.0,500.0,457.0,487.0
509.0,517.0,516.0,483.0
513.0,520.0,469.0,469.0
527.0,536.0,513.0,514.0
518.0,538.0,586.0,449.0
517.0,494.0,464.0,392.0
502.0,455.0,603.0,601.0
505.0,484.0,595.0,527.0
513.0,544.0,608.0,582.0
515.0,513.0,498.0,454.0
518.0,483.0,422.0,539.0
517.0,483.0,457.0,561.0
508.0,481.0,537.0,580.0
506.0,477.0,484.0,571.0
503.0,480.0,488.0,548.0
498.0,481.0,555.0,545.0
496.0,490.0,565.0,483.0
492.0,502.0,531.0,502.0
497.0,512.0,647.0,603.0
513.0,524.0,496.0,378.0
510.0,540.0,566.0,407.0
510.0,540.0,485.0,437.0
511.0,531.0,597.0,523.0
509.0,507.0,506.0,578.0
508.0,503.0,498.0,533.0
518.0,497.0,453.0,470.0
529.0,504.0,510.0,475.0
524.0,508.0,473.0,558.0
518.0,490.0,454.0,583.0
497.0,477.0,576.0,526.0
510.0,486.0,470.0,518.0
505.0,495.0,433.0,568.0
506.0,513.0,622.0,506.0
503.0,509.0,706.0,513.0
507.0,526.0,505.0,514.0
511.0,527.0,395.0,492.0
515.0,504.0,455.0,516.0
503.0,509.0,498.0,499.0
502.0,490.0,566.0,378.0
513.0,537.0,528.0,526.0
523.0,548.0,525.0,568.0
519.0,535.0,517.0,534.0
518.0,514.0,499.0,538.0
522.0,513.0,457.0,541.0
528.0,519.0,467.0,523.0
515.0,490.0,497.0,533.0
507.0,489.0,557.0,574.0
502.0,479.0,561.0,472.0
496.0,477.0,567.0,468.0
494.0,460.0,523.0,525.0
492.0,508.0,459.0,485.0
488.0,540.0,429.0,540.0
483.0,481.0,472.0,548.0
492.0,503.0,533.0,464.0
489.0,520.0,524.0,384.0
519.0,533.0,493.0,439.0
509.0,511.0,584.0,609.0
526.0,507.0,512.0,504.0
543.0,531.0,570.0,551.0
533.0,518.0,531.0,507.0
522.0,511.0,389.0,552.0
510.0,527.0,462.0,521.0
501.0,497.0,527.0,509.0
508.0,471.0,505.0,480.0
500.0,462.0,485.0,516.0
495.0,449.0,556.0,532.0
506.0,465.0,499.0,483.0
500.0,487.0,528.0,499.0
495.0,512.0,556.0,587.0
506.0,520.0,516.0,414.0
497.0,521.0,729.0,563.0
499.0,533.0,540.0,540.0
503.0,530.0,524.0,517.0
508.0,534.0,536.0,534.0
551.0,542.0,499.0,506.0
537.0,492.0,534.0,532.0
533.0,534.0,597.0,517.0
536.0,539.0,615.0,584.0
540.0,511.0,408.0,507.0
506.0,458.0,398.0,557.0
496.0,470.0,477.0,555.0
495.0,488.0,480.0,548.0
500.0,448.0,500.0,511.0
491.0,469.0,504.0,450.0
497.0,478.0,500.0,506.0
512.0,517.0,527.0,496.0
520.0,538.0,546.0,505.0
517.0,521.0,448.0,495.0
527.0,531.0,600.0,510.0
521.0,514.0,517.0,464.0
521.0,503.0,506.0,490.0
515.0,493.0,438.0,504.0
516.0,495.0,461.0,508.0
526.0,501.0,442.0,428.0
539.0,521.0,464.0,434.0
526.0,510.0,462.0,487.0
511.0,491.0,545.0,533.0
489.0,448.0,541.0,584.0
481.0,437.0,534.0,584.0
496.0,482.0,538.0,551.0
509.0,504.0,517.0,560.0
518.0,508.0,524.0,514.0
523.0,531.0,587.0,384.0
523.0,546.0,532.0,413.0
513.0,535.0,466.0,498.0
508.0,514.0,597.0,551.0
507.0,515.0,496.0,568.0
516.0,526.0,484.0,560.0
525.0,533.0,520.0,579.0
528.0,530.0,613.0,524.0
527.0,526.0,528.0,537.0
532.0,500.0,691.0,498.0
514.0,450.0,474.0,593.0
503.0,457.0,392.0,549.0
488.0,453.0,475.0,512.0
495.0,477.0,498.0,481.0
499.0,500.0,511.0,497.0
508.0,531.0,645.0,534.0
518.0,534.0,575.0,533.0
532.0,548.0,410.0,491.0
520.0,523.0,410.0,503.0
502.0,469.0,464.0,472.0
495.0,484.0,551.0,386.0
503.0,539.0,535.0,469.0
509.0,514.0,535.0,542.0
517.0,518.0,524.0,600.0
523.0,521.0,463.0,537.0
523.0,506.0,451.0,436.0
517.0,497.0,452.0,583.0
510.0,484.0,457.0,585.0
496.0,470.0,493.0,470.0
497.0,469.0,508.0,434.0
496.0,482.0,565.0,499.0
494.0,506.0,705.0,492.0
505.0,508.0,478.0,453.0
517.0,531.0,522.0,540.0
514.0,565.0,664.0,576.0
514.0,565.0,492.0,534.0
526.0,593.0,466.0,522.0
520.0,536.0,465.0,403.0
514.0,518.0,506.0,554.0
524.0,553.0,524.0,623.0
521.0,519.0,509.0,505.0
521.0,457.0,574.0,590.0
519.0,451.0,632.0,511.0
501.0,491.0,437.0,509.0
493.0,467.0,433.0,534.0
484.0,400.0,550.0,541.0
473.0,401.0,470.0,510.0
477.0,469.0,482.0,545.0
491.0,523.0,462.0,511.0
523.0,525.0,509.0,500.0
521.0,519.0,543.0,495.0
502.0,515.0,602.0,497.0
503.0,509.0,563.0,480.0
487.0,504.0,479.0,435.0
465.0,517.0,550.0,527.0
484.0,541.0,546.0,513.0
503.0,527.0,454.0,546.0
522.0,521.0,488.0,555.0
517.0,522.0,490.0,518.0
532.0,500.0,522.0,485.0
554.0,482.0,588.0,511.0
542.0,511.0,398.0,512.0
502.0,466.0,461.0,430.0
485.0,439.0,463.0,538.0
496.0,441.0,522.0,604.0
508.0,489.0,498.0,462.0
532.0,519.0,479.0,417.0
541.0,533.0,503.0,563.0
528.0,552.0,555.0,589.0
505.0,564.0,537.0,555.0
511.0,548.0,520.0,541.0
522.0,515.0,598.0,466.0
535.0,533.0,595.0,531.0
534.0,503.0,480.0,499.0
509.0,411.0,429.0,379.0
502.0,374.0,486.0,520.0
516.0,510.0,479.0,565.0
506.0,507.0,526.0,453.0
507.0,487.0,585.0,584.0
498.0,491.0,511.0,464.0
489.0,495.0,584.0,541.0
499.0,506.0,463.0,596.0
519.0,520.0,444.0,542.0
520.0,536.0,567.0,516.0
525.0,534.0,500.0,444.0
514.0,514.0,522.0,493.0
521.0,529.0,541.0,470.0
515.0,514.0,431.0,471.0
514.0,522.0,550.0,619.0
513.0,512.0,683.0,561.0
516.0,503.0,491.0,527.0
519.0,497.0,384.0,521.0
528.0,500.0,467.0,518.0
521.0,485.0,426.0,597.0
512.0,477.0,572.0,481.0
498.0,469.0,591.0,472.0
499.0,480.0,462.0,533.0
492.0,487.0,567.0,539.0
508.0,515.0,537.0,476.0
517.0,532.0,670.0,514.0
528.0,538.0,492.0,532.0
532.0,545.0,509.0,493.0
519.0,538.0,609.0,482.0
517.0,546.0,455.0,481.0
508.0,551.0,398.0,426.0
520.0,537.0,410.0,546.0
532.0,565.0,487.0,537.0
532.0,532.0,502.0,554.0
533.0,508.0,556.0,522.0
524.0,485.0,532.0,472.0
501.0,439.0,487.0,411.0
486.0,416.0,430.0,543.0
482.0,441.0,456.0,539.0
484.0,463.0,530.0,524.0
495.0,495.0,497.0,518.0
503.0,516.0,542.0,551.0
514.0,520.0,584.0,439.0
515.0,522.0,557.0,529.0
517.0,519.0,546.0,586.0
510.0,517.0,560.0,528.0
513.0,514.0,561.0,520.0
506.0,498.0,548.0,525.0
501.0,503.0,430.0,518.0
522.0,502.0,515.0,505.0
522.0,503.0,422.0,467.0
521.0,483.0,449.0,557.0
512.0,484.0,533.0,546.0
505.0,491.0,422.0,496.0
507.0,509.0,478.0,463.0
506.0,518.0,541.0,530.0
509.0,521.0,530.0,520.0
506.0,502.0,576.0,515.0
502.0,499.0,514.0,516.0
507.0,517.0,565.0,416.0
516.0,548.0,517.0,408.0
511.0,531.0,468.0,430.0
516.0,552.0,466.0,560.0
513.0,510.0,517.0,513.0
517.0,514.0,540.0,509.0
520.0,526.0,589.0,524.0
517.0,471.0,647.0,477.0
498.0,454.0,619.0,613.0
507.0,490.0,535.0,537.0
494.0,446.0,387.0,525.0
506.0,510.0,469.0,541.0
509.0,505.0,500.0,515.0
494.0,489.0,429.0,500.0
492.0,516.0,507.0,571.0
508.0,520.0,606.0,482.0
505.0,462.0,588.0,413.0
482.0,424.0,400.0,442.0
488.0,475.0,481.0,579.0
510.0,535.0,501.0,513.0
533.0,543.0,540.0,521.0
527.0,518.0,524.0,503.0
528.0,511.0,477.0,509.0
531.0,511.0,458.0,521.0
533.0,524.0,494.0,538.0
531.0,508.0,527.0,556.0
529.0,506.0,506.0,503.0
513.0,466.0,476.0,468.0
510.0,474.0,571.0,508.0
503.0,489.0,606.0,576.0
502.0,506.0,445.0,520.0
499.0,508.0,491.0,509.0
501.0,516.0,449.0,490.0
479.0,551.0,547.0,426.0
472.0,511.0,529.0,477.0
475.0,503.0,573.0,626.0
467.0,512.0,500.0,491.0
467.0,520.0,527.0,465.0
473.0,512.0,536.0,484.0
510.0,494.0,558.0,520.0
557.0,497.0,526.0,519.0
540.0,499.0,398.0,489.0
531.0,490.0,596.0,526.0
529.0,477.0,398.0,482.0
543.0,480.0,520.0,477.0
529.0,475.0,492.0,494.0
513.0,472.0,497.0,592.0
507.0,489.0,507.0,511.0
513.0,504.0,504.0,558.0
512.0,524.0,660.0,528.0
527.0,537.0,633.0,514.0
530.0,543.0,439.0,520.0
519.0,511.0,479.0,501.0
521.0,526.0,604.0,566.0
523.0,517.0,489.0,493.0
523.0,513.0,432.0,496.0
531.0,525.0,530.0,529.0
528.0,513.0,547.0,528.0
521.0,494.0,391.0,462.0
522.0,500.0,488.0,613.0
515.0,483.0,510.0,543.0
502.0,446.0,484.0,480.0
493.0,453.0,498.0,535.0
489.0,463.0,441.0,497.0
501.0,493.0,488.0,546.0
501.0,515.0,672.0,536.0
501.0,515.0,665.0,472.0
522.0,530.0,471.0,511.0
524.0,533.0,644.0,508.0
519.0,522.0,575.0,521.0
516.0,517.0,368.0,478.0
516.0,524.0,625.0,477.0
514.0,504.0,606.0,523.0
519.0,502.0,331.0,474.0
523.0,514.0,436.0,550.0
521.0,501.0,457.0,557.0
522.0,514.0,517.0,498.0
517.0,513.0,484.0,525.0
506.0,493.0,479.0,519.0
500.0,500.0,459.0,506.0
503.0,497.0,459.0,427.0
502.0,492.0,484.0,456.0
494.0,440.0,515.0,530.0
501.0,490.0,518.0,479.0
508.0,548.0,536.0,531.0
518.0,566.0,550.0,470.0
511.0,561.0,509.0,426.0
514.0,560.0,463.0,463.0
519.0,553.0,508.0,531.0
517.0,504.0,484.0,522.0
521.0,501.0,528.0,552.0
528.0,511.0,556.0,560.0
516.0,484.0,498.0,518.0
509.0,462.0,502.0,545.0
497.0,473.0,492.0,464.0
489.0,443.0,480.0,433.0
491.0,450.0,600.0,565.0
492.0,476.0,472.0,550.0
493.0,483.0,486.0,487.0
490.0,505.0,517.0,545.0
507.0,523.0,511.0,488.0
504.0,524.0,533.0,527.0
499.0,532.0,556.0,538.0
493.0,519.0,703.0,589.0
507.0,530.0,694.0,538.0
533.0,510.0,364.0,451.0
531.0,517.0,385.0,455.0
533.0,522.0,534.0,564.0
537.0,511.0,564.0,561.0
529.0,486.0,409.0,511.0
515.0,474.0,435.0,514.0
501.0,471.0,476.0,531.0
489.0,461.0,546.0,508.0
485.0,494.0,519.0,507.0
487.0,518.0,522.0,524.0
492.0,534.0,523.0,499.0
508.0,547.0,552.0,496.0
526.0,551.0,561.0,487.0
501.0,481.0,430.0,506.0
493.0,466.0,483.0,508.0
530.0,484.0,475.0,498.0
531.0,494.0,484.0,511.0
521.0,503.0,520.0,519.0
520.0,506.0,544.0,477.0
533.0,511.0,575.0,516.0
534.0,497.0,542.0,514.0
530.0,486.0,466.0,516.0
507.0,476.0,421.0,525.0
506.0,466.0,534.0,498.0
504.0,482.0,457.0,472.0
500.0,491.0,443.0,534.0
504.0,499.0,516.0,479.0
511.0,510.0,546.0,455.0
513.0,517.0,544.0,516.0
521.0,529.0,554.0,606.0
518.0,535.0,529.0,532.0
514.0,535.0,543.0,500.0
509.0,523.0,518.0,512.0
513.0,518.0,537.0,531.0
517.0,512.0,522.0,506.0
522.0,509.0,459.0,470.0
525.0,508.0,469.0,533.0
526.0,507.0,487.0,537.0
519.0,501.0,479.0,547.0
507.0,493.0,489.0,517.0
497.0,476.0,513.0,524.0
496.0,487.0,490.0,499.0
494.0,497.0,513.0,560.0
491.0,489.0,530.0,454.0
504.0,507.0,569.0,501.0
509.0,512.0,474.0,481.0
514.0,518.0,581.0,504.0
509.0,524.0,691.0,495.0
511.0,528.0,512.0,481.0
512.0,535.0,452.0,492.0
524.0,534.0,473.0,482.0
526.0,537.0,521.0,472.0
529.0,513.0,517.0,478.0
520.0,467.0,546.0,489.0
513.0,455.0,547.0,573.0
504.0,477.0,410.0,554.0
501.0,480.0,412.0,523.0
492.0,471.0,474.0,557.0
493.0,483.0,507.0,573.0
500.0,498.0,566.0,479.0
504.0,523.0,540.0,513.0
509.0,534.0,503.0,525.0
522.0,574.0,516.0,500.0
525.0,558.0,471.0,447.0
514.0,516.0,477.0,567.0
513.0,504.0,536.0,498.0
507.0,493.0,488.0,507.0
506.0,490.0,528.0,487.0
513.0,514.0,485.0,511.0
519.0,516.0,556.0,534.0
522.0,515.0,480.0,519.0
522.0,514.0,465.0,522.0
519.0,499.0,540.0,564.0
504.0,472.0,652.0,596.0
493.0,456.0,464.0,453.0
499.0,477.0,394.0,464.0
497.0,481.0,509.0,530.0
498.0,485.0,530.0,526.0
508.0,524.0,551.0,504.0
516.0,546.0,513.0,512.0
518.0,548.0,511.0,497.0
515.0,542.0,509.0,496.0
510.0,527.0,515.0,498.0
501.0,522.0,503.0,497.0
491.0,478.0,501.0,498.0
489.0,494.0,507.0,519.0
491.0,510.0,496.0,508.0
490.0,518.0,477.0,515.0
486.0,476.0,488.0,518.0
505.0,444.0,482.0,530.0
513.0,450.0,488.0,533.0
513.0,473.0,503.0,509.0
519.0,474.0,507.0,500.0
533.0,480.0,501.0,503.0
527.0,506.0,468.0,475.0
520.0,523.0,536.0,502.0
509.0,539.0,547.0,492.0
517.0,517.0,537.0,466.0
512.0,502.0,531.0,503.0
515.0,525.0,509.0,489.0
518.0,528.0,559.0,495.0
541.0,526.0,474.0,510.0
542.0,522.0,505.0,523.0
529.0,499.0,526.0,527.0
523.0,488.0,498.0,521.0
512.0,481.0,464.0,514.0
505.0,474.0,471.0,511.0
505.0,487.0,514.0,529.0
498.0,484.0,510.0,502.0
504.0,494.0,499.0,481.0
508.0,502.0,535.0,509.0
515.0,519.0,553.0,526.0
516.0,534.0,534.0,513.0
521.0,538.0,496.0,476.0
517.0,547.0,518.0,468.0
517.0,537.0,505.0,494.0
519.0,528.0,470.0,485.0
516.0,508.0,502.0,497.0
515.0,507.0,509.0,524.0
521.0,491.0,499.0,542.0
526.0,486.0,515.0,520.0
518.0,505.0,568.0,530.0
507.0,493.0,466.0,541.0
496.0,473.0,475.0,537.0
494.0,479.0,501.0,518.0
494.0,479.0,500.0,504.0
499.0,501.0,528.0,492.0
504.0,512.0,527.0,507.0
509.0,521.0,513.0,488.0
516.0,528.0,511.0,491.0
512.0,527.0,520.0,490.0
505.0,515.0,510.0,488.0
508.0,520.0,506.0,482.0
509.0,520.0,511.0,512.0
512.0,513.0,505.0,506.0
516.0,505.0,492.0,499.0
520.0,502.0,486.0,508.0
516.0,496.0,487.0,521.0
514.0,484.0,491.0,529.0
506.0,482.0,489.0,521.0
494.0,477.0,492.0,516.0
496.0,482.0,495.0,514.0
494.0,494.0,508.0,518.0
503.0,502.0,519.0,505.0
508.0,509.0,526.0,505.0
515.0,519.0,517.0,491.0
519.0,526.0,524.0,491.0
510.0,522.0,517.0,494.0
507.0,524.0,502.0,490.0
511.0,530.0,514.0,514.0
514.0,522.0,508.0,472.0
521.0,517.0,516.0,503.0
521.0,509.0,496.0,513.0
519.0,491.0,495.0,523.0
519.0,487.0,496.0,532.0
514.0,483.0,510.0,535.0
509.0,477.0,506.0,534.0
496.0,479.0,507.0,525.0
494.0,488.0,510.0,514.0
499.0,500.0,508.0,506.0
504.0,515.0,511.0,498.0
512.0,520.0,515.0,495.0
516.0,527.0,510.0,491.0
516.0,519.0,517.0,492.0
512.0,526.0,515.0,485.0
511.0,523.0,511.0,491.0
508.0,513.0,510.0,496.0
510.0,513.0,503.0,501.0
522.0,510.0,501.0,508.0
523.0,504.0,499.0,512.0
526.0,498.0,490.0,520.0
522.0,494.0,488.0,521.0
508.0,486.0,489.0,520.0
499.0,481.0,490.0,517.0
495.0,487.0,496.0,512.0
496.0,494.0,508.0,510.0
501.0,499.0,511.0,504.0
508.0,510.0,520.0,499.0
509.0,507.0,521.0,493.0
514.0,536.0,524.0,492.0
516.0,553.0,524.0,495.0
511.0,535.0,524.0,498.0
516.0,543.0,518.0,498.0
514.0,528.0,515.0,506.0
517.0,499.0,516.0,513.0
519.0,476.0,503.0,513.0
518.0,488.0,490.0,512.0
523.0,491.0,489.0,515.0
515.0,489.0,489.0,521.0
506.0,480.0,491.0,524.0
495.0,471.0,494.0,524.0
497.0,478.0,501.0,516.0
497.0,486.0,514.0,507.0
501.0,483.0,517.0,500.0
501.0,500.0,517.0,496.0
513.0,517.0,522.0,497.0
512.0,522.0,519.0,490.0
509.0,522.0,520.0,498.0
508.0,518.0,526.0,501.0
508.0,513.0,524.0,504.0
506.0,505.0,516.0,505.0
514.0,516.0,500.0,503.0
519.0,502.0,491.0,509.0
518.0,498.0,492.0,520.0
522.0,508.0,489.0,525.0
513.0,502.0,490.0,518.0
506.0,486.0,487.0,515.0
500.0,490.0,492.0,509.0
492.0,490.0,499.0,502.0
498.0,491.0,508.0,498.0
506.0,516.0,515.0,498.0
512.0,514.0,520.0,497.0
519.0,516.0,524.0,494.0
517.0,523.0,523.0,495.0
517.0,521.0,520.0,498.0
505.0,520.0,514.0,495.0
511.0,518.0,509.0,495.0
517.0,508.0,506.0,497.0
523.0,507.0,501.0,503.0
530.0,506.0,492.0,512.0
527.0,508.0,491.0,514.0
521.0,495.0,488.0,517.0
514.0,486.0,491.0,521.0
498.0,475.0,494.0,519.0
495.0,477.0,502.0,515.0
499.0,489.0,508.0,513.0
500.0,501.0,515.0,498.0
507.0,522.0,521.0,498.0
514.0,526.0,525.0,494.0
516.0,536.0,523.0,490.0
513.0,532.0,521.0,493.0
511.0,529.0,521.0,492.0
514.0,530.0,518.0,500.0
517.0,515.0,514.0,502.0
519.0,504.0,511.0,505.0
523.0,501.0,501.0,512.0
528.0,492.0,497.0,518.0
518.0,485.0,491.0,523.0
505.0,485.0,492.0,521.0
499.0,472.0,494.0,519.0
481.0,466.0,497.0,518.0
485.0,476.0,505.0,510.0
495.0,485.0,513.0,508.0
503.0,502.0,517.0,502.0
509.0,509.0,522.0,504.0
515.0,516.0,526.0,497.0
526.0,523.0,526.0,497.0
528.0,531.0,525.0,497.0
517.0,520.0,520.0,497.0
516.0,519.0,514.0,499.0
523.0,522.0,508.0,503.0
529.0,516.0,502.0,506.0
522.0,497.0,498.0,516.0
518.0,479.0,495.0,522.0
515.0,474.0,492.0,521.0
511.0,481.0,490.0,523.0
508.0,479.0,494.0,527.0
495.0,481.0,501.0,517.0
498.0,495.0,507.0,514.0
501.0,506.0,512.0,506.0
505.0,533.0,520.0,506.0
513.0,538.0,523.0,498.0
519.0,544.0,527.0,494.0
519.0,554.0,523.0,498.0
510.0,539.0,523.0,502.0
498.0,526.0,522.0,501.0
504.0,528.0,516.0,504.0
514.0,529.0,511.0,509.0
522.0,521.0,505.0,513.0
522.0,499.0,500.0,517.0
522.0,499.0,496.0,524.0
517.0,484.0,497.0,530.0
518.0,480.0,495.0,527.0
499.0,467.0,493.0,523.0
493.0,470.0,501.0,513.0
498.0,487.0,512.0,506.0
503.0,498.0,520.0,503.0
503.0,514.0,521.0,502.0
503.0,522.0,523.0,489.0
517.0,540.0,521.0,497.0
518.0,545.0,520.0,491.0
513.0,531.0,517.0,496.0
515.0,532.0,515.0,499.0
509.0,521.0,510.0,503.0
516.0,507.0,505.0,506.0
529.0,507.0,500.0,513.0
522.0,494.0,496.0,519.0
525.0,491.0,494.0,525.0
521.0,485.0,495.0,524.0
508.0,482.0,498.0,530.0
495.0,469.0,507.0,527.0
492.0,477.0,512.0,523.0
498.0,494.0,512.0,518.0
502.0,497.0,517.0,504.0
506.0,497.0,518.0,497.0
521.0,517.0,520.0,495.0
519.0,527.0,523.0,491.0
518.0,530.0,518.0,494.0
521.0,527.0,521.0,493.0
521.0,517.0,511.0,496.0
524.0,504.0,511.0,505.0
521.0,493.0,502.0,508.0
519.0,496.0,496.0,518.0
522.0,496.0,496.0,524.0
517.0,495.0,493.0,528.0
513.0,494.0,495.0,528.0
509.0,487.0,495.0,525.0
500.0,489.0,502.0,522.0
495.0,500.0,507.0,514.0
496.0,509.0,514.0,507.0
508.0,519.0,525.0,504.0
505.0,516.0,526.0,498.0
508.0,510.0,523.0,496.0
510.0,504.0,522.0,494.0
506.0,513.0,524.0,498.0
505.0,512.0,517.0,501.0
507.0,522.0,516.0,500.0
510.0,516.0,508.0,509.0
522.0,511.0,501.0,514.0
526.0,512.0,499.0,519.0
527.0,508.0,497.0,527.0
521.0,488.0,499.0,528.0
510.0,478.0,498.0,528.0
496.0,463.0,500.0,529.0
509.0,460.0,507.0,522.0
503.0,450.0,510.0,517.0
495.0,459.0,516.0,513.0
509.0,497.0,528.0,504.0
527.0,516.0,528.0,504.0
527.0,531.0,530.0,503.0
519.0,549.0,530.0,502.0
510.0,547.0,524.0,502.0
499.0,560.0,519.0,505.0
498.0,521.0,514.0,505.0
506.0,514.0,509.0,512.0
518.0,522.0,506.0,518.0
523.0,504.0,508.0,525.0
521.0,504.0,502.0,526.0
517.0,500.0,501.0,529.0
513.0,498.0,506.0,529.0
506.0,507.0,504.0,528.0
495.0,503.0,511.0,522.0
494.0,490.0,513.0,516.0
496.0,485.0,518.0,507.0
499.0,501.0,521.0,499.0
510.0,519.0,519.0,491.0
517.0,512.0,517.0,488.0
521.0,522.0,517.0,487.0
519.0,520.0,513.0,491.0
516.0,517.0,511.0,495.0
516.0,514.0,506.0,499.0
519.0,508.0,499.0,507.0
516.0,491.0,499.0,517.0
507.0,469.0,494.0,523.0
504.0,459.0,499.0,526.0
498.0,458.0,496.0,524.0
488.0,471.0,497.0,524.0
495.0,506.0,502.0,517.0
503.0,518.0,508.0,514.0
501.0,506.0,517.0,512.0
513.0,533.0,521.0,505.0
520.0,543.0,527.0,504.0
523.0,547.0,527.0,498.0
526.0,539.0,526.0,506.0
520.0,541.0,524.0,504.0
509.0,513.0,520.0,504.0
503.0,529.0,518.0,513.0
516.0,534.0,516.0,516.0
519.0,515.0,510.0,519.0
519.0,474.0,503.0,525.0
518.0,470.0,499.0,525.0
516.0,464.0,490.0,524.0
519.0,458.0,500.0,527.0
507.0,460.0,499.0,527.0
510.0,488.0,503.0,522.0
516.0,494.0,514.0,516.0
515.0,490.0,518.0,512.0
505.0,513.0,523.0,509.0
504.0,521.0,526.0,509.0
517.0,546.0,526.0,503.0
519.0,543.0,528.0,503.0
503.0,521.0,523.0,502.0
500.0,575.0,520.0,506.0
511.0,565.0,517.0,513.0
512.0,480.0,514.0,519.0
513.0,481.0,508.0,522.0
522.0,471.0,505.0,530.0
526.0,462.0,499.0,530.0
507.0,418.0,500.0,527.0
503.0,404.0,497.0,533.0
494.0,404.0,504.0,527.0
493.0,435.0,513.0,522.0
498.0,501.0,518.0,520.0
503.0,564.0,522.0,509.0
513.0,580.0,523.0,502.0
526.0,556.0,525.0,497.0
510.0,543.0,521.0,493.0
505.0,537.0,518.0,498.0
513.0,542.0,517.0,498.0
513.0,556.0,515.0,500.0
529.0,552.0,513.0,510.0
527.0,525.0,511.0,518.0
522.0,515.0,505.0,526.0
524.0,500.0,499.0,529.0
526.0,496.0,497.0,526.0
516.0,495.0,497.0,530.0
507.0,480.0,494.0,531.0
496.0,485.0,504.0,527.0
498.0,499.0,515.0,523.0
494.0,491.0,519.0,513.0
500.0,483.0,525.0,511.0
511.0,515.0,530.0,509.0
520.0,561.0,531.0,507.0
510.0,556.0,531.0,506.0
514.0,536.0,528.0,505.0
515.0,525.0,515.0,502.0
522.0,514.0,509.0,505.0
519.0,506.0,507.0,506.0
513.0,501.0,510.0,517.0
514.0,486.0,511.0,531.0
519.0,480.0,511.0,536.0
513.0,474.0,511.0,533.0
506.0,487.0,500.0,524.0
494.0,459.0,495.0,520.0
487.0,459.0,498.0,512.0
492.0,473.0,500.0,507.0
497.0,501.0,506.0,497.0
505.0,537.0,514.0,495.0
515.0,535.0,519.0,494.0
520.0,533.0,517.0,497.0
520.0,534.0,526.0,499.0
510.0,516.0,521.0,496.0
510.0,511.0,507.0,501.0
512.0,503.0,512.0,511.0
516.0,501.0,508.0,512.0
520.0,497.0,503.0,521.0
517.0,497.0,496.0,523.0
518.0,483.0,492.0,523.0
518.0,469.0,492.0,525.0
505.0,462.0,493.0,525.0
490.0,453.0,501.0,517.0
494.0,483.0,508.0,519.0
497.0,509.0,516.0,515.0
507.0,515.0,522.0,506.0
515.0,550.0,523.0,504.0
523.0,555.0,523.0,498.0
519.0,552.0,521.0,498.0
521.0,540.0,519.0,502.0
515.0,498.0,519.0,506.0
508.0,476.0,521.0,515.0
499.0,505.0,520.0,522.0
507.0,490.0,518.0,529.0
515.0,491.0,515.0,533.0
519.0,486.0,508.0,533.0
524.0,499.0,496.0,524.0
517.0,502.0,489.0,516.0
508.0,496.0,489.0,517.0
502.0,498.0,500.0,513.0
504.0,490.0,505.0,510.0
511.0,498.0,512.0,506.0
514.0,509.0,516.0,502.0
506.0,504.0,521.0,500.0
511.0,523.0,521.0,495.0
511.0,530.0,522.0,499.0
513.0,546.0,519.0,497.0
513.0,537.0,510.0,500.0
509.0,525.0,515.0,509.0
520.0,525.0,512.0,516.0
535.0,523.0,507.0,525.0
538.0,495.0,505.0,533.0
543.0,490.0,510.0,540.0
534.0,466.0,516.0,546.0
508.0,430.0,520.0,545.0
489.0,443.0,520.0,538.0
488.0,462.0,512.0,518.0
485.0,492.0,508.0,503.0
492.0,525.0,506.0,495.0
501.0,533.0,512.0,493.0
502.0,509.0,517.0,489.0
510.0,516.0,515.0,491.0
502.0,516.0,513.0,492.0
507.0,507.0,513.0,499.0
508.0,516.0,515.0,506.0
512.0,522.0,512.0,513.0
522.0,511.0,509.0,518.0
524.0,499.0,505.0,518.0
526.0,497.0,497.0,518.0
533.0,495.0,496.0,519.0
524.0,481.0,494.0,518.0
512.0,486.0,495.0,523.0
488.0,479.0,497.0,522.0
487.0,462.0,508.0,519.0
495.0,473.0,513.0,512.0
504.0,472.0,519.0,509.0
502.0,487.0,526.0,506.0
508.0,530.0,529.0,503.0
506.0,556.0,524.0,500.0
506.0,537.0,520.0,499.0
503.0,511.0,513.0,504.0
513.0,509.0,509.0,501.0
516.0,506.0,511.0,505.0
516.0,521.0,504.0,511.0
524.0,559.0,498.0,515.0
524.0,545.0,491.0,522.0
524.0,520.0,494.0,519.0
521.0,516.0,494.0,523.0
504.0,497.0,502.0,524.0
491.0,466.0,511.0,521.0
496.0,485.0,512.0,520.0
499.0,474.0,517.0,512.0
506.0,504.0,520.0,509.0
508.0,518.0,522.0,507.0
514.0,529.0,521.0,500.0
511.0,512.0,522.0,497.0
510.0,534.0,517.0,496.0
502.0,512.0,514.0,498.0
505.0,499.0,508.0,505.0
509.0,492.0,505.0,509.0
520.0,487.0,505.0,518.0
518.0,487.0,504.0,527.0
516.0,501.0,499.0,526.0
515.0,496.0,497.0,529.0
513.0,484.0,500.0,527.0
500.0,465.0,502.0,527.0
494.0,465.0,510.0,523.0
486.0,473.0,515.0,518.0
489.0,510.0,523.0,519.0
506.0,527.0,534.0,517.0
513.0,534.0,542.0,518.0
523.0,536.0,537.0,510.0
521.0,539.0,525.0,513.0
517.0,524.0,519.0,506.0
511.0,502.0,510.0,501.0
518.0,504.0,500.0,499.0
522.0,511.0,498.0,503.0
527.0,517.0,495.0,510.0
520.0,505.0,500.0,521.0
517.0,502.0,502.0,525.0
516.0,486.0,494.0,520.0
505.0,472.0,493.0,519.0
499.0,465.0,504.0,515.0
506.0,469.0,509.0,519.0
514.0,473.0,519.0,515.0
519.0,484.0,526.0,501.0
520.0,487.0,531.0,499.0
528.0,535.0,516.0,500.0
520.0,549.0,518.0,500.0
506.0,549.0,520.0,499.0
504.0,537.0,516.0,498.0
512.0,518.0,512.0,505.0
521.0,510.0,512.0,509.0
520.0,502.0,508.0,517.0
514.0,493.0,501.0,520.0
506.0,494.0,501.0,523.0
514.0,496.0,497.0,528.0
508.0,480.0,498.0,527.0
496.0,463.0,500.0,524.0
485.0,490.0,507.0,520.0
490.0,491.0,512.0,514.0
496.0,494.0,514.0,512.0
504.0,520.0,529.0,507.0
508.0,524.0,528.0,504.0
515.0,532.0,519.0,504.0
513.0,525.0,516.0,498.0
514.0,518.0,519.0,505.0
510.0,516.0,520.0,506.0
509.0,515.0,517.0,508.0
515.0,505.0,513.0,512.0
516.0,514.0,504.0,517.0
517.0,498.0,501.0,523.0
523.0,498.0,499.0,528.0
515.0,487.0,498.0,527.0
509.0,480.0,502.0,528.0
499.0,475.0,505.0,525.0
497.0,486.0,508.0,520.0
496.0,498.0,518.0,514.0
509.0,506.0,524.0,512.0
513.0,528.0,522.0,510.0
526.0,527.0,523.0,508.0
530.0,535.0,523.0,502.0
515.0,492.0,522.0,501.0
498.0,461.0,521.0,500.0
494.0,504.0,521.0,505.0
503.0,517.0,520.0,511.0
515.0,524.0,515.0,514.0
522.0,529.0,506.0,519.0
521.0,502.0,497.0,518.0
521.0,492.0,493.0,520.0
518.0,482.0,498.0,522.0
509.0,479.0,501.0,524.0
496.0,481.0,505.0,524.0
495.0,488.0,509.0,515.0
495.0,492.0,514.0,513.0
508.0,513.0,521.0,510.0
513.0,521.0,520.0,508.0
516.0,520.0,519.0,498.0
514.0,517.0,519.0,496.0
519.0,516.0,518.0,497.0
522.0,513.0,515.0,501.0
526.0,520.0,511.0,505.0
522.0,518.0,510.0,509.0
524.0,514.0,505.0,514.0
532.0,527.0,506.0,520.0
521.0,532.0,504.0,523.0
508.0,519.0,504.0,526.0
507.0,481.0,501.0,525.0
486.0,425.0,504.0,526.0
491.0,462.0,507.0,522.0
497.0,475.0,512.0,517.0
503.0,497.0,517.0,510.0
511.0,519.0,519.0,507.0
514.0,516.0,522.0,504.0
521.0,523.0,524.0,501.0
519.0,520.0,525.0,501.0
514.0,515.0,523.0,502.0
502.0,515.0,515.0,503.0
511.0,520.0,514.0,508.0
510.0,513.0,510.0,511.0
516.0,503.0,508.0,520.0
523.0,509.0,505.0,524.0
527.0,502.0,503.0,524.0
523.0,487.0,504.0,527.0
522.0,484.0,509.0,529.0
505.0,458.0,510.0,524.0
496.0,473.0,512.0,523.0
509.0,513.0,518.0,519.0
506.0,513.0,523.0,513.0
495.0,488.0,524.0,509.0
502.0,520.0,527.0,504.0
507.0,543.0,527.0,504.0
508.0,527.0,526.0,504.0
512.0,512.0,520.0,502.0
511.0,516.0,512.0,504.0
517.0,508.0,514.0,507.0
530.0,491.0,506.0,511.0
535.0,478.0,506.0,520.0
532.0,483.0,501.0,521.0
532.0,470.0,498.0,521.0
527.0,468.0,493.0,522.0
509.0,471.0,501.0,523.0
481.0,488.0,502.0,522.0
462.0,501.0,510.0,521.0
480.0,520.0,515.0,515.0
506.0,514.0,522.0,512.0
510.0,524.0,527.0,505.0
519.0,538.0,526.0,503.0
509.0,539.0,524.0,501.0
508.0,531.0,523.0,494.0
503.0,531.0,517.0,498.0
514.0,532.0,516.0,503.0
517.0,526.0,512.0,506.0
518.0,513.0,505.0,518.0
521.0,506.0,506.0,523.0
520.0,508.0,504.0,527.0
511.0,496.0,506.0,528.0
505.0,482.0,508.0,529.0
497.0,478.0,509.0,527.0
494.0,474.0,515.0,525.0
501.0,498.0,518.0,519.0
509.0,508.0,513.0,507.0
515.0,512.0,510.0,500.0
512.0,537.0,519.0,499.0
520.0,536.0,530.0,500.0
514.0,539.0,528.0,494.0
510.0,527.0,518.0,497.0
510.0,506.0,512.0,502.0
515.0,504.0,514.0,507.0
516.0,512.0,507.0,517.0
522.0,503.0,505.0,522.0
521.0,501.0,512.0,531.0
518.0,496.0,513.0,533.0
505.0,475.0,500.0,532.0
502.0,455.0,503.0,528.0
489.0,449.0,507.0,521.0
496.0,455.0,513.0,516.0
507.0,482.0,516.0,515.0
516.0,539.0,522.0,509.0
518.0,532.0,512.0,501.0
518.0,532.0,519.0,500.0
516.0,545.0,526.0,502.0
503.0,534.0,534.0,500.0
492.0,519.0,537.0,502.0
502.0,521.0,507.0,497.0
509.0,520.0,508.0,505.0
517.0,510.0,502.0,508.0
523.0,505.0,501.0,521.0
518.0,485.0,501.0,526.0
520.0,491.0,498.0,530.0
510.0,475.0,498.0,526.0
505.0,494.0,493.0,523.0
502.0,513.0,498.0,522.0
495.0,468.0,506.0,514.0
499.0,486.0,511.0,510.0
501.0,481.0,517.0,504.0
501.0,523.0,520.0,500.0
515.0,533.0,521.0,499.0
513.0,518.0,520.0,498.0
511.0,510.0,520.0,496.0
507.0,510.0,516.0,499.0
510.0,513.0,514.0,503.0
511.0,514.0,511.0,507.0
520.0,526.0,506.0,517.0
526.0,509.0,505.0,523.0
515.0,491.0,506.0,527.0
510.0,489.0,501.0,532.0
507.0,488.0,501.0,531.0
495.0,482.0,500.0,527.0
494.0,482.0,507.0,518.0
496.0,497.0,511.0,516.0
505.0,499.0,518.0,510.0
509.0,506.0,523.0,508.0
518.0,513.0,524.0,503.0
515.0,518.0,526.0,503.0
516.0,518.0,526.0,502.0
514.0,519.0,524.0,503.0
506.0,515.0,517.0,505.0
510.0,521.0,514.0,511.0
509.0,513.0,510.0,511.0
518.0,506.0,506.0,519.0
522.0,509.0,508.0,523.0
528.0,502.0,501.0,526.0
517.0,482.0,505.0,529.0
507.0,483.0,503.0,527.0
494.0,481.0,504.0,527.0
495.0,477.0,512.0,520.0
502.0,485.0,515.0,513.0
506.0,492.0,521.0,513.0
514.0,506.0,526.0,507.0
520.0,502.0,527.0,505.0
524.0,510.0,526.0,504.0
515.0,518.0,525.0,500.0
500.0,519.0,519.0,501.0
502.0,510.0,515.0,505.0
511.0,519.0,511.0,514.0
523.0,514.0,509.0,516.0
517.0,512.0,504.0,521.0
512.0,499.0,502.0,523.0
514.0,485.0,504.0,528.0
513.0,494.0,503.0,529.0
513.0,508.0,500.0,532.0
497.0,490.0,509.0,530.0
499.0,467.0,516.0,529.0
507.0,474.0,524.0,519.0
509.0,486.0,529.0,515.0
517.0,516.0,532.0,509.0
531.0,582.0,529.0,500.0
522.0,584.0,527.0,502.0
512.0,561.0,520.0,497.0
502.0,523.0,510.0,495.0
499.0,494.0,503.0,497.0
509.0,502.0,501.0,499.0
515.0,521.0,499.0,507.0
521.0,499.0,497.0,515.0
521.0,491.0,496.0,522.0
515.0,477.0,501.0,526.0
504.0,473.0,504.0,525.0
495.0,459.0,505.0,527.0
497.0,469.0,505.0,519.0
500.0,483.0,510.0,510.0
501.0,498.0,515.0,504.0
506.0,530.0,516.0,501.0
506.0,521.0,520.0,498.0
512.0,510.0,520.0,499.0
510.0,518.0,523.0,499.0
513.0,522.0,524.0,499.0
513.0,523.0,523.0,505.0
518.0,521.0,514.0,509.0
524.0,517.0,510.0,516.0
529.0,505.0,509.0,518.0
525.0,496.0,506.0,523.0
524.0,489.0,502.0,528.0
509.0,490.0,499.0,528.0
493.0,495.0,500.0,528.0
489.0,483.0,503.0,522.0
493.0,488.0,508.0,522.0
496.0,489.0,520.0,518.0
499.0,504.0,527.0,511.0
512.0,514.0,532.0,510.0
508.0,522.0,527.0,502.0
509.0,520.0,524.0,494.0
508.0,520.0,515.0,491.0
512.0,519.0,512.0,493.0
512.0,513.0,510.0,501.0
511.0,511.0,509.0,504.0
518.0,515.0,506.0,509.0
522.0,505.0,503.0,513.0
520.0,490.0,499.0,524.0
518.0,485.0,500.0,525.0
511.0,480.0,500.0,526.0
505.0,475.0,501.0,526.0
497.0,478.0,504.0,524.0
494.0,485.0,512.0,518.0
499.0,495.0,519.0,509.0
506.0,516.0,522.0,503.0
506.0,506.0,523.0,496.0
513.0,517.0,520.0,495.0
513.0,514.0,519.0,495.0
513.0,521.0,518.0,499.0
512.0,535.0,513.0,499.0
512.0,524.0,514.0,501.0
517.0,512.0,515.0,507.0
520.0,510.0,506.0,514.0
526.0,499.0,501.0,522.0
524.0,483.0,501.0,526.0
519.0,475.0,500.0,529.0
509.0,472.0,500.0,529.0
499.0,468.0,501.0,529.0
494.0,493.0,508.0,523.0
499.0,506.0,514.0,517.0
502.0,508.0,521.0,510.0
509.0,512.0,521.0,505.0
513.0,512.0,524.0,506.0
512.0,530.0,526.0,502.0
517.0,551.0,529.0,501.0
515.0,545.0,529.0,506.0
509.0,522.0,521.0,505.0
508.0,499.0,515.0,508.0
515.0,504.0,508.0,508.0
516.0,496.0,505.0,519.0
517.0,489.0,503.0,523.0
516.0,486.0,505.0,528.0
517.0,490.0,503.0,526.0
514.0,488.0,500.0,524.0
503.0,478.0,504.0,521.0
501.0,487.0,511.0,516.0
498.0,472.0,519.0,512.0
502.0,511.0,522.0,506.0
508.0,518.0,524.0,502.0
512.0,513.0,526.0,500.0
513.0,517.0,524.0,500.0
508.0,527.0,521.0,497.0
505.0,529.0,519.0,499.0
512.0,549.0,515.0,502.0
519.0,503.0,511.0,509.0
515.0,486.0,509.0,515.0
527.0,503.0,507.0,520.0
520.0,483.0,505.0,525.0
509.0,484.0,501.0,529.0
502.0,492.0,499.0,527.0
503.0,492.0,507.0,527.0
491.0,482.0,510.0,523.0
489.0,500.0,513.0,517.0
502.0,496.0,517.0,512.0
509.0,483.0,524.0,507.0
515.0,482.0,526.0,504.0
515.0,507.0,526.0,502.0
503.0,551.0,524.0,503.0
499.0,563.0,517.0,502.0
499.0,522.0,516.0,502.0
502.0,508.0,516.0,509.0
508.0,487.0,513.0,515.0
507.0,492.0,513.0,521.0
514.0,518.0,514.0,525.0
510.0,501.0,513.0,529.0
530.0,492.0,503.0,525.0
527.0,494.0,501.0,522.0
519.0,493.0,496.0,518.0
510.0,501.0,504.0,512.0
507.0,510.0,509.0,509.0
508.0,507.0,517.0,506.0
516.0,516.0,523.0,503.0
522.0,529.0,526.0,502.0
523.0,534.0,526.0,496.0
523.0,530.0,522.0,492.0
524.0,514.0,521.0,502.0
518.0,500.0,521.0,508.0
519.0,487.0,518.0,512.0
529.0,488.0,513.0,515.0
531.0,493.0,505.0,515.0
522.0,492.0,498.0,519.0
512.0,514.0,498.0,522.0
502.0,514.0,502.0,525.0
505.0,504.0,504.0,531.0
492.0,493.0,504.0,525.0
493.0,501.0,511.0,513.0
500.0,514.0,517.0,514.0
505.0,517.0,524.0,507.0
502.0,496.0,526.0,501.0
511.0,522.0,522.0,501.0
510.0,516.0,520.0,493.0
511.0,524.0,513.0,493.0
509.0,521.0,509.0,495.0
512.0,508.0,517.0,501.0
515.0,502.0,515.0,509.0
520.0,500.0,508.0,511.0
522.0,495.0,502.0,520.0
517.0,504.0,499.0,523.0
521.0,505.0,501.0,526.0
516.0,497.0,505.0,526.0
504.0,482.0,504.0,526.0
496.0,480.0,508.0,519.0
494.0,487.0,516.0,515.0
500.0,490.0,516.0,516.0
500.0,503.0,523.0,506.0
504.0,513.0,523.0,504.0
511.0,522.0,520.0,501.0
512.0,524.0,523.0,497.0
512.0,527.0,519.0,498.0
509.0,522.0,516.0,499.0
512.0,519.0,526.0,505.0
515.0,516.0,505.0,509.0
520.0,509.0,501.0,517.0
523.0,499.0,503.0,517.0
518.0,490.0,499.0,521.0
513.0,478.0,496.0,526.0
505.0,477.0,501.0,526.0
498.0,468.0,507.0,526.0
493.0,476.0,511.0,520.0
496.0,486.0,511.0,511.0
495.0,494.0,513.0,504.0
502.0,505.0,519.0,503.0
514.0,515.0,519.0,500.0
514.0,524.0,524.0,496.0
511.0,517.0,519.0,497.0
509.0,520.0,520.0,499.0
507.0,524.0,513.0,502.0
513.0,514.0,511.0,507.0
517.0,514.0,508.0,515.0
516.0,507.0,514.0,517.0
518.0,494.0,503.0,524.0
515.0,483.0,498.0,529.0
514.0,475.0,498.0,529.0
510.0,465.0,502.0,531.0
497.0,462.0,506.0,524.0
497.0,489.0,513.0,517.0
499.0,494.0,518.0,512.0
506.0,496.0,524.0,507.0
511.0,496.0,522.0,504.0
511.0,513.0,524.0,500.0
513.0,524.0,521.0,499.0
510.0,525.0,520.0,499.0
515.0,543.0,519.0,500.0
510.0,510.0,516.0,507.0
512.0,495.0,511.0,508.0
515.0,499.0,508.0,515.0
516.0,512.0,504.0,522.0
521.0,513.0,503.0,527.0
522.0,511.0,503.0,529.0
516.0,498.0,503.0,533.0
504.0,489.0,502.0,529.0
496.0,486.0,507.0,523.0
497.0,489.0,513.0,516.0
501.0,489.0,516.0,506.0
504.0,494.0,517.0,505.0
513.0,503.0,524.0,500.0
519.0,518.0,521.0,498.0
519.0,540.0,520.0,496.0
524.0,567.0,523.0,498.0
513.0,541.0,520.0,505.0
508.0,499.0,514.0,507.0
516.0,506.0,512.0,509.0
522.0,507.0,508.0,517.0
524.0,502.0,502.0,523.0
521.0,493.0,501.0,524.0
514.0,484.0,498.0,525.0
504.0,481.0,500.0,528.0
493.0,470.0,504.0,529.0
494.0,483.0,511.0,524.0
502.0,503.0,516.0,514.0
504.0,516.0,518.0,509.0
515.0,523.0,520.0,503.0
512.0,490.0,523.0,501.0
507.0,499.0,524.0,500.0
511.0,527.0,522.0,496.0
508.0,534.0,522.0,500.0
501.0,528.0,521.0,505.0
508.0,525.0,515.0,507.0
519.0,519.0,507.0,510.0
527.0,504.0,501.0,514.0
524.0,488.0,498.0,523.0
525.0,487.0,496.0,528.0
520.0,478.0,499.0,527.0
513.0,474.0,504.0,526.0
498.0,476.0,503.0,524.0
496.0,498.0,509.0,518.0
500.0,506.0,517.0,510.0
509.0,526.0,518.0,508.0
513.0,524.0,523.0,501.0
517.0,524.0,524.0,501.0
512.0,524.0,523.0,498.0
508.0,529.0,523.0,501.0
502.0,518.0,523.0,502.0
505.0,513.0,518.0,509.0
512.0,517.0,515.0,509.0
519.0,510.0,513.0,518.0
524.0,499.0,503.0,523.0
522.0,502.0,502.0,524.0
528.0,485.0,504.0,528.0
523.0,479.0,502.0,527.0
504.0,469.0,502.0,529.0
494.0,471.0,505.0,519.0
496.0,470.0,508.0,517.0
495.0,482.0,515.0,513.0
496.0,512.0,523.0,507.0
496.0,530.0,524.0,501.0
520.0,561.0,525.0,504.0
518.0,559.0,522.0,500.0
512.0,537.0,519.0,499.0
505.0,508.0,519.0,502.0
515.0,511.0,514.0,508.0
523.0,514.0,510.0,514.0
525.0,510.0,507.0,518.0
521.0,503.0,505.0,523.0
514.0,498.0,499.0,523.0
508.0,491.0,498.0,526.0
505.0,486.0,499.0,525.0
490.0,473.0,501.0,522.0
491.0,487.0,506.0,518.0
499.0,498.0,511.0,514.0
500.0,502.0,517.0,509.0
506.0,517.0,519.0,508.0
513.0,529.0,523.0,504.0
518.0,528.0,524.0,503.0
519.0,537.0,528.0,507.0
508.0,508.0,523.0,504.0
508.0,510.0,517.0,504.0
513.0,508.0,517.0,508.0
514.0,507.0,511.0,515.0
518.0,493.0,506.0,519.0
517.0,485.0,500.0,520.0
511.0,489.0,499.0,524.0
510.0,492.0,497.0,520.0
510.0,499.0,498.0,523.0
494.0,480.0,502.0,514.0
494.0,491.0,507.0,517.0
508.0,498.0,513.0,513.0
511.0,511.0,520.0,510.0
511.0,520.0,523.0,505.0
507.0,527.0,529.0,503.0
514.0,523.0,526.0,501.0
514.0,527.0,523.0,504.0
511.0,512.0,519.0,500.0
513.0,503.0,513.0,504.0
512.0,500.0,507.0,509.0
518.0,496.0,507.0,513.0
519.0,500.0,502.0,521.0
522.0,496.0,501.0,526.0
517.0,478.0,498.0,527.0
512.0,478.0,496.0,518.0
505.0,475.0,496.0,523.0
500.0,488.0,500.0,523.0
495.0,506.0,508.0,516.0
500.0,516.0,516.0,509.0
508.0,518.0,524.0,507.0
515.0,528.0,527.0,502.0
518.0,517.0,517.0,496.0
517.0,520.0,518.0,496.0
515.0,518.0,519.0,503.0
509.0,522.0,517.0,500.0
518.0,514.0,514.0,506.0
520.0,509.0,513.0,512.0
525.0,498.0,505.0,523.0
522.0,481.0,500.0,525.0
517.0,462.0,498.0,525.0
518.0,516.0,500.0,529.0
518.0,502.0,499.0,528.0
511.0,494.0,503.0,526.0
505.0,487.0,507.0,521.0
501.0,461.0,514.0,513.0
501.0,505.0,516.0,507.0
495.0,523.0,520.0,503.0
496.0,534.0,520.0,501.0
507.0,546.0,521.0,499.0
506.0,538.0,522.0,497.0
510.0,530.0,519.0,500.0
512.0,517.0,515.0,503.0
512.0,511.0,516.0,509.0
521.0,507.0,506.0,514.0
523.0,501.0,504.0,518.0
518.0,494.0,501.0,525.0
518.0,495.0,500.0,528.0
515.0,480.0,498.0,529.0
509.0,474.0,501.0,528.0
504.0,477.0,503.0,521.0
516.0,496.0,509.0,518.0
529.0,523.0,517.0,516.0
531.0,537.0,520.0,507.0
529.0,548.0,525.0,504.0
524.0,503.0,528.0,501.0
511.0,495.0,526.0,496.0
488.0,523.0,521.0,499.0
485.0,517.0,514.0,504.0
496.0,504.0,513.0,507.0
507.0,500.0,513.0,508.0
510.0,503.0,507.0,514.0
518.0,498.0,502.0,520.0
521.0,493.0,502.0,526.0
515.0,484.0,500.0,528.0
511.0,468.0,499.0,528.0
498.0,461.0,504.0,526.0
494.0,469.0,507.0,523.0
494.0,485.0,511.0,517.0
496.0,509.0,519.0,509.0
511.0,512.0,522.0,503.0
510.0,513.0,519.0,501.0
512.0,519.0,525.0,499.0
517.0,536.0,523.0,496.0
515.0,540.0,520.0,499.0
512.0,530.0,521.0,501.0
510.0,527.0,511.0,505.0
515.0,508.0,513.0,510.0
519.0,499.0,502.0,522.0
519.0,497.0,501.0,524.0
516.0,492.0,499.0,528.0
524.0,498.0,500.0,528.0
515.0,495.0,501.0,530.0
499.0,477.0,505.0,527.0
500.0,479.0,509.0,519.0
503.0,491.0,517.0,516.0
509.0,505.0,520.0,511.0
512.0,515.0,523.0,512.0
523.0,528.0,528.0,507.0
516.0,527.0,527.0,505.0
513.0,514.0,524.0,502.0
506.0,507.0,521.0,507.0
505.0,517.0,519.0,505.0
509.0,516.0,512.0,507.0
519.0,519.0,507.0,514.0
523.0,506.0,503.0,520.0
519.0,495.0,499.0,525.0
517.0,494.0,499.0,529.0
515.0,487.0,501.0,527.0
508.0,482.0,500.0,528.0
494.0,475.0,510.0,524.0
493.0,485.0,509.0,518.0
499.0,501.0,512.0,509.0
504.0,514.0,521.0,506.0
510.0,518.0,519.0,501.0
513.0,527.0,523.0,499.0
519.0,528.0,522.0,492.0
517.0,530.0,517.0,494.0
511.0,516.0,515.0,498.0
519.0,505.0,511.0,500.0
519.0,499.0,504.0,504.0
526.0,501.0,502.0,509.0
519.0,514.0,499.0,516.0
522.0,507.0,492.0,523.0
514.0,493.0,498.0,528.0
512.0,483.0,500.0,528.0
495.0,473.0,500.0,526.0
493.0,480.0,507.0,522.0
497.0,499.0,515.0,517.0
502.0,521.0,518.0,510.0
512.0,538.0,523.0,509.0
515.0,539.0,524.0,505.0
512.0,509.0,527.0,501.0
514.0,492.0,529.0,500.0
508.0,494.0,528.0,503.0
514.0,508.0,521.0,504.0
519.0,519.0,515.0,509.0
520.0,504.0,506.0,508.0
525.0,495.0,499.0,515.0
516.0,507.0,495.0,517.0
512.0,495.0,492.0,521.0
509.0,482.0,494.0,522.0
508.0,474.0,494.0,522.0
495.0,470.0,500.0,519.0
494.0,486.0,507.0,519.0
498.0,501.0,512.0,511.0
499.0,509.0,519.0,506.0
511.0,523.0,520.0,500.0
516.0,531.0,521.0,498.0
516.0,531.0,520.0,499.0
514.0,528.0,520.0,494.0
517.0,526.0,520.0,502.0
510.0,512.0,515.0,504.0
514.0,514.0,506.0,508.0
520.0,505.0,505.0,514.0
524.0,497.0,505.0,523.0
523.0,477.0,504.0,530.0
521.0,466.0,499.0,534.0
521.0,463.0,502.0,533.0
515.0,464.0,504.0,532.0
502.0,478.0,508.0,524.0
504.0,504.0,515.0,518.0
498.0,506.0,521.0,514.0
501.0,518.0,519.0,506.0
505.0,520.0,517.0,499.0
506.0,519.0,515.0,492.0
510.0,528.0,517.0,490.0
507.0,536.0,516.0,493.0
506.0,533.0,515.0,497.0
510.0,522.0,512.0,502.0
518.0,520.0,506.0,508.0
520.0,521.0,502.0,514.0
527.0,507.0,500.0,518.0
525.0,490.0,497.0,525.0
519.0,467.0,498.0,529.0
517.0,475.0,500.0,530.0
509.0,468.0,505.0,532.0
505.0,468.0,512.0,526.0
512.0,481.0,511.0,517.0
517.0,491.0,516.0,508.0
519.0,501.0,518.0,502.0
519.0,528.0,516.0,496.0
508.0,535.0,523.0,495.0
502.0,537.0,518.0,501.0
501.0,537.0,519.0,495.0
496.0,532.0,516.0,502.0
510.0,522.0,513.0,508.0
520.0,522.0,510.0,511.0
517.0,511.0,506.0,514.0
509.0,501.0,501.0,522.0
509.0,490.0,498.0,526.0
511.0,491.0,495.0,526.0
511.0,488.0,497.0,525.0
496.0,478.0,501.0,523.0
496.0,482.0,504.0,517.0
499.0,494.0,507.0,515.0
504.0,506.0,515.0,505.0
509.0,512.0,522.0,497.0
514.0,520.0,523.0,500.0
521.0,523.0,521.0,498.0
517.0,521.0,524.0,498.0
513.0,517.0,524.0,503.0
511.0,528.0,527.0,504.0
510.0,511.0,514.0,511.0
513.0,508.0,503.0,516.0
521.0,500.0,502.0,521.0
516.0,492.0,501.0,525.0
510.0,478.0,502.0,529.0
512.0,471.0,501.0,531.0
505.0,483.0,501.0,529.0
497.0,489.0,504.0,523.0
506.0,499.0,512.0,515.0
502.0,514.0,517.0,509.0
509.0,519.0,525.0,507.0
510.0,506.0,526.0,504.0
507.0,497.0,521.0,499.0
507.0,526.0,520.0,498.0
509.0,547.0,515.0,495.0
512.0,528.0,514.0,498.0
514.0,525.0,509.0,501.0
519.0,516.0,502.0,508.0
523.0,508.0,503.0,515.0
523.0,496.0,497.0,517.0
517.0,484.0,497.0,522.0
516.0,490.0,495.0,524.0
515.0,496.0,499.0,527.0
498.0,478.0,501.0,523.0
496.0,477.0,502.0,519.0
498.0,501.0,510.0,515.0
502.0,494.0,515.0,510.0
506.0,501.0,519.0,505.0
508.0,522.0,520.0,500.0
508.0,540.0,524.0,496.0
510.0,537.0,519.0,497.0
510.0,527.0,519.0,498.0
509.0,522.0,515.0,500.0
510.0,504.0,511.0,505.0
515.0,494.0,505.0,513.0
525.0,504.0,503.0,521.0
532.0,509.0,501.0,522.0
526.0,501.0,500.0,527.0
525.0,494.0,497.0,532.0
516.0,481.0,500.0,528.0
498.0,468.0,505.0,524.0
495.0,475.0,509.0,522.0
497.0,491.0,515.0,512.0
502.0,504.0,518.0,508.0
500.0,520.0,521.0,504.0
504.0,530.0,524.0,500.0
513.0,526.0,520.0,499.0
516.0,523.0,522.0,500.0
511.0,518.0,518.0,501.0
507.0,509.0,513.0,506.0
513.0,502.0,513.0,510.0
524.0,508.0,509.0,515.0
524.0,497.0,502.0,524.0
524.0,486.0,504.0,529.0
518.0,487.0,502.0,530.0
514.0,485.0,502.0,531.0
511.0,492.0,502.0,534.0
498.0,488.0,508.0,525.0
499.0,496.0,514.0,521.0
498.0,511.0,517.0,512.0
504.0,510.0,525.0,504.0
508.0,520.0,523.0,499.0
513.0,524.0,518.0,496.0
518.0,530.0,518.0,492.0
512.0,520.0,517.0,494.0
504.0,511.0,512.0,496.0
510.0,517.0,510.0,501.0
515.0,511.0,512.0,508.0
520.0,509.0,504.0,516.0
524.0,512.0,501.0,520.0
521.0,494.0,495.0,525.0
517.0,481.0,495.0,527.0
514.0,482.0,497.0,527.0
505.0,475.0,496.0,526.0
503.0,477.0,508.0,522.0
501.0,483.0,512.0,515.0
504.0,494.0,518.0,509.0
506.0,509.0,525.0,506.0
509.0,515.0,526.0,504.0
512.0,519.0,521.0,502.0
516.0,536.0,516.0,501.0
519.0,534.0,516.0,501.0
510.0,534.0,520.0,506.0
510.0,533.0,516.0,511.0
520.0,533.0,516.0,519.0
519.0,499.0,517.0,525.0
511.0,481.0,515.0,534.0
517.0,485.0,506.0,531.0
513.0,483.0,500.0,530.0
508.0,480.0,491.0,523.0
496.0,475.0,496.0,518.0
495.0,481.0,506.0,512.0
498.0,491.0,507.0,507.0
509.0,509.0,516.0,504.0
511.0,521.0,519.0,501.0
518.0,530.0,520.0,500.0
514.0,529.0,520.0,496.0
513.0,520.0,518.0,497.0
516.0,511.0,513.0,497.0
522.0,508.0,510.0,501.0
526.0,503.0,506.0,506.0
527.0,497.0,505.0,513.0
522.0,492.0,500.0,521.0
512.0,490.0,497.0,524.0
501.0,482.0,496.0,527.0
505.0,486.0,498.0,528.0
506.0,483.0,499.0,528.0
498.0,502.0,506.0,525.0
495.0,510.0,515.0,520.0
499.0,504.0,519.0,517.0
516.0,519.0,523.0,514.0
511.0,505.0,525.0,508.0
515.0,526.0,526.0,503.0
518.0,539.0,524.0,501.0
516.0,544.0,520.0,504.0
506.0,517.0,520.0,504.0
499.0,486.0,510.0,504.0
511.0,484.0,509.0,510.0
510.0,480.0,503.0,516.0
511.0,479.0,504.0,523.0
520.0,490.0,499.0,526.0
521.0,501.0,494.0,527.0
515.0,505.0,496.0,526.0
501.0,491.0,503.0,523.0
499.0,487.0,503.0,517.0
499.0,490.0,507.0,508.0
501.0,509.0,514.0,506.0
504.0,516.0,518.0,504.0
505.0,510.0,520.0,499.0
498.0,512.0,519.0,496.0
508.0,512.0,523.0,499.0
508.0,514.0,525.0,503.0
513.0,511.0,523.0,507.0
520.0,513.0,513.0,508.0
526.0,522.0,513.0,516.0
522.0,510.0,504.0,512.0
526.0,495.0,492.0,516.0
518.0,479.0,493.0,523.0
516.0,477.0,492.0,524.0
513.0,476.0,494.0,524.0
491.0,467.0,501.0,522.0
498.0,472.0,507.0,517.0
503.0,494.0,514.0,511.0
509.0,512.0,515.0,509.0
512.0,520.0,522.0,502.0
513.0,528.0,521.0,499.0
512.0,530.0,522.0,498.0
514.0,538.0,522.0,498.0
510.0,528.0,518.0,499.0
515.0,516.0,511.0,506.0
518.0,517.0,508.0,515.0
523.0,505.0,506.0,518.0
524.0,498.0,504.0,521.0
526.0,487.0,499.0,526.0
515.0,476.0,497.0,531.0
510.0,486.0,496.0,528.0
503.0,499.0,501.0,526.0
500.0,503.0,505.0,526.0
501.0,503.0,512.0,519.0
500.0,485.0,520.0,513.0
501.0,505.0,524.0,508.0
510.0,516.0,528.0,504.0
510.0,522.0,531.0,503.0
513.0,523.0,528.0,502.0
512.0,524.0,527.0,502.0
510.0,520.0,518.0,503.0
508.0,515.0,513.0,502.0
517.0,512.0,506.0,508.0
520.0,512.0,503.0,513.0
524.0,505.0,501.0,521.0
522.0,498.0,496.0,526.0
515.0,492.0,495.0,528.0
511.0,488.0,497.0,525.0
496.0,474.0,501.0,526.0
496.0,482.0,505.0,521.0
496.0,492.0,513.0,514.0
501.0,507.0,517.0,506.0
507.0,513.0,525.0,504.0
511.0,524.0,523.0,500.0
510.0,524.0,527.0,499.0
512.0,528.0,524.0,502.0
512.0,522.0,518.0,504.0
517.0,516.0,515.0,506.0
518.0,508.0,511.0,512.0
529.0,509.0,511.0,516.0
528.0,504.0,510.0,525.0
522.0,507.0,506.0,529.0
519.0,494.0,503.0,532.0
512.0,484.0,504.0,531.0
508.0,476.0,501.0,525.0
497.0,470.0,502.0,520.0
495.0,481.0,505.0,512.0
501.0,491.0,512.0,509.0
509.0,501.0,519.0,502.0
508.0,507.0,519.0,499.0
512.0,514.0,519.0,496.0
512.0,524.0,520.0,496.0
514.0,538.0,520.0,497.0
506.0,547.0,517.0,500.0
503.0,534.0,514.0,506.0
505.0,506.0,509.0,510.0
512.0,495.0,506.0,517.0
517.0,489.0,506.0,519.0
526.0,489.0,501.0,524.0
519.0,486.0,499.0,525.0
526.0,483.0,501.0,527.0
517.0,478.0,501.0,529.0
507.0,475.0,508.0,519.0
505.0,482.0,510.0,516.0
507.0,500.0,515.0,508.0
498.0,534.0,521.0,503.0
497.0,533.0,523.0,500.0
506.0,529.0,520.0,497.0
511.0,533.0,520.0,497.0
509.0,528.0,518.0,497.0
509.0,519.0,515.0,502.0
512.0,526.0,512.0,508.0
516.0,528.0,513.0,510.0
523.0,518.0,513.0,515.0
525.0,512.0,501.0,528.0
517.0,503.0,502.0,528.0
509.0,470.0,503.0,529.0
513.0,479.0,498.0,525.0
500.0,471.0,498.0,524.0
494.0,473.0,507.0,522.0
494.0,498.0,511.0,513.0
501.0,514.0,515.0,505.0
503.0,496.0,520.0,502.0
510.0,513.0,524.0,498.0
507.0,518.0,522.0,495.0
514.0,528.0,520.0,499.0
510.0,525.0,521.0,498.0
505.0,521.0,511.0,499.0
511.0,515.0,509.0,506.0
520.0,509.0,506.0,512.0
525.0,500.0,504.0,518.0
523.0,491.0,500.0,522.0
518.0,475.0,496.0,526.0
512.0,471.0,497.0,523.0
506.0,481.0,498.0,527.0
497.0,482.0,503.0,523.0
498.0,490.0,508.0,515.0
503.0,497.0,513.0,510.0
504.0,504.0,522.0,503.0
504.0,528.0,522.0,502.0
512.0,525.0,523.0,498.0
512.0,519.0,521.0,498.0
520.0,527.0,522.0,497.0
518.0,528.0,516.0,503.0
517.0,513.0,512.0,505.0
515.0,505.0,512.0,511.0
519.0,510.0,508.0,516.0
516.0,514.0,504.0,525.0
517.0,506.0,508.0,531.0
513.0,491.0,504.0,533.0
519.0,486.0,505.0,532.0
503.0,467.0,505.0,532.0
496.0,473.0,507.0,529.0
497.0,494.0,513.0,520.0
504.0,502.0,516.0,512.0
511.0,503.0,522.0,504.0
525.0,514.0,524.0,499.0
519.0,530.0,524.0,496.0
512.0,526.0,526.0,500.0
509.0,534.0,520.0,500.0
506.0,527.0,518.0,499.0
509.0,528.0,508.0,503.0
512.0,521.0,507.0,509.0
523.0,506.0,504.0,516.0
519.0,499.0,498.0,522.0
522.0,494.0,500.0,527.0
508.0,481.0,498.0,528.0
506.0,476.0,500.0,529.0
496.0,471.0,499.0,524.0
495.0,485.0,503.0,519.0
502.0,498.0,510.0,511.0
508.0,514.0,515.0,508.0
511.0,518.0,519.0,505.0
515.0,525.0,523.0,502.0
512.0,529.0,520.0,500.0
516.0,533.0,521.0,497.0
510.0,526.0,518.0,499.0
508.0,519.0,513.0,502.0
514.0,516.0,510.0,506.0
521.0,512.0,508.0,514.0
523.0,506.0,504.0,521.0
526.0,494.0,500.0,524.0
521.0,481.0,496.0,527.0
512.0,479.0,499.0,526.0
511.0,473.0,502.0,529.0
500.0,477.0,507.0,523.0
500.0,489.0,513.0,519.0
507.0,497.0,516.0,514.0
512.0,509.0,521.0,506.0
512.0,513.0,524.0,503.0
512.0,518.0,524.0,499.0
515.0,526.0,525.0,498.0
518.0,532.0,521.0,498.0
509.0,519.0,518.0,501.0
505.0,517.0,514.0,503.0
503.0,506.0,509.0,509.0
514.0,495.0,502.0,517.0
517.0,501.0,502.0,523.0
517.0,491.0,500.0,527.0
515.0,482.0,498.0,531.0
517.0,484.0,499.0,529.0
510.0,473.0,500.0,526.0
504.0,476.0,503.0,522.0
504.0,488.0,510.0,514.0
502.0,502.0,517.0,510.0
506.0,513.0,521.0,509.0
507.0,528.0,526.0,502.0
504.0,536.0,524.0,499.0
510.0,534.0,520.0,495.0
511.0,533.0,520.0,497.0
508.0,522.0,512.0,498.0
515.0,515.0,510.0,502.0
519.0,507.0,512.0,509.0
523.0,503.0,501.0,515.0
520.0,497.0,495.0,522.0
522.0,491.0,499.0,526.0
509.0,481.0,497.0,529.0
510.0,481.0,500.0,530.0
499.0,482.0,504.0,527.0
496.0,484.0,511.0,519.0
500.0,499.0,516.0,513.0
505.0,494.0,519.0,509.0
511.0,507.0,521.0,506.0
514.0,520.0,524.0,499.0
505.0,521.0,521.0,495.0
512.0,530.0,522.0,494.0
512.0,522.0,517.0,500.0
513.0,519.0,516.0,503.0
513.0,510.0,512.0,508.0
521.0,512.0,508.0,512.0
527.0,519.0,505.0,526.0
521.0,496.0,503.0,526.0
518.0,474.0,502.0,528.0
514.0,485.0,502.0,532.0
512.0,487.0,501.0,530.0
502.0,481.0,507.0,525.0
505.0,476.0,510.0,514.0
506.0,487.0,513.0,507.0
510.0,503.0,516.0,501.0
514.0,513.0,523.0,501.0
519.0,524.0,522.0,498.0
513.0,536.0,522.0,498.0
508.0,534.0,523.0,497.0
504.0,522.0,515.0,500.0
510.0,514.0,513.0,499.0
514.0,502.0,509.0,508.0
524.0,501.0,505.0,512.0
525.0,493.0,502.0,520.0
525.0,478.0,500.0,523.0
513.0,469.0,500.0,529.0
513.0,478.0,499.0,530.0
504.0,483.0,502.0,525.0
501.0,487.0,507.0,521.0
502.0,496.0,513.0,516.0
500.0,511.0,523.0,510.0
509.0,533.0,524.0,505.0
502.0,533.0,521.0,500.0
508.0,520.0,525.0,497.0
516.0,527.0,520.0,497.0
517.0,534.0,521.0,497.0
515.0,522.0,514.0,501.0
521.0,523.0,510.0,505.0
534.0,522.0,502.0,508.0
530.0,517.0,504.0,515.0
523.0,485.0,499.0,522.0
518.0,466.0,499.0,524.0
512.0,459.0,494.0,527.0
509.0,455.0,501.0,526.0
499.0,457.0,512.0,526.0
488.0,477.0,510.0,520.0
480.0,508.0,515.0,513.0
494.0,531.0,519.0,511.0
510.0,529.0,522.0,505.0
519.0,537.0,523.0,497.0
519.0,523.0,521.0,495.0
519.0,501.0,520.0,494.0
507.0,507.0,517.0,498.0
510.0,509.0,515.0,502.0
514.0,496.0,511.0,507.0
517.0,531.0,507.0,511.0
520.0,531.0,503.0,520.0
519.0,510.0,503.0,524.0
511.0,503.0,499.0,528.0
508.0,495.0,500.0,529.0
505.0,485.0,502.0,528.0
496.0,479.0,506.0,527.0
497.0,488.0,511.0,520.0
499.0,493.0,519.0,514.0
508.0,501.0,523.0,514.0
509.0,506.0,528.0,507.0
517.0,511.0,528.0,505.0
512.0,512.0,524.0,498.0
514.0,526.0,522.0,496.0
513.0,530.0,512.0,496.0
513.0,537.0,511.0,503.0
511.0,519.0,508.0,507.0
513.0,513.0,503.0,515.0
525.0,504.0,496.0,521.0
526.0,494.0,497.0,522.0
516.0,484.0,498.0,527.0
509.0,486.0,503.0,527.0
497.0,480.0,502.0,525.0
495.0,482.0,503.0,521.0
497.0,502.0,513.0,514.0
503.0,517.0,517.0,505.0
509.0,515.0,522.0,503.0
508.0,520.0,524.0,501.0
512.0,527.0,522.0,506.0
510.0,500.0,520.0,500.0
510.0,508.0,519.0,501.0
508.0,513.0,518.0,502.0
512.0,513.0,517.0,509.0
514.0,515.0,512.0,515.0
522.0,513.0,505.0,519.0
522.0,500.0,510.0,522.0
522.0,503.0,506.0,524.0
512.0,486.0,498.0,528.0
512.0,484.0,496.0,526.0
495.0,476.0,498.0,519.0
495.0,470.0,504.0,515.0
497.0,481.0,511.0,511.0
512.0,508.0,519.0,504.0
513.0,515.0,522.0,501.0
515.0,524.0,521.0,502.0
508.0,519.0,521.0,499.0
515.0,531.0,517.0,501.0
510.0,527.0,516.0,499.0
512.0,523.0,511.0,504.0
514.0,517.0,508.0,509.0
520.0,510.0,506.0,511.0
526.0,499.0,506.0,522.0
524.0,494.0,504.0,525.0
516.0,487.0,495.0,527.0
506.0,481.0,503.0,530.0
506.0,478.0,504.0,530.0
495.0,478.0,504.0,523.0
499.0,482.0,508.0,516.0
502.0,488.0,513.0,509.0
506.0,504.0,520.0,504.0
510.0,520.0,524.0,502.0
511.0,526.0,526.0,503.0
506.0,522.0,525.0,501.0
513.0,525.0,524.0,500.0
509.0,523.0,515.0,496.0
514.0,518.0,511.0,501.0
517.0,514.0,505.0,506.0
519.0,509.0,502.0,515.0
522.0,499.0,500.0,523.0
526.0,497.0,501.0,524.0
513.0,482.0,497.0,529.0
510.0,467.0,501.0,528.0
497.0,464.0,503.0,524.0
499.0,475.0,504.0,519.0
504.0,502.0,512.0,510.0
508.0,519.0,514.0,512.0
511.0,523.0,517.0,502.0
516.0,519.0,521.0,500.0
510.0,525.0,523.0,493.0
513.0,530.0,522.0,501.0
517.0,526.0,522.0,505.0
513.0,514.0,517.0,502.0
514.0,475.0,512.0,505.0
525.0,491.0,506.0,511.0
531.0,491.0,501.0,521.0
531.0,494.0,499.0,523.0
529.0,498.0,497.0,523.0
509.0,495.0,496.0,527.0
508.0,493.0,497.0,527.0
495.0,490.0,505.0,523.0
491.0,490.0,510.0,521.0
498.0,497.0,518.0,515.0
501.0,498.0,521.0,510.0
504.0,509.0,520.0,502.0
507.0,518.0,520.0,498.0
504.0,515.0,520.0,494.0
508.0,529.0,518.0,496.0
512.0,535.0,516.0,498.0
513.0,526.0,514.0,503.0
516.0,519.0,509.0,512.0
524.0,516.0,509.0,515.0
529.0,508.0,509.0,524.0
526.0,499.0,505.0,528.0
518.0,495.0,505.0,533.0
509.0,492.0,504.0,530.0
506.0,493.0,503.0,530.0
496.0,487.0,506.0,524.0
506.0,496.0,511.0,517.0
515.0,511.0,516.0,508.0
515.0,512.0,518.0,499.0
522.0,519.0,516.0,499.0
522.0,518.0,519.0,497.0
516.0,494.0,517.0,496.0
505.0,514.0,520.0,495.0
492.0,522.0,515.0,500.0
501.0,527.0,509.0,502.0
510.0,517.0,509.0,509.0
516.0,503.0,507.0,515.0
519.0,497.0,500.0,520.0
521.0,495.0,496.0,524.0
511.0,481.0,494.0,525.0
509.0,482.0,496.0,523.0
494.0,480.0,499.0,526.0
491.0,487.0,505.0,520.0
496.0,490.0,512.0,516.0
497.0,492.0,520.0,510.0
502.0,504.0,518.0,504.0
508.0,514.0,522.0,499.0
517.0,525.0,523.0,499.0
513.0,525.0,522.0,498.0
510.0,533.0,520.0,501.0
506.0,533.0,517.0,506.0
514.0,523.0,513.0,508.0
520.0,519.0,510.0,516.0
521.0,510.0,503.0,518.0
520.0,498.0,502.0,524.0
521.0,493.0,499.0,526.0
510.0,484.0,497.0,527.0
511.0,486.0,502.0,527.0
497.0,478.0,507.0,524.0
493.0,484.0,510.0,518.0
497.0,488.0,514.0,511.0
503.0,510.0,518.0,503.0
507.0,524.0,520.0,504.0
513.0,530.0,522.0,499.0
508.0,519.0,522.0,499.0
517.0,523.0,519.0,498.0
518.0,523.0,520.0,500.0
515.0,513.0,514.0,506.0
517.0,499.0,512.0,509.0
521.0,503.0,508.0,515.0
522.0,494.0,506.0,526.0
524.0,476.0,508.0,531.0
522.0,471.0,509.0,536.0
511.0,505.0,508.0,534.0
511.0,496.0,507.0,530.0
503.0,493.0,510.0,522.0
499.0,493.0,507.0,512.0
500.0,481.0,510.0,505.0
508.0,512.0,515.0,499.0
505.0,521.0,519.0,495.0
509.0,531.0,519.0,493.0
502.0,529.0,519.0,494.0
507.0,526.0,519.0,497.0
508.0,513.0,516.0,499.0
516.0,525.0,512.0,505.0
516.0,526.0,510.0,509.0
519.0,516.0,509.0,517.0
529.0,504.0,501.0,525.0
528.0,488.0,502.0,530.0
515.0,475.0,502.0,533.0
511.0,471.0,505.0,531.0
491.0,484.0,505.0,530.0
490.0,486.0,511.0,520.0
496.0,492.0,513.0,511.0
498.0,499.0,516.0,508.0
505.0,508.0,520.0,499.0
510.0,521.0,522.0,498.0
513.0,527.0,522.0,494.0
508.0,517.0,520.0,490.0
513.0,517.0,517.0,494.0
507.0,518.0,517.0,499.0
517.0,519.0,506.0,506.0
526.0,530.0,505.0,511.0
530.0,530.0,503.0,516.0
530.0,503.0,500.0,520.0
527.0,490.0,495.0,523.0
513.0,466.0,494.0,523.0
509.0,475.0,500.0,525.0
488.0,461.0,502.0,523.0
494.0,469.0,507.0,513.0
504.0,489.0,511.0,508.0
506.0,499.0,519.0,506.0
500.0,519.0,523.0,504.0
505.0,534.0,523.0,501.0
502.0,524.0,523.0,500.0
504.0,526.0,521.0,499.0
508.0,520.0,519.0,502.0
517.0,511.0,516.0,504.0
515.0,509.0,512.0,508.0
521.0,498.0,508.0,513.0
522.0,491.0,506.0,520.0
523.0,492.0,504.0,524.0
514.0,478.0,498.0,525.0
505.0,458.0,500.0,525.0
504.0,469.0,500.0,524.0
497.0,478.0,507.0,521.0
499.0,486.0,514.0,515.0
501.0,510.0,515.0,506.0
511.0,521.0,519.0,504.0
513.0,533.0,524.0,504.0
521.0,543.0,523.0,499.0
506.0,535.0,527.0,496.0
508.0,534.0,521.0,498.0
507.0,524.0,519.0,502.0
513.0,524.0,514.0,505.0
517.0,515.0,511.0,512.0
521.0,511.0,506.0,515.0
525.0,503.0,500.0,526.0
527.0,497.0,499.0,525.0
514.0,483.0,497.0,524.0
508.0,479.0,499.0,526.0
498.0,473.0,501.0,525.0
498.0,478.0,508.0,518.0
497.0,478.0,513.0,514.0
503.0,484.0,519.0,507.0
507.0,494.0,527.0,506.0
514.0,503.0,531.0,499.0
522.0,539.0,521.0,496.0
517.0,545.0,522.0,499.0
517.0,532.0,521.0,499.0
511.0,563.0,515.0,501.0
516.0,549.0,512.0,506.0
519.0,533.0,505.0,511.0
513.0,512.0,505.0,519.0
509.0,464.0,499.0,528.0
515.0,479.0,501.0,525.0
509.0,480.0,504.0,525.0
507.0,481.0,503.0,526.0
496.0,474.0,503.0,524.0
494.0,479.0,513.0,519.0
497.0,494.0,517.0,512.0
504.0,515.0,519.0,505.0
507.0,526.0,526.0,503.0
518.0,529.0,525.0,501.0
514.0,517.0,520.0,500.0
512.0,510.0,520.0,497.0
506.0,505.0,517.0,501.0
507.0,508.0,513.0,504.0
514.0,512.0,510.0,509.0
520.0,506.0,510.0,518.0
527.0,499.0,508.0,523.0
526.0,495.0,505.0,525.0
514.0,486.0,503.0,526.0
505.0,485.0,502.0,528.0
503.0,478.0,501.0,527.0
496.0,477.0,500.0,518.0
495.0,485.0,505.0,512.0
502.0,501.0,515.0,505.0
506.0,514.0,519.0,503.0
510.0,526.0,525.0,498.0
513.0,530.0,521.0,496.0
511.0,524.0,520.0,496.0
512.0,528.0,519.0,499.0
508.0,516.0,518.0,500.0
512.0,514.0,512.0,505.0
513.0,516.0,508.0,511.0
519.0,507.0,506.0,516.0
521.0,501.0,503.0,521.0
526.0,501.0,495.0,526.0
516.0,485.0,499.0,527.0
510.0,478.0,498.0,527.0
497.0,467.0,503.0,524.0
498.0,476.0,506.0,520.0
498.0,487.0,514.0,515.0
504.0,497.0,518.0,508.0
507.0,507.0,523.0,504.0
513.0,513.0,529.0,503.0
516.0,517.0,527.0,500.0
515.0,513.0,522.0,497.0
518.0,511.0,519.0,500.0
521.0,510.0,515.0,503.0
523.0,516.0,506.0,506.0
517.0,517.0,507.0,512.0
519.0,516.0,502.0,517.0
516.0,507.0,499.0,523.0
522.0,508.0,498.0,520.0
513.0,497.0,495.0,530.0
511.0,498.0,498.0,526.0
496.0,479.0,505.0,525.0
492.0,501.0,510.0,517.0
487.0,508.0,514.0,512.0
505.0,523.0,520.0,507.0
509.0,526.0,523.0,502.0
522.0,512.0,524.0,498.0
510.0,506.0,523.0,500.0
523.0,525.0,521.0,497.0
522.0,530.0,519.0,501.0
527.0,516.0,516.0,505.0
523.0,508.0,513.0,506.0
519.0,504.0,507.0,512.0
523.0,486.0,503.0,521.0
518.0,483.0,502.0,526.0
498.0,481.0,498.0,528.0
490.0,482.0,500.0,528.0
497.0,482.0,500.0,526.0
487.0,477.0,505.0,521.0
499.0,493.0,512.0,514.0
501.0,509.0,519.0,510.0
509.0,512.0,521.0,502.0
515.0,523.0,519.0,505.0
518.0,540.0,520.0,501.0
513.0,553.0,521.0,499.0
518.0,552.0,520.0,501.0
513.0,531.0,519.0,503.0
508.0,507.0,511.0,506.0
511.0,496.0,507.0,514.0
519.0,496.0,507.0,520.0
522.0,491.0,501.0,525.0
523.0,486.0,503.0,530.0
510.0,482.0,504.0,531.0
509.0,482.0,502.0,529.0
498.0,473.0,501.0,526.0
493.0,476.0,508.0,520.0
497.0,490.0,511.0,512.0
503.0,509.0,518.0,509.0
504.0,508.0,528.0,501.0
511.0,516.0,531.0,504.0
513.0,522.0,529.0,501.0
509.0,518.0,528.0,504.0
510.0,524.0,523.0,504.0
512.0,522.0,518.0,505.0
516.0,511.0,512.0,505.0
520.0,498.0,506.0,509.0
524.0,487.0,501.0,516.0
527.0,483.0,499.0,522.0
530.0,489.0,500.0,530.0
515.0,494.0,494.0,524.0
514.0,494.0,497.0,524.0
499.0,500.0,501.0,522.0
501.0,507.0,507.0,513.0
494.0,516.0,513.0,510.0
504.0,526.0,522.0,504.0
503.0,483.0,521.0,502.0
512.0,504.0,525.0,500.0
512.0,520.0,524.0,502.0
509.0,520.0,526.0,500.0
506.0,514.0,521.0,502.0
515.0,518.0,515.0,506.0
514.0,527.0,509.0,510.0
520.0,514.0,503.0,514.0
522.0,499.0,499.0,517.0
524.0,486.0,498.0,525.0
519.0,471.0,499.0,533.0
515.0,469.0,505.0,533.0
508.0,484.0,504.0,529.0
501.0,476.0,506.0,524.0
507.0,490.0,514.0,514.0
509.0,502.0,516.0,507.0
507.0,510.0,518.0,499.0
500.0,517.0,521.0,496.0
505.0,527.0,518.0,491.0
507.0,518.0,518.0,492.0
516.0,540.0,517.0,495.0
513.0,530.0,514.0,500.0
514.0,519.0,511.0,505.0
512.0,513.0,506.0,507.0
522.0,513.0,504.0,512.0
524.0,495.0,497.0,523.0
520.0,491.0,497.0,524.0
512.0,482.0,496.0,528.0
506.0,482.0,499.0,528.0
497.0,485.0,503.0,522.0
494.0,495.0,505.0,518.0
500.0,510.0,511.0,518.0
513.0,524.0,518.0,509.0
521.0,537.0,526.0,507.0
522.0,544.0,525.0,502.0
517.0,545.0,523.0,505.0
506.0,502.0,523.0,501.0
496.0,504.0,520.0,501.0
501.0,510.0,516.0,507.0
512.0,501.0,512.0,508.0
511.0,497.0,510.0,511.0
519.0,495.0,504.0,518.0
522.0,486.0,500.0,525.0
526.0,474.0,496.0,527.0
510.0,468.0,498.0,529.0
506.0,465.0,501.0,528.0
491.0,482.0,506.0,524.0
496.0,493.0,512.0,518.0
504.0,510.0,515.0,512.0
506.0,524.0,520.0,504.0
508.0,529.0,527.0,504.0
515.0,535.0,524.0,506.0
515.0,529.0,522.0,505.0
517.0,530.0,525.0,503.0
510.0,522.0,519.0,503.0
517.0,514.0,513.0,505.0
516.0,519.0,511.0,510.0
526.0,514.0,510.0,515.0
532.0,507.0,504.0,524.0
527.0,492.0,503.0,529.0
517.0,470.0,502.0,534.0
506.0,461.0,500.0,533.0
506.0,468.0,503.0,535.0
495.0,467.0,507.0,523.0
502.0,479.0,511.0,517.0
505.0,497.0,516.0,510.0
509.0,518.0,520.0,509.0
512.0,525.0,521.0,501.0
513.0,538.0,519.0,494.0
509.0,532.0,516.0,494.0
514.0,527.0,517.0,497.0
515.0,521.0,514.0,500.0
520.0,506.0,513.0,504.0
525.0,500.0,506.0,510.0
530.0,513.0,507.0,516.0
526.0,517.0,499.0,522.0
527.0,518.0,499.0,528.0
512.0,486.0,499.0,527.0
503.0,475.0,499.0,529.0
501.0,475.0,503.0,525.0
503.0,477.0,508.0,518.0
498.0,483.0,513.0,512.0
501.0,505.0,519.0,507.0
502.0,523.0,520.0,502.0
506.0,532.0,522.0,503.0
510.0,529.0,523.0,499.0
507.0,522.0,520.0,499.0
514.0,523.0,521.0,506.0
507.0,503.0,514.0,505.0
510.0,498.0,512.0,510.0
520.0,509.0,509.0,521.0
526.0,495.0,502.0,526.0
527.0,494.0,500.0,526.0
523.0,499.0,501.0,530.0
504.0,491.0,500.0,534.0
499.0,483.0,502.0,531.0
487.0,477.0,510.0,526.0
495.0,481.0,517.0,522.0
500.0,494.0,533.0,517.0
508.0,522.0,523.0,507.0
511.0,539.0,517.0,498.0
513.0,533.0,517.0,497.0
508.0,517.0,514.0,495.0
510.0,514.0,515.0,496.0
510.0,531.0,518.0,501.0
515.0,527.0,513.0,508.0
515.0,522.0,512.0,513.0
519.0,506.0,507.0,514.0
521.0,494.0,499.0,518.0
521.0,494.0,493.0,525.0
519.0,488.0,493.0,523.0
506.0,474.0,494.0,525.0
499.0,468.0,501.0,525.0
495.0,488.0,507.0,523.0
498.0,482.0,516.0,519.0
502.0,494.0,520.0,511.0
508.0,514.0,516.0,505.0
510.0,520.0,518.0,502.0
517.0,531.0,517.0,498.0
509.0,525.0,516.0,494.0
512.0,520.0,519.0,496.0
508.0,512.0,516.0,504.0
512.0,502.0,516.0,508.0
515.0,497.0,514.0,516.0
524.0,503.0,504.0,519.0
524.0,508.0,498.0,519.0
524.0,496.0,494.0,522.0
512.0,481.0,493.0,522.0
505.0,479.0,496.0,523.0
495.0,477.0,501.0,521.0
494.0,483.0,504.0,518.0
500.0,494.0,511.0,511.0
507.0,500.0,520.0,509.0
516.0,508.0,524.0,504.0
519.0,518.0,526.0,504.0
524.0,515.0,528.0,501.0
518.0,517.0,524.0,501.0
512.0,522.0,519.0,499.0
511.0,521.0,511.0,500.0
515.0,517.0,507.0,503.0
524.0,510.0,505.0,508.0
528.0,495.0,501.0,516.0
524.0,489.0,498.0,525.0
516.0,497.0,496.0,527.0
501.0,479.0,498.0,529.0
503.0,485.0,500.0,528.0
494.0,476.0,506.0,525.0
502.0,490.0,509.0,518.0
500.0,498.0,514.0,510.0
504.0,505.0,518.0,503.0
502.0,522.0,521.0,498.0
516.0,537.0,524.0,499.0
518.0,549.0,520.0,497.0
511.0,545.0,520.0,497.0
509.0,534.0,516.0,499.0
515.0,526.0,512.0,506.0
512.0,484.0,509.0,509.0
517.0,494.0,506.0,517.0
522.0,494.0,501.0,522.0
522.0,489.0,500.0,528.0
520.0,489.0,498.0,530.0
510.0,477.0,498.0,528.0
503.0,464.0,502.0,526.0
498.0,469.0,507.0,523.0
496.0,487.0,512.0,516.0
504.0,502.0,522.0,513.0
504.0,510.0,524.0,507.0
507.0,512.0,528.0,502.0
518.0,517.0,524.0,501.0
512.0,516.0,522.0,497.0
517.0,524.0,516.0,498.0
516.0,522.0,514.0,502.0
513.0,523.0,512.0,509.0
519.0,530.0,509.0,513.0
524.0,519.0,504.0,520.0
523.0,509.0,499.0,526.0
520.0,505.0,502.0,526.0
513.0,473.0,498.0,528.0
508.0,475.0,501.0,529.0
497.0,484.0,503.0,525.0
498.0,489.0,508.0,519.0
500.0,497.0,511.0,512.0
503.0,507.0,516.0,506.0
509.0,511.0,521.0,500.0
518.0,525.0,525.0,500.0
516.0,531.0,524.0,496.0
510.0,529.0,524.0,498.0
514.0,528.0,522.0,497.0
518.0,527.0,515.0,503.0
521.0,520.0,512.0,512.0
521.0,512.0,504.0,515.0
525.0,502.0,504.0,518.0
525.0,495.0,499.0,523.0
520.0,483.0,498.0,528.0
509.0,472.0,498.0,526.0
504.0,465.0,500.0,528.0
495.0,466.0,502.0,521.0
498.0,478.0,509.0,515.0
502.0,482.0,514.0,509.0
509.0,507.0,519.0,501.0
511.0,507.0,524.0,500.0
516.0,518.0,523.0,495.0
514.0,530.0,520.0,497.0
509.0,545.0,515.0,496.0
504.0,517.0,517.0,500.0
510.0,504.0,513.0,507.0
519.0,514.0,507.0,514.0
524.0,508.0,506.0,520.0
531.0,507.0,502.0,519.0
533.0,508.0,500.0,528.0
528.0,503.0,501.0,530.0
507.0,492.0,507.0,529.0
498.0,475.0,503.0,526.0
495.0,481.0,510.0,521.0
494.0,496.0,516.0,515.0
496.0,501.0,520.0,513.0
504.0,516.0,525.0,510.0
507.0,530.0,526.0,502.0
513.0,539.0,523.0,498.0
508.0,542.0,519.0,491.0
516.0,543.0,513.0,491.0
512.0,525.0,507.0,498.0
510.0,505.0,509.0,503.0
513.0,485.0,503.0,512.0
520.0,491.0,501.0,516.0
521.0,504.0,496.0,518.0
525.0,494.0,495.0,523.0
516.0,476.0,494.0,523.0
507.0,472.0,497.0,525.0
499.0,471.0,502.0,521.0
506.0,484.0,510.0,515.0
504.0,490.0,512.0,508.0
506.0,500.0,515.0,507.0
509.0,505.0,519.0,500.0
517.0,513.0,517.0,499.0
514.0,534.0,522.0,498.0
507.0,546.0,522.0,498.0
505.0,535.0,519.0,499.0
510.0,524.0,517.0,504.0
510.0,521.0,511.0,508.0
515.0,511.0,500.0,511.0
518.0,495.0,499.0,517.0
522.0,494.0,500.0,524.0
521.0,485.0,499.0,526.0
506.0,469.0,499.0,526.0
504.0,475.0,500.0,526.0
492.0,478.0,504.0,522.0
493.0,483.0,508.0,516.0
497.0,494.0,517.0,510.0
510.0,509.0,516.0,504.0
516.0,519.0,522.0,500.0
519.0,525.0,523.0,502.0
515.0,526.0,521.0,494.0
510.0,529.0,524.0,495.0
509.0,528.0,517.0,499.0
514.0,522.0,514.0,506.0
518.0,517.0,508.0,511.0
522.0,506.0,507.0,519.0
523.0,494.0,504.0,522.0
526.0,484.0,499.0,526.0
519.0,477.0,495.0,524.0
506.0,467.0,499.0,529.0
498.0,458.0,504.0,523.0
489.0,462.0,506.0,521.0
490.0,507.0,509.0,517.0
502.0,530.0,513.0,508.0
512.0,522.0,518.0,503.0
519.0,522.0,525.0,500.0
521.0,519.0,526.0,505.0
505.0,511.0,526.0,500.0
511.0,518.0,524.0,503.0
506.0,524.0,517.0,504.0
510.0,533.0,513.0,508.0
519.0,516.0,507.0,510.0
521.0,516.0,502.0,517.0
520.0,499.0,494.0,522.0
521.0,508.0,500.0,525.0
519.0,514.0,495.0,526.0
506.0,504.0,500.0,528.0
502.0,494.0,501.0,520.0
492.0,454.0,505.0,517.0
493.0,464.0,512.0,510.0
505.0,494.0,521.0,511.0
506.0,502.0,525.0,502.0
516.0,516.0,520.0,498.0
517.0,527.0,526.0,500.0
511.0,527.0,521.0,495.0
513.0,529.0,518.0,498.0
517.0,533.0,517.0,504.0
519.0,511.0,511.0,506.0
524.0,496.0,502.0,514.0
524.0,496.0,499.0,517.0
520.0,491.0,497.0,519.0
516.0,490.0,497.0,526.0
505.0,480.0,493.0,530.0
499.0,479.0,498.0,527.0
496.0,486.0,504.0,520.0
497.0,494.0,510.0,514.0
502.0,506.0,516.0,508.0
509.0,516.0,520.0,503.0
518.0,521.0,523.0,502.0
522.0,520.0,523.0,498.0
516.0,516.0,520.0,499.0
511.0,510.0,520.0,497.0
512.0,503.0,516.0,503.0
512.0,523.0,514.0,507.0
518.0,524.0,508.0,512.0
519.0,513.0,507.0,519.0
515.0,497.0,500.0,523.0
519.0,483.0,498.0,527.0
510.0,478.0,499.0,527.0
502.0,478.0,499.0,528.0
500.0,486.0,503.0,527.0
501.0,498.0,509.0,522.0
503.0,498.0,518.0,515.0
508.0,507.0,518.0,510.0
510.0,510.0,520.0,506.0
517.0,515.0,526.0,502.0
514.0,522.0,523.0,498.0
507.0,522.0,521.0,500.0
508.0,540.0,521.0,504.0
516.0,526.0,516.0,508.0
515.0,519.0,513.0,512.0
519.0,514.0,512.0,515.0
524.0,502.0,504.0,522.0
522.0,489.0,500.0,521.0
521.0,491.0,497.0,527.0
507.0,484.0,496.0,526.0
501.0,478.0,496.0,527.0
496.0,477.0,500.0,524.0
496.0,487.0,506.0,522.0
502.0,503.0,513.0,511.0
504.0,518.0,518.0,505.0
512.0,520.0,522.0,500.0
520.0,527.0,522.0,498.0
517.0,522.0,521.0,497.0
506.0,510.0,518.0,499.0
510.0,497.0,514.0,500.0
510.0,519.0,513.0,508.0
517.0,517.0,512.0,509.0
525.0,511.0,507.0,515.0
526.0,497.0,503.0,522.0
527.0,485.0,500.0,524.0
525.0,486.0,498.0,525.0
511.0,484.0,497.0,527.0
500.0,482.0,498.0,522.0
492.0,482.0,500.0,520.0
496.0,488.0,510.0,515.0
500.0,496.0,517.0,509.0
508.0,511.0,519.0,507.0
509.0,526.0,519.0,500.0
521.0,557.0,519.0,497.0
516.0,554.0,518.0,494.0
512.0,542.0,518.0,493.0
509.0,511.0,514.0,498.0
507.0,486.0,510.0,505.0
517.0,515.0,507.0,512.0
524.0,533.0,503.0,517.0
528.0,532.0,497.0,523.0
528.0,520.0,494.0,530.0
518.0,492.0,498.0,527.0
501.0,451.0,501.0,530.0
493.0,455.0,499.0,525.0
490.0,462.0,504.0,519.0
495.0,482.0,511.0,515.0
498.0,496.0,517.0,510.0
507.0,510.0,521.0,506.0
510.0,519.0,524.0,503.0
516.0,529.0,521.0,500.0
509.0,526.0,520.0,497.0
509.0,521.0,520.0,499.0
507.0,520.0,516.0,504.0
513.0,518.0,512.0,507.0
521.0,513.0,509.0,514.0
525.0,507.0,507.0,518.0
523.0,489.0,500.0,523.0
520.0,490.0,502.0,528.0
514.0,478.0,509.0,528.0
504.0,469.0,498.0,524.0
495.0,468.0,502.0,522.0
495.0,482.0,510.0,519.0
497.0,492.0,511.0,514.0
501.0,509.0,517.0,507.0
507.0,523.0,522.0,502.0
514.0,528.0,525.0,502.0
513.0,535.0,522.0,503.0
513.0,528.0,523.0,498.0
509.0,521.0,515.0,499.0
510.0,514.0,512.0,503.0
515.0,504.0,504.0,506.0
522.0,505.0,505.0,515.0
527.0,496.0,504.0,520.0
519.0,489.0,500.0,525.0
520.0,484.0,501.0,530.0
516.0,480.0,495.0,528.0
504.0,481.0,497.0,525.0
497.0,491.0,504.0,521.0
502.0,510.0,509.0,516.0
504.0,510.0,514.0,510.0
512.0,519.0,518.0,503.0
512.0,520.0,521.0,505.0
514.0,527.0,525.0,500.0
511.0,537.0,522.0,502.0
507.0,526.0,519.0,500.0
509.0,515.0,514.0,503.0
511.0,508.0,510.0,507.0
517.0,511.0,510.0,514.0
520.0,505.0,504.0,519.0
524.0,501.0,502.0,519.0
528.0,497.0,499.0,524.0
517.0,494.0,496.0,526.0
508.0,488.0,497.0,524.0
499.0,482.0,498.0,522.0
500.0,484.0,505.0,516.0
496.0,496.0,512.0,512.0
505.0,495.0,518.0,507.0
507.0,508.0,522.0,506.0
515.0,530.0,520.0,500.0
516.0,539.0,520.0,498.0
508.0,531.0,522.0,495.0
509.0,524.0,520.0,497.0
510.0,518.0,516.0,501.0
515.0,515.0,513.0,510.0
522.0,508.0,507.0,514.0
522.0,498.0,505.0,519.0
525.0,494.0,498.0,524.0
524.0,485.0,497.0,526.0
518.0,481.0,498.0,525.0
507.0,473.0,497.0,525.0
503.0,482.0,500.0,522.0
493.0,487.0,510.0,517.0
496.0,494.0,515.0,512.0
504.0,513.0,518.0,504.0
512.0,521.0,520.0,500.0
516.0,529.0,520.0,496.0
515.0,532.0,519.0,495.0
508.0,524.0,520.0,495.0
507.0,517.0,517.0,499.0
510.0,515.0,512.0,506.0
515.0,509.0,509.0,508.0
523.0,506.0,504.0,511.0
527.0,500.0,499.0,518.0
528.0,492.0,497.0,525.0
526.0,489.0,497.0,526.0
515.0,486.0,498.0,526.0
500.0,477.0,500.0,525.0
495.0,487.0,505.0,521.0
495.0,489.0,510.0,514.0
501.0,498.0,517.0,508.0
505.0,512.0,523.0,504.0
512.0,519.0,522.0,500.0
507.0,532.0,524.0,496.0
504.0,528.0,521.0,497.0
505.0,525.0,517.0,497.0
510.0,526.0,515.0,499.0
516.0,538.0,514.0,504.0
521.0,542.0,508.0,511.0
524.0,529.0,502.0,518.0
526.0,521.0,498.0,524.0
520.0,478.0,499.0,522.0
512.0,451.0,497.0,525.0
503.0,462.0,496.0,527.0
491.0,467.0,503.0,525.0
493.0,475.0,507.0,520.0
494.0,484.0,511.0,513.0
501.0,492.0,517.0,508.0
504.0,502.0,522.0,504.0
508.0,510.0,522.0,503.0
513.0,516.0,523.0,499.0
514.0,525.0,521.0,499.0
511.0,523.0,517.0,498.0
515.0,516.0,510.0,502.0
517.0,513.0,511.0,508.0
527.0,513.0,508.0,514.0
524.0,500.0,504.0,522.0
520.0,489.0,500.0,522.0
521.0,484.0,495.0,531.0
513.0,479.0,498.0,527.0
502.0,484.0,500.0,524.0
497.0,482.0,504.0,525.0
497.0,488.0,515.0,520.0
502.0,502.0,516.0,513.0
508.0,514.0,522.0,508.0
512.0,524.0,524.0,506.0
520.0,539.0,525.0,502.0
516.0,536.0,521.0,500.0
512.0,526.0,520.0,500.0
509.0,522.0,515.0,498.0
512.0,518.0,509.0,501.0
513.0,514.0,507.0,506.0
517.0,508.0,503.0,511.0
521.0,503.0,501.0,519.0
524.0,495.0,497.0,521.0
518.0,485.0,496.0,523.0
512.0,479.0,500.0,530.0
504.0,472.0,498.0,526.0
501.0,482.0,502.0,521.0
497.0,484.0,518.0,515.0
498.0,498.0,517.0,505.0
505.0,511.0,514.0,501.0
509.0,520.0,527.0,498.0
514.0,530.0,521.0,498.0
514.0,530.0,518.0,492.0
507.0,527.0,516.0,496.0
507.0,516.0,515.0,504.0
517.0,515.0,510.0,506.0
521.0,510.0,507.0,512.0
525.0,507.0,502.0,520.0
520.0,500.0,498.0,528.0
519.0,498.0,499.0,529.0
511.0,487.0,500.0,531.0
503.0,480.0,500.0,531.0
493.0,474.0,506.0,528.0
495.0,482.0,508.0,514.0
503.0,494.0,505.0,507.0
507.0,499.0,517.0,506.0
509.0,506.0,517.0,501.0
513.0,519.0,521.0,498.0
519.0,523.0,523.0,497.0
519.0,527.0,520.0,496.0
511.0,522.0,515.0,497.0
512.0,522.0,511.0,501.0
517.0,522.0,509.0,509.0
522.0,520.0,507.0,512.0
523.0,508.0,504.0,520.0
518.0,496.0,498.0,525.0
520.0,493.0,498.0,526.0
513.0,482.0,497.0,529.0
497.0,467.0,498.0,528.0
490.0,467.0,504.0,524.0
491.0,485.0,506.0,519.0
500.0,501.0,517.0,510.0
502.0,501.0,523.0,509.0
509.0,513.0,521.0,503.0
513.0,544.0,522.0,500.0
511.0,539.0,522.0,499.0
509.0,531.0,523.0,501.0
510.0,517.0,516.0,501.0
515.0,513.0,510.0,503.0
513.0,511.0,510.0,510.0
517.0,499.0,507.0,517.0
524.0,496.0,502.0,522.0
523.0,494.0,504.0,523.0
521.0,487.0,499.0,526.0
509.0,483.0,498.0,525.0
497.0,478.0,500.0,530.0
496.0,487.0,503.0,523.0
497.0,491.0,508.0,513.0
500.0,501.0,515.0,509.0
510.0,522.0,518.0,508.0
514.0,535.0,523.0,503.0
523.0,544.0,525.0,501.0
518.0,551.0,523.0,500.0
511.0,505.0,518.0,501.0
506.0,507.0,513.0,502.0
513.0,510.0,507.0,504.0
514.0,509.0,507.0,510.0
519.0,512.0,505.0,517.0
523.0,504.0,502.0,521.0
524.0,502.0,497.0,529.0
518.0,494.0,496.0,527.0
509.0,485.0,497.0,528.0
496.0,480.0,502.0,525.0
494.0,466.0,506.0,522.0
497.0,484.0,510.0,513.0
503.0,500.0,518.0,505.0
512.0,515.0,521.0,503.0
520.0,527.0,520.0,501.0
518.0,529.0,525.0,503.0
515.0,525.0,528.0,505.0
511.0,514.0,520.0,503.0
507.0,509.0,516.0,502.0
512.0,508.0,506.0,504.0
520.0,509.0,502.0,505.0
525.0,509.0,499.0,512.0
519.0,496.0,496.0,519.0
525.0,487.0,495.0,523.0
519.0,479.0,495.0,523.0
506.0,475.0,495.0,525.0
498.0,473.0,502.0,520.0
494.0,479.0,506.0,518.0
501.0,491.0,514.0,511.0
506.0,506.0,514.0,501.0
510.0,523.0,519.0,499.0
515.0,526.0,525.0,499.0
514.0,528.0,520.0,495.0
509.0,521.0,519.0,495.0
506.0,524.0,518.0,499.0
509.0,519.0,512.0,502.0
515.0,514.0,507.0,509.0
523.0,510.0,506.0,513.0
524.0,503.0,503.0,519.0
522.0,498.0,499.0,527.0
511.0,489.0,498.0,528.0
500.0,480.0,496.0,529.0
486.0,479.0,499.0,530.0
484.0,477.0,508.0,520.0
488.0,480.0,508.0,512.0
496.0,497.0,513.0,508.0
508.0,502.0,522.0,505.0
512.0,506.0,524.0,502.0
532.0,523.0,523.0,500.0
522.0,532.0,521.0,499.0
510.0,530.0,518.0,502.0
509.0,518.0,515.0,504.0
513.0,506.0,511.0,508.0
525.0,505.0,510.0,514.0
530.0,512.0,504.0,519.0
528.0,511.0,499.0,520.0
529.0,516.0,500.0,525.0
520.0,503.0,496.0,530.0
504.0,478.0,495.0,525.0
498.0,473.0,499.0,520.0
500.0,485.0,504.0,517.0
499.0,483.0,509.0,511.0
507.0,503.0,517.0,501.0
513.0,517.0,519.0,502.0
515.0,529.0,523.0,495.0
507.0,532.0,518.0,497.0
504.0,531.0,521.0,497.0
504.0,519.0,517.0,505.0
507.0,514.0,511.0,501.0
513.0,513.0,511.0,507.0
522.0,511.0,505.0,510.0
525.0,500.0,502.0,517.0
525.0,493.0,500.0,522.0
526.0,485.0,499.0,528.0
525.0,480.0,499.0,529.0
505.0,475.0,499.0,526.0
492.0,474.0,504.0,519.0
495.0,483.0,510.0,514.0
507.0,493.0,515.0,509.0
512.0,512.0,518.0,506.0
516.0,524.0,521.0,501.0
521.0,530.0,520.0,501.0
519.0,535.0,523.0,496.0
515.0,532.0,521.0,500.0
510.0,531.0,515.0,500.0
517.0,524.0,512.0,505.0
515.0,505.0,510.0,511.0
523.0,499.0,508.0,516.0
528.0,500.0,509.0,520.0
525.0,497.0,499.0,526.0
520.0,487.0,496.0,528.0
511.0,474.0,498.0,527.0
495.0,472.0,500.0,527.0
494.0,479.0,509.0,524.0
498.0,488.0,508.0,512.0
503.0,500.0,512.0,507.0
508.0,525.0,521.0,508.0
512.0,522.0,522.0,502.0
516.0,527.0,523.0,499.0
514.0,525.0,521.0,493.0
507.0,523.0,520.0,496.0
509.0,525.0,512.0,505.0
518.0,523.0,508.0,509.0
520.0,522.0,506.0,512.0
524.0,519.0,498.0,517.0
517.0,500.0,497.0,522.0
515.0,490.0,499.0,528.0
508.0,473.0,495.0,530.0
500.0,468.0,497.0,527.0
489.0,471.0,502.0,524.0
486.0,480.0,511.0,522.0
505.0,493.0,513.0,514.0
515.0,509.0,521.0,513.0
508.0,517.0,522.0,506.0
515.0,527.0,525.0,502.0
516.0,533.0,526.0,499.0
513.0,525.0,513.0,496.0
513.0,521.0,511.0,497.0
509.0,517.0,513.0,506.0
515.0,522.0,510.0,513.0
522.0,513.0,505.0,519.0
521.0,493.0,505.0,524.0
521.0,481.0,504.0,533.0
517.0,485.0,500.0,530.0
515.0,473.0,503.0,529.0
503.0,465.0,501.0,525.0
497.0,469.0,498.0,514.0
494.0,489.0,502.0,507.0
496.0,493.0,511.0,506.0
503.0,512.0,516.0,506.0
509.0,529.0,523.0,504.0
513.0,535.0,523.0,502.0
519.0,533.0,525.0,501.0
515.0,520.0,522.0,503.0
511.0,518.0,520.0,502.0
514.0,519.0,512.0,505.0
518.0,516.0,511.0,506.0
523.0,509.0,502.0,507.0
528.0,505.0,496.0,515.0
525.0,502.0,491.0,521.0
519.0,491.0,492.0,524.0
516.0,484.0,494.0,528.0
496.0,472.0,499.0,527.0
498.0,483.0,505.0,521.0
496.0,486.0,522.0,518.0
505.0,498.0,521.0,511.0
509.0,507.0,521.0,501.0
516.0,519.0,515.0,496.0
520.0,523.0,514.0,492.0
519.0,523.0,515.0,494.0
509.0,520.0,517.0,492.0
512.0,513.0,512.0,500.0
514.0,514.0,509.0,502.0
518.0,518.0,504.0,510.0
524.0,510.0,499.0,519.0
518.0,501.0,499.0,523.0
515.0,494.0,496.0,527.0
508.0,489.0,497.0,527.0
506.0,480.0,495.0,526.0
491.0,461.0,501.0,522.0
499.0,479.0,506.0,518.0
500.0,489.0,512.0,510.0
496.0,502.0,517.0,507.0
506.0,517.0,521.0,500.0
514.0,527.0,522.0,498.0
516.0,527.0,521.0,501.0
518.0,532.0,521.0,501.0
516.0,529.0,517.0,496.0
520.0,517.0,513.0,499.0
509.0,506.0,507.0,507.0
520.0,503.0,505.0,513.0
527.0,505.0,500.0,517.0
529.0,492.0,501.0,524.0
529.0,488.0,499.0,529.0
521.0,483.0,501.0,538.0
506.0,486.0,498.0,526.0
500.0,490.0,502.0,514.0
498.0,504.0,506.0,506.0
499.0,506.0,516.0,506.0
501.0,502.0,521.0,505.0
506.0,513.0,526.0,501.0
509.0,522.0,525.0,502.0
504.0,525.0,523.0,498.0
499.0,523.0,520.0,495.0
500.0,516.0,522.0,501.0
510.0,511.0,513.0,502.0
514.0,509.0,507.0,505.0
517.0,505.0,505.0,514.0
511.0,496.0,503.0,524.0
511.0,486.0,500.0,528.0
504.0,478.0,497.0,528.0
486.0,480.0,505.0,526.0
471.0,463.0,507.0,526.0
470.0,469.0,496.0,517.0
495.0,484.0,504.0,509.0
510.0,502.0,517.0,508.0
538.0,522.0,523.0,505.0
537.0,531.0,519.0,503.0
538.0,537.0,522.0,498.0
531.0,534.0,521.0,499.0
518.0,526.0,520.0,499.0
519.0,518.0,520.0,499.0
526.0,517.0,508.0,497.0
523.0,509.0,505.0,515.0
527.0,511.0,499.0,516.0
533.0,500.0,502.0,521.0
530.0,492.0,493.0,523.0
519.0,481.0,487.0,522.0
504.0,476.0,495.0,523.0
497.0,476.0,503.0,517.0
503.0,492.0,512.0,517.0
505.0,505.0,517.0,517.0
510.0,521.0,521.0,505.0
507.0,516.0,525.0,499.0
521.0,517.0,524.0,507.0
525.0,530.0,526.0,507.0
520.0,531.0,519.0,494.0
518.0,528.0,516.0,485.0
517.0,519.0,517.0,509.0
515.0,510.0,516.0,516.0
518.0,506.0,506.0,513.0
523.0,504.0,502.0,519.0
520.0,491.0,502.0,526.0
517.0,487.0,501.0,528.0
513.0,481.0,494.0,528.0
500.0,477.0,499.0,527.0
494.0,482.0,508.0,528.0
496.0,486.0,515.0,524.0
501.0,503.0,517.0,507.0
506.0,513.0,518.0,497.0
508.0,516.0,519.0,498.0
512.0,522.0,525.0,497.0
517.0,531.0,527.0,497.0
510.0,525.0,523.0,494.0
507.0,514.0,509.0,496.0
513.0,514.0,507.0,504.0
515.0,511.0,508.0,512.0
520.0,507.0,505.0,518.0
525.0,501.0,502.0,518.0
525.0,492.0,495.0,525.0
518.0,482.0,497.0,523.0
512.0,479.0,501.0,524.0
496.0,467.0,500.0,524.0
494.0,480.0,507.0,518.0
497.0,495.0,510.0,510.0
501.0,513.0,515.0,504.0
502.0,517.0,520.0,505.0
509.0,524.0,524.0,502.0
519.0,527.0,521.0,498.0
519.0,531.0,523.0,497.0
512.0,523.0,518.0,498.0
513.0,514.0,509.0,500.0
511.0,514.0,511.0,505.0
519.0,516.0,508.0,512.0
523.0,508.0,504.0,519.0
519.0,498.0,500.0,522.0
519.0,483.0,503.0,525.0
511.0,470.0,498.0,525.0
506.0,471.0,498.0,528.0
497.0,470.0,503.0,524.0
495.0,484.0,510.0,519.0
496.0,504.0,518.0,514.0
509.0,522.0,522.0,504.0
509.0,522.0,517.0,500.0
515.0,530.0,521.0,496.0
515.0,531.0,527.0,498.0
515.0,528.0,523.0,500.0
508.0,522.0,519.0,503.0
508.0,519.0,518.0,503.0
510.0,515.0,506.0,511.0
514.0,511.0,507.0,519.0
518.0,505.0,503.0,523.0
518.0,498.0,492.0,519.0
519.0,495.0,497.0,527.0
520.0,484.0,497.0,527.0
501.0,478.0,498.0,523.0
496.0,481.0,508.0,519.0
499.0,491.0,513.0,518.0
501.0,502.0,513.0,512.0
506.0,513.0,523.0,506.0
503.0,520.0,524.0,505.0
499.0,527.0,523.0,504.0
506.0,521.0,524.0,500.0
499.0,514.0,524.0,497.0
498.0,512.0,522.0,500.0
496.0,508.0,517.0,508.0
511.0,518.0,515.0,514.0
530.0,512.0,508.0,517.0
539.0,500.0,491.0,518.0
538.0,492.0,496.0,526.0
516.0,478.0,495.0,525.0
511.0,482.0,495.0,519.0
494.0,474.0,495.0,522.0
491.0,487.0,505.0,527.0
496.0,492.0,506.0,519.0
504.0,496.0,508.0,507.0
523.0,513.0,514.0,499.0
528.0,529.0,523.0,500.0
528.0,525.0,526.0,496.0
516.0,526.0,525.0,501.0
504.0,525.0,521.0,492.0
507.0,521.0,513.0,493.0
512.0,516.0,510.0,502.0
519.0,507.0,508.0,513.0
519.0,493.0,505.0,515.0
516.0,488.0,500.0,527.0
534.0,499.0,492.0,536.0
524.0,491.0,496.0,527.0
510.0,487.0,501.0,521.0
500.0,483.0,495.0,515.0
497.0,486.0,500.0,514.0
502.0,489.0,525.0,535.0
506.0,491.0,528.0,534.0
507.0,501.0,512.0,498.0
519.0,514.0,517.0,491.0
514.0,523.0,525.0,496.0
511.0,528.0,520.0,487.0
509.0,517.0,517.0,500.0
506.0,506.0,518.0,501.0
508.0,516.0,512.0,503.0
512.0,512.0,505.0,511.0
511.0,502.0,503.0,522.0
524.0,495.0,493.0,538.0
531.0,498.0,499.0,561.0
520.0,488.0,489.0,541.0
506.0,480.0,483.0,503.0
497.0,479.0,508.0,520.0
496.0,478.0,519.0,543.0
499.0,491.0,517.0,523.0
517.0,514.0,521.0,513.0
517.0,531.0,527.0,497.0
519.0,529.0,527.0,489.0
515.0,528.0,517.0,486.0
516.0,529.0,525.0,494.0
510.0,520.0,519.0,500.0
515.0,520.0,512.0,510.0
519.0,516.0,513.0,505.0
522.0,505.0,508.0,512.0
519.0,498.0,502.0,520.0
522.0,497.0,501.0,528.0
521.0,492.0,500.0,568.0
509.0,486.0,493.0,546.0
500.0,473.0,493.0,516.0
494.0,482.0,501.0,500.0
496.0,492.0,517.0,508.0
504.0,503.0,522.0,504.0
506.0,514.0,523.0,498.0
509.0,522.0,526.0,499.0
519.0,530.0,527.0,498.0
519.0,529.0,522.0,497.0
513.0,519.0,520.0,497.0
510.0,513.0,515.0,497.0
509.0,515.0,512.0,502.0
522.0,511.0,505.0,506.0
522.0,498.0,502.0,513.0
520.0,494.0,494.0,521.0
521.0,498.0,499.0,524.0
514.0,496.0,496.0,528.0
507.0,483.0,495.0,525.0
491.0,480.0,499.0,517.0
495.0,487.0,510.0,512.0
503.0,486.0,510.0,506.0
