CH1,CH2,CH3,CH4,CH5
519,502,515,526,473
520,502,514,531,458
520,504,512,533,449
515,500,506,533,453
508,499,503,527,463
506,496,494,522,480
507,501,498,513,506
502,506,504,508,539
504,511,511,502,558
505,515,519,501,571
508,512,518,505,558
511,511,522,501,550
515,507,520,499,545
510,508,517,497,550
512,504,516,505,530
520,502,518,510,507
520,503,515,517,487
524,501,512,526,460
523,504,510,532,454
519,503,510,534,456
513,502,504,531,462
507,499,503,525,469
501,497,495,516,491
502,503,497,510,519
502,508,507,505,546
505,514,517,501,566
509,514,519,499,569
518,513,520,500,556
513,509,520,500,555
510,507,519,499,557
503,505,519,500,549
504,503,518,504,527
506,501,515,514,504
510,502,514,521,476
512,501,514,530,460
516,503,510,533,456
527,504,508,535,452
523,503,503,530,458
524,504,499,525,468
509,504,497,517,505
503,507,501,506,532
504,512,510,504,551
507,515,517,500,562
512,515,519,499,558
517,513,520,500,551
514,508,521,500,548
512,506,518,498,553
514,505,519,501,535
517,506,519,507,518
519,502,516,514,496
523,502,513,523,469
524,501,512,531,456
526,502,511,535,452
521,501,505,532,455
508,499,501,526,464
502,496,496,520,479
493,500,497,513,504
493,508,504,508,534
494,511,511,502,557
499,516,520,502,571
516,516,521,501,560
531,515,522,500,553
521,510,521,500,553
513,507,519,499,548
515,505,520,501,533
517,504,519,511,512
520,503,516,518,488
524,501,514,528,463
523,501,513,531,456
524,505,514,535,455
515,505,505,531,461
508,497,499,525,471
502,498,495,516,490
500,502,498,509,519
501,509,505,504,541
503,513,516,500,561
506,517,520,500,561
513,514,520,500,554
514,511,523,500,552
511,506,519,497,550
509,505,519,500,542
513,505,519,507,525
514,502,514,515,506
518,501,514,520,481
520,504,513,529,461
521,504,514,535,456
520,507,510,534,455
513,501,501,530,463
504,496,496,523,473
499,498,496,515,495
499,506,503,509,526
505,513,509,504,550
506,516,516,500,567
508,513,521,498,562
514,510,522,500,557
511,510,523,500,554
507,506,520,498,552
508,503,519,501,539
513,504,519,504,517
518,503,519,515,498
521,501,517,526,474
523,503,516,534,458
526,505,514,535,456
518,504,509,533,457
510,500,503,528,466
502,493,496,517,482
503,501,498,511,512
500,504,504,507,538
502,511,511,501,556
505,514,520,504,567
507,511,520,505,561
511,513,524,501,555
510,510,523,499,552
506,504,520,499,550
504,505,518,501,529
517,502,519,509,504
521,502,521,521,485
521,499,515,530,468
520,501,514,533,463
521,502,511,534,461
515,500,504,529,466
511,499,500,525,473
498,497,494,518,495
501,505,500,509,520
507,508,508,505,536
514,516,517,504,556
515,515,521,499,557
514,514,520,500,555
513,512,526,501,555
508,508,519,500,549
503,505,523,501,545
503,502,519,506,526
511,504,517,512,503
518,503,518,521,477
524,503,517,531,456
510,502,512,533,444
508,502,509,532,452
498,499,504,530,459
491,496,497,521,486
486,498,498,514,522
476,506,502,508,545
497,515,511,504,555
518,518,520,499,565
513,511,518,500,557
513,511,525,500,553
511,508,522,500,547
526,507,518,498,547
528,505,517,500,536
523,502,517,506,512
520,503,517,516,496
539,505,517,525,471
537,504,514,530,467
535,506,513,532,455
525,503,506,531,451
513,498,500,526,457
504,494,495,519,475
496,498,501,514,502
481,505,503,505,530
479,511,511,500,554
479,511,518,500,570
477,509,518,504,559
465,509,518,500,559
444,501,513,497,557
446,499,512,495,553
494,504,524,505,532
512,503,517,510,512
514,501,518,517,498
531,502,513,526,467
560,513,517,535,457
571,509,513,536,458
555,505,510,533,461
536,505,502,530,473
527,501,497,517,496
521,501,499,511,530
513,508,506,504,551
518,516,520,502,561
531,516,521,498,539
531,515,523,499,537
521,514,522,500,547
509,509,521,498,561
520,511,521,502,552
520,507,521,507,526
516,503,519,514,489
527,504,519,525,459
536,507,519,535,445
535,510,517,539,445
529,504,512,536,456
523,503,505,533,454
517,497,499,525,462
508,500,498,519,509
510,507,506,506,551
510,512,511,499,567
508,517,517,496,573
511,514,519,497,569
513,513,523,498,568
516,510,521,497,565
527,505,515,493,556
522,500,512,495,542
524,505,516,506,508
520,502,518,518,475
527,501,515,528,454
538,503,512,529,439
523,503,514,534,437
522,502,509,535,433
522,502,504,529,430
513,498,498,519,457
506,501,497,511,499
506,510,507,506,533
507,514,512,504,547
505,515,518,503,553
502,509,517,499,540
508,510,520,501,528
510,509,521,504,529
502,504,518,504,529
510,503,518,505,518
511,502,518,509,514
506,500,519,521,516
507,505,521,531,502
504,507,517,531,498
501,507,516,536,508
492,504,508,531,524
493,505,501,521,530
483,499,498,513,554
484,503,499,504,574
512,509,507,507,562
518,516,519,503,562
513,507,517,501,540
526,508,522,502,519
534,510,522,503,525
525,506,516,495,535
519,509,518,498,528
520,508,521,511,513
518,502,517,519,494
515,501,515,520,479
516,501,513,529,467
527,498,511,536,437
531,501,509,537,420
522,499,505,534,415
509,494,497,524,434
506,499,498,516,459
508,502,501,509,492
510,512,514,506,525
509,517,517,501,568
512,511,520,501,556
514,510,518,503,550
507,506,518,499,553
506,506,517,496,542
505,504,521,502,535
505,502,518,510,516
498,499,517,516,496
495,499,514,526,473
485,499,512,533,464
482,502,513,534,464
479,502,507,534,467
468,496,503,528,478
484,499,495,518,495
511,505,501,514,525
511,511,506,507,552
504,511,512,501,590
496,514,519,500,610
495,514,521,502,608
501,516,528,504,549
530,514,523,504,514
525,509,523,503,547
524,502,510,506,526
529,496,506,508,476
534,499,510,521,485
513,503,514,533,472
492,505,511,534,468
485,503,507,534,458
479,499,501,532,458
455,492,496,520,477
431,485,487,508,520
497,498,491,505,527
533,514,503,504,538
523,520,518,507,550
530,518,521,501,540
562,521,521,504,562
544,517,517,499,572
525,505,510,497,581
533,506,514,503,533
547,502,513,509,477
553,500,509,512,464
563,498,509,525,410
554,503,509,532,416
537,504,506,530,478
521,501,501,530,508
520,501,496,526,482
503,493,487,521,451
493,496,489,516,487
499,504,496,510,544
498,506,502,501,561
519,511,506,495,564
546,515,513,501,550
538,507,513,497,560
536,504,510,497,554
533,505,507,495,551
515,502,510,503,537
513,503,514,514,524
507,501,514,518,499
522,505,508,524,453
531,501,505,533,436
538,506,506,537,440
533,505,498,533,423
520,500,491,525,430
500,490,482,516,463
490,494,484,507,535
496,504,496,505,575
496,514,509,502,576
497,520,518,502,580
487,515,517,503,588
484,510,517,505,575
491,506,518,502,566
507,505,512,500,532
523,505,515,506,499
514,504,517,515,523
514,504,509,521,500
523,504,503,530,461
513,504,504,534,467
515,500,497,537,495
529,504,497,527,502
525,501,489,518,497
516,493,484,512,500
513,501,495,511,518
512,508,499,505,534
501,512,509,505,521
512,511,517,503,517
509,511,517,503,497
500,508,518,505,491
511,511,517,503,505
514,507,515,505,520
493,503,513,510,559
484,500,510,514,583
501,502,511,524,491
498,499,507,535,468
504,500,500,539,433
534,496,496,537,394
535,493,488,519,443
532,492,483,517,526
526,499,488,509,557
522,503,494,502,545
522,508,502,493,610
520,513,511,493,609
512,514,517,504,571
501,510,519,503,548
474,514,520,503,563
461,509,522,502,533
474,507,521,510,504
499,509,522,521,472
487,507,516,523,444
514,506,508,531,467
549,506,504,537,483
531,502,500,529,502
532,495,490,520,427
523,485,474,516,408
486,476,467,507,455
488,490,479,503,460
543,515,504,520,454
565,521,514,512,535
535,514,514,505,579
535,513,518,507,506
522,509,513,497,522
482,492,504,490,573
484,497,504,491,549
491,501,510,501,557
494,501,512,517,551
495,504,508,524,532
497,501,503,534,479
515,500,500,539,463
519,499,491,530,461
491,495,485,523,499
479,501,489,526,481
503,502,490,520,508
502,505,492,514,522
527,508,497,507,541
540,518,511,503,577
534,516,515,500,568
530,510,513,497,561
525,509,512,497,573
496,502,510,496,573
489,495,503,496,529
516,493,507,504,525
522,496,509,516,476
529,503,507,530,433
531,504,503,536,450
531,499,496,529,507
536,497,489,531,484
543,496,483,525,473
515,491,476,517,491
494,497,482,515,463
496,502,490,505,533
478,503,497,499,579
479,513,514,502,555
485,519,522,511,546
474,515,519,509,540
469,513,520,500,529
482,505,510,497,539
497,504,514,502,551
490,500,512,507,551
467,493,502,515,561
523,491,495,519,484
607,502,494,528,452
606,505,498,530,453
554,494,485,528,463
518,491,481,525,485
490,493,482,522,513
472,504,493,512,514
472,517,505,514,516
482,525,518,508,517
494,528,521,503,530
476,510,513,494,590
462,503,514,502,583
494,503,511,497,554
526,502,509,497,525
506,494,505,501,524
512,496,508,513,536
539,503,508,527,511
554,509,504,541,477
550,509,504,539,471
533,502,494,529,485
526,505,494,532,472
519,497,483,526,478
508,488,476,514,471
503,492,484,506,503
487,507,500,505,507
481,516,517,497,558
513,506,509,495,531
556,510,516,499,523
560,515,517,501,576
536,516,520,496,620
486,512,521,499,627
453,507,516,509,548
434,507,512,520,492
394,500,512,537,501
442,502,505,540,412
531,500,494,540,402
587,489,476,519,360
564,487,478,533,346
516,475,468,522,390
525,489,479,515,446
503,507,498,517,490
461,526,519,524,625
462,523,517,492,693
476,520,519,496,616
511,509,516,497,489
539,501,510,489,523
535,502,512,496,613
549,502,506,492,612
590,513,513,513,536
567,503,505,506,554
548,499,498,520,610
513,495,496,532,533
481,494,496,539,482
464,497,490,529,395
470,498,491,536,372
475,497,490,529,462
491,501,487,491,543
494,513,501,507,473
432,511,510,506,536
439,497,505,499,526
423,499,510,504,596
449,516,520,504,629
459,513,520,504,553
498,506,513,502,526
641,503,505,501,502
633,510,510,510,461
590,507,511,526,497
542,499,501,530,496
530,511,507,541,442
518,513,504,539,362
512,511,506,539,416
508,492,487,531,456
496,488,478,518,478
528,493,480,498,519
530,500,493,486,584
522,511,513,503,590
505,510,511,501,620
496,518,520,510,566
458,521,526,508,595
444,508,515,488,586
499,497,505,486,515
571,502,507,499,494
616,507,508,511,511
546,497,503,521,474
434,484,498,529,369
457,500,496,537,359
486,509,502,537,436
480,510,504,539,487
489,497,491,525,542
499,494,485,509,567
433,491,489,502,569
452,500,494,498,526
505,506,502,492,569
521,513,512,497,577
568,524,525,510,472
555,525,528,509,506
501,517,521,502,545
464,504,516,509,625
511,501,512,515,614
500,492,501,515,455
520,478,487,516,386
611,500,497,519,402
617,509,506,534,434
599,508,500,537,424
561,501,495,534,447
525,503,492,521,515
504,510,494,515,547
506,512,504,518,553
488,506,506,506,540
433,498,506,499,570
363,501,519,513,512
390,508,520,510,538
491,509,513,492,607
529,514,517,506,641
553,506,515,511,581
529,487,501,510,589
515,472,487,500,575
518,488,494,521,476
557,516,511,559,473
486,510,509,558,462
470,508,505,526,532
447,495,483,506,506
480,513,500,526,407
505,518,509,512,501
502,511,503,496,432
513,507,507,501,441
516,505,509,513,488
435,501,513,514,533
348,492,509,506,446
400,499,509,482,546
473,488,494,466,605
485,490,500,500,530
501,495,502,516,523
556,505,509,520,465
600,509,510,526,474
521,511,512,535,512
422,506,506,530,583
356,500,495,524,642
216,483,478,505,678
188,479,480,512,743
183,486,492,539,718
319,503,506,527,663
526,509,507,506,392
788,526,514,512,271
734,518,511,481,460
668,517,516,479,457
659,520,524,494,429
667,529,530,507,567
622,521,523,519,645
517,493,508,515,532
536,502,507,536,347
504,508,516,551,357
516,497,501,538,501
590,500,490,506,549
601,503,494,518,602
529,491,482,510,625
462,477,470,489,557
569,506,494,491,505
619,533,524,508,478
557,521,521,509,538
458,511,521,525,469
432,506,528,540,455
431,503,523,513,409
459,493,503,459,466
607,509,511,488,466
555,493,503,501,405
590,505,513,530,429
591,508,514,525,539
554,506,506,531,529
535,503,498,514,508
524,496,492,523,469
519,490,486,526,445
515,494,490,514,485
505,504,502,506,577
550,524,518,520,538
549,526,526,539,430
524,503,506,516,407
510,495,498,473,585
532,504,513,492,616
547,500,510,493,679
569,502,508,502,619
569,505,512,509,633
583,515,515,512,544
559,513,514,517,494
555,522,514,522,537
542,510,504,521,530
509,492,487,520,500
421,485,491,536,327
496,500,498,538,349
521,503,490,517,463
474,521,513,522,503
449,499,501,505,441
485,499,506,497,414
514,501,506,480,618
517,504,511,488,675
497,504,514,496,634
519,507,516,503,541
499,505,518,505,522
494,508,520,515,454
505,507,514,523,459
525,498,500,518,471
581,504,499,527,478
518,500,498,527,568
432,491,495,525,489
366,476,487,529,496
305,474,483,531,467
329,493,496,536,492
352,511,509,522,598
350,515,514,504,668
413,520,522,501,626
548,526,525,505,534
601,521,516,490,419
563,502,510,488,558
548,498,506,486,609
607,510,520,533,584
604,502,508,520,406
484,479,498,522,399
527,502,507,532,381
598,516,510,517,392
594,517,505,508,413
557,511,499,532,463
504,485,483,529,455
446,484,483,520,480
388,489,491,501,511
369,505,504,499,658
324,505,509,496,657
423,514,514,496,649
540,522,519,511,540
406,494,511,498,516
422,497,515,497,627
423,487,511,512,702
464,488,507,512,579
545,491,501,504,468
633,510,508,522,428
646,532,515,524,368
705,532,519,541,436
661,511,500,542,550
544,487,486,523,584
552,489,488,522,433
538,500,500,514,485
512,514,510,501,536
483,510,503,475,500
523,519,516,502,535
515,506,514,498,477
568,508,517,502,443
547,509,515,503,487
503,513,520,502,558
507,504,512,499,559
596,522,529,524,442
571,513,518,523,437
558,499,507,521,443
550,497,503,524,466
536,504,507,534,538
560,506,500,540,404
554,497,493,525,448
522,494,487,515,524
513,495,494,530,536
529,513,503,495,551
481,516,511,485,605
461,513,520,498,578
465,513,520,496,604
508,511,521,496,546
523,507,516,496,535
527,503,513,498,565
531,504,514,506,529
543,503,511,519,495
542,502,509,519,448
556,501,507,527,410
549,508,511,542,425
524,511,514,548,437
500,505,507,531,490
509,497,492,516,484
490,496,490,504,513
505,501,495,499,530
502,513,511,507,542
489,505,511,503,602
496,509,519,501,728
538,512,520,499,742
534,506,514,491,500
510,503,514,491,416
515,504,517,504,485
538,512,522,516,478
525,510,517,521,462
510,503,518,534,430
497,504,517,541,418
509,509,516,537,391
543,503,503,524,441
508,500,496,523,531
475,484,480,504,550
542,504,494,507,513
515,508,502,506,514
476,511,510,502,525
456,516,525,507,546
499,519,526,513,573
507,513,526,511,525
489,504,522,505,535
480,508,527,500,580
514,507,519,505,532
511,501,509,501,550
463,492,506,498,558
485,504,521,547,477
486,497,506,546,433
445,488,497,534,460
460,492,497,517,474
419,484,494,521,472
487,481,485,512,529
523,508,497,501,551
560,515,507,499,508
578,525,525,515,535
498,515,529,508,533
515,514,523,490,528
540,502,515,495,524
554,507,518,497,534
526,511,522,513,496
527,506,517,514,485
581,519,524,510,423
551,511,519,529,420
545,499,508,516,511
568,502,506,522,543
561,519,522,548,498
489,504,506,536,606
465,498,500,521,518
485,492,492,507,534
494,496,497,521,466
497,520,517,499,483
521,523,525,504,527
528,503,515,502,496
487,498,515,504,545
458,500,515,491,598
427,502,522,498,553
496,511,524,493,530
505,498,518,504,489
572,502,512,509,507
604,505,509,520,479
580,507,514,529,446
549,507,512,535,411
523,497,503,526,437
524,506,506,521,503
512,502,501,529,542
510,499,494,507,582
511,502,503,503,627
531,511,511,486,530
541,515,515,496,508
521,512,519,493,566
528,512,522,496,543
475,500,520,500,571
485,502,523,504,520
505,502,521,505,506
505,502,521,514,485
470,506,524,530,472
474,502,517,527,479
557,509,516,534,452
570,501,510,555,478
557,501,503,521,482
529,497,495,507,442
490,495,493,511,437
486,507,502,521,545
498,517,521,513,548
506,522,526,511,587
510,506,517,489,608
523,509,519,500,555
544,513,524,495,576
514,504,520,497,593
494,496,514,492,493
535,519,525,507,434
531,513,524,511,482
495,492,518,537,492
506,495,508,532,515
518,506,513,538,431
507,504,511,519,509
494,492,497,510,571
504,493,492,527,540
489,494,495,523,452
510,504,498,506,410
511,511,510,504,505
522,520,525,500,543
515,512,519,496,563
501,509,523,497,577
495,509,526,499,574
522,505,521,498,544
509,507,521,504,509
466,507,528,516,499
440,505,526,524,505
441,500,519,529,488
478,499,507,522,466
585,500,506,525,473
566,501,503,529,487
540,498,498,526,457
509,495,491,517,440
487,492,495,510,478
525,506,503,527,460
548,516,513,510,522
564,521,518,486,615
542,518,522,494,590
533,524,531,503,540
505,518,530,504,601
472,505,519,495,608
525,507,518,502,560
537,505,516,512,477
528,504,516,516,498
506,501,514,528,491
536,499,511,534,468
506,504,512,545,453
503,507,509,534,490
505,501,501,530,499
519,495,490,502,540
470,499,503,505,510
453,517,517,516,487
426,517,523,503,542
498,509,519,492,578
585,508,516,495,477
585,514,526,504,481
560,512,523,503,532
534,502,514,493,577
515,496,514,510,489
511,498,515,516,450
530,502,514,520,452
547,503,512,526,471
507,499,513,534,469
513,504,510,537,478
512,508,509,536,501
498,504,499,519,510
485,496,497,507,492
508,501,501,501,505
530,507,508,503,492
516,518,517,499,572
516,511,521,498,591
525,513,526,502,571
513,508,521,493,559
504,504,522,496,564
516,504,517,497,559
496,502,520,509,559
499,503,523,523,502
514,504,518,541,481
535,504,515,538,411
549,511,514,530,451
496,500,508,536,492
510,500,500,520,459
520,495,498,517,469
500,499,501,521,558
504,523,510,500,565
519,524,521,503,575
506,508,517,497,539
514,502,519,509,461
530,509,525,498,502
527,508,522,500,548
512,501,518,500,517
498,503,526,513,574
493,504,520,512,598
479,501,518,518,543
529,499,514,523,469
540,506,515,536,429
547,510,515,547,391
542,505,507,538,350
538,496,495,512,408
507,491,492,510,478
503,498,497,506,584
492,505,507,509,596
477,505,516,506,578
443,500,518,496,575
474,508,524,496,562
457,507,518,500,558
512,508,518,501,541
504,505,525,510,544
552,515,528,515,543
567,514,525,512,517
538,501,514,520,499
536,499,510,533,441
535,503,511,532,459
527,498,504,527,460
499,494,499,532,456
503,494,496,527,451
477,495,495,515,497
511,507,506,508,540
519,524,519,498,544
495,518,525,507,536
514,513,521,501,537
532,512,519,500,543
508,505,519,496,541
517,511,523,499,510
500,504,519,501,536
499,504,520,509,530
527,511,520,515,533
541,506,521,529,494
529,501,512,542,465
526,501,509,529,445
517,501,506,532,438
518,506,509,531,472
459,501,501,526,533
481,505,498,508,593
500,508,504,498,554
545,514,507,484,576
541,512,513,502,529
543,508,518,498,525
503,507,523,504,522
486,513,530,508,525
515,510,521,497,497
528,501,517,501,477
530,506,520,507,480
520,503,521,522,498
529,503,517,528,503
531,507,512,531,493
502,501,510,533,484
499,500,505,527,481
531,503,505,526,480
527,502,502,517,530
482,508,508,519,541
458,510,517,526,559
485,514,520,494,527
517,505,512,487,567
518,500,511,492,560
511,505,514,488,533
527,503,517,494,516
530,501,517,496,534
552,503,515,503,567
537,497,512,514,513
522,499,514,523,445
527,507,519,542,382
518,503,515,543,425
524,508,511,533,447
513,507,506,524,481
519,494,498,511,484
522,496,495,507,519
509,503,505,513,527
506,511,511,503,521
511,518,524,498,562
496,515,527,506,632
478,521,533,514,601
470,511,525,492,552
450,500,522,501,543
503,495,515,493,543
549,506,515,506,466
542,502,515,513,475
548,507,516,532,465
540,501,509,530,477
540,503,510,532,427
544,501,503,526,446
539,502,501,525,450
511,495,492,514,476
498,500,496,508,518
501,505,508,510,556
493,509,517,516,561
515,516,524,494,538
515,513,526,501,555
510,512,526,506,584
508,507,521,493,579
511,506,522,497,501
502,505,526,508,508
492,503,520,516,527
501,509,519,516,490
542,505,516,525,434
506,497,507,527,478
518,505,508,534,497
519,503,501,534,487
522,502,502,529,490
502,501,499,517,493
486,506,503,509,520
481,507,507,500,534
509,514,518,503,547
508,514,525,505,572
501,511,527,505,555
475,508,520,496,551
494,508,519,497,558
528,507,519,502,539
554,509,523,506,512
542,499,517,518,485
543,503,518,526,457
539,504,513,532,443
540,506,508,530,429
528,506,504,527,484
516,499,499,528,468
490,491,493,522,497
467,492,497,514,539
476,501,501,507,538
491,511,516,504,548
516,525,526,502,552
526,521,530,501,545
516,513,527,502,551
536,509,521,499,539
549,507,523,503,526
502,502,525,519,539
500,499,519,520,496
534,500,511,501,463
547,502,510,523,451
548,506,510,524,476
537,505,508,527,470
508,500,504,531,490
475,500,505,534,480
457,492,495,524,444
519,502,499,514,454
535,511,508,503,537
495,519,521,502,626
508,516,521,494,566
498,506,520,494,550
513,512,525,502,537
523,509,525,505,514
525,504,521,505,519
515,503,519,492,530
505,501,516,505,550
535,504,514,514,484
534,503,515,531,454
533,502,512,535,455
527,502,506,530,462
521,501,504,527,477
533,500,501,527,470
530,499,494,516,484
503,503,500,505,540
485,507,512,506,580
497,517,521,497,586
499,512,524,496,575
492,509,530,500,550
511,517,534,506,529
511,515,532,503,521
507,509,527,505,514
509,498,518,509,562
525,496,514,506,520
532,503,519,523,491
506,503,515,530,464
493,500,512,532,435
506,498,504,532,438
521,502,501,536,444
516,504,498,514,485
501,495,498,507,592
519,496,499,503,568
545,513,515,507,519
523,513,522,493,548
512,510,522,493,548
509,509,522,495,557
504,509,525,499,585
513,514,528,500,576
503,510,529,505,559
518,506,524,514,449
517,499,516,517,424
536,497,509,525,428
556,507,511,532,438
537,502,506,528,490
510,502,504,527,487
518,498,498,520,519
498,494,493,518,498
480,493,494,503,501
498,508,510,508,532
507,513,522,503,590
510,519,526,503,555
516,516,529,502,538
504,508,526,503,541
500,505,526,498,541
509,511,528,506,525
509,506,523,509,513
513,503,521,515,500
529,501,515,517,477
537,506,512,522,467
524,503,508,529,475
529,504,508,527,455
519,499,505,531,464
495,497,498,525,475
485,497,496,516,501
489,504,505,509,512
499,508,512,503,538
498,515,521,501,560
508,512,527,499,560
508,512,526,498,545
510,511,529,501,543
509,508,526,501,544
518,505,524,500,542
518,503,522,506,519
505,500,518,517,515
503,499,517,523,472
506,503,515,529,464
518,503,512,532,464
550,508,509,535,451
530,502,505,531,464
514,494,491,516,481
507,504,500,513,513
500,508,508,508,534
496,515,520,503,550
515,517,526,499,568
534,514,524,498,560
527,510,527,500,558
509,510,527,503,555
497,510,529,500,556
501,506,524,503,537
525,499,518,508,501
526,500,519,518,488
526,505,516,529,465
529,507,513,532,457
531,502,507,532,458
527,500,501,529,462
513,496,499,525,473
496,492,492,514,506
506,501,502,510,516
510,509,513,509,542
496,514,520,502,560
494,513,528,502,553
507,513,528,502,544
514,511,530,499,546
507,507,525,496,553
510,506,524,499,542
514,505,526,505,524
515,500,521,514,506
519,503,519,519,479
527,502,515,526,459
525,504,514,531,462
519,506,510,533,464
519,501,505,529,467
514,497,497,523,481
502,497,496,512,500
498,501,501,505,521
504,510,514,502,547
507,517,526,500,561
511,514,527,499,554
510,510,526,498,553
511,511,528,499,550
514,510,526,498,547
514,506,526,501,538
519,502,523,507,522
518,501,519,510,503
525,503,518,528,473
530,504,516,532,459
522,510,514,536,459
508,502,510,537,453
507,499,502,530,461
501,494,497,518,490
494,498,500,513,517
500,507,508,510,538
514,512,515,500,547
511,515,524,497,558
514,512,527,496,558
515,513,529,494,559
514,512,529,497,555
512,507,529,499,542
511,503,524,501,533
514,498,520,508,517
522,502,520,519,506
529,502,517,526,460
531,504,516,532,443
523,501,511,533,451
517,500,503,533,457
514,499,505,525,467
506,496,498,516,494
498,501,500,510,520
501,510,513,504,543
508,517,525,500,569
509,515,529,495,568
511,512,530,503,548
511,509,530,505,540
508,505,527,497,547
512,509,527,501,537
508,501,524,506,519
518,502,524,511,508
524,499,520,522,490
528,502,517,535,481
524,505,517,530,462
516,504,513,531,444
500,502,507,534,454
495,495,498,518,481
497,497,500,510,512
495,500,504,507,533
511,510,514,503,544
524,517,526,497,568
516,510,527,497,568
513,508,525,497,556
518,509,523,497,525
518,509,528,501,521
515,503,526,501,534
520,501,523,504,526
521,503,519,512,496
528,503,521,524,475
529,504,518,532,460
524,503,516,533,460
518,499,509,528,464
515,500,502,526,468
505,496,499,519,486
499,499,501,511,510
501,509,511,507,539
502,512,521,504,559
507,515,529,498,567
511,512,529,501,560
511,513,528,500,555
513,508,527,498,551
512,508,527,502,545
510,505,528,504,529
517,502,524,513,505
523,505,525,522,486
525,502,521,529,466
524,502,517,536,462
520,501,512,530,460
516,501,509,530,463
513,503,507,528,470
502,497,502,516,492
499,500,505,510,521
504,511,514,505,542
508,517,527,503,556
511,516,529,501,557
510,511,529,499,554
510,513,530,500,552
511,508,533,501,548
509,506,528,501,541
512,503,526,506,522
515,500,523,512,504
522,502,522,522,480
528,503,520,529,462
527,505,516,533,458
523,503,514,531,459
515,499,508,527,468
514,500,504,524,476
501,497,503,513,501
500,503,511,509,530
503,511,518,501,548
507,516,527,500,562
510,513,530,500,554
511,510,528,500,552
514,509,529,500,549
513,509,528,499,546
513,509,528,502,536
514,505,524,507,517
519,503,527,516,497
525,503,524,523,470
530,504,521,530,460
525,502,518,533,458
521,500,511,530,459
516,500,508,528,465
503,495,505,518,487
504,499,504,511,511
500,506,513,508,537
505,513,517,501,552
509,516,528,497,558
511,512,528,501,552
510,509,529,500,548
513,510,527,499,544
515,510,530,501,538
512,503,525,502,524
519,502,526,510,507
522,503,523,516,487
528,503,522,526,466
528,505,520,534,458
523,504,517,532,460
516,503,509,528,463
515,501,508,527,469
505,496,498,514,493
502,501,507,510,522
502,509,515,505,543
506,516,524,500,561
510,515,529,500,557
512,510,530,499,551
513,511,531,503,546
511,511,531,501,544
512,506,527,505,538
515,504,527,502,519
517,502,526,513,503
523,505,521,521,480
526,504,521,528,461
525,504,520,531,457
519,504,514,529,462
518,503,512,527,467
510,498,506,519,476
501,499,507,514,504
502,508,509,508,528
503,514,519,504,547
508,519,528,501,556
512,516,530,498,551
512,512,530,499,549
512,512,530,500,547
511,515,531,499,545
509,505,527,501,534
513,504,528,510,510
520,503,525,515,494
522,503,524,526,473
523,502,519,530,460
523,503,517,533,456
520,505,514,531,463
518,500,513,527,467
505,498,503,518,490
502,502,507,512,512
502,508,514,505,533
506,515,522,501,554
509,517,527,501,560
509,512,529,499,553
508,510,525,497,545
514,513,530,501,538
510,508,530,501,537
511,506,526,502,527
515,507,526,511,519
523,505,525,518,492
526,505,522,529,468
524,503,521,533,465
521,503,516,530,458
522,503,513,528,465
513,502,508,527,470
497,495,501,515,496
501,503,510,510,520
504,510,518,503,542
508,516,525,502,553
513,513,530,500,544
510,511,529,505,550
510,511,529,499,545
510,508,530,500,539
514,507,529,501,532
513,504,528,503,518
517,501,528,512,499
522,504,527,524,480
529,503,524,530,465
523,504,522,535,465
518,503,515,531,467
514,501,513,528,475
510,500,509,522,480
500,502,505,513,506
498,506,512,509,529
501,511,522,502,543
505,517,530,500,553
511,514,530,501,549
512,512,531,504,545
511,510,531,502,540
512,509,531,499,534
511,508,530,503,528
513,504,529,507,514
517,504,529,517,496
522,504,527,524,474
525,506,527,532,466
523,510,523,534,466
518,506,516,529,470
517,505,513,527,475
504,499,507,516,491
500,502,507,510,513
504,511,516,506,535
500,513,523,501,549
502,517,528,499,550
502,513,532,502,545
501,511,531,502,544
499,512,532,501,542
502,506,530,500,536
514,506,529,504,525
523,505,530,511,510
522,506,530,521,488
527,505,525,529,471
535,507,530,532,467
534,504,522,530,467
525,501,517,527,471
516,501,514,525,475
505,499,509,514,500
502,504,515,513,523
503,509,521,506,537
510,517,530,503,551
512,514,536,502,548
513,512,533,498,547
511,510,531,498,540
511,510,533,500,536
514,509,532,502,532
513,505,532,506,513
517,504,532,513,502
522,505,530,522,480
524,505,530,528,471
527,506,528,533,469
520,503,522,530,471
517,503,517,527,478
508,503,514,522,490
501,502,512,512,511
499,507,516,509,529
501,513,524,502,544
504,517,533,501,553
509,514,535,500,548
505,512,532,500,545
509,511,535,497,538
509,509,533,500,533
508,505,537,505,527
510,504,532,509,513
513,506,530,517,496
518,504,531,523,476
517,506,531,531,472
521,506,529,534,467
522,504,524,529,471
518,503,520,526,475
506,498,512,516,496
505,502,515,512,514
501,508,519,504,535
506,515,529,502,547
510,515,534,501,544
511,513,534,502,541
508,510,532,498,540
511,510,535,500,531
511,510,535,502,532
511,504,532,503,521
516,504,533,511,512
516,506,532,520,497
520,506,532,528,482
517,507,529,532,483
512,504,530,533,484
509,504,523,528,483
507,501,519,526,486
503,499,511,515,500
499,503,513,506,522
502,510,522,504,540
503,513,529,501,545
516,512,530,498,530
521,510,532,498,522
515,511,533,501,528
513,507,532,500,531
513,506,532,502,524
516,508,533,507,512
518,503,529,511,496
522,503,530,525,479
524,505,529,531,469
527,507,527,533,468
518,503,522,529,474
513,504,517,527,477
508,499,513,519,489
506,501,510,512,510
500,505,514,505,528
504,513,523,503,542
505,512,532,502,550
508,511,533,504,545
509,511,530,499,543
512,510,533,501,543
507,513,534,502,541
510,509,529,501,534
512,505,531,509,516
516,503,527,516,493
525,505,529,527,471
523,506,528,532,467
520,504,525,535,468
519,502,516,529,473
516,502,520,528,479
506,498,508,519,497
504,502,508,509,516
503,505,517,503,532
507,513,524,502,546
512,513,530,501,547
511,511,531,504,541
509,508,531,498,539
513,510,531,500,537
512,507,530,502,533
513,504,529,505,520
513,502,526,511,502
524,504,528,521,488
525,504,528,529,472
522,504,522,531,472
520,504,518,529,472
517,503,517,529,476
511,500,514,523,482
502,499,506,513,504
501,504,511,510,524
501,507,518,503,541
505,514,524,500,550
510,513,531,498,545
514,512,530,501,542
509,510,531,500,541
509,507,530,499,537
510,506,529,498,529
513,501,530,508,518
517,504,526,514,503
521,503,525,524,484
523,502,524,531,473
525,506,522,535,468
519,503,516,530,474
513,503,512,527,477
506,501,507,521,490
502,500,511,512,510
500,507,510,505,528
504,512,520,502,545
505,518,528,501,552
508,511,527,505,548
510,507,527,499,544
512,508,528,500,539
514,507,529,501,537
510,503,523,500,528
514,502,526,510,513
519,503,526,515,493
525,503,525,526,474
523,508,522,533,469
521,502,519,532,467
517,501,512,528,472
513,500,506,525,476
503,496,503,517,497
502,502,506,510,518
502,508,508,503,535
505,514,520,502,552
508,517,526,500,555
511,512,525,504,550
507,508,523,497,548
511,510,528,500,544
510,507,525,502,539
513,505,524,504,523
514,501,520,509,504
520,503,520,518,484
523,503,518,529,469
523,500,515,531,463
520,502,511,531,462
516,498,511,529,469
511,498,503,525,474
501,499,497,513,499
503,506,506,509,525
502,509,512,502,542
507,517,521,503,559
510,511,525,500,557
512,511,527,499,552
512,506,523,499,550
510,508,525,499,542
511,506,524,501,536
510,503,521,507,518
509,504,517,513,505
516,502,519,524,484
520,500,515,531,462
521,506,517,535,458
514,500,508,530,463
511,500,503,528,461
506,496,498,524,480
504,501,499,514,504
503,505,505,503,532
505,516,514,503,554
508,516,520,501,563
510,512,523,499,556
520,510,520,499,550
521,509,523,498,545
519,509,521,501,545
515,503,521,502,532
519,504,519,509,518
521,503,517,517,491
526,502,516,527,467
528,503,513,533,459
523,504,509,535,452
517,500,501,526,454
513,501,500,527,465
500,496,490,513,482
496,499,496,509,509
500,509,505,509,535
502,514,516,499,563
507,513,522,496,576
510,511,520,498,565
516,509,521,493,563
522,513,523,498,558
516,507,523,497,551
513,505,517,505,528
515,502,515,512,508
519,502,515,521,479
523,501,513,531,450
519,500,509,536,439
519,498,501,532,433
515,500,500,528,429
517,501,502,527,435
503,496,493,516,468
498,507,500,510,512
502,513,510,503,549
507,518,520,500,588
508,514,523,500,590
506,512,524,502,585
507,510,520,498,577
504,506,523,500,575
504,504,520,502,564
509,504,519,507,539
511,499,513,513,509
533,503,514,525,468
534,504,512,531,436
527,503,509,535,425
519,499,504,531,426
514,500,501,531,426
512,496,492,523,442
506,498,496,513,478
502,506,502,506,520
505,514,512,501,560
507,518,523,501,586
509,513,524,501,584
510,510,523,499,581
510,507,523,498,581
512,509,523,500,579
513,505,521,506,560
517,504,516,508,529
522,502,517,519,497
523,499,513,528,455
522,500,509,533,436
521,502,505,533,426
511,496,495,527,426
512,499,498,525,426
506,496,492,518,454
501,501,498,510,493
502,507,505,505,533
504,516,517,501,571
508,516,527,500,588
511,513,526,501,584
510,511,524,499,584
509,512,525,499,581
513,509,524,501,576
509,503,520,508,552
514,502,516,511,521
520,501,515,522,483
524,500,509,529,447
524,503,510,532,432
518,503,502,531,428
515,500,500,528,426
510,498,497,524,434
505,498,494,516,465
503,505,500,507,507
501,509,510,506,548
505,515,521,498,583
509,512,524,503,586
511,512,528,500,585
508,508,525,498,587
509,508,524,498,583
509,502,520,501,567
512,503,519,506,541
514,500,517,514,511
521,501,515,526,470
520,504,511,531,442
520,503,509,534,431
513,499,499,529,430
509,501,500,528,428
501,495,493,523,447
500,501,496,512,477
502,505,503,506,518
504,513,515,501,557
506,516,520,498,588
506,512,524,499,590
507,510,524,498,588
511,512,525,498,587
513,509,524,498,579
517,502,521,502,556
520,502,515,507,525
523,502,517,518,492
530,501,513,528,454
526,503,511,531,435
525,500,508,534,426
516,498,499,530,427
514,499,499,524,424
505,497,491,517,455
500,500,495,509,493
504,512,507,505,537
503,514,518,498,578
508,514,523,501,591
511,513,525,500,586
508,507,522,499,588
514,507,522,498,584
513,505,520,498,574
511,501,518,504,553
514,501,516,509,525
523,500,515,522,488
524,502,513,530,452
527,505,510,532,437
520,505,505,532,427
515,500,502,528,421
510,500,495,525,425
504,499,494,515,463
501,505,499,510,506
502,512,511,503,548
506,516,520,501,583
508,517,524,502,584
512,512,526,503,585
511,510,522,498,589
511,509,525,501,580
509,506,524,502,571
511,502,519,511,539
514,502,518,515,511
521,502,514,523,468
524,503,513,532,437
523,504,509,532,425
515,499,502,530,424
512,503,499,528,429
509,500,494,521,447
503,500,496,511,485
499,506,505,508,528
502,514,515,502,568
504,517,523,499,587
508,513,523,502,579
509,509,521,500,578
509,510,522,497,578
509,509,524,499,574
510,505,519,503,558
515,503,521,514,529
526,503,516,520,491
531,503,516,529,453
527,503,510,533,435
525,504,508,535,426
515,499,500,529,428
514,500,498,529,431
503,498,494,516,458
500,502,498,511,501
503,510,506,505,538
508,517,519,502,578
506,518,523,501,588
510,514,525,503,585
506,511,524,497,586
507,513,525,500,582
508,508,527,502,575
509,504,521,504,547
512,502,518,513,519
523,502,516,521,482
527,501,512,531,443
526,504,512,534,431
524,502,503,532,429
516,501,501,529,431
512,499,497,528,443
503,498,496,515,478
501,506,501,508,518
504,515,512,504,554
509,518,523,501,587
515,515,525,500,580
516,515,527,501,578
512,510,524,497,582
512,509,524,500,575
511,506,521,503,559
514,504,516,508,529
512,500,516,516,505
520,501,515,526,458
523,502,513,532,437
524,504,511,535,433
518,501,504,532,436
513,499,499,531,442
504,495,494,518,465
498,498,496,512,501
503,508,506,506,533
506,513,516,502,568
508,520,524,501,581
513,514,526,499,575
512,512,524,499,573
509,510,525,498,570
509,512,525,501,564
509,503,521,507,547
516,504,518,509,521
516,501,517,523,490
519,500,512,527,458
521,501,508,531,442
521,499,507,534,435
514,496,502,527,441
515,501,499,528,448
501,497,495,518,479
500,503,497,509,512
501,508,508,502,546
506,515,518,505,576
511,515,522,501,579
513,513,526,500,572
509,508,522,500,572
509,508,521,499,564
510,503,520,500,555
514,506,520,504,535
515,500,516,513,508
520,501,515,523,475
528,504,512,531,450
525,506,509,534,442
519,500,503,531,443
513,500,501,529,447
509,497,497,524,458
503,500,495,514,491
500,504,501,506,525
503,512,510,502,556
507,517,520,501,578
509,514,522,500,573
513,513,524,499,565
511,508,522,498,563
511,509,527,501,560
510,504,520,502,547
516,505,519,508,523
515,501,516,517,500
520,501,514,527,467
524,504,513,531,451
524,505,511,535,445
515,499,503,531,450
512,499,500,525,455
504,496,493,518,468
501,500,499,513,502
505,510,504,506,535
503,514,515,500,563
509,517,520,500,575
513,514,523,503,567
514,512,523,501,564
508,508,523,499,560
507,507,521,503,554
506,503,515,505,536
509,501,520,512,514
515,501,514,519,487
515,499,516,530,462
513,503,510,529,451
522,503,509,534,445
526,502,501,528,448
520,499,502,531,454
509,500,494,517,479
502,503,498,509,515
504,511,509,506,545
509,516,519,501,579
514,516,522,499,574
517,515,525,500,560
511,511,523,498,561
514,509,523,499,555
509,506,524,501,550
508,503,519,505,528
507,500,517,513,508
514,502,515,523,477
522,501,513,531,459
521,506,510,535,450
514,500,504,533,450
516,498,500,527,453
521,500,496,521,466
511,499,494,513,495
506,505,502,509,526
506,510,507,500,553
509,517,517,498,572
515,514,518,498,565
518,513,522,500,559
508,508,520,497,559
508,509,525,499,554
505,505,522,504,543
510,506,519,508,522
510,501,515,514,500
516,503,515,527,473
517,503,512,531,459
537,506,510,532,448
532,500,501,529,451
524,501,499,531,453
508,496,492,519,478
504,502,494,509,507
500,505,505,504,538
503,515,515,501,562
512,517,523,500,575
509,513,524,501,559
513,511,522,498,552
512,508,523,497,547
519,510,522,500,544
513,504,519,507,534
517,504,517,511,507
519,502,513,518,482
525,500,514,529,458
525,504,511,532,450
524,503,510,535,448
514,496,498,527,453
513,501,499,527,461
502,498,492,514,486
500,504,498,512,519
501,509,508,504,545
506,517,519,499,567
509,515,522,502,568
512,514,526,500,557
509,510,523,499,555
510,510,523,497,554
510,507,526,503,546
513,505,518,503,524
515,502,518,517,505
520,502,516,525,475
523,504,515,531,460
523,504,514,535,454
517,501,505,534,452
512,499,499,528,457
508,497,497,524,470
499,499,495,514,498
498,503,499,505,528
502,513,515,503,553
507,519,523,501,574
511,514,524,500,567
512,514,525,502,560
506,508,522,500,560
509,508,522,498,553
510,503,521,501,541
512,502,519,508,523
518,503,519,517,493
520,501,516,531,465
522,501,512,532,453
522,504,508,533,449
516,499,503,529,455
513,500,501,528,462
504,497,495,518,483
501,501,497,511,507
501,507,509,506,538
502,512,513,500,565
504,512,522,500,570
509,513,524,501,555
509,510,525,500,555
508,506,522,498,556
511,508,523,502,548
508,500,519,504,533
514,501,518,513,510
518,501,516,520,482
525,500,515,530,456
522,502,510,532,451
523,504,510,532,447
511,495,499,528,455
510,498,500,528,462
498,496,496,513,493
498,503,501,509,520
500,508,507,505,548
505,512,519,497,569
509,514,521,501,563
512,512,524,500,558
510,508,522,498,560
510,509,524,500,556
508,505,521,505,548
512,503,520,506,528
512,499,516,514,504
524,501,515,525,475
524,503,511,531,452
526,505,513,536,444
520,501,504,533,447
511,497,500,526,456
506,496,497,523,467
499,498,496,514,496
501,504,502,507,530
503,511,513,503,556
506,520,522,500,575
511,512,524,500,569
514,513,525,501,560
508,505,522,498,562
510,507,524,499,554
510,504,522,502,540
514,503,523,512,519
518,503,517,518,494
522,503,515,528,463
524,503,515,534,450
521,505,509,534,443
515,499,503,530,451
511,499,501,528,456
502,496,494,518,475
498,500,497,511,509
500,507,503,506,542
504,512,514,501,565
508,515,521,499,570
512,511,523,500,561
512,510,524,499,556
509,507,521,497,559
511,509,524,500,551
512,504,520,503,532
515,501,517,509,510
520,502,516,520,482
523,501,517,531,458
521,499,508,532,450
523,504,510,532,442
514,500,500,529,454
511,498,499,530,458
503,497,493,515,487
501,503,499,508,518
504,508,509,504,548
505,515,519,503,572
509,512,522,500,569
509,512,523,499,564
502,508,523,497,564
503,506,522,498,558
504,505,523,502,546
510,503,517,502,524
515,501,520,514,502
520,500,516,521,470
527,500,512,531,452
532,504,514,534,445
525,503,506,532,449
513,500,497,526,456
509,498,496,519,468
499,499,497,512,502
496,504,503,506,531
497,511,513,503,559
505,516,522,500,576
517,512,523,500,571
516,514,528,500,564
510,507,522,494,564
511,511,523,500,556
513,504,520,502,540
517,502,518,508,513
517,499,516,518,489
522,500,513,528,459
520,502,510,534,452
525,505,510,535,442
523,505,503,531,446
519,499,500,526,451
510,496,493,518,475
504,503,499,509,506
505,507,506,506,540
504,513,516,502,567
509,515,522,501,574
512,511,527,502,566
511,511,523,501,562
505,504,521,495,565
507,506,521,500,553
518,508,520,504,534
519,501,518,512,510
527,504,516,522,481
526,502,514,530,453
525,502,508,533,449
522,502,505,532,444
514,498,497,528,453
515,503,500,527,460
501,497,494,516,487
497,503,498,507,523
503,511,510,503,550
506,517,520,499,572
513,514,523,500,570
514,513,524,501,563
510,510,523,498,563
508,507,522,500,559
509,504,520,500,545
514,504,520,506,523
516,502,517,514,499
521,501,516,525,472
524,500,514,532,455
523,504,513,534,448
516,500,505,532,448
510,498,499,528,455
504,496,495,523,470
499,499,495,514,499
496,505,502,508,537
502,512,513,498,567
510,519,521,501,572
510,510,522,499,565
512,513,524,501,560
509,508,522,497,560
511,508,523,500,552
510,504,517,501,538
514,502,519,511,516
518,501,517,518,491
524,502,514,529,463
523,506,512,534,451
523,504,513,535,448
515,500,503,527,453
512,500,500,529,461
500,496,490,516,484
499,502,501,514,515
500,507,507,505,539
504,516,516,503,568
504,518,522,501,574
508,513,521,503,567
507,510,523,500,563
508,507,519,497,557
513,506,522,501,551
510,505,522,505,534
520,503,516,511,509
522,502,515,527,479
521,500,514,529,454
521,502,510,533,451
520,504,509,535,446
510,498,502,531,456
510,500,498,526,458
501,498,493,517,490
501,504,501,509,523
502,510,508,504,549
506,517,517,501,569
510,514,522,499,565
513,511,524,501,560
510,510,522,503,560
510,508,522,504,555
511,505,520,503,539
512,503,520,508,522
516,500,515,515,497
522,503,516,525,472
523,502,513,531,455
525,502,510,535,450
519,501,503,531,450
515,501,498,526,460
509,500,493,521,473
504,502,495,513,501
498,508,501,505,531
501,516,512,502,556
508,517,524,500,572
510,513,522,503,564
512,513,525,500,558
509,508,520,499,560
509,506,521,499,552
512,504,520,500,539
512,501,517,509,515
520,503,518,517,490
523,501,515,527,463
522,501,512,532,454
521,500,508,533,448
515,499,500,526,453
511,499,499,526,461
501,497,495,518,487
499,502,497,509,518
497,509,506,506,547
496,514,517,498,574
498,515,520,504,577
498,513,523,503,565
498,510,522,497,560
498,505,519,497,556
506,506,520,498,545
516,504,519,504,531
526,499,518,510,505
532,499,516,521,478
534,503,515,529,454
527,504,513,534,448
527,504,507,532,445
520,499,499,528,452
514,497,497,525,460
503,498,499,515,490
501,504,503,506,523
505,513,508,502,550
516,519,521,501,573
515,515,524,504,572
517,515,526,502,562
517,512,523,501,563
513,512,522,499,562
512,506,521,501,550
514,504,519,508,525
520,504,516,516,501
521,501,513,524,471
524,503,513,530,452
523,505,509,537,446
520,501,505,532,443
514,500,498,526,457
506,495,490,517,471
503,502,497,513,499
501,507,505,504,529
502,514,514,503,552
507,517,522,502,572
511,511,524,498,569
511,512,524,500,566
509,510,522,498,568
509,508,527,500,561
509,503,520,500,547
515,502,518,510,512
518,503,518,519,487
520,501,517,527,461
519,505,510,533,447
531,506,509,535,438
519,501,501,529,447
513,500,499,525,453
504,501,493,518,481
497,501,497,510,512
501,514,508,506,543
508,520,518,502,564
512,518,524,503,572
514,515,523,500,565
514,511,524,500,564
508,507,520,497,565
511,509,524,501,553
512,504,518,505,533
514,502,517,513,505
521,502,517,523,479
519,502,515,531,454
521,502,511,535,445
520,502,507,533,443
512,496,498,527,450
510,499,498,524,457
499,501,498,516,489
500,506,501,508,523
500,514,511,505,553
504,517,521,501,574
510,514,525,499,573
512,510,524,501,566
510,510,522,498,566
510,506,522,499,562
509,504,521,501,548
515,503,518,507,525
515,500,517,513,502
521,502,516,525,466
522,501,512,533,449
524,506,510,535,443
519,502,505,535,445
510,498,497,527,454
503,496,494,516,468
499,500,495,512,500
498,505,504,507,534
504,514,513,501,563
506,519,522,499,579
507,515,523,500,571
511,510,525,500,564
509,508,522,497,564
512,509,523,500,556
513,504,519,503,541
514,501,518,508,513
518,502,518,520,488
522,500,515,526,458
520,501,511,533,449
520,502,509,532,445
513,498,500,528,447
512,498,498,527,455
502,497,493,518,481
499,503,502,510,512
499,508,507,507,543
503,514,518,502,574
507,514,523,500,576
513,513,524,504,567
513,511,526,502,563
508,505,521,497,563
510,506,520,499,551
514,504,520,505,531
520,501,515,511,506
522,501,516,522,473
526,502,514,531,452
524,503,509,533,446
522,504,507,532,445
508,497,499,529,455
506,500,499,526,458
498,499,497,517,493
499,506,501,509,524
501,511,512,507,553
503,517,521,502,578
508,514,523,504,575
511,510,527,502,568
510,507,522,500,567
508,506,519,499,559
511,503,520,503,540
515,502,518,507,520
514,499,515,515,492
522,501,513,526,462
526,501,511,533,445
528,503,510,531,437
520,501,504,532,442
509,498,498,526,454
502,492,491,517,470
499,501,498,513,501
499,507,505,507,533
502,514,514,500,564
505,520,523,500,579
505,512,524,501,569
506,512,526,500,564
502,507,522,497,563
507,510,522,499,554
506,506,520,503,537
513,502,518,507,509
523,505,518,521,483
528,500,514,530,455
528,504,511,534,446
522,504,509,536,442
519,499,505,531,452
512,498,496,525,460
503,497,493,515,485
502,502,497,507,518
503,509,506,505,549
505,515,518,500,571
508,514,522,498,575
514,513,525,499,562
516,512,525,501,561
515,508,519,496,561
519,507,522,500,552
517,505,521,505,534
516,501,517,513,511
522,503,513,521,479
523,501,513,529,455
522,504,510,533,446
519,502,506,531,441
511,498,498,529,449
510,500,498,524,457
501,497,493,512,490
505,505,503,508,524
505,513,514,503,555
513,518,522,501,573
516,515,522,499,565
518,512,528,500,559
514,507,523,498,563
509,506,524,498,557
512,504,522,502,539
513,502,519,505,519
518,500,516,515,498
524,499,512,525,464
538,504,512,534,447
530,508,510,535,442
523,499,505,532,445
510,496,496,526,456
502,495,493,517,470
501,504,501,514,502
500,507,503,503,534
503,514,515,503,560
505,514,521,500,577
508,512,524,499,571
517,512,526,501,564
508,511,521,498,567
510,508,526,501,557
509,502,518,502,539
515,502,518,510,513
517,499,515,519,486
522,500,513,525,455
521,501,510,532,447
519,505,507,534,444
516,499,501,530,449
509,497,497,525,459
500,496,493,517,481
497,499,498,509,517
501,509,505,507,545
504,515,518,502,568
507,514,522,501,572
510,513,523,498,565
510,511,526,498,563
506,507,520,494,562
508,505,522,501,551
512,504,523,506,532
514,501,516,513,505
522,501,514,524,477
522,499,512,531,455
521,504,508,533,447
519,500,502,531,445
512,497,498,528,452
508,497,497,524,463
501,498,494,515,492
498,502,499,507,526
502,511,510,503,553
506,516,521,499,574
509,513,520,501,570
512,512,521,499,566
511,508,522,499,568
506,507,519,497,563
509,505,520,503,547
514,504,519,507,525
518,499,515,516,496
522,502,514,527,465
524,503,512,532,449
524,504,513,535,442
517,501,504,532,443
509,499,501,526,454
503,496,491,516,469
500,501,495,513,502
500,507,504,506,535
505,515,514,500,564
509,514,522,500,578
511,513,522,500,570
514,512,521,498,564
510,507,519,495,565
510,508,520,499,555
512,504,520,501,537
514,501,517,509,511
522,502,517,521,481
524,501,511,533,455
520,501,509,532,449
520,502,508,533,443
515,500,499,527,446
509,498,496,525,453
501,497,494,518,482
500,504,498,507,515
500,509,508,505,546
504,514,517,500,577
507,515,522,499,582
510,512,525,501,574
509,509,524,497,573
505,506,520,497,574
506,508,520,499,559
509,503,520,507,537
513,502,521,514,510
519,501,513,520,474
524,501,511,530,444
523,502,506,532,435
522,501,506,531,432
514,497,498,526,439
510,497,492,522,454
503,497,493,515,486
502,508,502,508,522
502,512,510,503,554
505,515,521,500,584
511,513,526,498,581
512,515,525,501,574
512,511,524,498,570
511,507,522,496,574
512,506,521,501,554
512,503,518,506,525
513,501,517,516,501
520,500,514,526,465
518,501,512,536,443
522,505,514,537,436
520,502,505,531,437
511,497,497,526,439
503,496,490,518,456
497,501,497,511,495
496,507,505,505,531
504,515,516,504,565
509,517,526,499,583
512,514,524,500,576
511,511,524,500,577
509,507,522,498,576
519,508,522,499,567
518,505,523,503,547
515,501,518,508,520
521,505,517,521,485
521,502,514,528,453
519,500,511,533,439
514,502,505,537,433
509,499,499,527,434
514,499,498,525,439
504,498,495,518,474
502,504,500,508,510
507,511,506,503,546
510,514,517,499,581
511,510,520,498,586
512,511,522,500,575
512,509,521,497,574
525,507,518,495,573
525,506,523,499,554
523,504,518,505,532
520,500,517,513,507
524,502,516,520,471
526,502,514,532,442
525,501,509,533,433
524,503,510,534,426
516,499,502,529,433
507,495,494,525,447
501,499,496,513,482
500,505,503,510,523
503,513,512,504,558
505,516,520,499,588
510,514,525,501,585
510,512,526,500,580
510,511,522,498,581
508,506,521,498,578
510,501,521,501,555
515,503,522,512,525
519,502,516,519,491
524,501,514,527,450
524,502,510,528,435
521,503,509,534,432
515,500,503,535,433
508,498,497,525,440
501,496,493,519,462
500,502,501,515,499
500,508,506,507,533
504,515,516,503,571
508,516,523,501,583
509,514,524,501,574
511,513,524,502,573
508,508,521,497,573
508,506,518,498,565
509,504,520,502,542
514,506,518,512,516
522,500,515,521,482
522,500,510,527,454
521,500,509,533,438
520,502,506,535,432
513,500,498,528,437
507,496,496,525,446
500,500,496,518,479
500,507,500,509,518
500,511,509,502,553
504,516,520,503,582
508,514,524,501,583
511,513,526,502,576
509,509,524,501,574
508,504,519,498,569
509,505,521,499,557
511,503,521,507,534
516,501,517,514,504
518,501,515,524,474
524,503,515,533,448
522,503,511,535,439
521,499,504,533,434
512,499,498,525,443
506,497,493,524,458
500,499,495,511,489
499,505,503,509,528
504,514,512,503,557
508,516,519,498,582
513,511,522,500,573
512,513,524,499,572
509,510,524,497,572
504,506,521,497,567
507,506,522,505,551
511,504,518,506,523
515,502,519,519,498
519,501,511,526,461
521,502,512,531,445
524,504,509,536,434
517,504,504,532,438
510,496,496,527,445
504,496,492,518,468
502,501,495,514,500
501,507,506,505,540
504,510,514,502,568
507,514,523,498,583
510,511,525,501,576
510,510,525,500,574
508,506,521,498,569
511,506,520,497,560
514,504,522,504,540
513,504,517,511,513
520,502,516,520,481
526,501,513,530,453
521,501,510,534,441
520,502,509,535,436
513,499,502,532,440
508,497,496,527,448
501,498,495,516,481
498,502,500,507,517
502,515,510,504,549
505,518,520,501,577
508,515,523,499,580
513,514,526,501,574
511,512,525,499,571
507,508,520,498,574
506,503,520,499,557
517,504,520,506,531
520,502,520,514,501
522,500,516,521,467
526,502,512,528,441
523,503,511,532,434
517,502,504,532,438
510,499,499,528,446
498,494,492,520,465
495,500,496,512,498
494,506,503,507,530
499,511,513,502,560
504,517,521,498,581
516,513,522,499,572
519,512,524,497,569
512,507,524,499,570
519,505,519,498,561
520,505,519,501,546
518,502,520,509,523
519,501,516,517,492
524,501,515,531,458
526,500,511,533,440
522,506,509,535,433
516,501,503,531,432
509,496,497,532,443
498,494,491,519,466
494,499,497,513,506
510,510,505,505,540
510,515,517,503,575
512,514,522,499,585
520,513,525,499,574
515,512,525,497,567
509,509,522,499,569
510,507,522,499,563
514,507,520,505,542
510,501,517,510,518
518,502,520,521,486
524,501,512,530,451
521,503,507,531,441
525,504,507,535,436
523,504,501,531,431
520,498,496,525,441
506,497,493,516,478
507,504,501,510,512
505,512,508,504,549
510,516,516,499,578
511,512,522,497,584
514,513,521,504,576
514,511,526,501,573
510,507,525,498,573
510,504,521,500,557
513,504,520,507,530
514,501,517,518,504
519,501,514,524,468
522,502,512,529,442
525,501,510,536,435
516,500,505,533,436
510,497,499,529,443
503,496,492,519,457
498,500,497,514,495
499,503,506,507,529
501,513,514,501,562
507,518,521,498,582
510,514,522,499,577
513,512,522,499,574
510,512,522,498,572
507,507,521,497,570
510,505,519,503,553
512,501,519,509,525
518,501,517,520,490
523,502,515,527,457
522,503,512,534,442
522,505,510,538,428
516,500,504,532,437
513,495,496,527,443
503,497,492,518,470
499,500,496,508,505
503,510,507,504,542
504,515,520,500,576
507,516,527,500,584
507,511,524,501,576
509,513,523,500,572
509,509,522,498,568
508,507,520,498,561
510,503,520,503,541
516,502,520,512,512
519,500,515,522,479
525,500,511,529,450
523,502,509,533,444
519,506,506,535,439
515,500,502,529,443
506,495,493,524,457
501,498,494,516,485
498,503,500,507,520
504,513,508,504,555
504,516,523,501,583
508,514,526,500,583
509,512,523,502,577
509,510,523,505,572
509,503,518,496,564
511,504,519,498,548
514,507,519,508,525
517,501,516,514,500
523,501,514,527,464
523,506,511,534,445
524,504,508,536,442
517,499,502,532,444
513,500,497,527,446
505,496,491,523,466
496,499,496,511,495
498,506,502,507,533
500,511,510,500,562
505,515,520,498,583
507,508,519,498,577
510,512,521,497,571
509,508,522,499,570
512,507,520,497,568
513,505,518,500,552
513,504,515,507,523
520,503,516,516,492
524,500,513,528,460
523,504,511,534,443
523,505,509,535,435
515,501,501,531,439
512,502,495,526,449
499,495,491,515,473
500,503,498,511,506
498,506,505,504,543
500,514,515,500,575
504,514,523,504,584
509,513,527,501,576
519,512,525,501,571
515,509,522,499,564
512,506,524,499,558
515,502,515,502,535
520,502,517,512,510
523,500,514,522,477
528,498,510,530,449
524,500,507,534,438
521,501,505,534,433
514,501,498,530,438
508,497,495,523,452
502,500,497,516,484
499,505,500,508,521
498,509,511,503,558
501,518,520,500,583
510,516,524,498,579
513,514,524,498,573
514,512,524,499,571
517,509,523,497,570
516,506,521,502,554
514,505,517,507,530
518,503,516,515,503
523,501,514,526,470
524,503,515,533,446
524,508,511,535,436
522,503,504,535,439
514,501,500,529,446
505,495,495,522,468
502,500,495,514,496
501,506,506,506,533
506,510,512,501,560
511,516,523,500,578
511,512,523,501,576
510,511,526,501,576
507,509,524,501,574
505,507,521,500,565
509,505,518,505,542
515,502,516,511,517
518,502,517,516,486
524,505,513,529,456
523,502,511,533,445
523,504,508,535,437
515,501,501,531,442
507,497,498,528,451
498,497,490,515,477
495,501,496,510,514
495,508,507,503,547
503,516,517,502,569
517,516,521,499,576
515,511,527,499,572
513,512,523,498,567
513,509,522,500,563
515,506,521,499,556
512,503,521,506,535
515,501,517,513,504
520,501,517,524,476
525,501,515,532,450
524,501,510,537,444
522,501,506,536,443
516,501,499,526,446
507,499,496,524,459
498,498,494,510,486
497,503,500,505,526
502,511,509,503,554
505,517,517,500,578
508,514,523,502,576
511,513,525,500,573
516,513,525,501,564
512,507,524,499,563
512,505,520,502,549
518,502,520,508,523
521,504,515,515,498
522,501,515,526,469
524,502,510,532,453
525,504,512,533,444
520,503,503,532,444
513,498,503,530,453
504,496,492,516,470
498,498,496,512,503
503,508,506,504,534
501,512,514,502,566
510,514,522,500,575
509,511,523,499,575
510,512,525,499,570
508,509,524,500,567
507,506,520,497,561
510,504,520,503,543
514,498,517,510,517
522,502,517,516,487
524,500,518,529,459
522,500,511,532,451
522,503,507,531,441
516,499,502,530,448
508,496,498,526,459
498,496,493,512,481
495,501,499,514,519
499,509,508,504,545
509,516,519,500,567
510,513,522,499,573
511,515,523,500,566
511,507,523,499,562
510,506,522,498,560
510,506,517,497,550
517,503,520,505,529
516,502,517,512,504
521,503,517,522,478
522,503,513,531,458
522,504,512,535,451
519,503,507,533,448
513,500,499,526,453
507,497,494,522,465
500,496,493,515,489
500,509,502,509,524
501,511,510,501,555
506,514,522,499,576
509,514,524,498,569
512,512,522,498,562
515,511,523,500,561
510,507,522,496,557
507,502,520,500,548
510,503,517,507,522
512,500,515,515,495
519,501,515,527,463
525,501,512,533,451
519,503,511,536,448
512,500,504,532,452
512,500,501,529,457
508,501,494,520,475
501,501,497,512,506
498,505,503,506,539
502,514,514,503,566
507,517,522,499,577
509,513,521,497,568
513,512,524,498,556
511,509,522,500,550
514,507,522,498,548
516,504,519,503,534
517,502,518,511,509
523,506,516,520,487
523,499,513,529,461
523,504,509,532,453
522,506,507,533,446
518,501,503,530,449
513,500,500,527,460
501,496,494,514,484
500,502,499,510,518
496,507,510,503,544
504,516,518,502,566
507,513,521,498,571
509,511,522,500,562
510,510,522,498,560
510,509,520,498,555
509,507,518,499,550
507,502,520,505,531
511,501,517,511,507
513,499,515,521,484
518,502,513,528,457
515,502,510,534,451
519,504,506,533,451
513,502,505,531,457
510,496,498,522,462
509,499,497,516,492
505,504,502,507,524
503,511,514,505,553
505,517,520,501,575
507,512,523,503,568
509,511,526,504,561
509,509,524,499,558
508,505,521,501,555
509,504,519,499,543
519,504,523,509,526
522,500,516,514,506
526,501,515,526,473
525,502,511,532,462
526,502,511,536,456
518,501,506,532,446
514,497,499,526,451
502,494,492,517,478
498,500,496,510,504
502,507,506,506,536
504,512,515,499,563
513,514,522,502,564
514,511,522,500,556
516,513,525,501,551
512,513,524,501,549
510,507,522,498,551
512,504,520,503,534
519,504,521,512,510
523,503,517,521,479
525,502,513,529,455
527,504,513,533,447
527,503,509,535,446
515,499,502,530,453
512,498,499,522,459
503,497,495,515,487
501,503,501,509,517
502,511,506,503,546
505,516,514,499,568
505,512,523,497,568
508,512,523,499,558
508,512,520,498,557
508,510,522,496,551
511,507,521,500,541
510,504,521,505,528
518,501,517,512,505
521,501,515,522,479
516,498,511,526,467
516,502,510,534,462
514,501,508,534,455
507,499,501,526,458
504,497,494,520,466
503,499,494,512,489
505,504,503,508,520
509,517,512,504,548
514,518,521,500,569
514,515,523,500,562
516,514,526,503,553
515,512,524,495,555
516,509,522,499,547
514,507,519,501,535
519,505,521,509,516
518,502,517,516,497
523,501,515,526,471
526,503,512,531,456
524,504,513,535,448
515,501,507,533,453
507,499,499,527,459
500,496,495,519,480
497,500,497,510,507
496,508,507,507,538
498,513,518,506,563
499,519,523,500,576
506,515,524,500,570
513,515,527,501,563
501,511,526,498,563
493,505,521,496,562
500,504,520,503,535
502,501,520,515,513
504,500,516,519,488
514,498,515,529,459
522,505,512,533,450
518,499,514,535,449
513,495,502,529,454
512,499,499,525,462
492,495,494,515,490
488,501,500,508,524
493,508,507,502,550
522,515,517,499,568
537,518,522,500,567
534,514,523,499,555
529,509,523,498,547
528,509,527,500,543
523,504,522,501,541
523,502,516,503,526
525,503,518,512,509
526,501,516,519,485
526,500,512,529,460
525,504,509,531,451
521,502,506,535,447
517,500,505,529,459
510,493,491,523,475
507,498,495,512,501
506,506,503,505,523
510,515,514,502,551
508,521,523,502,569
511,514,525,502,564
508,514,530,503,559
505,509,525,503,560
507,502,521,498,559
507,505,520,501,546
506,497,518,507,519
517,498,516,515,489
522,497,512,523,469
519,501,511,532,461
515,505,511,531,461
505,498,501,528,459
506,505,503,527,471
501,497,495,516,497
500,503,497,510,521
498,511,508,503,546
504,515,520,505,567
511,517,524,500,571
513,514,525,497,552
511,512,523,499,538
513,512,525,499,541
519,508,523,501,533
518,504,517,503,513
517,502,518,511,497
521,502,516,518,477
527,502,513,526,466
522,501,507,531,470
509,500,510,533,468
501,498,499,527,439
494,497,498,525,438
472,495,493,515,484
463,498,497,508,510
470,506,506,507,533
482,511,515,498,557
503,513,519,497,569
537,514,527,500,564
542,514,526,503,547
549,511,523,500,539
537,507,520,502,536
522,501,517,506,522
527,502,517,517,502
531,505,517,525,479
534,506,514,533,459
528,505,509,538,456
526,505,507,533,456
514,500,502,528,462
512,496,494,520,466
511,495,494,510,488
507,504,502,507,525
505,510,512,500,551
503,516,521,496,572
505,513,522,496,571
509,512,523,499,568
506,509,522,495,566
509,509,522,499,561
508,503,521,503,553
521,501,517,506,525
535,501,512,514,496
545,502,513,525,461
541,503,511,530,449
534,505,506,533,448
523,502,502,530,450
516,500,499,528,452
500,497,494,520,473
491,500,498,511,496
493,509,505,506,527
492,511,512,500,566
506,514,521,499,576
512,509,521,500,563
509,510,520,499,560
510,507,517,495,556
513,506,519,499,547
511,503,516,502,532
510,503,515,510,513
508,502,511,518,489
508,501,513,530,468
512,504,510,532,461
522,505,507,535,452
518,501,500,528,457
522,502,500,525,463
506,497,491,514,492
494,497,493,504,516
498,510,505,504,541
508,514,517,503,557
511,515,524,501,555
523,510,518,503,557
518,509,520,500,561
513,508,520,498,565
504,503,517,500,559
502,499,515,505,526
493,496,512,513,498
510,501,507,525,459
521,504,509,533,434
507,502,506,536,443
484,503,503,534,466
486,501,500,531,462
479,495,491,521,477
468,497,490,511,492
479,507,498,509,502
501,515,508,505,533
514,522,522,505,573
499,514,521,500,583
496,513,520,500,589
510,512,522,501,604
543,505,514,495,590
533,499,510,498,560
532,500,510,501,540
553,500,509,514,496
566,502,508,526,449
567,502,503,534,431
559,501,500,533,424
544,495,492,526,423
519,492,487,522,423
508,495,486,520,436
500,500,494,511,475
493,510,508,509,539
494,518,516,506,585
501,518,521,504,583
507,515,521,509,579
496,509,520,501,573
500,507,517,498,571
501,506,518,502,570
493,500,513,502,547
501,493,504,505,526
526,496,503,517,494
551,498,502,529,450
564,500,498,531,431
542,501,495,536,412
534,499,489,531,409
533,499,490,528,425
508,494,481,513,464
497,496,488,507,497
500,503,502,504,531
504,519,515,503,570
522,518,520,505,578
523,515,522,505,591
519,515,521,502,590
516,508,517,500,578
510,502,513,498,553
518,501,513,511,527
529,501,509,517,489
521,501,504,524,462
527,499,500,535,445
529,504,499,534,433
523,502,493,534,432
512,498,489,532,436
496,493,480,520,449
492,499,486,512,491
498,506,493,507,527
510,516,509,501,561
516,518,519,501,603
512,517,521,499,624
502,521,523,500,619
494,516,522,499,603
498,511,521,502,579
506,500,511,501,547
498,490,504,506,527
517,497,506,521,443
533,499,503,530,409
524,499,498,534,413
512,501,495,535,403
506,497,490,533,405
503,498,483,529,415
508,493,479,516,460
512,498,485,511,501
514,508,498,504,535
513,518,512,502,589
508,516,518,496,636
498,518,523,504,628
491,514,523,499,614
500,508,519,498,599
506,509,521,499,575
511,504,517,507,533
519,500,508,510,506
518,501,507,524,470
520,496,497,531,427
521,496,491,531,444
522,497,487,532,443
515,498,483,532,413
523,505,484,532,405
518,506,481,518,461
500,503,488,508,510
488,507,500,499,572
500,514,515,496,588
497,507,518,493,595
500,505,523,500,571
499,513,525,507,577
500,516,528,505,611
499,507,517,499,627
499,510,518,506,574
498,506,510,510,536
534,509,505,528,463
535,504,496,534,437
544,497,482,533,413
561,492,470,526,419
540,487,462,521,412
491,488,460,520,396
484,494,472,519,440
506,503,487,512,500
506,511,503,502,543
500,515,522,500,602
489,511,527,503,618
486,517,535,504,614
484,513,534,503,610
483,513,534,502,597
479,505,526,501,555
487,498,513,503,536
525,499,508,521,470
536,493,490,526,403
535,497,488,536,375
529,498,484,535,360
508,495,473,533,388
501,493,466,522,445
506,489,461,511,482
525,494,475,507,510
533,505,497,509,532
531,520,514,501,593
530,517,522,497,636
525,506,524,504,607
501,513,532,507,597
465,510,530,505,594
466,511,532,505,655
492,512,529,509,590
499,499,511,510,528
530,505,505,518,463
533,494,491,525,433
500,493,485,531,425
533,503,483,542,356
562,503,480,530,421
548,506,474,522,429
522,503,474,516,442
500,504,489,506,523
492,506,499,496,584
517,521,526,501,589
525,521,538,505,601
527,516,533,498,616
530,504,528,495,576
519,498,521,489,548
532,498,522,500,527
487,497,520,510,552
484,507,522,525,496
482,513,517,532,489
481,496,496,530,461
488,496,486,534,399
515,486,473,535,357
528,494,472,529,375
499,489,465,517,429
499,489,464,498,486
512,500,487,504,534
524,510,507,502,544
529,521,528,505,586
477,513,528,506,638
441,518,539,513,661
435,506,530,502,665
458,500,525,492,639
511,496,523,496,495
571,509,523,512,474
560,508,519,518,493
575,505,500,526,451
547,496,485,533,434
525,487,475,536,418
493,490,471,531,419
489,501,479,539,377
482,499,471,529,402
490,503,483,508,504
508,511,498,498,594
499,526,522,498,626
525,523,529,500,609
507,506,525,502,589
510,494,526,501,502
506,498,527,499,514
475,508,527,493,589
495,506,521,495,609
536,499,509,503,639
606,504,500,515,594
581,496,489,527,473
533,502,487,524,453
472,496,484,541,364
444,498,482,538,387
458,495,470,528,428
474,479,460,509,437
512,487,471,500,430
577,513,499,504,499
528,518,522,503,611
508,520,535,515,564
508,516,533,503,628
491,513,532,504,615
462,506,524,488,609
461,508,527,503,530
450,515,529,521,520
436,492,505,518,483
463,491,495,525,461
556,500,484,520,469
560,505,481,520,497
507,498,475,527,487
435,475,461,522,427
485,487,465,527,353
502,502,476,520,436
510,513,489,518,510
449,506,509,511,550
423,509,523,510,533
452,502,524,505,564
479,519,534,498,641
446,519,537,496,618
404,501,525,500,638
452,497,515,490,608
450,484,501,495,529
400,462,477,498,467
527,483,475,513,406
513,497,489,537,396
529,503,484,535,378
548,510,481,538,447
576,522,487,545,452
525,517,487,540,500
482,513,491,517,536
456,498,485,491,600
427,506,500,489,595
380,505,518,495,586
334,493,522,498,656
524,513,533,505,637
617,523,531,501,678
602,524,534,512,544
532,489,511,502,410
481,485,499,505,437
570,499,501,519,407
640,520,503,538,376
577,506,491,540,378
464,480,471,529,437
461,485,469,527,479
481,498,477,522,495
494,497,472,512,488
520,507,489,511,480
543,520,503,498,548
537,518,517,493,588
596,516,521,494,581
589,511,523,497,554
559,521,530,503,583
564,525,535,514,634
576,524,539,535,605
519,487,518,522,536
479,474,496,515,352
567,497,496,510,487
561,510,492,519,486
546,507,491,529,486
463,493,478,534,515
467,482,469,536,427
512,493,467,499,431
506,501,475,503,453
509,512,495,508,494
486,524,516,506,511
517,525,526,502,493
531,509,518,494,576
559,513,528,500,671
555,520,531,502,614
538,503,525,501,529
512,495,512,497,510
533,498,508,507,470
531,501,507,522,492
535,497,501,534,463
523,502,497,535,538
510,508,490,539,503
512,517,486,538,468
545,508,473,529,438
536,475,449,502,465
563,495,473,500,511
516,505,491,499,566
496,514,513,501,612
485,509,518,512,613
474,508,522,512,628
476,508,525,506,579
493,507,525,495,507
508,510,525,497,486
526,512,524,507,522
529,516,519,522,537
500,514,514,538,546
498,505,503,557,457
422,495,486,551,391
494,499,477,531,398
616,497,463,506,385
561,474,450,498,504
465,480,461,509,507
508,505,488,518,548
499,509,499,497,582
498,513,514,495,431
432,511,522,499,469
340,498,519,501,574
361,502,526,507,595
402,504,521,504,609
565,516,529,515,518
644,512,515,509,480
604,503,512,508,498
566,496,497,520,467
479,497,492,527,483
433,499,488,533,495
473,503,481,533,463
543,509,472,533,423
600,499,459,517,502
554,498,468,513,549
438,493,480,496,609
325,491,498,492,565
396,505,519,497,491
546,511,524,505,509
563,512,528,504,537
493,505,531,513,522
471,505,526,504,590
454,498,519,497,561
566,501,512,508,476
608,499,505,519,473
575,503,500,528,453
535,506,493,549,450
498,505,490,547,473
511,516,490,534,494
453,487,473,519,536
480,475,461,497,552
517,489,472,498,530
569,507,492,499,511
576,525,518,507,466
541,517,523,500,556
467,501,520,492,615
491,504,519,492,586
479,509,527,506,601
459,507,523,508,536
513,505,521,519,439
542,501,511,513,444
598,496,497,517,451
580,506,501,526,476
567,510,495,533,474
562,499,479,523,433
558,494,479,520,457
515,498,484,526,476
524,504,491,521,501
498,509,492,513,569
491,521,512,504,591
481,509,517,498,632
518,500,516,489,581
556,503,515,498,483
519,508,520,503,549
511,513,527,506,535
499,510,527,516,498
503,500,513,503,482
544,498,504,508,450
557,503,506,533,393
544,503,499,534,463
536,501,496,537,413
557,496,488,530,480
546,494,479,522,482
507,489,467,504,520
470,498,480,507,532
471,493,490,499,551
494,515,517,504,546
488,519,528,506,558
471,514,527,504,559
513,512,524,503,530
545,517,523,497,524
541,512,521,501,527
498,498,516,509,547
500,503,518,523,490
501,499,509,523,495
528,509,507,529,521
521,513,508,539,475
532,507,501,542,398
522,491,481,526,422
529,487,471,520,467
456,483,478,518,586
449,492,488,512,511
481,501,498,501,507
507,515,515,489,549
540,518,522,494,561
516,515,522,501,525
478,510,522,499,542
472,504,522,502,543
474,503,522,502,533
506,510,521,520,465
526,510,525,534,414
480,500,511,530,492
439,497,498,518,555
472,496,489,516,506
560,507,496,535,425
529,501,489,528,470
515,501,485,522,511
461,495,481,504,549
385,484,484,501,554
437,508,508,506,542
466,519,519,503,531
556,518,524,499,560
566,522,535,512,552
604,523,533,507,575
585,512,524,496,577
568,501,517,500,512
535,510,524,515,502
501,500,517,525,484
513,500,510,525,500
534,501,499,527,448
547,489,489,532,452
552,486,479,518,438
491,482,478,517,532
459,485,475,503,551
541,508,492,509,526
567,522,510,513,478
541,521,521,507,487
553,526,528,509,504
548,522,530,506,543
523,520,527,498,537
535,520,530,506,508
534,511,526,499,595
474,496,522,507,561
452,486,515,515,499
480,493,511,522,481
512,499,509,530,482
526,498,500,533,456
518,502,498,534,458
538,500,497,543,412
508,494,489,525,499
491,492,484,503,514
519,503,493,498,530
511,513,508,498,528
531,524,527,505,529
546,522,528,504,550
550,518,528,500,583
516,508,528,497,580
458,494,516,492,537
500,506,523,500,530
532,508,526,510,520
496,504,522,520,518
479,497,508,524,464
540,506,506,531,464
577,502,501,533,447
547,497,499,538,438
482,485,484,530,465
483,496,490,520,468
478,497,485,504,528
488,508,503,506,544
506,514,513,501,541
515,517,526,500,544
492,511,528,505,572
513,520,531,502,548
486,514,533,504,586
543,523,533,491,597
527,508,521,495,561
526,493,511,498,495
528,496,510,518,446
538,498,508,524,491
543,501,502,542,432
531,499,497,543,391
513,498,493,532,486
509,504,496,518,503
487,494,488,506,576
461,489,486,500,501
493,504,503,507,530
487,515,517,497,548
457,519,529,509,556
427,517,531,510,578
422,520,532,505,552
567,521,532,497,515
577,518,533,500,510
570,515,531,509,485
534,497,519,512,481
493,490,509,517,466
498,501,508,528,463
455,495,501,533,476
508,497,497,540,465
533,492,485,524,454
554,486,478,510,443
558,498,482,515,503
509,503,493,518,504
498,508,505,490,542
551,528,529,501,552
591,531,538,505,512
554,516,531,504,541
496,512,534,500,526
488,511,530,493,575
505,516,532,505,600
542,505,522,512,531
503,493,505,510,510
475,491,505,523,439
534,492,500,529,430
506,494,498,526,453
495,508,503,535,493
455,503,496,536,543
480,508,495,533,521
454,495,495,514,560
472,499,498,515,469
574,519,512,501,476
530,519,525,497,521
520,511,527,497,560
490,500,525,489,611
533,506,529,498,611
533,501,526,502,532
557,503,518,480,502
557,508,520,498,495
558,504,514,516,502
533,505,510,532,455
500,497,503,537,455
532,499,498,538,447
526,505,495,529,502
508,499,490,526,468
472,499,489,527,471
427,505,499,520,468
417,507,506,505,530
472,507,512,488,562
554,520,528,495,578
604,524,534,502,542
584,516,532,505,514
535,500,522,496,534
501,505,524,494,536
490,498,525,516,509
471,496,523,531,501
442,495,512,517,474
413,488,498,523,454
470,499,499,519,481
548,501,501,541,449
624,511,494,532,430
600,504,486,525,445
536,497,484,513,488
487,501,498,513,554
491,508,512,502,575
534,517,526,494,575
531,516,525,494,536
529,514,532,503,523
533,515,536,502,584
511,514,533,500,593
472,500,527,504,580
500,498,518,507,524
567,501,511,510,463
527,497,505,522,488
508,491,500,523,484
570,514,502,529,476
573,509,498,532,465
514,496,494,530,441
462,491,482,521,433
459,496,486,515,470
502,508,499,506,503
537,518,518,504,546
521,521,533,505,534
481,507,529,500,573
440,501,527,503,607
470,510,533,513,543
508,514,537,510,536
502,511,531,499,564
516,507,524,501,549
533,499,512,509,489
538,492,500,522,456
527,491,500,540,453
508,494,490,536,480
536,504,485,518,497
539,510,491,528,479
552,504,486,517,466
497,498,490,509,503
467,499,504,509,516
445,506,519,498,544
430,517,533,501,606
475,525,541,513,587
502,513,533,500,547
535,505,526,494,559
505,510,529,492,550
457,510,531,503,531
511,508,526,521,530
557,504,512,510,517
592,500,502,529,482
560,497,495,532,434
553,500,493,530,462
518,499,488,530,471
540,500,487,528,447
501,496,485,516,491
499,503,499,513,497
508,517,516,505,572
543,528,533,502,588
568,520,535,497,524
555,514,536,498,498
429,490,526,492,600
399,503,533,500,553
478,511,540,516,512
518,505,524,506,531
560,500,513,502,510
589,503,507,517,426
558,504,503,534,430
526,501,496,536,417
494,493,489,541,405
486,489,479,518,470
466,484,477,516,469
482,494,483,504,548
557,522,510,506,544
550,527,527,510,544
504,521,536,497,579
470,509,531,496,589
464,508,536,501,579
509,510,533,494,554
523,510,534,508,493
517,502,526,504,515
521,500,521,512,532
552,502,518,523,466
545,497,507,524,450
536,494,493,519,455
527,496,490,530,458
500,496,486,529,447
475,496,485,520,478
490,501,482,517,498
509,506,496,514,512
501,516,518,508,533
475,526,530,508,554
484,516,535,501,585
508,510,532,502,586
531,513,534,504,572
545,512,534,501,528
556,507,528,493,485
490,495,521,502,528
515,501,523,512,513
575,511,516,523,495
592,506,508,532,498
555,506,503,533,475
459,494,494,540,443
429,494,489,538,444
465,496,480,519,510
459,492,478,504,516
462,500,493,507,486
455,495,503,507,539
561,520,526,493,571
565,518,536,496,582
560,515,533,502,579
533,511,537,496,539
528,510,536,490,525
517,505,530,499,511
516,504,532,515,532
516,499,518,511,507
543,496,507,523,451
544,500,503,532,441
538,511,502,533,451
513,513,498,542,468
494,512,493,536,466
459,491,476,515,476
498,490,477,509,480
510,501,492,497,554
508,509,515,505,554
515,515,527,498,568
547,515,529,497,582
537,512,537,502,561
502,507,536,499,543
481,506,538,502,530
486,508,538,504,546
496,504,526,505,534
504,499,516,517,484
528,496,507,528,457
533,497,493,526,445
555,501,491,526,450
552,493,483,523,479
503,488,477,521,473
476,491,477,524,444
468,506,488,510,511
495,516,511,509,534
556,529,530,505,553
561,522,533,502,572
543,521,543,510,560
480,512,542,505,533
482,515,540,503,541
517,513,533,498,548
497,506,536,508,539
480,501,523,515,504
485,493,512,520,490
575,501,499,531,476
582,502,496,535,486
540,492,486,527,457
510,489,476,521,463
477,496,478,525,412
440,493,481,515,450
468,503,498,509,519
494,511,513,507,554
462,515,532,510,567
456,515,534,498,578
480,506,533,504,558
531,513,537,494,591
611,516,537,496,558
552,503,531,507,537
519,496,525,511,513
532,504,520,514,511
537,507,513,521,497
534,506,504,531,500
527,500,495,533,432
536,501,487,532,411
520,504,483,528,441
506,501,485,527,487
500,501,485,512,493
531,505,498,503,518
496,508,514,498,544
474,510,530,492,582
487,509,532,499,570
501,509,530,501,572
509,514,540,502,567
507,510,539,505,567
499,505,532,513,571
519,509,532,503,552
537,509,517,513,486
524,501,508,530,413
527,497,495,528,396
535,497,489,535,422
534,493,482,534,408
536,496,481,537,477
510,491,477,511,547
499,503,492,499,519
501,517,509,501,492
521,525,531,509,521
507,517,537,503,540
489,513,538,501,585
494,515,539,506,567
496,507,534,501,564
519,510,534,496,573
539,504,524,500,551
503,494,513,507,536
521,497,510,523,466
536,502,506,526,437
544,504,497,530,456
541,497,488,533,460
508,485,483,528,473
505,493,480,521,488
492,503,486,517,520
493,506,500,511,527
480,506,511,508,492
491,516,528,500,556
509,516,534,494,574
533,517,538,507,545
543,522,544,518,547
541,516,536,497,594
557,518,533,493,552
508,497,524,502,516
479,492,514,514,462
507,495,508,524,439
517,499,501,530,447
531,502,497,530,471
539,503,493,530,436
512,502,490,533,419
478,494,481,522,458
477,499,490,512,506
469,504,501,504,564
483,516,520,503,584
485,520,535,499,593
489,517,535,499,581
520,511,531,495,558
552,509,534,499,572
532,511,538,500,589
523,499,526,498,562
515,500,520,512,497
517,497,511,513,473
536,498,508,533,410
544,499,504,537,416
536,497,493,535,420
520,495,487,532,470
510,496,487,527,455
486,493,485,516,490
486,506,492,507,511
513,520,512,507,541
526,520,526,502,550
497,511,531,498,560
506,513,531,504,551
526,513,536,505,548
515,513,540,501,561
521,509,531,500,544
517,504,524,508,535
522,507,524,523,497
531,505,519,533,454
533,502,507,535,416
529,500,500,527,426
515,493,488,527,454
505,494,486,529,480
512,497,482,516,472
512,501,488,512,496
506,510,504,506,532
509,516,518,506,560
502,518,534,501,589
494,517,534,498,573
499,509,535,496,574
509,510,537,499,563
512,509,536,502,553
509,502,529,501,546
516,501,524,508,522
514,495,515,514,500
528,500,514,527,462
533,504,509,536,446
521,505,505,538,446
508,498,491,529,446
509,498,488,527,454
512,499,482,517,474
499,500,490,512,499
497,506,503,506,533
507,520,522,502,560
508,520,538,501,577
511,517,537,501,568
506,512,537,502,571
506,517,538,503,569
499,512,537,506,556
502,501,530,508,540
503,498,519,513,532
529,505,515,511,470
534,498,506,523,454
534,499,504,532,447
529,500,498,534,448
517,500,493,529,449
514,500,491,529,454
501,496,487,515,472
500,499,493,508,509
501,511,515,505,542
506,517,528,503,574
504,517,536,501,579
512,513,535,500,567
519,512,534,497,560
511,510,535,501,556
506,510,535,503,551
503,504,527,505,530
512,501,521,517,504
529,497,515,522,476
524,501,508,532,455
523,498,500,533,453
528,499,492,530,444
521,501,491,533,451
512,496,487,523,464
508,499,491,516,494
501,507,503,508,528
499,513,520,503,557
499,517,533,506,583
514,518,537,498,567
512,514,537,497,563
510,512,538,498,563
508,511,539,499,564
505,510,532,502,548
512,508,531,511,522
519,505,522,517,490
531,508,520,530,456
526,505,512,535,448
514,498,500,529,449
511,496,493,528,459
509,497,490,527,461
520,492,482,515,478
514,497,493,509,512
515,511,509,506,542
518,518,525,502,559
522,519,534,499,569
504,512,535,499,571
507,509,535,498,565
516,512,536,499,558
512,513,534,500,554
507,504,530,502,541
509,501,524,509,514
526,499,518,520,480
531,498,510,527,450
532,502,507,528,444
523,500,502,533,448
512,499,498,526,445
510,501,497,529,459
498,497,493,515,489
493,503,500,507,522
498,513,519,505,552
504,520,534,503,568
511,519,535,504,571
510,514,537,500,566
509,514,536,499,566
512,511,535,497,565
514,509,532,499,551
515,505,531,504,528
518,500,524,511,500
522,500,521,523,470
528,498,513,530,447
526,502,510,533,447
524,500,504,531,452
516,498,500,527,455
510,498,499,524,470
502,500,502,514,497
497,507,510,504,525
502,516,525,504,553
506,525,537,502,572
514,517,540,500,567
515,513,534,499,563
514,514,538,501,562
511,512,538,501,556
511,504,534,500,542
518,506,530,508,520
519,501,524,515,497
527,500,521,527,466
528,500,517,532,453
527,502,516,532,451
518,499,505,530,457
515,500,505,526,462
505,497,498,518,482
501,505,505,512,511
502,510,516,503,541
506,516,529,501,563
510,520,538,500,571
513,516,536,498,561
511,512,533,499,559
513,512,538,496,554
512,510,537,500,548
513,506,533,503,536
517,500,526,510,511
522,500,526,520,487
529,498,519,528,461
527,500,518,530,454
524,500,512,532,455
516,501,511,529,459
515,500,505,526,463
501,499,499,514,493
498,504,508,509,523
501,514,520,504,546
505,519,532,502,567
510,516,537,496,565
514,515,536,498,558
511,512,535,495,556
515,513,534,497,551
514,511,538,502,546
511,509,537,509,527
510,502,531,511,504
517,499,523,519,478
529,496,518,528,455
534,501,518,533,452
531,496,508,528,455
525,498,506,527,459
514,496,502,524,472
508,500,505,514,501
502,507,513,507,530
507,517,528,503,552
513,520,534,501,567
515,516,536,499,559
513,513,533,501,558
510,511,537,498,556
511,510,536,499,554
513,506,531,501,541
516,503,530,510,520
522,505,527,516,499
523,507,525,527,475
520,500,521,533,465
522,502,518,535,457
516,500,512,530,455
523,498,507,525,455
506,494,498,513,485
498,500,506,510,512
505,510,518,505,531
505,516,525,500,557
511,518,531,497,564
517,515,532,499,560
514,511,529,497,557
514,511,534,498,551
516,509,535,500,548
517,505,532,503,533
521,504,528,510,511
523,501,526,523,490
526,501,521,529,464
525,502,518,531,458
522,505,516,532,455
520,498,510,529,451
521,501,509,526,464
506,498,504,514,491
499,503,510,508,523
503,512,521,504,547
508,520,533,501,569
512,517,534,498,569
513,516,536,500,561
514,512,534,499,561
512,511,532,502,556
511,506,530,498,544
517,507,531,508,520
520,502,529,513,500
525,504,526,524,477
527,501,524,529,460
526,503,521,533,455
519,500,515,531,458
515,500,514,526,465
510,498,507,521,477
502,500,508,513,502
502,505,513,506,533
504,513,524,503,555
510,520,536,500,569
512,516,536,500,560
514,512,534,499,559
510,509,535,503,555
511,507,533,498,549
513,505,533,502,533
518,503,535,510,518
523,501,529,517,495
528,504,529,528,470
528,503,526,532,462
527,504,521,535,460
517,499,515,527,463
517,501,514,527,468
505,497,507,517,489
500,501,510,509,518
503,510,518,504,540
507,517,529,504,559
511,518,533,500,564
514,516,537,500,556
513,512,533,497,554
514,511,536,499,549
515,509,538,500,544
514,503,536,504,530
517,502,530,506,507
524,501,529,518,485
525,500,527,529,466
525,503,527,533,463
524,499,519,531,460
517,500,515,529,465
512,500,513,527,474
507,502,508,515,499
499,504,509,506,526
504,513,523,503,547
509,519,530,503,564
513,516,535,499,559
514,516,535,502,552
511,509,534,499,553
513,507,534,500,548
513,506,534,504,540
515,503,530,504,520
520,502,528,511,502
524,501,529,524,481
524,501,525,530,466
527,504,520,530,463
518,500,515,529,466
516,500,514,528,471
508,496,506,516,478
499,499,505,513,500
504,507,514,508,534
503,514,523,505,553
508,519,531,501,561
510,513,532,499,556
510,514,530,500,550
512,511,529,499,544
512,509,531,499,538
515,506,530,504,533
518,501,527,509,516
521,503,527,516,502
523,501,522,525,490
523,502,523,530,472
524,502,520,535,466
514,502,512,529,473
513,500,511,526,474
502,496,505,516,495
502,507,508,511,529
501,510,513,505,543
507,517,525,502,532
510,517,532,503,546
512,513,533,504,546
509,509,529,498,549
511,510,531,498,549
513,507,529,499,542
515,507,528,505,529
516,502,528,512,508
522,501,527,521,485
524,501,526,531,462
525,502,520,532,457
522,503,515,529,458
517,502,516,532,469
510,500,512,526,479
502,505,509,515,505
500,505,512,507,525
502,516,522,506,541
505,514,530,502,556
508,516,534,502,553
508,513,532,500,548
505,511,530,498,547
508,510,533,501,539
510,507,530,501,532
513,505,532,508,519
520,503,529,513,500
526,503,530,522,478
526,503,529,530,467
525,506,527,534,463
520,504,517,530,471
516,503,521,528,476
506,499,511,520,490
501,501,509,511,511
501,513,518,507,533
504,515,525,505,550
508,520,538,502,555
507,515,538,501,549
500,511,535,504,547
495,508,534,499,546
496,507,534,500,536
495,504,533,501,529
497,502,533,509,516
501,503,532,516,499
529,508,532,527,477
551,510,529,532,468
544,511,530,535,469
526,501,522,529,476
522,503,518,528,478
510,503,513,517,501
507,504,515,509,522
505,510,525,506,539
504,517,529,502,551
510,515,535,499,553
514,514,536,502,542
511,510,534,496,542
512,511,537,501,540
513,509,539,501,534
513,503,537,506,523
515,503,533,509,505
521,503,534,520,489
525,504,535,530,474
523,505,529,533,472
521,505,527,530,474
512,500,522,529,483
511,505,520,526,485
498,498,512,513,506
501,505,518,508,529
500,512,523,503,541
505,517,532,499,551
508,515,534,500,545
511,514,538,500,541
510,512,534,500,541
511,511,537,501,537
509,508,537,504,531
511,504,534,508,514
519,506,533,517,504
521,501,533,526,486
522,504,532,530,472
523,507,528,533,468
517,501,523,530,477
512,501,521,529,484
504,498,513,520,497
500,502,513,513,518
498,507,518,505,537
503,514,525,503,545
505,517,534,501,544
508,512,538,502,544
508,510,534,505,544
507,508,530,497,541
510,508,534,501,535
510,505,533,505,520
514,503,531,507,502
515,506,534,519,492
521,502,531,527,475
520,501,527,531,470
522,506,526,533,477
514,500,518,526,497
511,503,516,525,500
501,499,508,513,517
500,502,515,510,519
502,509,519,505,529
503,514,525,498,546
510,515,530,500,552
510,511,533,503,534
511,510,528,498,527
515,511,530,500,528
512,509,531,502,531
511,505,531,506,517
513,502,530,516,503
520,502,526,522,483
524,503,528,529,470
524,505,526,534,466
521,504,522,532,473
512,499,515,527,484
513,500,512,526,487
501,498,510,514,503
499,504,511,508,524
500,508,517,505,542
505,514,524,501,550
508,512,525,499,545
512,510,527,500,541
508,508,526,498,542
508,509,529,503,536
513,506,529,505,529
512,502,523,507,515
517,503,526,517,499
520,504,525,527,481
527,502,525,532,469
528,504,523,535,469
517,504,516,531,475
512,499,512,529,480
506,497,504,520,493
499,498,502,512,513
501,506,512,507,531
503,511,519,506,546
506,513,526,505,549
508,509,526,500,543
510,510,527,501,539
509,508,527,500,541
514,509,529,503,535
508,507,524,504,527
515,503,526,511,512
517,500,523,518,496
522,502,524,529,476
525,506,522,533,472
524,506,520,537,470
512,499,511,527,480
515,502,514,527,481
501,495,503,515,500
498,501,506,512,525
502,508,513,504,538
503,514,521,503,551
506,511,526,502,551
510,511,527,499,540
508,508,526,500,542
508,509,528,501,540
509,507,530,503,535
510,504,524,504,522
513,503,525,514,510
516,501,523,522,492
518,501,523,530,477
525,504,517,532,470
523,503,518,531,470
512,499,510,530,478
506,498,507,524,482
494,499,504,515,505
487,502,506,506,524
490,509,514,500,542
492,514,523,503,551
492,511,525,500,550
506,513,527,503,546
525,510,527,499,543
543,510,526,502,536
531,506,528,507,531
525,504,523,507,520
529,504,520,515,512
527,501,521,522,502
525,503,519,530,487
523,504,518,530,474
511,498,506,531,468
505,500,506,528,472
493,495,504,524,493
491,499,502,510,515
493,504,504,504,532
509,514,516,505,542
512,516,524,502,547
513,512,524,503,543
525,511,526,498,540
530,509,526,496,536
531,510,525,504,534
519,501,520,506,525
525,503,522,505,507
528,504,519,519,486
528,501,518,531,467
526,502,514,532,465
526,502,512,534,461
518,499,504,528,472
519,501,504,526,480
505,498,496,517,497
501,502,501,509,522
502,509,507,501,538
505,516,518,499,556
507,514,522,500,556
511,512,524,501,551
508,509,521,499,551
510,509,522,500,549
510,505,521,499,531
514,507,519,507,516
515,501,517,514,500
521,503,518,523,483
522,501,515,530,476
523,502,514,533,466
518,503,509,531,467
510,500,503,527,475
506,498,499,524,484
502,501,498,515,504
499,504,501,502,524
503,511,509,506,547
506,520,520,501,560
509,512,521,500,556
511,513,520,500,548
507,508,518,496,548
513,509,521,500,542
511,504,520,502,534
513,503,518,506,515
516,502,516,515,499
520,500,514,524,475
523,503,512,529,462
522,504,511,533,459
515,499,502,529,465
512,500,504,528,468
503,495,493,518,483
498,498,495,511,510
500,507,505,504,530
502,512,510,505,557
507,515,520,501,567
509,514,520,501,558
509,510,519,502,557
505,508,517,497,555
510,508,520,501,547
512,504,519,501,534
517,503,515,509,513
519,503,516,518,488
525,503,513,529,463
522,503,514,533,454
520,502,508,536,448
511,498,497,526,454
512,501,498,525,459
500,497,494,516,487
500,504,497,510,521
500,508,506,504,545
504,513,514,500,573
508,515,522,503,585
509,514,525,503,585
502,509,521,499,593
505,509,521,496,590
504,508,522,500,585
505,501,519,506,552
509,500,515,514,506
522,501,515,521,462
530,502,511,531,435
528,503,513,533,424
522,504,503,531,418
515,498,495,524,428
514,500,497,523,433
506,499,494,514,470
507,506,501,507,506
506,510,508,503,548
507,514,518,500,581
512,512,519,503,577
517,511,522,502,570
513,510,521,498,580
515,510,524,499,583
512,505,521,502,571
513,502,515,513,539
518,501,515,517,487
526,502,515,526,454
526,501,512,533,432
524,503,510,534,420
516,499,501,530,421
512,501,498,528,426
503,496,493,521,449
498,499,494,510,486
503,508,504,505,527
503,510,512,501,564
503,515,520,501,587
507,512,522,503,586
518,514,522,500,582
512,508,524,497,588
508,508,521,501,582
505,500,518,504,559
507,502,517,512,528
511,501,515,520,491
514,501,515,529,452
509,501,509,532,434
509,503,506,534,430
516,500,499,528,433
520,500,499,530,433
510,501,495,518,465
511,503,498,510,504
527,512,508,505,538
525,517,518,503,567
520,512,520,499,579
520,513,524,502,582
516,510,523,500,585
517,510,525,501,581
516,508,525,503,569
516,503,518,504,536
522,503,517,513,515
525,500,515,524,475
525,498,511,530,444
524,501,509,535,432
521,502,503,532,428
512,501,499,528,435
509,501,497,525,446
502,500,496,513,481
498,504,501,508,524
506,513,511,503,558
507,515,522,500,586
510,515,523,500,581
513,514,525,501,575
509,509,522,496,576
512,508,524,500,569
509,505,524,503,553
512,503,521,506,525
516,502,516,520,498
519,501,514,526,463
521,501,510,532,445
522,504,508,537,438
515,500,502,530,444
510,500,498,529,451
504,496,493,516,465
499,500,498,514,503
500,508,502,505,537
507,514,517,503,568
507,515,524,501,580
508,513,524,502,572
510,512,524,502,569
506,506,521,500,567
508,507,521,499,555
511,505,522,504,536
513,501,516,510,512
521,503,513,521,484
524,502,514,528,457
523,503,512,535,449
525,504,509,535,448
512,498,501,531,455
508,499,498,526,458
502,498,496,518,487
499,503,499,508,517
504,512,508,505,547
504,515,521,505,571
508,514,522,501,570
510,513,524,503,561
504,509,520,498,561
506,507,520,498,557
513,506,520,502,547
512,503,519,507,528
513,505,516,514,505
520,500,516,526,478
521,501,513,531,462
522,502,511,536,457
518,501,502,532,457
511,498,496,526,466
504,496,494,522,478
503,500,496,516,497
500,506,502,508,525
504,514,512,501,554
508,518,521,500,572
509,514,523,501,560
511,509,524,502,552
507,506,519,499,549
510,508,521,499,545
511,505,518,505,538
512,505,515,509,519
517,501,516,516,497
521,500,510,531,468
522,500,511,534,454
522,502,506,534,451
516,498,501,531,456
512,500,500,529,463
503,495,492,519,480
499,500,498,513,509
500,506,504,505,535
506,516,515,503,559
507,518,521,501,566
510,515,523,503,557
512,516,522,502,554
506,506,518,502,553
508,505,520,499,544
512,505,519,507,528
514,500,519,510,507
520,503,517,522,487
522,498,512,529,463
521,502,509,532,456
524,504,509,535,457
510,497,499,529,470
511,498,499,528,476
502,500,492,516,505
499,505,500,509,532
497,508,508,505,554
503,516,517,499,565
509,514,521,499,553
516,514,523,502,542
510,513,521,500,550
512,504,518,498,549
510,505,519,502,540
509,500,518,506,526
515,501,517,514,495
519,500,516,528,464
522,501,513,531,453
522,502,510,535,451
518,502,506,533,455
509,497,498,527,466
517,498,495,521,475
508,500,497,514,499
501,503,502,506,527
501,510,511,503,549
508,513,519,499,560
510,512,519,500,557
510,511,524,503,553
507,509,520,498,556
503,507,521,499,550
515,507,521,503,530
519,504,520,512,514
523,505,517,519,495
525,502,516,529,468
524,503,512,534,463
528,501,509,534,455
521,500,503,527,463
515,498,500,527,467
506,496,495,518,484
499,500,494,508,510
503,507,502,504,535
504,512,512,502,550
510,514,521,500,560
516,512,523,502,551
511,511,523,499,551
506,509,519,498,555
506,504,520,501,549
505,500,519,505,536
507,500,516,512,512
517,502,520,521,486
528,502,515,530,465
527,505,513,533,458
532,504,511,534,459
516,497,501,528,462
516,500,501,526,467
505,498,496,516,499
505,503,501,509,520
504,510,507,502,542
508,515,518,500,560
511,512,520,500,555
512,511,523,501,548
511,510,522,502,550
509,509,522,500,546
510,508,519,501,537
515,505,519,505,520
516,501,514,511,500
522,503,518,525,478
527,505,517,533,465
524,505,518,535,461
518,504,506,532,463
513,501,502,527,471
506,498,498,521,477
501,501,499,516,505
499,505,501,505,530
504,515,513,503,550
508,516,522,498,560
512,512,522,500,557
511,512,521,504,552
506,507,519,496,551
507,507,521,501,543
508,502,521,505,533
515,503,518,509,513
518,502,519,519,494
523,502,517,524,469
524,507,515,532,463
524,506,511,535,459
516,501,509,531,467
509,498,501,523,474
501,496,497,520,495
503,502,500,511,516
500,507,505,507,540
505,515,517,502,557
510,515,522,500,562
510,513,527,506,551
511,509,520,499,547
508,507,519,497,548
510,507,520,500,541
512,503,519,505,523
514,499,517,512,507
521,503,521,522,485
524,502,520,531,467
524,501,513,533,462
521,504,511,533,460
514,501,503,526,470
511,500,503,524,474
504,501,501,516,501
499,504,501,508,525
500,510,510,505,547
504,515,519,501,562
507,512,522,503,559
511,510,523,501,556
510,508,520,498,552
507,507,519,493,550
510,506,523,500,539
511,504,521,508,529
514,501,517,515,501
520,504,518,525,472
522,504,514,531,462
526,505,516,537,456
522,500,507,531,459
511,496,500,526,464
510,499,496,521,482
501,499,496,513,505
497,504,503,504,534
502,512,514,502,548
506,515,521,501,560
510,514,521,500,552
515,513,525,502,548
509,512,521,499,547
508,506,521,501,539
510,504,520,501,537
515,503,517,508,526
519,503,517,519,505
522,501,518,529,475
522,504,513,531,460
524,505,511,535,450
519,500,505,531,464
509,498,500,528,478
503,497,496,516,488
499,500,498,509,505
501,507,509,506,534
509,513,515,502,551
510,514,519,500,552
512,513,523,504,545
511,511,524,502,544
507,508,521,499,545
509,505,522,500,541
511,504,521,506,528
512,501,518,513,513
517,502,519,522,491
524,503,518,530,469
523,505,515,535,462
520,503,511,533,459
512,498,503,526,467
512,499,500,526,473
503,498,497,513,499
499,503,502,506,521
504,511,511,504,547
508,516,523,500,559
511,511,521,500,548
517,510,521,499,541
510,506,521,498,540
507,507,520,498,541
510,504,518,501,530
511,503,519,509,517
512,501,516,511,498
519,503,517,526,475
518,502,518,532,465
521,504,514,534,464
526,503,506,531,462
519,501,506,527,469
506,496,496,520,487
501,503,501,514,510
498,506,505,504,530
502,514,515,502,549
504,521,523,501,560
504,511,526,502,556
506,512,522,500,550
510,508,522,497,546
514,511,524,499,542
511,505,518,504,532
516,504,518,510,513
521,504,519,519,494
527,500,515,528,471
530,506,514,532,462
523,505,513,535,459
515,502,506,530,466
506,497,499,524,473
499,502,497,518,492
501,502,498,509,518
510,509,507,508,539
517,514,515,502,553
518,514,521,501,559
518,514,523,501,549
516,512,521,501,545
510,507,520,499,544
514,508,522,500,539
511,500,518,504,523
514,503,518,514,508
518,501,518,522,482
523,504,515,530,467
521,505,514,532,461
520,503,512,535,461
510,498,503,527,467
517,502,501,529,473
506,500,496,516,498
501,504,502,510,528
507,514,510,503,550
508,518,517,499,570
511,515,522,503,560
509,514,523,501,555
509,509,522,503,550
506,505,518,495,544
509,505,520,499,533
512,502,521,507,515
514,501,514,516,501
522,502,516,527,475
523,503,516,532,464
525,507,511,534,462
520,504,508,532,464
511,496,499,525,471
505,496,498,520,477
498,498,495,510,507
499,507,504,506,537
502,513,514,501,555
505,515,520,501,562
510,512,519,497,554
512,513,519,499,550
507,508,520,498,553
511,509,521,502,548
509,503,518,504,531
515,504,518,510,510
517,502,516,519,486
527,505,515,529,464
524,506,514,535,462
522,505,512,535,459
516,503,502,528,470
509,498,500,526,479
500,497,494,517,502
497,503,497,509,526
500,508,509,503,545
503,518,517,500,561
508,514,525,501,559
509,511,523,501,550
509,509,519,498,541
509,507,523,499,541
510,506,521,504,537
513,503,518,506,523
514,500,517,511,504
521,503,518,520,479
522,502,515,532,462
520,502,512,534,457
520,503,507,530,453
513,500,502,527,464
509,499,498,522,471
500,498,496,516,501
502,505,502,508,525
500,511,507,505,548
507,515,518,500,565
508,515,522,500,560
511,513,523,503,554
508,512,523,501,549
506,504,517,498,545
513,504,518,502,536
512,502,518,511,518
517,503,517,516,495
519,501,514,525,474
523,501,514,530,459
524,505,511,534,457
516,502,507,532,461
509,499,498,524,469
506,496,493,519,486
505,501,497,514,509
502,503,506,505,533
507,512,511,501,552
511,516,520,503,561
511,511,523,501,554
510,509,522,498,552
509,508,519,496,549
511,508,521,499,544
510,503,519,502,532
521,504,517,508,510
522,501,514,517,489
524,502,515,528,466
521,505,514,533,462
521,504,512,535,459
515,502,501,527,461
511,499,501,526,472
501,498,496,516,489
498,501,499,511,519
500,508,505,503,539
505,514,518,502,560
506,514,524,501,562
510,512,523,500,555
510,509,523,500,551
506,507,517,498,551
512,507,523,500,542
519,504,520,507,525
521,502,517,513,504
522,502,516,523,480
525,503,514,529,459
523,504,512,534,455
522,503,508,535,454
512,497,500,528,461
509,498,496,523,471
500,499,493,513,497
496,505,506,509,530
499,511,506,499,553
503,516,520,500,565
506,513,522,499,560
509,513,523,500,555
509,512,523,501,553
507,505,519,497,554
517,505,520,501,538
521,503,517,507,521
520,501,516,515,500
525,501,516,526,475
524,503,516,533,461
516,503,509,535,452
513,500,505,532,453
504,496,500,527,465
495,495,494,519,480
492,499,496,513,509
491,508,505,505,536
501,514,513,501,556
515,515,521,501,563
523,517,523,502,558
527,515,524,499,554
519,510,521,498,554
515,507,520,503,551
515,504,517,504,529
519,503,518,511,509
520,502,518,519,488
524,503,518,530,461
523,504,514,535,456
521,505,511,534,452
515,501,505,533,461
508,499,499,524,471
500,496,495,512,495
498,504,501,510,525
501,508,508,502,547
505,514,518,500,563
509,513,521,500,563
512,510,522,501,551
515,511,523,501,551
509,506,520,499,554
509,504,519,499,546
515,501,519,505,527
520,501,516,513,498
527,502,516,522,474
527,503,513,528,456
528,505,512,534,452
523,501,507,533,451
515,497,502,528,462
508,497,495,522,472
503,500,498,516,497
499,505,502,505,525
502,515,511,504,553
506,516,522,501,573
508,511,521,501,563
512,511,524,501,562
510,508,520,499,554
507,506,520,498,549
511,505,520,501,539
515,503,516,507,519
518,503,517,515,496
521,500,515,527,471
522,502,511,530,457
523,504,512,535,453
517,503,506,531,460
509,498,497,524,466
501,495,494,518,486
501,502,497,509,511
498,505,503,504,538
503,514,514,500,561
508,517,524,500,569
511,513,523,501,559
513,511,524,502,556
507,506,520,498,553
508,506,520,495,548
512,505,521,505,532
513,502,519,511,506
519,503,517,521,488
522,499,513,529,466
523,503,510,531,457
521,503,510,534,455
515,501,504,530,464
508,496,500,524,468
505,497,496,516,492
499,502,498,507,517
500,508,507,504,542
505,515,518,503,559
509,514,518,499,559
513,509,524,501,554
511,510,526,500,551
508,508,521,498,553
507,503,520,500,544
514,503,522,506,523
514,501,515,512,503
519,505,516,522,478
524,503,515,530,460
520,504,513,535,457
517,502,506,532,459
514,499,504,527,467
505,495,494,521,481
498,499,498,514,508
498,504,503,507,532
502,513,513,500,557
505,521,522,499,573
511,515,523,499,567
512,513,523,501,554
510,509,523,499,548
508,506,521,496,549
510,504,520,502,536
514,503,519,511,517
517,503,517,516,495
521,499,514,526,468
524,502,512,531,455
524,502,513,534,448
517,502,506,531,454
512,498,502,527,464
502,494,493,518,475
503,505,501,513,507
500,507,505,505,538
504,514,513,500,565
508,514,521,500,571
509,512,521,499,560
511,512,524,497,555
509,512,522,499,548
508,505,521,496,546
512,503,519,504,522
516,501,516,510,506
521,502,516,518,480
523,501,515,529,460
524,503,513,531,455
522,504,510,533,451
518,501,502,528,457
510,498,499,524,472
502,497,494,515,497
500,502,499,507,521
502,510,508,502,549
506,517,519,498,566
509,515,522,500,559
510,514,524,503,555
508,516,525,502,548
505,507,518,499,545
504,503,518,498,537
512,504,519,509,520
515,500,514,511,500
521,501,516,523,477
531,503,513,530,459
531,503,512,534,454
523,500,508,532,460
515,501,503,527,467
507,496,495,518,478
503,500,497,515,504
500,506,503,507,530
502,512,513,503,551
507,516,521,500,567
515,513,523,500,562
515,513,525,500,557
514,511,523,499,555
506,507,519,497,553
507,506,516,498,536
512,504,520,508,516
515,500,515,516,492
519,502,517,527,468
522,506,514,532,460
520,505,513,533,458
515,502,506,531,463
515,500,504,524,468
511,499,496,518,488
507,502,498,510,513
504,508,505,505,540
505,513,515,498,560
509,514,521,497,566
512,511,524,500,557
513,511,522,501,553
510,508,522,500,552
508,509,519,498,546
512,502,519,504,529
515,499,517,510,508
522,502,516,520,487
524,502,516,528,465
522,507,514,533,461
526,503,511,534,458
514,501,505,528,465
511,502,499,524,474
501,497,495,515,498
501,505,501,505,521
501,509,509,503,545
505,513,517,500,561
506,512,521,498,560
511,511,524,504,553
510,509,524,504,551
508,505,520,497,551
509,506,519,499,540
513,503,519,506,519
516,506,518,514,502
519,499,516,523,481
522,503,512,531,462
524,504,512,532,456
519,506,507,532,460
513,498,501,527,468
507,494,494,519,481
500,498,495,511,504
502,506,504,506,533
500,512,511,502,552
506,515,517,498,565
509,513,523,497,554
511,512,523,501,550
511,510,522,499,550
509,507,520,497,549
508,503,519,502,534
516,503,519,509,514
516,501,514,516,496
522,504,515,527,472
524,503,514,536,465
523,502,516,535,463
514,501,508,529,460
510,500,501,527,470
502,497,493,519,490
501,502,496,509,522
501,508,506,505,539
505,515,516,499,561
508,515,522,500,566
510,513,523,500,555
509,511,526,499,548
507,507,520,496,545
507,506,523,499,542
507,504,517,503,527
518,502,517,512,508
516,501,518,519,484
522,499,514,530,464
520,503,513,530,461
517,503,510,533,463
518,498,502,527,467
521,502,499,523,474
506,501,494,513,496
505,505,499,507,523
502,509,508,501,540
508,515,518,501,558
511,514,521,500,560
513,512,523,501,552
512,510,523,500,553
506,508,520,499,550
506,504,517,497,533
514,507,520,508,518
515,502,517,514,504
521,502,516,527,484
522,504,512,531,470
525,504,513,533,463
520,501,507,531,464
513,499,498,531,471
506,496,495,521,477
500,498,496,514,505
502,507,504,510,532
502,510,511,499,548
511,513,519,500,553
511,512,520,497,546
512,510,523,500,549
512,509,524,500,548
511,509,519,499,547
509,504,519,501,529
517,504,521,510,512
517,500,516,518,486
527,500,516,528,465
524,502,516,533,456
523,503,510,534,450
516,499,504,531,456
508,497,500,525,467
500,497,495,517,487
496,501,497,507,512
498,508,506,506,539
502,512,514,501,558
503,514,520,497,561
523,515,524,502,548
521,512,524,502,548
515,510,520,499,548
514,509,520,501,544
512,504,519,505,526
515,502,518,515,508
519,501,517,521,481
523,502,515,532,463
528,504,513,534,460
523,504,509,534,458
518,500,503,527,462
510,498,498,528,473
500,497,495,514,497
495,505,503,510,527
505,511,508,502,545
506,514,519,497,563
507,513,523,500,558
510,513,524,502,550
511,511,526,500,552
508,507,521,499,552
514,503,520,499,542
521,505,519,508,519
519,503,515,514,500
523,501,517,524,473
524,501,514,532,459
524,505,512,535,458
522,503,507,531,459
517,501,506,531,467
506,496,495,519,481
501,500,498,514,510
502,508,504,505,533
503,513,511,504,555
508,518,525,502,565
510,515,522,501,558
515,516,524,503,554
510,510,521,502,552
507,503,519,497,549
513,504,520,503,534
515,503,517,510,515
518,501,517,519,492
522,502,516,527,466
526,504,513,533,461
522,503,511,533,458
516,501,503,532,460
512,499,501,526,468
500,496,495,517,490
500,500,497,510,517
500,509,507,505,540
502,518,517,502,560
508,514,522,500,563
510,513,524,500,555
510,509,522,500,552
511,509,521,496,547
509,506,521,499,543
510,503,520,505,527
516,502,519,512,505
520,502,513,519,481
524,502,512,530,463
522,504,516,534,459
519,502,510,537,457
514,500,504,528,464
506,497,499,529,475
499,498,497,515,505
499,503,501,506,533
502,513,512,502,555
505,516,520,501,567
508,512,523,500,560
510,513,523,499,554
510,510,524,496,546
510,507,526,496,543
509,505,525,501,536
514,503,520,508,515
515,500,518,511,493
520,500,516,527,476
520,501,514,532,462
521,505,513,532,456
518,503,512,533,459
510,500,504,531,467
504,496,496,517,487
500,500,498,510,512
501,505,502,504,537
505,511,510,498,555
509,516,521,500,558
510,510,522,500,548
515,512,526,499,545
510,509,522,499,548
509,504,521,498,553
509,503,521,503,532
512,500,520,508,516
518,503,519,518,490
523,504,516,528,468
521,502,514,530,459
522,503,511,533,456
520,501,505,530,462
513,498,501,528,472
504,498,496,521,490
499,502,501,512,513
497,507,511,505,542
499,514,517,501,561
501,514,521,500,567
504,513,524,499,560
500,509,524,497,558
497,508,524,497,556
516,510,523,501,544
519,503,525,506,520
521,499,516,511,498
526,501,515,522,484
528,503,513,529,464
534,504,511,532,458
529,504,509,530,453
521,500,505,528,451
514,497,500,528,460
507,499,498,515,491
503,505,503,507,521
505,511,510,500,548
510,514,520,500,560
511,513,521,498,553
513,512,525,500,549
513,511,523,499,547
508,506,523,498,546
513,503,520,501,533
515,504,521,507,514
516,501,516,513,495
527,506,517,525,471
526,504,518,533,457
523,504,515,536,455
518,501,507,529,462
514,500,503,528,464
501,494,496,518,482
497,499,499,512,509
498,507,504,504,535
504,512,516,502,557
506,515,523,503,565
506,509,522,500,559
505,509,522,498,555
511,510,523,500,549
510,508,521,498,548
507,503,521,502,534
512,503,520,510,511
517,502,518,518,489
524,502,518,529,466
529,506,514,533,459
531,504,512,535,457
518,501,504,530,461
513,500,498,525,469
502,498,495,514,491
499,503,501,508,521
499,508,508,504,543
505,516,522,501,562
508,516,524,499,563
513,514,525,500,555
511,512,525,501,552
510,510,524,501,548
510,506,521,498,542
512,504,519,506,523
513,501,518,516,505
520,502,518,522,480
523,503,517,530,465
522,504,513,532,464
522,503,510,533,457
515,500,500,526,461
511,498,498,523,474
502,499,496,515,499
501,508,503,509,528
501,507,509,503,549
505,516,519,499,563
509,512,519,499,558
512,513,523,498,551
511,508,522,500,551
510,508,518,497,550
510,505,521,501,539
513,503,518,508,518
516,501,514,520,499
522,499,515,525,472
522,502,513,531,459
523,501,511,534,457
517,500,507,533,461
512,500,500,528,467
502,497,494,519,488
498,500,496,512,512
499,510,504,506,540
501,511,514,504,559
507,514,521,504,562
510,510,520,500,553
512,511,523,498,549
510,509,521,500,550
508,507,521,499,547
507,502,517,503,530
513,503,518,511,514
520,502,515,518,483
524,501,514,528,462
525,503,512,532,457
524,503,510,535,457
515,499,500,529,463
512,499,499,525,474
503,496,497,515,497
499,503,498,509,528
499,508,505,503,545
501,517,514,500,557
509,516,521,501,553
512,513,524,501,549
510,510,526,502,550
506,506,523,499,543
510,506,519,501,541
511,502,518,507,526
517,502,515,512,504
522,501,515,528,480
524,500,513,530,460
524,503,511,531,456
521,503,507,533,460
514,500,501,530,471
508,496,495,524,483
497,500,493,514,507
498,507,503,510,528
500,512,510,508,538
505,517,521,501,556
508,513,521,503,555
511,511,525,501,551
510,510,522,501,549
506,511,521,500,548
505,504,517,501,539
513,507,519,510,522
522,502,517,517,495
528,503,516,531,471
526,501,513,533,459
524,503,511,538,453
520,501,503,530,456
515,499,501,529,463
502,495,491,516,482
500,500,497,514,509
502,508,505,510,532
502,513,514,502,553
506,514,520,502,561
514,511,519,500,550
515,512,521,498,546
512,509,522,499,548
509,507,518,501,545
509,504,518,505,529
513,503,518,512,513
517,502,516,521,484
522,502,514,529,465
522,502,512,535,464
520,502,508,533,463
520,502,503,531,463
517,499,499,527,474
501,497,494,517,496
496,501,501,509,517
496,512,507,504,543
504,515,517,500,564
512,514,519,501,559
520,516,523,500,549
514,512,523,502,547
513,511,522,502,548
510,506,518,502,543
518,505,519,507,522
519,501,516,514,505
524,503,517,520,478
528,504,513,532,463
524,505,514,534,460
518,504,508,533,459
510,499,502,529,470
504,496,497,522,479
498,499,494,513,503
497,506,503,505,530
500,511,508,504,553
510,517,520,501,565
518,514,521,499,556
519,514,523,504,550
513,511,523,501,548
516,509,521,501,547
512,504,516,501,534
520,502,519,510,517
517,501,516,516,498
526,503,516,526,474
524,503,514,532,462
524,502,510,535,457
518,501,505,532,458
512,502,503,529,468
503,496,494,517,489
499,498,497,512,516
502,508,506,503,537
502,513,513,505,558
507,515,520,503,564
508,509,522,500,558
510,509,521,499,552
511,511,522,502,549
509,510,520,500,546
514,506,519,505,531
514,502,517,510,508
519,507,517,522,487
523,502,513,530,467
522,503,512,533,462
519,502,510,537,459
515,501,501,531,462
513,501,500,526,470
500,497,496,515,494
499,503,503,512,524
500,509,507,503,544
506,516,520,502,562
511,514,522,500,564
514,513,523,502,555
511,510,521,503,553
512,507,519,499,549
509,506,519,500,540
511,505,523,508,524
520,505,516,514,503
521,502,517,523,481
524,504,512,532,462
522,505,510,535,459
520,504,506,532,462
511,499,502,527,471
506,498,497,522,484
499,500,497,513,509
498,505,503,509,539
502,511,512,499,555
507,517,520,499,563
512,512,521,500,554
511,511,523,500,547
510,509,523,500,543
511,508,524,499,550
508,502,518,502,537
513,504,519,509,516
516,502,516,517,485
521,505,514,528,466
523,502,513,530,457
522,502,510,534,455
518,502,505,532,459
516,501,499,529,467
503,497,495,520,482
501,501,496,511,510
502,507,502,504,535
504,513,512,500,553
509,513,520,501,561
510,513,522,500,557
510,511,521,501,555
508,505,519,499,547
510,509,520,499,545
509,502,518,504,531
514,503,518,512,512
519,501,514,521,483
525,501,513,530,453
524,503,511,533,456
524,505,509,534,454
517,498,502,531,456
514,501,498,525,466
502,498,494,517,490
502,502,497,508,520
502,510,508,504,544
505,516,516,501,567
505,512,520,503,566
509,511,521,499,557
511,513,523,498,552
510,509,522,500,546
510,509,521,501,536
512,503,519,504,516
512,500,515,513,498
518,501,515,524,475
522,503,515,531,460
521,507,512,534,461
518,503,506,532,462
514,505,502,528,467
507,495,495,518,483
506,501,497,513,503
502,506,501,503,530
504,514,512,502,552
508,517,521,499,564
510,513,521,502,559
513,514,525,501,554
511,510,523,501,550
512,506,520,500,546
514,502,518,502,535
515,502,517,508,516
518,502,514,517,495
521,501,517,530,470
519,501,512,532,462
522,503,511,534,456
518,504,504,531,463
511,501,505,529,471
504,497,493,518,489
502,504,495,510,514
502,513,506,506,539
503,516,513,502,557
507,514,519,501,558
509,511,519,499,554
510,512,523,498,550
508,509,523,500,549
506,506,522,502,546
509,503,518,503,527
509,501,516,511,510
516,502,517,521,486
516,501,517,531,467
518,503,511,533,463
525,503,507,533,456
519,502,503,529,463
511,500,504,527,472
507,500,498,516,496
505,502,500,508,524
503,509,505,502,546
513,516,518,502,559
516,516,521,501,558
516,515,525,502,551
514,510,521,501,551
511,507,521,500,547
513,504,520,502,540
514,504,516,506,523
518,501,517,516,501
521,499,515,525,477
524,501,511,531,460
526,503,512,534,455
521,503,507,531,458
512,499,502,530,469
507,497,497,521,480
500,500,497,513,507
499,505,503,507,532
502,510,512,503,553
508,516,523,500,568
508,511,521,500,560
509,510,520,502,558
508,510,521,497,551
508,509,525,501,546
506,503,516,501,531
511,504,518,511,511
517,504,517,518,491
520,501,514,525,471
520,503,512,534,457
524,505,509,536,453
523,501,505,532,461
515,498,500,525,468
503,497,494,522,486
504,504,498,511,513
500,508,505,505,538
503,516,516,504,556
506,514,521,504,561
510,513,521,499,551
514,512,522,502,549
511,512,522,503,547
508,505,519,501,542
511,505,519,504,527
514,501,516,510,509
519,505,517,522,487
522,498,511,528,463
523,501,509,532,457
523,503,508,533,456
513,499,502,530,465
511,499,498,525,471
500,496,495,512,497
500,504,499,510,528
501,507,509,502,549
504,514,520,499,565
508,513,519,498,559
511,512,521,499,552
508,509,520,497,550
509,505,521,499,544
510,505,519,500,535
513,504,521,508,518
512,501,513,513,501
522,503,517,525,484
519,501,514,531,468
518,504,512,534,462
514,503,508,532,465
507,500,501,529,471
501,495,498,522,481
509,501,496,513,497
505,505,502,505,526
508,513,511,502,548
511,515,520,497,561
516,509,518,498,553
515,511,521,500,548
513,508,520,499,546
513,508,522,500,542
510,502,515,500,524
514,501,518,510,506
520,501,516,517,486
525,501,514,528,464
521,505,515,533,459
519,503,508,533,455
514,500,504,531,460
507,499,501,525,468
500,497,495,517,488
495,500,497,510,513
497,505,505,503,539
502,514,516,499,563
512,514,519,497,568
517,513,522,499,562
520,513,523,502,556
515,509,522,499,547
512,506,519,501,538
515,504,519,505,522
514,500,516,511,508
522,499,515,522,484
524,501,513,529,461
523,500,511,532,458
519,500,507,531,455
514,499,502,526,457
510,499,500,525,468
501,498,495,513,495
498,501,499,507,525
502,509,508,500,551
509,516,519,500,565
508,513,523,500,561
510,509,521,499,553
508,510,522,499,549
507,510,525,500,550
506,505,519,500,538
509,503,519,510,522
517,501,518,516,498
517,500,517,524,474
523,500,513,531,460
529,505,511,535,457
526,502,508,531,460
517,500,502,527,467
506,496,492,518,486
507,501,497,513,509
500,505,503,507,532
506,514,512,502,556
508,516,517,501,564
509,510,519,499,558
512,512,523,499,550
512,510,522,498,550
511,509,521,500,547
510,504,519,503,531
513,503,516,508,515
517,501,517,519,494
523,500,517,527,469
523,502,511,531,462
523,503,511,535,454
515,501,503,530,459
510,502,501,528,468
505,499,494,516,491
497,500,497,507,517
502,508,507,504,542
502,512,514,501,559
508,513,516,498,564
513,514,522,500,557
513,512,523,499,554
511,508,520,501,550
510,506,519,498,538
512,503,519,509,526
516,503,516,516,504
520,502,517,520,481
524,502,513,530,464
521,503,512,534,462
518,501,507,534,459
517,503,502,529,465
510,500,503,527,474
501,499,496,515,501
498,504,500,508,526
498,510,507,503,551
500,515,518,501,568
504,511,519,498,562
506,511,522,500,552
507,511,522,502,553
511,509,521,498,549
514,505,520,502,538
512,502,518,508,524
519,504,518,518,504
520,501,516,523,478
527,501,514,534,459
533,502,512,535,452
522,499,504,532,456
515,498,500,528,464
504,494,494,519,481
499,499,496,513,508
500,508,503,506,534
502,511,512,500,555
506,514,517,498,562
508,511,521,500,555
513,513,523,502,551
510,510,522,501,550
510,509,521,499,543
511,504,520,504,532
515,502,517,510,511
518,501,516,518,492
529,502,513,528,466
524,502,512,533,462
523,502,509,532,463
517,500,503,530,463
512,500,504,528,470
503,497,494,516,490
500,502,499,508,518
501,508,507,508,542
505,516,514,499,564
508,514,521,500,566
510,513,522,504,556
511,511,525,502,550
509,510,521,499,543
510,507,521,500,540
508,503,518,505,527
512,499,517,512,507
518,502,513,524,483
528,503,514,531,463
528,505,512,534,459
522,503,505,537,457
513,500,502,527,465
512,499,498,526,474
500,498,494,515,501
496,506,499,506,530
501,511,509,501,552
505,517,519,501,569
511,515,521,500,560
514,513,521,500,553
508,511,521,499,552
506,508,521,500,548
507,508,522,502,540
512,503,518,508,515
516,499,515,516,495
522,500,514,525,473
524,503,514,532,464
528,502,510,538,458
526,501,504,532,459
518,500,501,529,463
505,495,494,520,486
504,503,497,514,512
501,507,504,505,538
505,513,514,505,558
509,517,522,498,559
509,511,522,500,558
514,511,524,501,550
513,509,523,500,547
513,508,520,502,543
511,503,517,505,530
516,504,517,511,514
517,502,517,521,487
520,501,515,529,464
520,502,515,534,461
518,501,510,535,461
513,500,503,529,464
509,498,501,527,471
502,497,494,516,491
505,502,498,507,522
505,509,507,501,542
508,515,517,501,562
509,515,521,499,561
512,511,523,500,552
517,511,523,500,552
513,509,520,500,552
510,505,520,502,546
512,502,519,506,529
514,500,520,512,505
521,499,517,521,475
523,500,513,528,458
521,503,512,533,457
518,503,507,534,459
512,501,502,527,467
505,498,498,526,480
498,497,495,515,507
498,506,504,509,534
500,511,511,503,553
507,516,520,501,569
508,513,520,500,562
517,513,523,499,551
513,511,521,501,549
510,506,520,500,544
508,505,520,504,534
512,502,519,509,516
516,501,517,518,492
523,501,514,524,465
526,502,512,535,453
527,504,510,534,455
520,501,503,533,460
514,502,500,528,465
506,497,494,518,486
500,498,495,511,513
501,507,507,506,538
501,515,514,503,556
505,519,522,502,564
507,512,520,501,555
511,510,522,501,549
510,507,520,500,549
512,507,520,499,546
512,503,518,503,528
517,500,519,511,508
521,501,516,518,486
524,500,513,529,463
525,501,511,532,458
523,503,508,534,455
517,501,502,531,466
511,499,499,526,470
498,496,494,516,494
499,503,499,509,515
501,509,505,503,535
503,515,516,501,556
506,514,521,496,559
506,510,521,498,555
517,513,525,500,550
517,510,523,500,547
511,507,523,500,544
510,504,519,503,531
515,503,518,517,510
522,504,517,522,482
524,502,516,529,464
525,503,510,533,459
522,503,508,533,455
515,499,499,529,459
511,498,497,523,473
500,498,494,512,498
502,505,503,508,525
502,509,506,498,549
509,517,519,499,561
510,512,521,496,558
514,512,523,500,550
511,510,523,501,548
509,507,523,499,549
509,504,516,500,534
512,501,518,509,518
516,501,517,516,493
520,502,516,527,470
522,502,513,533,461
524,502,509,534,454
521,501,505,527,456
516,501,502,525,464
503,496,492,518,485
504,500,498,512,512
500,506,504,504,536
504,513,514,499,554
509,516,520,497,561
510,512,521,499,555
512,512,521,502,551
510,510,523,498,548
512,509,522,500,545
510,504,518,503,532
513,502,518,513,510
518,501,518,521,487
522,501,515,528,463
520,501,511,533,458
520,504,509,531,456
515,501,505,530,462
508,499,501,527,470
500,498,495,515,495
496,503,498,507,522
504,511,509,506,542
508,519,517,501,562
509,513,523,501,561
505,510,522,499,553
508,507,522,500,548
506,509,524,498,553
505,507,522,501,546
506,501,518,506,531
511,501,517,510,504
518,500,515,524,481
527,501,513,531,458
531,502,508,532,455
531,502,507,531,456
522,499,502,529,463
514,499,501,523,479
504,498,496,512,504
502,504,500,506,524
503,510,512,501,547
509,516,521,500,563
511,512,521,500,559
510,509,523,498,557
510,509,522,497,550
510,508,522,500,547
509,503,520,502,538
519,504,519,512,512
521,502,516,515,489
526,502,514,527,465
524,502,515,534,457
521,501,509,533,462
516,500,505,530,465
510,499,501,526,473
502,497,492,517,492
499,501,497,512,516
501,508,505,507,537
504,513,514,501,548
510,515,523,499,556
508,511,523,500,556
510,511,525,504,553
510,510,523,497,547
510,509,522,500,544
507,502,520,501,530
513,502,518,511,506
517,501,517,518,483
520,501,512,527,462
526,503,510,533,456
524,505,507,532,455
520,504,503,529,462
514,499,503,530,470
505,498,496,513,495
501,503,499,507,521
503,510,508,504,543
506,516,517,497,557
509,513,522,496,562
511,511,524,499,559
513,511,524,499,556
510,508,521,501,554
509,505,519,501,539
513,503,517,506,516
518,502,518,514,496
519,499,515,524,479
523,502,513,529,459
522,503,511,532,458
518,502,507,533,460
511,501,501,528,463
504,497,497,522,477
499,500,494,513,502
496,504,499,506,529
502,512,509,500,549
507,516,521,501,563
508,513,524,500,559
517,511,523,498,555
514,510,521,496,549
512,510,521,500,547
510,504,517,504,536
516,503,517,508,514
517,501,517,517,490
522,503,515,528,468
522,501,512,532,459
522,503,506,536,454
521,503,505,532,461
512,499,499,527,471
504,498,495,517,496
503,504,497,509,520
499,507,505,507,540
503,514,513,498,552
508,515,521,497,555
511,512,523,500,552
511,513,522,500,553
510,509,520,498,548
510,508,521,499,544
508,502,519,502,527
511,501,514,511,510
519,500,516,521,485
519,498,516,531,465
516,501,511,532,462
515,502,508,530,459
513,501,504,530,463
515,500,500,526,464
509,498,495,516,493
504,506,505,510,523
502,510,508,504,542
508,517,518,502,563
511,514,526,500,561
509,513,521,500,555
513,511,523,498,549
513,510,521,500,548
510,505,520,500,541
515,503,518,506,523
515,501,517,512,502
522,505,516,525,478
522,501,512,531,464
522,503,511,532,458
519,503,507,532,458
514,498,501,528,464
507,498,497,520,483
500,500,497,513,504
499,507,502,505,531
503,513,511,504,551
505,516,525,502,562
508,512,520,499,553
508,512,523,502,549
514,509,524,501,546
509,510,520,500,545
513,504,520,502,536
514,501,518,510,513
516,500,514,516,496
523,502,517,529,470
524,499,512,534,457
521,502,509,534,454
519,504,505,532,461
513,499,501,525,462
500,495,494,515,490
500,505,499,510,516
501,507,506,505,537
503,513,519,501,560
507,514,522,498,564
508,511,519,499,557
510,510,523,498,553
511,510,525,500,552
511,507,522,502,547
511,503,520,504,524
513,500,517,509,508
517,501,515,518,490
514,499,513,529,475
514,500,510,532,470
512,500,509,533,460
506,497,500,528,447
508,499,500,526,460
499,496,494,515,493
505,506,499,507,524
514,511,510,503,546
513,516,522,502,561
511,511,520,500,557
514,509,517,496,550
514,509,522,500,548
514,509,522,499,546
517,502,518,501,534
520,503,519,507,513
522,503,515,514,499
521,501,514,528,476
525,501,512,530,457
523,502,510,534,457
519,502,508,533,461
512,500,500,525,464
504,497,499,522,482
498,499,499,513,506
496,504,500,505,532
503,512,510,501,553
507,517,522,502,562
509,512,524,501,555
510,508,521,500,550
511,509,522,500,547
513,508,523,500,540
510,504,515,500,530
513,502,518,514,516
523,504,518,521,491
525,501,515,529,467
523,501,512,531,458
522,502,511,533,458
515,500,504,530,462
515,500,499,528,468
502,496,495,518,488
500,506,499,512,516
503,509,507,503,542
507,516,517,502,559
506,519,523,501,562
510,510,522,501,555
512,509,520,499,552
511,509,523,501,549
514,509,524,502,542
511,504,518,504,528
514,501,518,513,509
520,501,517,522,486
525,503,515,529,464
522,503,515,534,462
518,500,506,531,460
517,503,504,529,464
512,498,499,527,470
501,499,496,516,496
499,503,501,508,523
501,511,508,504,546
507,517,520,501,561
508,517,522,501,559
508,509,521,498,556
508,509,522,499,548
508,509,521,500,545
509,507,520,503,538
510,503,520,507,517
513,501,518,516,500
525,501,514,525,478
528,502,513,531,462
524,500,510,532,459
519,502,506,532,458
515,501,503,532,468
503,493,494,519,486
497,499,498,513,515
497,506,504,506,537
499,512,514,500,554
506,517,521,503,559
519,514,523,501,552
510,509,522,498,553
508,508,520,497,550
514,509,523,500,545
514,504,517,507,534
515,506,518,510,513
520,499,515,519,488
523,498,515,528,468
526,502,513,533,462
523,501,508,531,461
519,500,504,529,464
515,501,505,528,471
502,497,494,517,491
500,501,498,508,513
505,510,506,506,538
501,516,514,500,557
506,515,520,496,558
504,510,521,500,553
505,511,523,500,552
502,509,525,499,554
503,507,520,499,544
513,506,520,504,527
513,502,517,513,504
518,501,516,522,484
528,501,513,530,459
530,503,511,532,458
524,505,510,532,460
523,499,502,529,459
522,499,499,525,465
506,496,494,514,496
503,504,499,508,525
503,509,508,502,546
509,516,521,498,562
509,513,521,496,559
509,511,523,499,554
506,508,523,502,547
515,508,523,498,542
517,506,520,501,542
511,503,519,507,530
513,502,517,515,509
519,500,512,522,480
525,503,513,531,461
521,503,511,534,452
517,499,505,532,458
519,502,502,528,466
511,497,496,522,486
510,501,498,513,509
502,507,505,508,527
503,512,516,505,549
508,514,519,499,559
512,512,521,503,553
508,509,521,498,552
511,509,521,498,549
512,511,522,500,546
508,504,518,502,529
512,502,517,510,511
518,501,516,518,488
524,501,516,528,462
524,501,512,532,457
524,502,506,534,458
520,500,504,530,465
513,500,497,525,473
505,500,497,517,500
499,503,500,509,524
499,510,505,504,544
505,514,517,500,553
510,514,520,499,552
511,514,521,500,545
510,509,522,499,547
509,507,519,497,545
510,506,523,501,541
507,499,518,503,529
515,502,517,512,507
518,502,516,523,480
523,501,514,530,461
523,503,510,533,455
521,502,508,531,451
520,502,503,533,453
511,498,499,524,473
501,499,500,514,505
499,504,498,503,533
506,512,511,502,548
510,517,519,500,562
511,513,522,498,558
509,509,520,497,555
510,508,522,498,550
512,509,521,501,550
510,504,518,500,540
514,503,519,509,510
517,501,517,516,493
525,504,516,526,475
522,500,511,531,464
524,502,510,531,456
