CH1,CH2,CH3,CH4,CH5
527,501,505,531,452
517,500,504,530,465
504,496,493,512,487
494,499,495,505,520
493,506,498,499,546
494,514,509,498,565
500,513,516,498,577
507,512,519,500,564
508,507,519,497,556
513,507,520,499,553
514,506,521,502,546
508,503,523,506,528
507,500,518,512,508
511,503,521,523,479
508,504,523,539,457
509,508,522,538,449
503,502,511,533,447
495,498,505,531,462
503,496,502,525,468
487,494,493,512,500
491,497,498,503,531
508,506,505,500,551
509,510,510,495,571
522,509,515,500,555
532,512,515,497,546
524,508,518,498,554
514,510,521,502,551
510,503,521,502,542
512,505,523,509,522
516,502,519,518,501
527,504,521,527,468
526,506,518,533,454
534,507,518,539,452
538,504,507,532,454
531,502,506,530,462
515,499,496,520,477
501,495,494,508,507
501,503,498,504,536
501,510,506,496,556
505,512,515,501,570
509,511,518,497,560
508,509,517,497,558
509,508,518,497,550
503,508,519,500,538
500,502,517,502,525
505,500,519,511,509
512,504,520,521,490
518,504,520,530,465
518,505,517,534,458
516,504,515,539,458
524,505,510,533,457
527,502,505,528,463
504,493,497,515,491
494,499,490,509,518
493,505,500,500,547
505,510,507,496,563
510,512,515,497,563
510,511,517,499,551
504,506,517,498,550
508,509,521,501,545
511,508,520,501,543
530,505,520,507,524
529,502,521,515,506
528,503,524,525,471
529,503,520,535,450
530,509,518,538,456
523,504,512,534,464
515,503,507,531,472
524,503,502,528,474
503,497,495,517,506
496,502,495,503,527
496,508,504,497,548
499,512,511,496,567
499,509,516,498,563
496,508,521,498,557
496,511,519,500,552
495,509,520,500,551
498,506,521,504,541
499,500,519,509,516
508,503,518,515,494
528,503,521,525,467
547,507,521,536,453
542,507,518,539,449
531,503,509,529,451
526,503,506,532,461
514,498,496,518,483
501,497,491,509,509
496,503,497,501,534
495,510,506,498,552
497,512,514,499,560
502,508,516,496,556
499,507,516,495,553
473,503,518,496,557
459,504,520,499,553
458,501,521,503,545
460,500,519,510,527
460,498,516,519,512
475,500,520,527,481
496,505,517,533,462
563,513,518,535,446
538,507,507,534,442
505,498,503,529,451
489,494,494,513,477
497,498,493,508,517
505,509,501,502,550
518,516,510,501,566
547,518,516,497,575
569,517,520,498,563
549,510,519,498,561
554,509,518,497,548
551,508,520,500,535
536,506,522,508,514
532,503,520,517,487
535,506,519,527,468
535,500,519,534,452
535,506,518,539,449
522,502,511,534,448
513,500,505,528,455
516,499,499,525,471
507,497,492,513,504
498,498,495,502,530
504,507,502,500,550
511,514,511,495,563
523,512,514,499,556
522,511,516,500,554
509,508,519,500,552
506,507,521,498,553
502,504,519,503,539
508,506,521,510,512
513,506,519,519,486
522,503,521,526,467
530,506,518,534,451
530,509,518,536,452
516,499,507,530,464
518,500,505,528,470
499,497,493,518,493
484,502,493,510,510
474,504,500,500,532
477,508,504,497,549
494,512,512,496,550
512,511,513,498,546
533,512,517,497,550
531,511,519,497,543
530,507,519,501,532
530,506,520,504,518
522,502,516,511,517
531,505,522,521,490
540,504,520,535,459
542,508,518,539,453
533,501,513,533,459
523,502,505,530,466
517,501,503,527,472
503,497,489,513,498
492,497,489,507,528
493,506,498,500,540
498,507,506,498,558
487,508,515,499,566
482,506,516,500,558
469,499,513,497,561
452,500,514,498,557
439,501,517,502,554
451,499,517,508,532
484,501,521,517,510
508,502,520,528,487
522,506,519,534,469
564,514,519,538,465
573,514,514,537,459
558,507,509,536,456
541,502,501,525,466
520,496,491,510,497
523,501,493,503,524
532,510,503,501,547
526,513,510,497,571
528,510,514,495,551
530,506,514,498,546
522,507,513,495,545
521,506,516,500,540
520,504,517,503,534
521,502,520,512,515
521,501,519,517,495
522,504,519,530,468
517,505,519,535,458
511,509,514,539,454
512,502,507,538,456
506,500,503,534,464
483,495,489,515,486
476,499,495,510,518
482,508,498,505,545
462,508,504,498,575
451,511,513,500,605
454,506,515,496,594
456,507,514,495,585
487,512,518,500,559
499,514,524,508,553
516,510,523,505,541
541,508,521,514,497
543,504,516,519,450
534,502,518,534,430
547,512,519,541,415
563,507,506,534,411
554,500,501,531,439
535,495,493,522,464
524,493,489,516,498
512,501,492,506,531
509,503,497,501,538
518,512,509,499,557
519,510,513,500,556
521,509,514,499,549
519,505,509,498,543
522,503,514,499,538
531,507,518,504,537
518,503,518,510,529
507,501,516,513,511
485,503,518,528,489
460,503,519,538,473
443,506,514,539,479
440,507,509,537,485
442,502,506,533,488
444,501,498,525,496
467,496,489,510,509
512,504,494,502,532
542,517,507,503,570
528,513,509,494,581
519,505,509,498,572
533,507,511,494,580
546,507,507,495,549
526,503,511,497,552
501,497,511,501,537
507,500,517,511,495
514,497,514,521,424
505,498,514,529,437
492,499,513,536,440
482,503,509,540,433
525,506,503,537,450
524,505,500,533,473
474,493,486,516,487
490,495,483,504,528
506,509,493,499,557
526,518,506,502,558
518,518,512,497,545
496,513,515,499,542
488,512,518,500,538
496,511,518,501,544
476,509,516,500,557
476,505,517,506,550
500,509,518,515,515
563,508,516,524,492
601,511,514,535,441
588,512,513,537,437
563,506,503,530,454
524,499,497,529,467
508,499,493,527,465
494,489,481,508,519
523,496,483,502,535
558,507,498,506,527
551,518,506,503,538
551,514,509,501,539
541,510,514,505,526
525,507,514,503,513
506,505,513,502,532
496,507,518,504,516
490,502,516,507,491
495,497,511,512,497
508,498,509,519,531
546,501,507,529,480
553,505,508,536,468
544,504,498,532,498
543,505,499,529,508
493,495,483,514,516
493,504,486,511,519
479,510,496,508,522
484,520,511,514,494
499,522,515,506,569
503,517,518,500,613
508,513,516,496,626
514,508,511,495,573
531,506,514,501,554
520,496,507,494,555
524,495,506,504,492
546,497,509,519,446
558,493,504,522,415
538,498,504,535,394
539,508,507,543,376
535,497,494,528,417
531,492,486,520,446
508,490,478,510,484
507,493,478,501,501
514,502,489,497,537
498,508,500,493,580
493,511,511,499,593
503,512,512,501,591
492,512,511,498,592
474,515,520,500,609
471,513,524,510,590
467,511,523,510,563
449,500,514,515,540
459,501,510,526,488
476,496,503,529,477
486,496,497,528,501
536,498,495,535,436
529,499,491,539,385
525,498,487,539,322
536,492,476,505,377
493,488,472,499,487
492,498,490,495,561
499,510,505,498,627
522,516,510,502,597
502,513,514,509,577
518,507,507,498,573
545,509,510,501,547
570,509,514,508,533
552,502,509,504,546
539,495,500,500,565
477,491,503,517,516
427,487,500,532,465
399,495,504,543,432
410,502,498,541,408
362,492,489,529,463
405,484,474,511,524
550,495,479,504,608
536,507,494,511,579
465,524,511,505,597
465,527,513,498,633
418,513,507,493,647
386,507,512,498,635
509,504,502,493,487
641,515,508,501,468
636,512,510,516,459
603,498,503,530,455
612,503,504,524,423
619,494,498,525,321
639,506,502,539,329
570,494,494,524,505
495,476,473,520,414
547,496,488,531,407
532,502,482,522,469
482,505,484,506,525
477,507,494,504,548
465,509,499,494,610
448,504,508,500,593
442,510,516,502,556
458,504,509,494,622
481,499,504,482,652
490,496,505,487,627
523,496,505,502,532
513,498,508,520,476
496,499,509,529,444
537,493,500,534,425
551,492,488,528,414
503,493,491,539,459
485,494,487,538,471
499,502,489,544,438
425,491,476,527,490
382,490,476,508,538
429,502,488,496,598
453,501,492,474,676
503,510,504,477,673
529,519,514,489,625
537,522,520,510,615
487,505,514,523,617
516,507,518,531,539
572,510,520,532,472
576,500,508,531,418
574,485,493,517,328
612,488,488,528,317
576,501,496,533,463
556,498,485,533,538
549,492,475,533,540
499,474,459,517,402
494,499,477,520,412
471,512,488,502,484
439,521,505,485,555
465,521,513,490,617
475,513,510,501,540
505,509,506,493,554
505,502,505,496,524
487,505,512,493,613
512,506,514,491,653
500,496,505,499,602
504,492,504,520,525
452,484,498,536,477
405,486,491,541,460
477,485,477,534,427
516,482,472,537,391
606,486,464,529,339
621,493,462,517,387
506,499,475,509,548
424,508,490,499,643
400,510,501,495,636
380,500,500,475,641
499,508,512,492,559
611,521,518,508,594
533,499,511,504,662
525,506,517,505,517
586,521,525,515,419
624,513,515,513,500
592,499,500,506,493
547,495,492,527,451
517,496,489,536,470
497,496,481,538,454
463,488,467,529,449
474,492,465,524,457
448,492,467,510,521
477,509,478,503,522
509,518,496,503,518
526,537,522,507,534
496,526,527,505,550
400,505,515,497,533
339,491,504,490,549
213,482,502,492,565
283,492,508,496,574
404,501,510,499,589
613,503,505,517,477
651,499,502,528,469
706,503,494,533,409
646,509,494,533,430
554,488,473,535,463
573,495,476,537,444
539,501,476,529,469
509,519,486,515,546
473,525,500,507,599
482,523,507,506,652
455,508,513,497,589
511,504,511,499,433
592,509,508,495,499
647,514,510,492,514
594,506,508,491,543
503,491,506,501,575
548,497,507,510,517
557,493,503,520,459
523,493,502,534,425
498,509,507,543,434
538,524,512,548,427
566,516,495,531,456
542,502,481,521,527
523,494,477,519,536
468,492,476,504,505
447,491,481,495,513
450,500,493,490,542
523,509,504,494,563
498,502,511,502,572
532,511,512,504,559
556,521,520,513,579
527,510,517,504,579
532,502,512,516,526
539,505,515,524,436
534,517,521,521,505
546,510,517,541,441
547,498,500,529,495
541,496,488,529,435
569,493,476,526,352
577,496,478,511,468
540,494,476,506,501
490,500,484,507,527
483,508,498,503,543
499,524,514,504,537
486,521,516,501,607
517,528,527,516,503
481,515,519,508,491
460,497,507,500,498
524,498,504,502,505
587,515,517,514,573
519,500,511,515,604
472,480,495,510,585
446,488,500,535,453
479,498,501,544,441
514,497,491,526,473
539,493,486,515,473
553,496,479,514,460
534,507,485,506,525
501,507,493,502,589
498,512,501,506,581
514,516,508,504,581
498,508,509,504,513
523,511,514,508,458
555,516,515,501,512
571,518,516,496,558
531,505,516,503,516
491,487,503,507,500
481,506,517,529,480
453,508,521,538,506
424,501,508,530,523
423,476,489,525,470
430,477,482,518,483
433,483,482,518,470
418,491,477,508,460
508,495,481,507,523
579,515,497,499,525
519,514,504,499,539
555,511,503,497,532
568,517,515,500,574
534,518,517,500,596
486,500,509,497,610
474,506,516,511,539
433,507,521,526,519
419,507,525,527,536
483,516,520,540,454
573,527,520,533,484
536,511,513,532,512
468,473,480,518,463
478,474,474,517,378
533,495,485,521,489
559,508,487,512,524
547,502,487,510,452
546,512,500,512,489
480,521,511,500,545
483,510,511,506,540
538,504,510,505,531
476,493,500,476,611
501,494,499,482,564
585,514,515,505,521
532,510,519,519,473
452,490,513,518,464
438,495,516,542,422
457,507,512,535,450
545,512,505,534,397
596,512,500,537,469
507,520,507,537,542
477,507,491,514,610
544,500,485,498,571
491,476,470,470,592
448,497,499,502,524
553,508,512,502,504
550,500,506,491,522
519,497,505,494,505
542,506,509,504,493
526,508,519,506,546
531,512,524,523,551
557,528,531,521,504
513,515,526,521,478
581,509,515,529,397
585,510,515,539,386
538,512,512,547,396
507,495,495,532,437
532,490,492,527,484
532,478,472,493,605
503,488,478,489,566
492,499,489,489,567
476,506,505,509,596
466,506,509,503,559
543,519,517,501,491
535,504,510,499,527
509,510,512,498,553
503,516,523,504,616
512,505,517,508,604
552,501,510,523,584
553,503,518,534,506
525,514,520,539,495
532,513,518,528,517
518,500,502,524,442
535,498,495,528,386
520,490,485,522,391
496,494,487,506,477
497,506,501,507,527
501,516,504,505,566
509,523,517,505,574
475,513,514,501,578
461,504,514,496,539
454,502,514,491,601
416,493,508,490,618
492,502,510,506,455
567,510,519,517,392
554,500,516,526,486
558,499,513,523,463
554,504,507,520,473
479,496,503,531,440
516,508,509,546,448
511,513,508,542,489
433,490,488,516,533
453,498,489,500,564
443,514,500,506,505
429,516,507,505,540
495,502,503,493,550
497,495,506,493,575
516,498,509,490,595
608,509,511,501,543
589,510,520,506,536
512,497,515,503,555
527,502,517,514,516
578,507,515,525,454
581,505,510,531,409
510,499,510,531,451
530,505,509,534,441
490,502,508,537,495
459,496,497,522,528
487,501,492,516,495
498,502,493,509,479
492,507,497,496,520
506,513,511,496,590
516,512,514,500,563
531,513,518,501,563
529,515,518,494,534
562,511,513,494,528
556,506,513,507,519
529,500,516,512,499
495,496,516,519,511
511,497,518,533,486
521,503,517,536,480
517,505,513,533,467
521,507,506,537,444
499,496,500,527,476
511,487,484,518,492
505,496,483,498,524
483,503,494,504,530
451,508,502,497,583
461,515,514,506,558
478,504,513,506,592
539,513,518,491,556
565,519,523,508,519
549,518,521,501,529
547,507,513,495,545
486,491,510,502,570
425,482,508,514,469
565,510,520,540,401
586,517,515,535,452
527,511,516,536,486
487,503,507,543,513
456,494,498,527,473
521,499,489,507,431
493,499,488,506,483
521,519,500,506,539
503,520,513,500,541
517,509,512,498,496
537,500,509,495,481
512,507,518,500,480
499,498,514,498,516
495,500,515,497,616
538,509,517,509,662
526,509,522,520,581
502,496,515,521,547
522,496,509,529,389
560,511,514,536,407
554,506,510,529,456
534,499,498,525,472
513,504,500,524,499
491,491,484,505,517
469,499,492,507,502
497,508,500,504,485
488,513,506,495,552
487,508,514,493,605
537,517,520,502,548
527,515,521,505,532
483,504,516,495,552
508,507,522,500,552
522,502,516,507,529
548,500,515,515,490
555,515,523,531,460
527,512,523,539,472
509,511,520,541,474
530,512,511,539,484
562,502,496,526,476
557,497,485,517,441
513,494,483,500,502
457,498,494,501,518
474,507,504,501,551
495,515,511,497,578
525,512,516,500,592
495,505,515,501,598
499,508,512,487,590
473,517,529,515,493
471,511,523,512,540
456,502,519,505,537
456,491,513,516,503
563,504,514,535,417
606,507,512,534,394
546,506,512,534,419
506,496,500,528,457
501,494,502,527,498
499,493,492,525,491
491,498,492,506,516
460,498,494,492,526
501,513,512,501,567
526,516,521,500,573
548,516,516,496,564
520,514,522,498,525
490,503,518,490,547
499,505,523,501,540
509,506,521,504,534
518,507,518,515,491
589,513,523,527,439
590,505,520,530,449
534,502,514,536,505
486,498,513,559,497
494,497,502,523,504
496,498,497,510,462
478,504,497,517,465
461,508,501,513,514
500,513,503,501,535
535,512,513,495,529
535,514,519,499,532
511,513,523,502,513
505,509,522,497,551
507,506,515,491,601
517,510,519,498,592
539,498,518,507,506
533,497,516,518,423
534,505,519,526,468
544,508,518,533,479
536,507,514,531,455
530,503,508,533,457
497,500,504,531,488
485,492,490,519,501
482,497,492,504,507
507,506,496,498,552
513,514,507,500,572
502,515,518,498,585
493,504,517,502,561
503,506,517,496,523
547,511,515,492,543
527,511,522,497,544
523,509,521,503,530
527,504,521,510,513
539,501,518,523,487
527,508,521,530,453
519,508,523,535,443
515,509,512,536,411
526,507,504,530,455
521,494,496,523,508
535,497,492,508,515
519,506,497,505,544
518,511,505,501,554
465,508,510,498,582
474,506,513,492,568
516,512,516,501,553
517,514,523,504,543
505,501,516,502,539
509,506,520,505,532
513,505,526,512,539
508,501,520,513,504
525,504,516,515,455
535,508,520,533,441
528,512,520,545,433
486,502,513,542,447
464,490,498,531,471
479,494,494,514,510
427,498,496,505,546
464,510,506,509,543
496,507,503,493,529
526,513,513,497,524
583,519,518,504,550
584,526,520,493,606
492,502,515,499,589
491,505,520,513,513
537,501,519,508,489
543,499,516,505,508
544,498,515,513,531
532,500,520,529,465
526,505,519,538,461
541,516,522,539,430
527,511,515,542,423
491,499,504,530,478
476,495,494,521,478
496,498,490,507,492
478,505,503,508,536
484,509,504,498,581
457,501,503,481,623
463,501,513,494,563
501,509,518,507,545
583,507,519,502,563
562,511,520,501,530
521,501,521,505,488
526,504,524,512,486
561,508,524,519,506
547,506,519,531,495
551,512,518,532,454
554,511,519,541,405
530,511,518,544,464
500,501,504,531,510
476,504,494,508,495
477,506,498,512,459
503,509,504,503,496
488,504,504,489,563
497,504,507,490,611
516,506,514,490,569
539,511,522,500,549
523,507,517,498,546
510,504,522,504,522
512,503,523,511,502
514,500,522,519,496
522,498,517,522,492
519,508,517,529,480
526,512,519,537,465
551,507,513,535,459
516,490,498,521,475
493,492,501,521,501
481,497,494,510,511
507,509,503,509,522
489,511,506,500,554
496,514,514,496,581
490,507,516,498,590
491,509,520,495,577
516,511,523,497,548
514,502,513,500,491
521,503,519,502,552
525,502,521,506,524
542,507,523,518,476
557,508,525,531,457
558,506,521,538,450
538,513,523,539,477
524,511,516,541,463
509,498,503,529,464
493,489,489,516,474
457,503,498,508,522
464,514,512,509,541
474,505,505,502,535
475,504,509,497,566
488,501,510,501,555
471,505,517,493,542
481,504,520,503,540
526,505,523,505,524
569,507,523,500,489
593,515,524,515,464
537,504,525,522,487
532,510,526,538,461
527,504,522,533,508
520,504,518,535,477
529,497,505,535,468
534,501,497,514,486
526,496,491,506,517
514,496,487,494,526
452,496,498,498,555
462,509,514,498,556
504,517,521,501,551
499,508,520,502,558
506,508,522,502,550
496,506,520,499,510
472,497,517,500,500
474,499,524,510,495
457,508,526,524,481
486,515,531,533,462
514,509,524,535,487
610,509,517,534,466
585,505,511,531,465
566,497,500,524,453
537,492,492,518,465
519,501,493,509,497
537,514,503,506,532
553,520,510,503,546
529,517,520,496,631
500,504,516,491,608
485,504,517,503,513
508,509,518,497,554
507,501,519,496,582
529,505,522,503,539
521,507,520,510,536
529,503,522,522,473
520,501,520,526,466
517,501,515,528,460
541,506,517,535,458
524,501,510,541,479
513,506,503,522,487
488,500,499,522,510
455,504,499,516,509
440,501,505,501,514
420,497,500,486,562
490,509,512,492,573
521,511,522,502,550
603,522,521,505,530
536,506,520,506,517
483,506,521,508,520
510,505,524,506,527
508,500,520,507,578
526,496,520,530,538
545,501,515,517,467
547,504,521,544,380
542,502,512,538,443
524,499,505,525,446
525,496,496,520,431
504,491,493,514,474
495,500,494,503,536
490,509,506,496,561
490,517,517,500,560
494,519,522,510,533
487,516,526,511,533
496,511,523,503,534
485,500,516,490,557
502,501,516,494,568
519,506,522,507,536
540,505,522,521,496
580,513,524,534,458
548,508,525,542,502
574,510,515,519,477
492,498,507,526,455
503,497,504,530,445
516,487,492,524,500
511,496,493,505,512
497,502,498,497,522
490,509,507,500,551
488,514,517,502,581
501,510,519,499,563
520,511,522,502,541
535,514,522,502,550
531,512,521,502,548
526,510,525,508,529
508,499,522,512,508
545,502,519,517,448
509,502,526,529,462
491,502,520,534,449
508,504,518,540,431
525,501,509,534,465
524,496,497,519,472
500,496,490,513,519
484,499,493,504,548
474,504,499,501,547
477,507,512,500,558
468,507,518,503,559
530,514,519,498,547
541,513,519,498,543
499,507,518,491,532
502,507,526,506,546
494,509,525,510,548
523,509,522,515,504
564,514,532,527,480
570,510,523,531,475
543,505,519,533,501
551,511,512,534,480
516,500,509,534,421
499,493,496,516,446
505,494,495,510,480
507,504,498,508,511
501,509,504,504,550
508,517,514,501,570
481,506,518,496,557
470,506,522,509,545
486,508,523,505,551
499,503,517,493,522
515,502,522,505,491
538,505,524,510,512
536,495,516,512,525
540,502,520,527,478
536,502,519,529,464
537,509,523,536,462
522,503,512,534,475
526,500,503,530,476
508,494,495,522,491
493,498,495,504,512
499,508,501,503,535
498,513,510,501,573
498,518,520,498,598
511,517,520,494,571
521,514,522,502,526
522,509,520,497,542
498,503,520,497,550
510,504,524,509,515
518,505,521,514,499
526,503,523,520,476
512,503,524,535,469
509,504,520,538,471
526,508,517,534,467
537,508,510,532,458
516,500,504,526,469
510,498,496,515,488
488,495,492,507,540
482,501,500,500,543
490,510,513,497,550
520,512,520,501,532
514,511,521,500,563
507,508,522,498,563
511,505,520,495,559
523,508,522,502,523
520,503,522,505,504
527,502,523,522,476
527,505,525,529,500
530,513,525,532,480
538,508,517,534,439
540,507,513,536,449
529,501,511,531,456
512,492,498,519,500
501,496,493,511,514
487,500,495,501,528
485,511,507,501,553
490,519,516,496,579
499,509,516,494,567
506,509,519,500,542
519,510,523,503,527
513,505,519,500,559
512,505,523,503,544
527,506,524,512,507
531,504,525,521,484
535,507,525,530,481
519,507,522,536,462
525,509,522,535,438
518,503,513,534,461
511,499,504,524,479
506,494,495,514,487
500,497,493,512,508
496,500,500,504,531
493,512,508,500,553
505,519,515,496,560
504,512,521,496,567
505,514,523,501,554
506,511,523,500,552
503,506,519,497,547
518,505,519,504,524
529,503,521,513,511
537,504,523,522,493
529,507,523,533,475
507,511,523,538,473
509,508,520,539,439
518,500,509,533,457
523,494,501,522,483
524,495,491,507,505
494,497,492,503,529
486,505,499,497,541
495,518,513,498,549
503,514,516,498,559
516,511,524,503,552
510,507,521,504,557
513,506,519,493,547
512,506,522,501,533
519,505,524,508,517
514,499,522,529,499
529,505,519,521,473
536,507,523,532,457
536,511,522,533,458
529,507,517,533,462
524,505,508,529,470
514,497,497,520,482
498,497,499,515,514
488,504,499,499,541
493,511,511,498,555
498,517,518,499,566
517,513,519,498,557
513,512,523,500,560
504,513,525,501,556
489,512,525,502,542
500,506,524,505,529
502,504,520,508,507
522,498,521,516,490
537,503,522,528,466
538,504,520,534,451
541,510,523,538,456
533,507,518,534,460
525,502,507,527,466
499,492,491,511,510
498,497,495,502,534
490,505,504,502,545
507,510,509,498,555
509,512,518,497,561
516,509,520,498,547
525,511,523,501,541
517,507,523,499,546
510,506,522,498,538
512,504,523,504,510
521,500,524,512,501
527,506,530,523,493
531,506,525,533,471
534,508,526,538,463
531,507,520,536,462
523,503,513,531,469
511,497,505,525,484
498,497,499,513,507
485,501,499,504,535
484,507,508,500,552
487,512,512,496,561
490,507,518,496,565
508,510,525,500,550
512,514,531,501,545
512,514,528,504,543
509,506,527,504,534
514,506,527,507,518
528,508,526,514,508
530,502,526,522,487
531,505,528,535,460
541,511,527,536,447
536,512,523,537,452
521,503,515,532,457
499,494,500,514,497
489,492,496,505,529
507,499,502,500,562
529,511,514,495,584
525,514,519,496,582
513,508,524,496,565
492,507,523,505,533
498,506,528,502,526
506,504,525,496,539
512,505,528,503,533
515,504,530,512,512
521,501,526,520,482
533,508,529,533,457
533,507,523,531,459
531,512,526,537,458
525,505,516,530,465
516,504,512,527,474
501,493,499,512,497
494,499,502,506,522
493,505,507,501,541
496,511,513,497,555
501,512,521,497,557
503,509,522,497,549
508,510,526,497,545
509,508,528,500,541
510,507,526,500,537
514,505,527,507,524
519,503,525,511,503
527,505,527,525,482
532,508,526,532,464
532,508,528,536,465
532,508,524,536,462
522,503,516,529,469
510,499,507,522,481
498,496,502,513,508
492,499,502,502,531
496,508,511,501,549
498,514,520,497,559
505,511,524,497,554
509,511,527,502,547
513,511,529,500,547
510,510,527,500,543
508,504,527,503,534
517,503,528,509,516
522,503,529,517,500
527,502,528,525,479
536,507,529,534,465
533,509,525,536,461
527,508,520,534,465
521,503,514,528,473
505,491,500,516,494
500,496,500,508,512
493,502,503,501,536
497,510,511,496,550
501,514,519,496,561
500,511,521,497,555
509,509,523,498,544
509,508,526,498,540
507,506,524,499,540
512,506,529,503,528
521,504,526,510,510
524,504,529,519,490
532,506,528,528,468
532,507,527,533,464
534,510,525,538,461
525,505,517,535,471
517,502,515,530,478
502,495,499,514,505
495,498,498,506,532
496,506,505,502,543
498,511,515,494,551
504,513,521,500,547
507,510,524,496,544
510,509,525,500,541
510,507,526,500,535
512,510,525,501,535
521,504,526,506,517
519,501,523,512,503
526,504,528,523,483
535,503,526,533,460
535,507,524,534,462
534,506,521,535,461
523,503,513,529,470
514,503,507,524,481
500,496,500,510,505
494,503,502,505,531
496,506,509,497,548
500,512,517,498,558
503,509,521,503,552
508,508,524,501,544
506,508,526,501,542
507,506,525,499,539
510,505,525,502,527
520,506,529,511,511
522,501,526,517,493
531,505,531,527,473
534,507,527,533,464
532,509,526,538,464
527,505,519,529,471
524,503,513,530,478
504,496,499,515,499
500,498,500,507,516
496,503,505,506,538
499,509,510,499,546
503,513,519,495,550
507,509,522,496,542
510,509,526,500,537
512,511,526,500,538
510,507,525,499,536
512,504,529,504,525
518,502,528,511,506
524,504,529,521,487
529,504,527,529,465
530,511,528,536,463
531,510,526,536,464
522,504,517,531,467
516,502,512,526,478
499,494,501,514,502
496,499,502,505,526
496,504,510,502,540
497,510,517,499,553
504,512,522,500,557
506,510,524,500,546
507,509,527,500,540
508,507,527,501,539
510,507,526,500,531
516,506,532,508,517
519,504,526,520,504
526,506,530,527,485
530,511,532,535,468
533,508,527,536,466
526,510,523,535,463
517,504,520,528,474
513,501,509,520,493
498,497,500,508,514
496,502,506,504,533
500,507,513,500,552
501,515,521,499,557
504,513,523,499,548
508,509,527,500,543
508,509,530,502,533
509,508,528,500,534
510,505,528,503,525
517,505,529,507,509
521,505,531,517,494
528,506,531,526,477
530,509,534,535,470
530,511,530,537,466
522,509,522,531,473
517,504,516,526,480
505,498,504,515,501
494,497,503,508,523
495,504,509,501,535
497,510,517,498,546
502,513,521,500,549
505,508,525,499,546
513,510,528,501,538
510,509,532,501,534
511,510,529,501,533
511,504,530,509,521
517,504,528,511,504
524,506,534,520,490
529,506,532,530,473
528,513,533,535,472
529,510,531,535,471
521,506,521,530,478
515,508,518,526,486
500,498,506,510,507
495,504,506,505,528
494,505,511,501,542
497,511,519,501,551
502,511,524,496,546
506,510,526,499,540
509,510,527,503,539
507,508,527,499,539
506,508,527,501,535
512,502,529,507,519
518,505,528,514,493
530,510,535,527,474
529,509,531,531,468
530,511,531,534,471
525,510,529,537,475
518,506,524,528,483
508,501,513,520,494
499,499,504,509,515
495,505,509,504,532
495,511,514,500,542
501,514,526,498,546
503,509,525,497,540
507,509,528,498,534
506,508,529,500,532
507,508,530,498,534
508,506,531,506,526
514,505,532,511,512
519,507,532,520,492
528,508,537,528,476
526,511,537,532,476
529,514,537,539,475
520,508,528,532,480
515,507,524,526,491
499,498,512,515,509
496,501,511,508,520
493,504,511,502,535
492,510,517,498,542
500,507,524,497,541
505,509,527,496,537
510,511,533,499,532
510,509,532,498,528
509,509,533,499,525
512,505,534,506,517
518,508,536,514,504
524,510,538,523,488
528,510,542,530,475
526,516,539,536,473
530,513,538,536,474
518,507,529,530,483
514,506,525,525,491
499,499,516,512,513
493,501,512,502,528
496,510,518,501,541
498,512,526,496,545
500,510,527,496,546
502,509,532,504,543
505,511,532,502,536
505,510,539,501,533
505,507,536,505,527
508,506,536,508,510
513,503,541,515,496
524,506,540,525,481
530,511,544,532,473
527,513,539,533,474
526,511,541,534,479
518,510,530,528,489
512,501,520,520,500
504,500,516,512,515
496,501,516,502,530
498,508,518,496,537
502,513,529,498,541
505,509,531,497,536
508,509,535,500,529
508,509,536,499,530
509,508,536,504,525
512,504,537,505,518
516,509,542,514,506
524,507,543,520,499
524,508,545,526,478
528,514,545,536,478
529,513,542,534,478
520,507,534,530,482
514,504,531,529,488
503,498,519,515,507
495,497,515,507,526
496,505,520,501,535
494,507,525,497,544
500,509,530,495,548
503,508,534,500,540
506,509,534,501,535
507,507,537,503,529
508,506,534,500,526
511,506,539,505,515
517,503,540,513,506
521,508,543,524,489
525,508,545,530,480
531,511,543,536,477
525,509,540,535,479
518,506,533,529,486
511,503,528,525,495
499,497,516,512,514
493,499,516,504,531
495,505,521,502,541
498,508,527,503,549
502,508,528,499,542
507,510,535,502,536
507,507,539,502,532
508,507,536,506,530
508,505,535,503,524
513,505,538,509,510
518,506,540,517,501
523,508,542,526,485
526,509,541,537,479
528,513,542,536,474
521,508,537,533,483
515,504,530,531,490
506,496,519,518,503
498,498,513,508,522
499,504,516,504,537
496,509,520,499,545
501,509,528,500,544
505,509,530,499,534
508,509,533,500,530
510,508,534,499,530
510,508,534,504,527
509,508,535,505,520
515,506,535,516,508
519,505,539,522,497
527,509,542,527,480
527,508,539,533,477
529,513,541,536,475
521,510,530,530,484
515,505,525,524,490
501,496,514,516,510
495,500,511,505,526
495,504,516,501,536
498,507,521,499,546
503,510,526,500,542
508,507,529,500,538
508,507,530,503,534
508,507,534,502,532
508,505,532,506,527
512,505,531,504,516
517,504,534,515,500
523,509,538,524,490
526,507,537,531,479
527,511,538,536,480
525,510,534,533,477
517,504,526,529,484
513,503,521,525,492
498,495,509,508,518
494,500,507,504,532
498,504,514,501,537
504,510,520,500,546
505,505,522,498,541
509,511,525,501,534
508,507,529,502,533
508,503,526,500,529
509,505,528,503,521
515,505,532,513,513
518,505,535,518,502
524,507,535,527,489
528,509,536,533,480
527,509,531,536,480
521,505,526,530,484
516,503,520,527,484
508,498,512,517,500
495,498,503,506,519
497,504,507,502,532
499,506,514,500,540
504,510,518,498,545
504,506,519,499,540
507,507,525,502,533
508,506,525,503,533
507,505,522,500,527
512,507,526,504,521
514,504,530,513,510
520,506,532,518,497
526,509,535,530,484
528,511,532,533,478
527,511,533,534,476
520,507,520,530,480
516,503,517,524,483
504,499,506,515,504
497,498,501,501,522
497,502,505,499,536
501,509,513,497,546
504,509,518,498,541
505,507,519,499,538
509,507,522,500,533
507,508,521,500,530
510,504,524,504,522
513,504,527,509,513
515,503,526,515,503
523,506,530,528,485
530,509,531,532,472
526,509,527,535,474
524,508,526,535,478
515,502,516,528,486
512,501,512,522,492
502,497,500,510,515
494,498,497,500,529
498,508,506,499,543
499,511,513,498,551
502,507,516,498,545
508,505,519,499,540
509,509,520,499,534
507,506,522,501,529
508,503,522,503,523
515,503,525,511,508
518,505,527,517,498
526,507,529,527,482
529,510,528,532,473
526,509,529,534,475
523,506,521,533,476
519,505,515,528,486
505,497,501,516,502
497,497,498,509,519
496,500,501,500,534
498,506,504,497,544
501,509,513,498,548
503,506,514,497,539
508,508,518,501,532
509,507,519,500,528
510,504,521,502,531
513,506,522,507,520
516,504,525,513,508
522,506,525,522,492
527,507,526,534,479
529,510,526,533,475
526,509,523,535,474
520,505,515,529,479
517,504,511,523,488
500,494,496,512,509
498,500,494,503,527
496,504,499,501,541
498,509,508,498,550
504,508,511,497,546
505,507,513,498,540
509,507,518,500,536
511,508,519,499,535
510,506,520,503,531
511,506,518,507,517
519,501,521,514,500
525,506,523,524,484
531,505,524,534,471
523,506,521,535,476
525,508,517,536,476
516,502,509,526,483
515,501,505,522,492
499,498,500,511,516
496,501,494,503,530
499,508,500,497,543
501,512,510,497,549
508,507,513,498,546
506,509,518,499,541
509,508,515,503,537
508,505,515,499,533
509,504,518,504,524
516,504,521,511,510
518,505,519,517,494
529,503,523,529,477
528,507,525,535,475
527,512,521,536,474
524,504,514,532,478
514,501,506,527,488
505,496,499,516,500
499,495,492,507,518
496,504,498,501,532
498,509,504,497,546
503,514,512,499,549
503,504,511,494,548
507,508,514,499,536
508,506,516,499,536
510,509,518,502,533
510,501,517,504,520
517,504,520,514,506
523,506,521,523,489
531,506,524,529,470
532,507,520,535,469
528,506,518,533,471
521,504,511,530,480
511,498,504,525,487
500,496,494,516,511
492,496,491,503,532
495,502,498,500,541
503,512,508,499,550
508,510,511,497,548
509,507,515,498,536
514,504,513,499,531
512,506,516,500,530
513,506,517,504,525
513,503,518,508,516
518,504,519,516,496
525,507,521,524,488
527,506,522,532,472
527,507,517,531,469
523,507,512,533,470
518,502,506,530,479
513,500,501,526,496
496,497,491,509,520
495,502,496,503,535
502,509,499,499,547
502,515,510,498,549
503,509,512,500,538
506,507,515,497,526
507,508,516,500,526
505,510,517,501,528
503,502,513,501,523
511,505,520,511,511
514,501,519,518,497
520,504,520,529,478
520,506,521,535,474
519,506,517,537,470
523,505,515,532,469
519,500,505,527,477
509,497,495,517,504
495,496,492,506,530
503,506,497,499,540
516,512,505,496,548
515,514,510,500,549
514,509,512,499,541
512,509,517,501,530
512,506,516,500,527
516,506,514,500,525
522,505,518,505,517
523,504,521,515,504
524,503,520,521,488
530,501,520,531,476
527,505,524,536,472
525,507,518,535,474
517,503,514,531,481
510,501,504,523,486
502,496,495,512,510
503,501,494,501,524
502,507,498,499,540
504,514,509,496,548
513,511,513,498,547
508,507,514,498,543
508,508,517,503,537
510,509,517,498,532
511,502,518,501,528
516,505,523,512,516
519,503,520,514,498
525,505,523,525,481
528,507,522,531,472
527,509,519,538,473
526,509,517,534,476
516,503,508,530,484
509,499,500,519,492
499,498,495,509,515
495,502,498,504,535
491,506,503,499,546
496,513,508,500,554
498,509,513,497,545
502,509,516,501,539
503,507,517,499,535
503,505,516,500,535
506,505,518,504,523
521,506,522,511,508
530,508,521,520,496
534,507,523,528,479
531,509,521,536,472
526,506,517,535,478
520,504,511,531,480
516,501,507,525,478
503,499,494,515,502
496,497,490,504,524
494,502,498,503,539
498,507,504,498,548
506,512,512,496,546
508,509,513,497,541
511,509,516,499,536
511,508,518,499,535
513,508,519,502,532
510,502,518,506,521
517,503,519,514,503
524,506,521,522,489
528,506,518,530,471
527,509,524,536,470
528,508,519,535,472
516,503,512,530,481
512,500,503,524,488
501,498,492,510,512
494,499,494,501,532
495,507,498,499,543
501,512,506,496,549
503,509,513,496,545
509,509,512,498,543
509,509,517,503,538
508,508,518,502,532
508,505,519,505,530
513,505,519,507,514
518,504,522,517,498
525,505,525,527,482
527,506,523,531,471
530,505,518,537,471
524,507,516,532,474
515,501,508,532,483
506,497,500,519,494
496,497,495,510,517
493,500,495,503,534
497,507,504,501,544
502,513,510,497,548
504,507,512,498,543
507,507,514,500,539
509,508,517,500,534
509,507,522,503,534
508,504,517,503,525
515,505,519,512,510
520,506,522,523,496
530,505,524,532,477
529,509,523,536,472
527,510,518,536,473
521,504,512,532,474
517,504,508,528,485
502,495,492,513,502
497,500,495,507,526
495,503,498,502,541
497,508,502,497,548
504,510,511,496,545
504,510,513,499,542
510,510,519,500,536
513,508,518,501,536
510,510,519,503,531
511,504,518,510,520
516,504,518,515,504
522,506,522,525,487
526,508,522,533,472
528,508,524,537,471
525,508,518,537,473
519,507,511,531,478
512,500,505,524,485
498,496,494,511,513
496,501,496,502,538
499,506,501,500,546
501,510,511,499,553
505,512,512,499,546
503,505,513,496,540
508,508,517,499,530
508,507,518,499,531
510,505,518,503,525
513,503,522,511,513
518,500,520,516,499
523,504,521,525,483
526,508,523,537,476
529,509,522,536,480
523,508,517,533,483
514,503,507,532,491
505,497,500,517,502
497,498,496,508,521
494,500,498,505,537
496,506,504,496,547
502,512,512,499,546
509,506,514,498,538
507,506,519,499,535
508,506,518,500,531
508,506,518,501,531
512,504,518,502,520
521,507,521,513,505
523,505,526,521,490
531,503,524,530,473
527,509,522,535,471
525,507,519,535,474
520,503,514,529,477
517,502,508,524,482
505,497,497,510,508
494,497,496,505,530
497,505,499,498,538
499,510,507,497,547
504,509,513,495,542
507,507,513,497,540
508,508,519,500,537
509,507,518,500,532
510,506,518,499,525
514,505,521,505,514
518,502,520,514,502
523,505,521,523,488
525,504,523,531,474
527,511,523,535,473
525,505,518,534,478
522,505,511,529,484
512,501,505,521,490
498,497,497,511,515
494,501,496,501,531
498,505,502,499,544
501,512,510,497,551
507,509,514,497,545
505,506,513,499,542
506,506,518,498,539
507,508,517,500,533
509,504,519,503,523
516,505,522,510,511
519,503,522,520,497
524,504,524,527,485
531,506,525,534,473
528,509,519,534,472
523,506,513,531,477
516,508,511,528,485
505,497,497,516,501
498,495,498,508,522
496,503,496,504,535
498,508,504,498,547
502,512,509,497,548
504,509,514,499,541
505,506,516,500,541
507,509,515,499,534
514,508,518,503,531
510,505,520,506,524
517,505,518,512,506
524,506,521,521,492
528,507,523,531,475
530,509,518,534,475
524,506,516,534,480
519,505,510,530,484
517,503,508,526,491
499,495,492,511,511
497,499,493,509,526
496,507,499,501,540
497,509,508,498,548
499,508,510,498,548
504,507,512,499,541
507,509,516,500,531
507,509,516,501,529
506,503,517,502,527
508,505,518,507,515
517,503,523,516,501
530,506,521,527,481
533,506,524,533,472
529,509,523,535,473
529,509,514,532,476
523,505,510,526,481
513,504,503,523,491
502,498,496,510,514
493,499,493,502,533
500,506,501,499,540
507,511,509,499,548
509,512,512,498,541
510,508,517,499,538
512,508,520,501,533
511,508,517,502,531
515,505,518,504,523
515,504,520,510,514
520,505,520,519,499
526,503,524,526,482
529,508,527,535,475
529,510,520,537,475
522,506,515,532,478
516,500,507,527,489
506,497,501,516,503
497,497,493,507,524
493,501,495,501,538
498,508,503,496,545
502,511,506,496,548
501,506,512,497,541
499,506,512,498,544
503,506,517,498,536
503,509,519,504,532
503,504,517,505,525
515,505,519,513,511
516,505,521,521,493
527,507,524,529,479
539,510,523,534,471
537,508,515,537,472
525,508,512,531,474
520,502,506,528,482
503,495,496,513,505
499,499,495,505,528
497,504,499,498,541
499,508,507,501,549
504,508,513,503,545
505,507,513,498,539
507,508,514,502,532
505,508,517,501,530
506,505,518,507,524
508,504,518,513,513
512,503,519,514,499
519,504,521,524,485
523,506,527,536,474
535,508,522,536,472
528,505,513,532,477
519,502,509,525,481
512,499,507,522,492
497,493,497,510,517
494,499,496,502,531
496,503,500,498,544
502,509,508,497,554
509,507,513,497,543
518,506,515,496,540
513,507,516,500,535
512,505,518,501,533
511,502,515,503,523
519,505,520,509,509
523,505,520,517,496
528,506,525,529,480
530,508,523,534,475
530,508,522,534,476
522,502,514,530,481
515,503,508,529,486
502,495,497,513,505
496,497,495,506,525
496,504,501,501,536
500,510,505,497,544
501,511,512,494,546
509,509,515,500,542
512,508,514,499,539
513,507,521,502,534
512,507,523,504,530
511,506,517,505,520
516,503,521,512,504
521,505,525,522,491
525,504,522,531,479
530,506,524,535,474
525,508,518,534,476
518,504,512,528,481
513,501,507,526,486
502,497,496,515,510
496,499,494,505,531
497,505,504,502,542
503,511,509,499,548
509,509,514,498,546
506,509,515,499,538
506,507,518,500,533
507,507,519,499,527
510,504,519,504,522
510,504,521,512,512
513,505,519,517,499
519,502,521,526,486
526,508,523,535,477
532,509,523,537,470
523,504,513,530,479
518,502,510,525,487
517,499,505,521,495
499,496,497,512,521
493,500,496,504,533
500,506,501,495,544
502,513,509,498,546
501,506,512,498,547
504,505,513,499,544
516,506,516,501,535
512,506,516,501,530
508,503,518,503,526
514,505,521,513,510
514,505,524,522,499
519,507,523,530,480
522,508,520,535,474
528,508,521,536,473
520,504,513,532,477
516,503,507,527,485
504,496,499,516,505
497,496,491,504,523
506,504,497,502,536
509,509,500,497,545
511,509,508,499,548
507,507,514,498,544
508,506,517,500,542
513,510,517,502,537
514,509,518,504,532
512,503,521,507,520
513,505,519,515,502
516,503,520,525,487
519,504,524,533,476
524,507,523,536,474
517,506,517,537,477
513,504,512,531,482
510,499,506,526,490
505,494,495,511,513
513,501,496,504,529
507,508,501,501,544
506,512,511,499,550
509,509,512,497,549
508,507,515,498,541
509,508,515,498,542
510,506,519,498,537
510,504,519,504,528
513,505,519,510,517
518,503,519,513,494
524,505,522,527,479
528,508,525,535,469
525,508,523,536,466
517,501,514,536,476
509,499,508,527,485
506,497,500,518,498
501,499,496,512,515
497,504,498,504,536
495,507,506,500,543
505,513,513,499,547
509,509,513,499,542
516,506,516,499,539
517,507,519,502,533
514,507,522,503,530
512,502,519,505,524
518,504,521,509,505
524,505,521,520,493
531,507,524,527,474
529,509,525,535,479
529,508,520,534,476
521,504,513,530,483
515,503,510,527,485
500,494,496,511,505
497,500,495,506,519
497,505,501,502,537
498,513,507,500,548
503,511,513,496,550
508,509,517,499,538
507,506,516,499,537
509,506,518,505,531
513,504,518,502,524
513,503,520,506,513
518,503,520,514,503
524,506,527,525,486
528,506,521,531,473
527,508,526,536,474
524,506,516,533,476
515,501,512,529,485
511,502,504,524,491
498,495,495,511,515
495,501,495,505,532
497,507,502,500,543
500,511,508,497,546
505,509,511,496,542
506,507,515,496,540
506,506,516,497,536
511,505,518,501,529
510,504,517,502,524
514,503,522,510,512
518,504,522,516,499
529,506,524,527,479
528,507,523,533,470
527,513,523,537,467
520,505,514,531,477
516,504,510,528,481
505,496,499,516,498
496,497,495,506,517
495,502,498,502,533
497,506,503,497,543
502,510,511,494,545
505,506,513,497,537
505,505,513,497,537
509,508,520,500,532
513,508,520,501,532
510,503,521,504,522
515,501,518,510,505
521,504,523,519,492
528,502,521,528,475
530,507,523,536,472
528,511,520,535,472
519,499,511,529,480
518,503,509,527,486
498,495,495,513,508
496,499,492,503,523
496,504,498,496,538
499,510,506,499,547
503,509,512,496,546
506,508,513,500,541
505,505,514,496,535
509,507,518,499,531
512,510,519,502,526
513,505,520,506,516
517,504,521,514,502
524,507,525,523,485
528,506,520,531,472
527,508,524,536,471
523,505,516,531,476
517,503,510,528,480
513,504,505,524,489
500,503,496,510,513
495,498,498,503,534
497,506,503,499,541
502,512,510,496,548
504,509,512,496,544
507,511,514,498,539
503,505,514,497,535
505,507,517,496,532
505,505,519,500,523
510,506,519,509,512
513,508,522,518,496
527,505,524,528,477
528,508,520,533,476
530,510,521,536,471
523,506,512,527,477
517,504,512,526,481
503,496,500,517,501
497,496,491,504,521
505,504,499,501,533
506,509,506,499,542
506,513,512,496,547
506,509,512,497,541
504,505,513,497,539
505,506,516,499,535
508,507,518,499,528
508,506,518,504,520
515,505,522,514,508
519,504,525,523,491
527,507,525,530,478
539,510,523,532,468
534,512,520,536,473
524,506,510,529,484
516,501,507,529,490
503,496,496,514,499
498,503,495,505,521
496,503,500,498,536
503,507,507,499,547
507,506,511,497,546
510,506,514,499,540
504,504,513,496,541
510,504,520,499,532
511,506,520,502,525
516,505,518,505,517
521,502,522,515,505
526,504,525,525,490
534,505,523,533,476
527,507,522,538,476
527,505,516,533,475
517,502,511,529,479
512,498,502,522,488
499,496,495,511,509
497,501,496,503,529
494,506,503,500,545
500,511,508,499,549
505,507,511,497,540
506,509,513,498,536
505,505,514,497,534
507,506,518,501,529
509,505,519,503,524
512,504,521,511,512
517,504,521,519,496
522,505,522,527,480
524,507,523,536,474
533,508,522,536,469
521,503,512,528,479
518,503,512,528,482
503,495,497,514,502
497,497,494,505,518
498,503,497,502,536
501,509,507,497,548
508,512,513,498,546
508,509,512,498,541
509,508,517,498,538
510,508,517,503,534
512,507,520,503,527
511,504,520,506,522
515,505,519,513,506
522,507,521,522,491
527,505,524,532,478
528,508,523,534,475
525,508,519,536,476
514,500,509,528,483
508,501,505,524,486
495,495,495,510,508
491,500,495,505,531
485,508,501,501,541
493,515,509,500,548
499,510,514,497,545
506,510,517,499,539
515,506,517,497,537
523,507,517,499,532
518,506,518,501,525
518,504,521,507,514
515,501,521,516,504
524,504,522,527,481
530,507,524,536,469
529,508,522,537,467
524,504,514,530,475
523,501,508,527,482
518,500,503,521,494
501,497,498,508,518
497,500,496,502,537
501,509,501,499,543
507,511,509,498,546
505,508,513,496,541
506,508,514,497,536
503,505,513,495,536
502,506,518,500,532
505,506,518,503,529
514,505,522,512,513
516,503,522,523,497
536,507,526,529,477
540,509,524,536,469
539,511,522,537,466
524,504,510,528,476
519,503,508,524,483
506,496,500,515,501
499,497,495,508,522
495,503,500,505,537
495,508,504,498,549
505,511,511,502,548
512,510,514,500,540
510,506,516,499,540
505,508,517,501,538
511,509,519,503,533
509,503,520,507,523
517,499,520,512,505
522,505,521,522,487
527,506,523,533,475
527,508,522,535,471
529,508,519,536,472
519,504,507,526,487
514,502,507,525,486
502,498,496,513,511
493,498,493,503,532
497,505,500,499,541
501,512,507,497,547
503,508,509,495,546
507,509,514,499,541
503,508,513,497,542
507,507,516,499,537
510,506,517,500,527
516,506,520,509,510
515,503,521,515,498
523,503,523,525,483
525,509,525,534,472
526,508,522,536,471
519,503,513,532,475
515,501,505,526,484
509,499,501,521,495
502,497,496,509,519
496,502,501,503,534
496,505,503,499,547
501,511,513,498,548
505,508,511,500,543
507,507,519,500,539
503,504,512,498,540
509,505,521,502,532
510,504,519,506,524
516,505,524,510,507
520,505,520,521,493
526,506,526,531,479
529,508,526,533,472
528,511,522,532,470
518,503,511,529,480
515,503,510,527,485
501,496,496,512,505
495,497,493,504,524
493,504,498,502,538
497,509,504,500,551
502,512,513,498,549
507,507,516,499,542
506,505,515,498,536
506,507,515,497,536
508,507,520,501,527
511,503,520,510,518
519,504,521,510,500
523,506,523,524,485
527,506,522,532,473
531,509,523,535,470
526,508,517,535,471
518,503,508,527,484
513,506,507,526,489
498,497,493,512,511
494,499,495,504,529
498,503,501,500,543
501,507,508,497,550
505,511,512,498,541
509,509,514,498,535
506,506,515,498,536
507,505,519,502,533
508,505,519,504,525
512,504,520,507,511
518,505,520,517,502
524,505,524,525,488
527,507,524,532,476
534,511,522,538,476
524,505,516,532,479
515,504,506,527,475
509,497,500,520,484
500,494,498,510,512
495,503,496,503,532
498,507,502,497,544
500,510,510,498,550
503,507,513,501,544
506,507,516,500,537
504,504,513,497,536
508,507,517,500,531
509,505,517,506,523
516,505,521,511,506
523,507,523,519,491
528,508,524,531,476
526,507,523,535,474
529,511,522,536,473
519,503,511,529,481
514,502,511,529,487
503,497,493,511,502
498,499,492,507,524
494,507,500,504,539
500,510,508,496,547
504,510,513,497,547
503,507,518,500,541
496,505,514,496,539
502,506,514,499,532
507,506,520,502,525
510,505,520,507,513
517,504,520,513,503
522,505,523,525,488
530,509,524,534,473
535,508,521,536,473
530,507,520,535,475
513,498,507,527,486
514,500,504,525,489
499,496,495,510,510
493,500,494,504,528
500,507,502,500,538
504,511,511,497,549
506,508,512,498,542
506,509,517,499,539
501,505,513,495,537
503,507,516,497,532
512,507,519,502,524
519,505,520,511,511
534,505,520,518,497
542,504,523,529,480
540,508,522,535,472
535,507,520,536,471
525,504,513,530,479
518,497,505,527,483
510,496,498,519,494
502,500,493,510,520
496,502,497,504,537
500,506,502,498,545
505,511,508,496,548
506,504,511,498,542
510,508,517,499,535
507,504,514,495,534
511,507,519,499,530
516,505,517,504,521
518,504,520,513,507
517,506,521,522,493
528,505,523,531,474
527,506,522,537,472
527,508,520,536,471
515,502,509,529,481
516,503,505,527,485
502,498,496,514,506
494,496,492,504,526
495,504,500,497,535
498,510,506,497,546
503,509,512,495,547
506,508,513,496,540
507,507,514,495,535
506,505,516,499,532
510,506,517,502,528
510,508,520,508,517
516,502,520,515,503
522,503,523,523,488
531,507,524,532,472
527,508,521,535,469
527,505,516,535,472
514,501,505,525,482
513,501,504,524,489
501,497,494,511,514
494,499,495,503,532
494,505,501,495,547
499,512,512,498,552
502,512,513,498,545
508,510,517,500,539
506,507,516,502,540
508,508,518,499,535
510,506,519,505,527
513,508,522,512,511
518,504,523,520,497
527,506,523,528,478
531,505,522,534,470
530,510,520,536,469
521,504,513,526,477
513,501,506,527,486
502,500,499,518,501
496,499,496,506,520
495,503,498,502,535
496,509,501,497,548
499,513,510,498,550
503,509,512,498,541
508,507,516,500,533
506,506,512,497,536
512,507,516,500,526
515,503,518,505,518
518,503,521,513,503
522,505,524,524,489
529,506,525,532,474
528,508,520,534,469
527,508,524,537,472
517,501,511,530,482
513,502,505,526,488
501,496,499,512,507
496,498,493,506,528
495,502,499,501,540
500,507,507,499,556
501,508,513,498,551
506,508,514,500,542
506,506,516,498,537
505,504,516,496,535
507,505,519,502,529
513,504,517,504,514
519,503,521,515,499
529,504,523,526,482
528,509,523,533,469
529,510,524,537,470
524,507,518,533,474
514,501,509,526,487
509,505,504,522,495
497,493,493,509,517
494,499,496,499,532
496,506,502,500,543
499,511,507,498,548
503,506,511,498,543
505,509,515,500,535
504,503,515,498,539
509,504,520,499,532
509,504,518,504,523
516,504,521,510,510
518,507,522,520,497
525,505,524,528,481
533,507,521,534,471
531,511,522,540,471
522,506,513,531,479
514,501,506,525,486
503,494,496,517,504
494,496,494,508,524
497,503,499,501,536
498,507,502,497,548
501,509,512,498,549
504,507,514,502,544
508,508,518,501,538
505,504,517,497,541
509,507,523,504,535
509,502,518,506,528
515,503,520,513,509
521,506,521,522,489
526,505,525,531,476
529,509,525,535,473
529,508,517,535,467
517,503,507,528,477
514,501,507,523,485
502,497,493,511,505
496,499,493,505,527
495,504,501,503,538
498,510,509,498,548
503,509,517,498,547
507,509,518,504,542
507,507,519,500,542
503,504,513,498,543
505,505,522,503,532
506,502,518,507,513
511,503,520,517,494
518,505,523,523,479
519,504,522,533,476
521,508,523,536,476
533,507,517,534,471
521,500,507,528,484
512,499,503,523,493
497,495,494,509,519
499,502,498,500,535
508,508,503,499,542
515,512,511,498,554
513,509,515,501,547
514,508,516,499,542
512,505,516,499,541
514,503,519,502,534
512,504,520,507,525
516,503,521,512,510
520,502,521,520,494
528,508,524,532,475
531,508,523,533,471
532,508,523,538,469
522,505,511,531,478
512,501,506,525,488
502,495,496,518,505
498,498,494,506,520
498,505,500,502,536
500,510,506,502,548
504,512,510,498,549
506,512,514,500,542
508,509,517,501,540
505,505,514,498,538
511,508,518,502,530
514,506,520,506,520
514,503,525,514,508
522,502,521,523,490
524,503,525,532,476
524,508,520,535,471
522,507,518,537,469
512,499,507,527,480
513,501,505,523,487
501,496,495,513,511
503,500,495,501,529
503,507,501,499,544
504,511,508,499,551
503,508,512,497,549
506,510,516,499,542
505,507,514,497,536
509,505,515,500,532
517,507,519,505,523
514,505,520,510,513
520,503,521,518,499
525,505,526,525,483
535,507,522,533,471
533,508,522,534,469
530,507,517,534,470
517,500,507,527,482
511,497,501,521,494
501,496,495,507,516
499,502,499,502,533
499,507,503,502,547
504,513,509,497,551
506,508,513,497,544
510,508,517,500,535
507,505,516,498,533
507,506,518,500,530
511,505,518,503,524
517,505,521,514,509
524,504,523,518,495
531,504,523,530,476
527,507,523,535,471
527,509,521,536,470
520,504,509,529,475
512,500,504,524,485
504,498,497,514,505
494,497,494,505,524
494,504,497,500,538
497,508,503,496,550
501,509,512,501,550
505,508,515,499,545
509,511,516,500,542
504,505,515,498,542
507,506,519,502,532
511,504,519,505,515
517,501,518,514,502
521,505,523,525,484
526,507,524,533,470
529,508,524,534,467
527,508,519,537,470
516,505,509,528,478
511,500,504,523,486
499,497,494,512,509
496,501,496,500,528
496,507,502,501,541
501,513,510,497,549
503,509,510,497,546
507,510,519,500,543
510,511,516,499,538
510,507,515,498,536
511,505,519,502,526
514,506,521,510,510
517,505,522,517,497
524,505,523,528,481
528,508,522,533,471
529,511,522,540,471
522,506,516,532,473
515,502,505,525,485
507,498,499,520,497
496,497,495,510,517
495,501,500,506,533
499,506,504,499,544
503,513,508,497,548
506,508,512,497,543
514,509,516,501,533
510,506,514,500,535
511,507,517,499,530
514,505,517,501,520
517,504,521,509,508
521,506,522,520,492
528,505,521,528,476
528,512,523,535,471
525,510,518,535,470
520,503,512,528,480
512,499,503,523,486
503,497,495,515,506
495,497,494,506,527
496,505,498,497,540
497,509,505,497,550
501,509,512,498,549
506,507,518,500,541
510,507,518,501,538
503,506,514,499,540
508,506,517,503,532
509,502,518,507,522
521,504,516,512,502
525,505,522,522,486
526,505,523,532,475
526,507,522,536,474
528,507,518,534,475
519,502,505,527,481
512,500,505,523,488
499,496,495,509,514
497,501,495,505,531
498,508,502,500,543
501,513,509,497,551
503,509,511,497,548
507,510,516,499,542
509,508,517,500,541
503,508,515,500,536
508,505,520,503,524
508,502,518,509,509
513,503,521,517,492
520,505,520,526,476
526,507,521,536,471
526,509,522,537,468
513,505,514,535,476
505,501,506,526,489
509,497,498,516,499
503,498,494,509,516
503,504,499,504,532
503,509,507,498,545
517,512,511,498,547
517,508,512,497,540
512,505,514,498,536
508,505,514,497,536
508,505,518,498,531
513,505,519,504,519
521,505,524,514,504
526,506,522,521,489
529,505,521,529,473
536,510,524,536,470
533,508,520,534,475
522,503,510,528,483
514,500,504,524,489
504,497,496,515,508
497,497,494,506,523
497,504,499,498,533
505,510,506,499,541
506,510,512,498,541
510,510,515,498,536
511,509,514,498,533
510,504,515,496,538
508,505,518,506,527
512,504,520,507,509
517,504,520,518,500
524,506,523,527,483
528,507,522,531,470
527,508,520,536,476
528,507,518,533,480
513,502,510,528,486
506,499,503,524,492
496,497,495,509,515
488,499,497,502,531
491,505,501,499,543
496,509,509,496,550
503,505,511,497,542
512,507,515,500,537
515,504,515,501,537
507,504,515,498,539
516,505,516,498,523
522,504,520,510,510
522,504,520,517,496
529,504,519,527,475
529,508,523,534,469
533,510,521,537,467
523,505,512,532,473
514,499,506,524,485
500,493,496,516,508
496,497,493,506,520
501,506,498,502,533
503,508,505,497,544
503,510,511,498,547
503,506,513,498,540
508,508,517,501,538
507,508,514,498,532
509,507,517,498,528
513,501,520,505,518
516,505,521,514,502
520,508,522,523,491
528,506,523,529,474
526,507,523,534,469
523,507,519,536,470
513,503,509,530,478
514,500,504,523,488
501,498,495,513,509
493,499,492,501,527
498,504,499,500,539
508,513,508,499,547
505,510,513,499,544
508,508,517,501,537
509,508,518,499,535
505,504,515,498,536
510,507,519,501,527
511,504,525,510,517
515,505,520,516,501
523,502,522,525,486
525,506,525,534,473
527,509,523,537,468
522,507,516,534,474
513,502,509,525,482
506,498,502,517,493
496,496,495,509,516
495,501,497,500,532
495,507,503,498,544
499,512,509,494,551
507,509,514,499,544
511,509,517,496,537
513,510,518,500,535
508,506,516,498,534
513,504,523,504,525
517,503,521,511,512
523,503,523,517,495
526,505,524,528,482
531,509,525,535,473
529,509,522,536,467
522,505,511,531,474
513,501,505,525,481
503,496,498,516,501
495,497,492,504,519
496,504,499,502,534
499,510,505,497,547
502,513,511,497,552
506,507,514,497,542
509,508,517,500,539
507,506,516,498,539
508,506,518,498,532
509,504,520,509,521
515,504,521,510,506
521,506,524,522,486
526,507,523,531,469
525,507,523,536,467
527,508,521,536,468
521,504,512,529,477
510,498,503,525,489
503,495,495,512,508
496,498,496,505,529
495,503,498,503,542
499,508,507,496,549
502,507,511,498,546
506,508,516,498,537
509,507,517,501,533
508,504,516,499,534
508,505,519,506,528
514,504,520,511,512
519,504,519,515,499
524,506,520,525,486
528,508,521,536,470
527,509,523,539,470
525,509,517,536,473
517,504,510,528,484
509,496,500,522,497
501,497,496,511,512
497,502,500,503,535
500,508,502,497,543
503,511,513,498,549
503,510,513,498,543
510,507,516,501,537
507,506,517,501,535
504,504,515,500,533
510,505,520,504,524
515,503,522,512,511
518,503,523,521,495
527,505,526,530,477
533,505,522,535,469
534,511,523,537,466
524,505,514,533,473
515,501,507,526,487
503,495,497,512,508
497,499,493,505,524
493,504,500,502,541
493,509,504,500,552
496,512,511,499,548
504,506,515,498,538
506,507,516,501,537
505,504,514,497,537
507,506,516,500,531
517,505,520,507,515
530,504,520,516,498
526,504,523,524,487
528,505,523,532,474
531,508,520,535,470
527,508,519,537,471
517,508,511,532,480
509,498,503,524,492
500,496,495,513,510
496,499,496,505,530
497,506,503,500,543
503,512,510,500,550
506,509,513,501,546
508,511,516,502,538
511,509,517,500,536
502,505,514,500,541
512,510,518,501,527
513,504,521,510,514
519,504,519,518,498
525,505,525,526,484
529,510,523,535,472
528,507,520,537,471
524,507,517,535,476
515,501,508,524,490
506,497,498,517,493
499,497,495,510,515
496,501,497,506,535
495,508,502,501,548
502,513,512,498,545
507,510,515,496,540
510,510,516,501,538
510,509,518,498,535
507,506,516,501,534
512,506,519,506,524
516,507,522,513,512
521,505,525,521,496
528,507,523,530,479
528,507,521,534,474
528,509,521,538,471
521,505,513,531,474
513,501,505,527,489
500,495,493,513,506
497,497,494,507,524
495,503,499,502,540
497,510,504,500,546
503,508,510,496,547
504,507,515,498,544
508,509,519,501,540
507,507,517,499,538
506,505,518,500,532
512,504,518,506,516
517,504,520,513,499
524,506,522,524,483
529,507,525,533,469
528,508,519,534,469
527,509,520,534,471
520,506,509,530,478
511,503,504,524,490
498,496,496,514,510
495,500,493,506,527
497,507,502,499,543
500,513,510,498,551
502,509,513,501,552
510,508,517,501,545
507,510,518,500,537
508,508,517,499,533
513,506,519,502,525
514,504,524,511,510
516,502,522,516,498
528,504,525,528,480
529,508,522,533,470
529,512,524,538,471
522,506,514,533,476
514,503,512,527,485
506,495,498,518,501
502,494,494,509,515
496,502,498,500,531
496,507,501,501,543
497,510,511,499,549
505,507,514,498,545
504,508,517,500,541
505,505,517,501,540
498,503,515,500,538
506,504,517,503,521
515,503,523,512,506
523,506,522,520,490
536,505,522,528,473
543,509,524,535,469
529,507,517,535,473
521,503,513,531,481
515,498,505,525,488
502,495,496,514,506
502,499,495,504,526
504,505,501,504,539
505,510,506,498,548
505,510,512,498,544
508,507,515,501,538
507,508,517,501,533
508,506,518,499,530
508,505,518,500,527
513,504,520,508,518
518,504,520,517,504
524,505,523,524,488
529,507,522,531,474
534,506,522,536,475
524,506,519,535,480
511,501,510,528,485
506,498,504,520,493
496,497,496,509,515
493,500,496,503,531
493,505,502,498,545
496,510,508,499,553
510,509,517,498,544
518,507,517,501,536
517,511,518,501,531
509,507,515,499,533
509,502,518,501,528
515,504,519,513,506
519,503,519,520,496
525,506,526,528,483
531,510,524,535,472
535,510,522,539,472
530,506,515,532,475
520,503,508,527,484
506,494,497,518,501
499,497,495,505,518
498,503,501,502,537
497,509,504,499,548
499,509,512,500,551
504,508,513,497,546
508,509,515,500,536
507,506,517,503,531
508,505,514,497,529
509,504,520,503,524
521,502,520,513,508
527,506,523,523,490
529,510,525,533,477
530,509,520,534,469
528,508,523,537,473
520,504,513,531,481
513,500,504,525,490
499,493,494,512,508
495,498,494,505,527
496,505,500,499,542
500,511,509,499,544
504,509,511,495,539
507,507,514,497,535
508,507,514,498,534
509,504,516,501,533
508,503,517,506,528
515,506,518,502,524
523,507,520,512,503
530,506,525,527,483
532,506,523,534,470
526,507,521,535,474
528,509,519,535,476
517,504,514,530,486
509,499,501,521,494
499,497,496,511,514
494,500,499,504,533
498,506,500,505,544
500,510,510,498,553
503,507,513,499,546
506,507,515,500,544
507,506,515,499,537
507,506,514,500,534
507,505,517,504,520
515,505,521,514,506
517,505,523,520,496
525,503,523,528,477
528,507,523,535,471
526,509,522,539,473
518,505,515,535,479
511,503,507,525,488
500,494,496,517,503
496,497,494,509,514
493,503,502,503,533
497,509,503,499,544
498,510,510,498,546
501,506,513,498,540
504,509,517,501,535
496,508,516,501,533
496,503,515,501,535
507,502,519,506,520
523,505,520,515,508
533,507,524,523,494
533,505,524,536,477
537,508,523,536,473
535,508,520,536,474
532,508,510,530,481
519,500,504,524,487
506,496,494,512,506
500,499,494,505,526
500,504,497,499,538
502,509,506,497,547
506,508,509,497,545
513,509,514,499,541
514,508,516,501,535
515,507,517,502,524
509,504,517,505,523
514,505,518,508,510
518,504,520,518,500
523,505,523,525,484
524,507,523,534,474
522,510,522,534,475
522,506,517,534,478
510,504,510,528,488
497,496,498,518,499
501,499,494,508,519
496,501,495,505,537
500,507,501,501,545
513,513,508,496,542
516,510,512,496,536
514,510,518,499,529
513,510,516,500,534
518,509,517,500,532
516,506,520,503,523
520,504,522,513,518
526,506,523,521,505
527,506,523,531,484
532,507,523,529,466
534,508,522,538,466
522,506,517,531,477
516,500,509,526,487
505,494,496,514,501
501,501,496,506,521
498,501,496,498,531
500,507,504,498,542
499,508,510,496,543
499,507,513,497,536
497,510,517,501,533
493,506,520,498,533
490,505,515,499,532
491,503,519,505,523
499,505,521,512,514
519,510,524,523,496
535,506,524,530,478
534,509,521,533,479
536,506,521,536,482
533,504,513,529,488
525,503,505,524,491
517,494,494,514,498
510,498,494,503,508
509,505,501,500,528
509,511,508,498,539
513,507,511,497,540
515,509,514,499,536
511,507,517,501,537
514,506,516,501,539
516,505,519,504,530
521,503,519,507,514
524,504,519,513,503
530,507,524,525,488
533,509,526,535,477
531,509,521,535,474
523,504,518,532,473
515,502,508,527,475
508,497,500,519,484
499,497,495,508,506
492,500,498,502,524
491,504,502,500,537
496,509,510,501,545
499,502,511,498,539
504,505,513,499,536
506,504,515,499,533
506,504,514,497,529
513,504,517,505,519
522,505,520,512,505
522,503,522,519,492
531,506,525,531,475
527,508,524,533,472
522,508,522,538,477
513,504,515,531,488
510,504,509,527,492
496,497,499,515,513
494,498,495,507,528
491,502,499,502,540
493,506,503,497,547
500,507,510,496,546
504,504,512,498,540
501,509,515,500,541
500,507,516,501,538
506,505,515,498,535
509,505,517,506,526
519,504,520,513,511
526,507,521,523,489
534,508,521,531,464
540,509,524,532,465
536,511,521,534,469
516,505,508,525,485
507,501,504,522,494
483,496,496,511,516
469,497,494,505,532
469,504,501,503,543
470,507,508,501,556
477,511,511,499,550
482,505,513,498,555
472,503,514,497,548
487,505,517,504,549
492,504,518,502,536
504,503,519,510,502
506,500,518,516,490
509,504,520,526,467
516,511,522,535,454
512,509,521,540,467
510,507,516,538,476
508,501,511,532,483
524,494,497,518,476
539,497,493,515,496
547,508,498,504,505
535,508,503,499,525
534,515,510,501,528
525,513,515,502,530
525,511,516,503,554
528,510,515,499,562
503,505,514,495,575
484,503,515,508,561
482,501,518,513,540
499,504,518,518,509
502,503,520,525,492
498,506,521,532,484
524,507,518,534,470
552,501,509,530,482
568,511,509,530,482
535,501,497,518,503
493,496,491,503,534
481,503,495,499,542
501,511,504,497,537
508,511,509,498,531
506,507,512,504,545
510,506,514,504,547
516,505,513,501,515
532,506,515,505,497
552,510,517,510,485
536,508,521,519,479
522,507,522,529,468
515,506,524,535,460
502,509,522,540,474
485,510,519,538,497
483,506,508,529,516
487,497,499,517,524
474,494,488,501,543
499,501,490,497,547
513,506,498,501,531
549,515,506,502,535
548,515,511,499,527
536,512,512,500,536
513,507,512,503,559
505,493,503,496,552
524,502,511,500,497
548,501,515,510,474
548,502,515,520,471
551,503,517,526,438
552,510,517,534,431
560,510,517,540,435
561,506,509,534,472
542,504,505,526,494
520,497,493,520,512
512,501,490,515,521
505,505,494,508,532
506,510,497,499,539
501,510,502,497,543
500,505,502,495,522
500,509,510,500,530
485,512,515,503,538
472,507,514,506,537
460,503,515,507,536
467,503,517,516,499
465,502,514,520,535
479,506,518,532,539
516,510,517,529,536
544,513,515,529,522
550,509,503,526,475
554,505,496,527,447
548,492,483,516,428
528,487,478,507,473
507,496,486,500,510
493,504,501,508,504
507,508,505,493,520
512,508,508,500,564
494,507,505,502,529
486,503,508,499,523
483,501,502,497,536
487,506,509,506,531
492,511,515,518,511
492,513,520,527,503
491,513,519,536,507
483,509,516,539,521
498,515,514,547,478
496,513,505,539,456
490,500,495,524,435
487,485,481,511,462
484,492,481,501,521
460,498,481,491,617
499,504,490,485,621
505,499,492,488,597
561,509,504,497,544
586,510,502,502,491
595,506,502,501,504
573,510,503,499,529
577,521,515,511,502
540,510,512,515,495
519,508,513,525,457
542,509,515,535,439
547,504,505,536,442
548,497,495,529,448
536,494,491,528,454
513,491,482,519,493
505,497,482,513,520
496,506,487,507,552
505,511,493,503,586
502,516,503,506,593
494,513,501,493,600
490,511,504,493,603
483,504,503,499,568
485,511,508,509,531
497,501,505,511,481
542,501,503,516,455
546,498,503,519,454
554,495,499,528,448
557,500,500,532,479
560,504,502,536,491
528,500,494,531,508
510,499,489,522,482
491,495,481,516,506
487,495,475,505,531
489,499,482,504,527
496,503,490,502,529
502,508,497,502,517
501,506,498,502,529
500,503,497,494,552
504,506,503,500,568
509,508,506,506,580
509,502,501,507,602
539,503,502,516,554
540,505,508,529,489
534,502,501,531,457
510,500,499,530,463
496,503,497,532,458
513,503,495,535,445
510,503,497,531,472
500,491,477,513,498
509,498,478,503,482
527,505,485,494,495
527,506,491,501,525
514,505,492,497,531
500,504,496,496,549
491,505,500,502,588
499,508,504,503,562
518,511,506,510,492
548,502,498,509,465
547,488,494,516,463
532,488,491,521,503
517,499,500,528,510
528,508,505,539,484
524,498,493,528,481
500,495,485,527,461
499,494,475,520,468
501,495,476,509,516
487,499,479,499,557
481,510,490,498,576
484,513,501,501,567
487,508,502,503,555
483,508,504,503,527
480,508,503,498,539
501,510,506,503,518
525,505,505,510,492
537,497,500,513,508
549,492,495,521,517
522,493,496,531,495
522,503,499,533,503
501,505,497,530,484
474,497,491,531,464
457,494,485,521,460
419,483,469,507,493
429,498,474,502,519
462,509,483,502,517
484,514,495,502,544
524,519,505,507,548
534,511,501,499,551
562,509,500,498,533
548,507,499,502,552
495,509,501,501,593
474,501,502,506,549
449,500,504,512,519
483,510,514,535,487
551,509,511,538,462
590,499,494,535,461
584,494,487,534,460
546,489,479,526,451
543,499,476,511,486
499,492,473,513,505
499,505,484,511,511
469,512,492,508,517
453,516,500,505,535
487,509,503,501,565
507,505,502,496,566
535,506,501,497,557
528,503,500,499,537
529,503,505,508,499
499,494,501,513,515
510,499,502,512,509
540,506,509,528,486
554,509,506,539,473
551,506,499,537,495
518,489,479,521,519
509,482,472,522,453
478,492,477,518,450
455,501,481,514,495
449,509,487,495,546
484,518,500,498,512
529,516,502,504,461
564,510,504,498,526
590,515,507,502,581
542,512,508,501,575
508,509,505,501,580
476,493,499,504,537
433,488,503,522,533
413,484,502,527,501
472,488,498,528,478
521,493,496,534,476
536,501,494,528,528
539,506,493,520,454
493,505,491,527,473
488,498,480,515,479
531,506,482,504,523
567,509,483,498,506
551,513,494,495,514
534,509,503,499,521
512,512,508,500,514
521,512,509,502,545
524,512,510,500,572
514,509,511,509,542
492,501,511,509,549
468,493,504,519,523
452,493,504,530,464
441,496,498,523,481
419,496,498,529,485
418,502,498,536,454
474,499,496,533,453
555,495,481,521,469
559,494,473,507,484
532,502,480,499,529
538,510,491,492,567
559,513,503,500,571
519,502,502,498,560
547,512,510,504,542
533,511,510,503,535
519,505,509,504,539
516,503,509,507,536
543,506,509,508,505
566,507,511,517,487
546,508,513,531,483
510,506,509,536,485
514,516,513,544,463
520,510,506,536,521
525,499,491,525,535
504,493,480,514,540
480,499,484,503,537
524,508,490,504,517
487,495,484,488,505
503,510,500,499,522
504,516,513,510,578
504,513,514,510,556
463,501,506,495,548
439,496,507,506,493
460,497,507,504,482
478,494,506,507,506
515,501,508,522,519
566,501,504,532,438
570,509,510,540,421
577,511,507,535,423
571,510,495,526,509
548,496,487,521,571
472,487,478,508,606
500,506,491,518,507
515,511,497,510,499
494,519,507,513,491
499,512,505,496,533
515,504,502,491,542
521,508,508,497,552
532,504,509,502,519
535,503,506,505,505
488,495,504,496,497
535,499,508,513,488
547,508,514,528,502
548,507,511,532,472
515,509,508,536,478
465,508,509,536,522
425,495,493,525,562
420,489,482,515,507
462,489,480,516,473
518,500,487,505,553
495,516,502,500,586
455,519,513,500,559
438,504,505,509,537
518,506,499,498,471
533,499,500,490,495
545,497,498,484,485
534,495,500,497,536
505,501,512,512,571
501,501,508,520,525
490,500,509,530,506
508,499,505,533,448
526,508,504,523,435
549,507,499,530,435
539,507,497,529,471
508,503,487,515,528
502,509,489,506,559
550,514,496,504,562
590,509,496,497,523
529,504,500,499,491
490,503,504,494,529
496,510,509,501,515
516,508,514,503,531
517,502,511,507,512
524,501,511,512,503
502,500,512,514,512
507,504,514,525,489
518,509,514,534,478
508,505,511,532,477
535,505,504,534,461
506,499,499,534,437
515,504,498,532,457
493,498,489,520,504
512,504,485,502,550
520,506,495,503,579
508,509,503,493,557
490,508,507,496,542
469,505,504,496,540
476,507,512,498,536
512,507,510,499,558
517,504,512,505,524
511,505,516,519,519
476,494,509,516,505
467,498,514,528,478
461,496,504,522,480
503,503,505,526,475
576,525,513,541,457
628,525,509,541,470
529,498,489,512,526
481,499,491,504,616
486,502,494,512,560
516,499,494,504,491
551,503,499,501,493
504,498,499,496,515
499,502,505,496,530
529,503,507,494,547
529,508,513,495,539
506,502,511,502,530
468,500,511,510,551
475,506,519,526,502
512,511,519,535,465
451,504,518,541,453
498,508,513,540,457
527,502,501,528,460
524,502,497,531,470
527,495,481,510,503
552,491,477,499,522
538,500,485,494,550
540,512,503,498,528
542,511,508,500,556
521,506,507,491,560
494,501,512,506,532
506,505,511,499,481
508,504,514,505,490
512,503,513,508,510
521,504,517,521,508
485,499,516,525,498
498,506,512,526,490
522,513,510,528,484
506,505,510,535,455
513,508,503,533,467
501,503,500,528,477
490,495,486,510,522
488,502,490,504,555
456,496,490,496,549
439,500,497,498,555
478,506,508,501,522
498,515,517,504,556
532,515,517,502,542
481,507,514,501,533
500,516,521,508,530
561,520,522,511,493
523,500,512,509,523
501,487,507,533,474
565,506,514,543,418
603,506,506,544,442
563,495,498,525,468
539,497,492,509,500
539,496,486,507,525
515,496,487,507,540
463,494,490,510,569
482,508,499,491,555
518,518,513,499,539
548,510,511,497,542
509,500,512,502,552
489,501,517,507,535
470,507,523,506,524
480,509,515,505,501
495,503,512,511,504
516,502,518,522,468
520,501,512,525,472
511,503,508,522,474
542,512,507,526,466
590,508,500,526,449
527,500,497,526,496
494,493,486,516,510
473,494,491,515,517
491,508,501,506,515
529,523,514,506,514
533,515,512,500,534
545,512,508,497,600
523,521,521,498,622
525,515,525,505,585
511,506,514,503,579
504,499,513,517,482
483,496,515,509,495
523,500,513,520,451
529,499,510,531,462
541,502,505,526,435
528,499,503,526,454
544,498,499,532,449
518,497,494,523,455
469,489,485,514,480
477,501,487,504,513
475,508,501,500,550
470,511,508,497,592
522,519,516,507,559
523,512,516,511,543
488,499,511,504,523
462,502,513,491,503
472,504,509,497,513
493,506,518,510,509
500,501,518,520,491
483,496,514,525,514
567,510,518,540,496
581,519,516,539,490
544,513,511,527,480
514,506,502,526,483
506,500,492,522,493
485,501,494,514,500
485,502,495,501,556
533,512,503,491,610
602,519,512,495,568
553,500,504,491,542
476,501,515,505,487
480,500,511,502,481
485,505,516,504,499
473,502,517,511,485
492,506,516,512,499
544,501,516,522,495
530,501,516,531,488
534,508,517,539,478
492,504,511,536,487
491,498,500,521,502
478,493,491,512,496
506,497,491,515,468
477,500,493,511,503
451,506,500,504,515
460,508,502,494,578
582,514,509,494,576
583,513,511,494,555
547,514,525,511,534
487,498,520,522,538
478,503,520,505,550
533,512,519,500,531
552,502,515,514,508
551,500,511,520,472
547,507,517,535,460
514,501,512,539,466
512,499,507,529,451
521,502,504,525,464
500,500,496,519,479
494,498,488,506,500
489,508,495,500,552
464,512,506,505,555
449,510,512,499,567
464,512,515,498,598
513,514,517,496,604
560,512,518,499,595
558,502,507,486,553
528,499,512,502,450
530,502,516,513,439
530,502,515,520,454
538,511,521,530,449
524,514,522,537,483
526,511,515,535,519
556,508,509,531,518
534,500,504,532,485
515,496,492,518,442
531,498,486,498,500
508,498,492,497,561
490,498,497,501,517
493,509,512,501,510
488,503,509,498,518
512,510,517,494,536
525,509,519,502,532
508,503,514,501,532
506,501,515,502,542
537,503,517,512,508
558,506,519,526,504
527,500,515,526,522
479,504,517,535,491
465,510,518,542,467
458,506,511,539,475
468,497,496,522,465
523,493,488,511,470
511,495,487,503,493
528,506,501,502,509
499,508,505,499,535
489,505,513,496,565
484,508,515,495,580
507,514,522,498,590
523,517,519,497,578
533,506,518,499,540
530,494,513,511,475
534,493,510,517,472
509,495,515,522,485
494,499,516,528,478
516,504,515,533,458
497,503,509,531,473
491,499,503,530,474
525,503,495,521,469
558,516,498,516,479
533,514,504,511,498
499,516,506,500,517
508,521,513,498,545
538,511,511,493,603
497,499,507,494,579
506,509,517,500,526
506,511,520,504,560
473,495,513,498,570
477,498,511,507,513
501,505,518,524,450
518,505,517,533,456
516,500,515,545,456
530,502,511,523,457
560,512,511,519,471
551,508,506,525,485
518,496,488,513,495
504,496,489,502,502
489,508,496,497,542
515,512,507,500,575
492,511,511,503,604
451,510,516,503,595
439,507,517,491,553
511,509,519,495,501
517,503,522,509,503
484,496,518,510,524
494,501,519,517,508
518,507,524,527,506
513,500,517,528,499
547,509,513,530,455
552,496,504,529,400
558,506,505,529,378
524,501,501,522,474
486,495,492,509,553
519,505,497,500,580
524,511,503,501,577
520,515,513,516,534
521,509,511,494,512
516,503,509,492,504
513,505,514,496,529
505,507,518,500,546
528,506,518,503,544
543,507,518,507,523
529,506,515,510,510
529,507,518,526,464
520,507,523,538,457
517,508,517,539,492
534,506,507,527,460
547,504,503,520,477
518,499,493,508,510
507,499,491,509,514
475,507,499,514,506
491,515,506,501,550
520,512,510,489,571
534,504,510,488,571
467,499,512,500,547
481,506,517,506,505
510,507,524,508,505
526,506,521,505,516
524,501,517,506,527
535,506,516,520,493
549,507,521,532,483
539,509,517,532,484
522,505,514,533,482
518,503,505,530,472
512,498,499,526,476
487,494,496,522,493
484,498,496,512,529
482,505,498,495,532
482,510,507,497,538
506,515,515,496,524
509,508,518,503,537
510,505,516,502,549
532,507,517,500,564
494,505,520,496,558
502,507,515,494,521
493,501,519,515,478
495,505,523,527,489
472,503,516,532,508
493,504,513,533,503
517,507,510,535,488
538,501,504,529,489
526,495,496,523,456
542,496,491,513,472
520,501,496,505,544
501,515,507,503,549
499,513,512,499,545
529,505,511,502,545
531,510,515,498,561
497,507,518,499,500
476,499,511,500,494
482,498,516,504,515
522,503,516,501,522
547,508,521,515,512
573,510,521,526,473
548,513,518,531,481
542,513,519,534,465
538,512,510,530,475
520,499,502,523,496
481,498,497,517,516
466,499,493,508,530
503,505,494,500,573
505,501,499,502,520
506,511,511,500,491
496,504,516,502,509
492,508,517,498,539
499,512,524,507,536
500,509,522,506,535
503,505,517,501,517
542,512,523,515,522
542,512,525,534,514
559,506,525,539,476
541,506,517,525,449
505,497,509,527,478
495,497,503,526,519
483,497,501,518,521
500,494,491,509,548
531,497,492,512,503
521,504,493,499,516
505,509,503,496,530
509,512,513,498,535
515,507,513,498,531
517,506,518,501,534
522,510,524,505,551
525,510,523,506,566
522,506,522,516,560
523,510,520,516,520
523,508,523,525,467
506,501,518,532,458
516,503,515,533,458
522,501,509,531,488
526,501,503,531,461
519,498,495,518,474
488,499,492,508,485
481,497,492,499,529
498,507,500,492,576
488,509,508,493,579
472,505,516,505,547
481,501,513,501,558
495,511,520,507,526
512,510,524,502,514
551,510,519,504,546
571,510,519,507,534
550,499,513,512,517
462,494,518,532,474
438,501,523,544,431
520,510,521,536,432
534,506,508,526,464
539,504,505,526,470
513,498,501,525,498
499,501,497,512,523
487,507,503,504,539
523,519,511,504,552
503,515,517,493,565
491,500,512,498,560
525,501,512,501,536
537,506,518,505,538
533,513,521,505,515
527,503,515,503,511
528,500,517,507,476
533,504,521,527,478
527,505,520,528,481
521,509,519,535,472
518,509,520,538,475
536,507,512,537,464
529,503,503,528,488
510,495,490,508,515
480,496,490,499,539
471,500,498,504,547
484,511,508,495,561
469,505,510,492,588
499,505,512,500,540
508,514,519,509,530
517,511,522,510,515
530,510,518,500,522
534,502,518,509,517
544,504,518,517,490
535,510,526,526,486
523,506,520,526,493
511,501,516,533,461
521,504,519,553,471
495,504,506,547,488
508,506,503,506,494
486,500,497,511,531
485,505,503,508,538
506,511,504,498,517
501,511,509,494,563
491,510,510,490,576
535,511,513,494,552
571,511,518,500,531
511,492,506,490,540
483,497,517,507,536
504,501,518,508,489
530,506,523,519,495
552,508,526,530,465
546,513,524,536,443
531,509,522,539,432
527,502,510,532,468
516,499,503,525,491
508,494,497,517,501
503,499,495,509,530
486,503,499,503,553
490,509,511,506,537
492,511,514,498,515
495,507,516,499,544
486,504,513,497,560
496,507,520,506,556
514,504,517,498,538
521,500,518,507,523
548,503,516,510,503
543,505,521,517,486
536,505,521,532,480
520,505,520,533,484
493,500,513,535,483
503,503,508,529,467
476,498,504,529,479
473,498,496,516,515
468,502,496,503,531
462,505,501,495,572
527,518,511,492,575
523,513,516,501,585
527,510,519,511,531
537,504,511,501,526
547,507,518,504,511
531,503,517,503,498
526,503,521,508,512
528,501,519,511,496
538,507,521,522,494
539,507,522,533,461
539,514,522,538,456
530,504,509,525,480
520,503,505,527,491
519,502,498,521,495
508,498,497,517,521
506,500,495,504,539
499,511,505,500,536
493,513,512,493,537
496,507,516,498,530
505,505,518,498,530
502,508,518,503,514
506,508,525,508,532
512,506,519,507,535
511,505,518,513,553
522,503,520,515,517
542,509,522,529,481
549,508,524,533,452
530,502,513,526,469
487,496,506,529,483
489,501,508,528,455
484,493,494,515,488
500,500,494,509,519
499,503,499,503,540
501,511,510,500,550
496,511,520,524,566
521,512,515,490,541
522,510,513,485,542
526,510,521,499,540
507,507,523,505,537
509,502,521,508,543
516,503,525,520,525
536,506,520,521,489
530,502,520,530,477
527,508,523,536,444
529,507,514,531,456
520,504,510,529,473
518,503,508,528,489
507,495,493,511,513
510,501,492,498,532
482,502,498,497,553
494,508,510,504,551
497,512,515,503,544
496,508,518,501,522
493,509,523,496,534
486,509,524,503,529
513,505,524,512,533
520,501,522,515,522
539,506,520,511,508
539,508,524,525,484
535,506,524,537,489
540,515,524,531,473
531,504,510,526,462
526,502,506,526,478
516,495,497,516,491
507,494,493,509,523
496,501,498,508,538
496,506,503,500,542
495,514,516,501,543
497,507,517,502,543
499,507,518,499,547
513,508,520,497,531
521,507,520,501,527
534,511,521,504,535
524,503,524,510,526
526,504,523,521,513
513,501,521,528,465
520,508,523,533,454
530,510,521,537,465
517,502,512,529,486
520,504,510,527,485
495,495,496,513,502
481,496,495,508,519
488,504,502,503,534
497,509,512,500,544
502,511,520,502,546
496,504,520,502,542
512,507,516,497,549
519,509,522,500,537
514,507,522,498,529
512,502,527,513,522
522,504,523,513,502
525,505,524,523,487
533,508,524,531,473
544,511,522,534,472
526,507,516,533,467
514,503,511,529,472
508,501,508,523,475
503,496,495,508,507
492,497,498,503,541
494,505,504,500,549
498,517,514,499,558
500,509,517,502,551
513,510,520,500,540
509,510,520,499,548
512,507,524,502,538
513,506,522,507,527
518,506,524,512,515
522,505,524,518,499
530,507,526,525,480
533,510,527,531,471
531,513,526,540,471
511,508,517,534,481
496,506,514,531,485
491,498,503,519,496
508,498,497,509,516
514,500,496,497,536
511,508,507,498,549
509,512,517,497,555
509,508,516,497,548
512,507,520,499,540
507,507,526,505,531
511,508,525,504,521
512,503,524,503,523
524,504,524,512,508
525,505,528,520,496
531,504,523,527,482
532,506,524,533,475
530,512,521,534,472
521,503,515,528,480
516,501,507,526,483
503,496,497,513,511
498,500,498,506,532
493,504,502,499,547
495,511,511,499,553
501,511,521,500,554
506,508,522,500,546
505,508,521,497,545
507,507,525,502,534
511,507,525,503,527
518,505,526,508,517
520,505,526,511,500
527,508,528,523,487
532,509,529,533,473
531,512,527,536,473
527,507,524,535,477
520,503,512,527,475
515,501,508,523,489
501,497,500,514,514
494,500,502,504,533
500,509,507,500,545
499,514,517,499,556
502,509,521,496,548
508,509,523,500,543
509,505,523,499,542
510,508,525,498,533
514,507,526,504,527
518,505,525,507,511
523,507,527,518,500
531,506,530,528,483
537,508,529,534,472
533,511,527,535,470
524,504,519,529,479
519,502,512,525,483
506,498,501,515,501
496,497,500,505,523
497,504,505,503,539
497,511,510,500,549
503,513,521,495,549
507,510,522,502,544
508,508,521,502,542
509,507,525,497,536
513,509,528,501,531
512,503,525,504,525
521,504,530,511,506
527,507,529,521,492
533,505,528,529,475
533,511,526,532,471
532,511,524,534,471
521,503,513,526,481
514,502,512,525,486
500,497,501,513,508
497,500,501,507,527
497,505,509,498,541
503,512,516,498,551
504,512,522,498,548
509,511,524,504,542
506,507,524,494,539
511,510,528,499,533
511,507,527,505,528
515,505,527,507,512
525,508,527,514,504
527,506,530,522,486
533,508,528,533,472
534,512,529,534,469
528,509,523,532,473
520,504,515,524,479
517,502,513,522,492
502,498,502,509,514
500,504,504,502,533
498,508,513,502,546
502,513,520,497,551
507,511,523,498,545
511,511,524,501,540
508,507,523,495,538
512,509,530,501,532
513,507,528,503,526
518,506,529,510,511
522,505,529,520,498
526,505,530,526,480
533,509,532,535,473
533,513,533,536,472
523,504,520,531,481
519,503,516,526,484
505,496,506,515,505
498,499,505,508,523
497,504,509,502,537
502,511,516,500,549
506,510,523,499,546
507,509,526,501,538
511,509,529,500,541
508,505,528,499,539
513,508,531,501,527
518,508,530,507,522
520,505,532,514,505
524,506,535,523,492
531,507,534,531,475
533,511,534,531,472
533,511,533,535,472
519,503,517,531,484
517,503,517,525,487
501,498,505,511,509
496,500,506,505,529
496,505,511,499,541
503,511,520,499,548
506,511,526,500,545
509,510,531,501,539
506,506,526,499,537
508,508,529,502,532
515,507,532,503,526
515,505,529,507,516
522,506,532,516,502
529,507,534,526,487
533,511,534,533,475
531,514,534,537,469
526,509,528,532,477
518,505,519,524,492
515,504,517,521,505
500,499,507,509,524
495,502,505,503,532
496,507,516,502,534
501,513,522,498,541
506,510,526,499,537
511,515,530,502,533
506,506,527,496,533
512,510,531,501,527
512,506,529,503,520
519,507,534,511,507
523,504,532,519,491
529,508,531,527,476
532,510,532,532,474
529,510,532,535,479
521,506,523,529,483
519,504,520,527,490
504,498,508,515,505
495,500,503,506,517
495,505,514,506,538
498,509,519,497,547
504,513,525,499,546
507,513,529,500,541
508,510,530,500,539
505,506,526,499,532
514,510,532,504,520
513,505,531,505,520
517,505,532,514,510
525,508,536,527,493
530,509,537,534,482
530,511,535,534,479
529,510,530,535,466
520,505,523,528,476
517,502,519,525,486
503,500,512,514,510
497,501,511,504,527
495,506,516,504,538
500,513,521,496,543
505,512,529,499,539
508,510,531,505,534
506,508,529,499,532
509,510,533,504,529
510,508,537,506,524
515,507,535,510,510
519,506,537,517,497
527,510,539,526,487
530,511,537,533,475
529,513,539,534,475
524,508,532,531,478
514,506,524,527,488
510,502,519,517,494
498,498,512,509,518
496,505,515,507,533
496,508,521,501,545
501,514,527,498,544
503,509,530,500,537
509,512,534,502,533
504,506,532,498,533
509,509,536,501,524
512,507,536,504,518
515,506,539,515,507
521,508,540,519,494
525,508,542,529,480
529,512,545,536,478
530,514,543,536,475
519,510,533,530,486
517,506,526,526,489
503,499,519,515,508
496,501,513,508,523
496,508,521,504,536
498,511,525,500,545
501,511,533,498,544
506,507,535,501,540
506,509,535,497,533
509,510,536,500,533
509,509,541,500,525
509,505,541,505,519
516,506,543,514,499
523,506,546,523,490
528,510,544,530,476
527,510,546,537,477
529,513,544,535,479
516,501,533,527,490
512,505,529,523,493
501,498,520,510,513
494,499,518,503,530
497,506,522,499,538
500,512,530,496,542
503,511,531,497,538
508,509,536,502,532
507,507,537,499,531
507,508,539,500,528
511,508,541,504,522
514,507,544,511,512
516,505,543,517,500
522,508,547,526,487
530,511,549,533,475
528,513,546,537,475
520,508,539,532,485
513,503,530,522,489
509,502,526,519,501
497,499,519,508,517
499,503,521,504,532
496,506,526,504,542
501,509,531,499,544
504,509,534,498,537
507,509,537,503,532
506,506,538,499,533
507,511,540,504,528
509,505,540,506,519
513,505,540,512,507
519,507,544,521,493
522,508,545,531,479
527,516,546,536,477
526,513,543,537,475
516,505,533,529,484
513,509,530,527,492
501,499,518,512,508
496,501,516,506,526
493,503,518,502,539
499,510,524,498,543
503,510,529,497,540
506,509,534,497,533
508,511,534,501,533
504,507,534,500,531
510,509,541,505,526
509,505,537,508,518
518,507,538,513,502
523,509,541,522,488
526,510,541,537,480
528,513,542,536,478
523,510,536,535,480
513,505,526,526,489
514,505,526,523,494
499,499,513,509,513
494,501,514,505,530
495,505,517,500,541
500,509,524,499,544
503,508,524,498,539
508,510,529,501,532
510,509,529,499,534
507,509,533,502,531
509,506,530,503,523
514,507,535,509,509
518,505,536,519,500
524,509,539,528,483
530,508,539,535,478
528,515,539,536,476
521,509,531,533,482
512,505,522,527,492
506,499,512,516,501
501,501,511,509,521
497,503,511,504,530
500,507,517,500,541
504,512,524,502,543
506,507,526,501,538
508,509,529,502,533
508,503,525,498,533
508,507,528,501,526
511,506,531,507,516
517,506,531,513,506
526,509,537,522,496
526,508,537,531,478
531,509,536,535,479
529,513,532,534,476
519,505,526,529,485
514,501,521,527,491
502,497,511,512,508
496,503,507,507,526
500,503,509,501,537
498,509,517,499,546
503,510,522,500,542
506,509,526,502,536
509,509,531,501,534
505,510,526,501,534
510,508,529,507,528
512,506,529,507,514
518,506,530,516,502
524,508,531,524,486
527,509,533,534,475
526,510,534,535,477
527,511,531,535,478
514,502,519,526,489
511,502,516,523,492
498,496,506,510,515
496,501,504,503,532
498,507,513,501,544
501,510,519,500,548
503,507,521,500,542
508,508,525,502,536
508,506,524,500,534
511,505,525,502,532
509,503,527,505,523
516,506,530,512,511
518,503,531,519,499
524,507,533,529,485
529,509,532,533,475
529,510,532,534,471
522,506,521,530,479
516,501,516,526,489
505,497,505,518,500
497,497,502,510,522
496,503,506,504,534
498,510,511,500,547
504,510,519,501,547
504,505,519,499,540
507,507,521,500,534
505,505,521,500,534
509,507,527,503,528
511,504,527,510,521
516,503,527,513,505
524,507,532,524,492
528,510,530,532,477
524,506,528,536,475
529,510,528,537,474
519,504,518,529,486
512,500,512,527,492
502,496,502,513,509
496,498,498,508,528
497,505,505,499,537
500,510,514,499,545
504,509,518,497,545
510,513,521,502,538
510,509,522,500,535
504,504,521,500,536
511,503,523,504,527
517,507,524,510,517
522,504,527,517,504
524,505,528,527,484
530,507,532,535,474
528,509,526,534,471
528,507,520,537,471
514,500,511,528,484
512,500,506,524,494
501,497,498,512,515
494,499,499,505,530
497,506,506,502,540
502,513,515,497,548
506,509,521,501,542
508,508,519,500,537
507,506,519,498,540
509,506,520,502,534
511,505,527,506,526
516,504,523,512,509
521,505,524,519,497
527,506,523,529,479
529,507,526,535,472
528,509,523,537,470
521,504,513,532,477
514,501,507,530,486
504,496,497,514,499
501,498,497,508,523
496,505,499,502,536
498,509,507,499,547
505,510,514,498,550
508,510,518,497,542
510,509,520,501,538
505,504,516,498,540
510,508,521,501,532
514,505,522,505,520
517,501,520,513,507
523,505,525,521,488
527,503,524,528,476
528,507,521,534,471
526,505,519,536,469
518,502,510,529,477
516,501,505,526,488
500,496,495,512,506
499,499,495,505,528
497,505,500,499,541
501,512,509,498,548
503,509,513,497,546
510,510,517,500,540
509,507,519,501,538
505,504,514,497,537
510,505,520,501,527
514,505,521,508,518
519,500,519,516,499
525,504,518,523,482
528,502,522,532,470
530,505,519,535,470
523,504,515,536,471
514,500,505,526,480
511,498,501,522,491
500,497,493,507,511
495,501,497,504,533
497,509,501,498,546
502,513,509,499,552
509,509,513,498,547
510,510,518,499,539
507,505,517,502,544
509,506,516,500,537
512,505,520,502,528
514,504,518,511,513
521,504,522,519,497
527,505,521,530,477
531,507,518,535,465
529,508,518,537,459
522,503,509,532,470
516,501,500,525,482
504,495,491,517,497
498,502,492,508,519
496,506,495,501,536
499,510,504,498,546
505,513,509,498,551
507,507,515,500,546
506,507,516,501,544
507,504,514,498,541
512,508,519,501,536
512,504,518,505,520
517,504,519,514,504
522,502,520,523,488
527,503,520,536,472
530,505,519,537,467
529,508,515,535,466
519,501,506,530,477
512,498,499,525,481
504,494,490,512,505
497,499,493,505,527
498,505,496,498,542
501,513,508,494,550
506,510,510,498,550
510,509,518,501,545
509,508,516,499,540
508,506,514,500,536
509,504,517,502,529
515,504,518,511,514
519,501,515,513,499
524,502,518,525,479
528,504,518,534,466
529,507,518,537,463
524,505,511,533,470
517,499,502,527,480
508,497,496,519,490
497,496,489,510,510
497,503,493,502,532
497,509,499,501,547
502,513,508,495,553
505,508,512,497,545
510,510,516,500,541
507,507,514,499,541
507,506,512,497,535
511,505,518,503,528
516,503,517,514,506
521,507,520,521,493
527,503,517,531,476
529,506,522,536,469
532,509,517,537,468
519,501,505,529,473
517,498,501,525,482
503,495,491,516,498
495,498,491,508,524
494,504,497,503,536
496,512,506,499,554
499,517,515,497,555
506,506,512,499,546
510,508,516,500,538
504,508,515,498,537
508,503,515,500,529
517,504,520,506,514
522,503,518,514,499
526,504,516,522,482
528,505,517,531,467
529,507,518,535,466
528,507,515,537,465
518,502,503,528,473
513,499,499,521,481
501,497,489,509,504
496,501,494,504,528
498,507,498,503,540
503,514,505,498,550
504,510,513,499,547
507,508,515,501,542
509,509,518,499,538
507,506,515,502,536
508,504,517,503,529
516,505,521,510,514
518,501,516,515,500
529,502,519,527,482
529,506,522,534,469
526,510,519,537,467
525,505,510,533,469
514,500,506,529,481
506,495,495,519,492
495,499,491,509,513
498,505,496,503,533
498,512,503,500,548
500,513,512,498,552
501,508,513,497,545
508,510,516,500,541
503,508,517,499,543
504,505,516,500,540
511,505,519,505,521
515,504,524,513,507
521,504,521,518,488
527,504,522,529,473
528,507,520,538,466
529,507,516,536,466
525,504,510,531,474
516,502,504,525,484
504,495,494,513,504
497,499,493,509,523
500,506,500,502,538
502,510,508,500,550
503,510,512,499,551
509,510,517,498,539
511,510,520,501,537
508,506,520,500,539
511,504,516,501,529
514,505,520,505,518
517,500,518,514,503
524,505,522,525,483
529,505,522,530,472
528,508,519,538,468
526,505,516,534,469
519,503,507,529,479
512,497,500,523,489
503,497,495,513,510
495,502,493,503,529
498,509,503,503,544
501,512,512,500,553
503,509,514,499,550
508,511,513,499,539
510,511,518,501,538
511,506,517,500,540
510,505,517,503,527
515,507,521,512,513
521,501,519,518,496
525,506,522,526,478
528,507,521,536,468
527,508,521,540,468
521,504,514,534,476
515,501,505,526,483
502,498,495,518,498
497,497,495,510,518
496,503,498,500,533
499,511,506,503,547
506,514,515,500,555
504,508,516,501,545
509,511,518,499,537
509,508,518,500,538
506,505,517,503,536
511,504,521,505,522
517,506,521,514,509
520,504,522,521,492
526,505,523,530,474
526,506,521,535,472
525,508,521,538,472
520,505,509,530,475
514,501,505,529,484
501,495,494,513,502
498,501,494,505,522
497,505,502,502,539
499,507,508,498,549
505,512,515,501,545
506,512,519,501,539
513,509,521,502,536
505,505,518,500,535
509,508,521,503,530
512,504,522,509,515
518,504,526,516,502
524,505,528,526,486
528,505,522,536,473
531,509,524,537,472
526,506,520,537,472
517,500,508,529,480
511,499,503,522,490
499,497,496,511,513
496,502,498,506,532
496,508,504,500,543
501,513,512,498,552
508,510,516,500,544
507,509,519,500,542
509,509,520,497,534
508,505,518,498,536
508,503,519,504,524
516,505,522,511,510
517,503,522,520,499
524,503,522,528,480
527,506,524,535,473
528,509,519,540,471
520,504,514,533,479
515,501,505,527,484
502,495,495,516,501
501,499,497,510,518
496,502,502,501,537
499,510,506,499,549
504,513,512,499,550
506,511,516,500,542
508,507,519,501,536
509,507,517,498,532
507,504,519,502,531
510,503,517,504,521
517,505,523,511,505
521,502,522,523,490
527,504,521,529,473
527,509,521,535,470
525,508,520,537,470
521,504,511,528,475
514,499,505,526,484
499,495,496,514,505
492,498,495,506,523
497,507,505,502,542
498,511,510,502,553
503,510,516,503,549
508,509,516,497,541
510,509,520,497,534
509,507,518,502,536
508,506,520,502,531
514,505,522,505,515
521,503,523,517,501
523,504,524,526,486
528,505,527,533,473
527,507,524,537,471
524,507,517,537,473
515,505,507,529,480
511,499,503,522,489
500,498,495,508,508
497,502,497,507,532
499,510,500,497,543
504,515,513,496,548
505,510,516,498,545
512,509,520,503,538
507,508,517,502,539
508,504,520,495,534
512,505,521,506,525
513,503,521,511,510
521,502,523,520,496
527,506,524,528,477
530,504,524,536,470
528,509,522,538,468
521,504,513,532,474
514,501,508,529,485
503,495,497,516,500
496,499,494,511,518
495,506,501,502,537
498,512,505,498,547
503,513,515,499,547
506,510,517,501,546
508,510,520,500,541
507,507,520,502,540
501,503,516,498,539
513,505,519,499,524
517,504,521,514,509
525,506,523,521,489
528,505,525,529,473
528,508,523,534,471
526,509,518,536,470
521,503,511,530,476
514,499,503,526,485
503,497,496,513,504
497,500,495,504,524
497,505,503,503,537
502,512,510,498,544
506,511,514,497,544
507,508,517,500,538
511,506,519,499,536
512,507,517,499,536
510,502,517,501,526
514,503,521,509,514
520,503,520,516,497
526,504,521,525,482
529,507,521,534,470
529,507,521,536,465
525,505,516,534,468
517,502,509,528,481
508,494,495,516,491
499,497,493,511,514
496,501,497,504,531
499,508,504,503,544
500,512,514,499,552
505,508,514,499,546
509,509,517,501,537
508,506,518,501,536
507,506,517,499,539
509,502,518,505,529
518,505,520,513,510
520,508,521,521,495
528,502,523,530,478
530,507,518,535,470
527,507,519,536,467
521,503,512,532,473
517,501,505,527,485
500,495,489,513,500
497,498,494,508,523
493,501,497,501,537
497,507,505,499,547
502,508,513,499,550
501,507,516,500,546
507,507,518,500,541
514,508,517,500,532
510,504,516,500,533
510,503,515,509,521
514,502,519,515,503
521,503,525,525,489
524,508,522,534,473
527,507,520,540,472
530,505,517,537,469
522,504,510,531,478
518,500,500,524,488
505,495,493,513,508
499,501,492,505,529
499,506,503,500,540
501,513,510,499,550
504,510,513,499,545
508,510,517,501,541
507,510,519,498,538
501,506,517,501,540
504,504,516,501,530
510,505,520,509,516
516,500,519,518,500
526,503,520,526,481
534,505,521,534,470
530,510,519,539,470
524,508,515,536,472
515,500,505,529,480
505,497,498,521,493
490,494,494,510,513
490,502,497,503,533
489,506,504,498,549
492,511,509,497,552
500,508,513,499,544
513,509,518,502,544
522,512,521,503,537
519,507,514,500,534
524,507,519,505,523
524,504,521,514,507
526,504,521,522,490
533,505,523,531,473
533,507,521,536,468
531,508,519,538,465
528,505,511,532,476
516,500,504,529,486
502,496,494,512,505
499,500,493,508,521
499,508,500,504,537
502,509,505,499,546
505,512,512,500,546
508,510,520,501,540
509,509,519,505,537
509,508,517,499,536
509,506,518,503,536
514,502,519,506,519
518,504,518,513,504
523,505,521,524,489
527,505,524,534,476
527,508,518,537,474
525,507,522,537,474
516,503,507,528,479
509,502,502,525,490
500,497,492,511,508
494,500,494,504,530
494,507,502,501,545
498,514,511,498,552
505,514,516,499,549
506,510,516,499,541
509,509,518,501,537
511,506,517,500,534
508,501,516,501,530
515,505,521,512,515
516,503,519,516,500
524,504,522,528,478
528,504,522,533,469
528,507,516,535,467
522,506,511,534,471
517,500,507,528,479
505,495,495,518,498
499,498,494,512,515
497,501,496,503,532
497,509,506,498,548
503,516,513,499,551
506,511,516,499,542
507,508,518,502,539
509,509,518,502,534
508,506,518,497,535
509,502,518,504,528
517,505,521,514,509
519,503,522,521,493
527,503,521,530,473
525,507,520,535,471
525,508,519,535,472
523,504,509,531,476
515,504,504,526,485
499,495,493,512,503
497,500,494,508,524
496,504,498,501,542
499,513,506,499,546
504,512,511,498,549
507,509,519,501,542
507,507,517,500,537
511,508,518,501,535
509,511,519,503,530
514,504,518,505,516
521,504,521,516,504
522,501,522,525,486
527,504,521,532,473
526,509,519,535,472
525,504,516,535,474
517,503,508,529,477
509,499,502,522,491
498,497,494,510,511
494,500,497,507,532
496,506,502,499,539
501,512,511,497,549
504,508,514,498,542
509,508,515,498,536
510,508,518,500,531
510,508,516,501,535
511,505,518,505,524
520,507,521,511,512
518,503,520,516,496
527,504,522,527,479
529,509,522,534,468
528,507,520,534,465
523,505,512,534,469
517,502,506,526,479
503,492,493,515,496
497,498,493,503,518
494,502,498,505,535
497,508,505,496,548
503,513,512,496,550
506,509,514,498,545
508,508,518,501,540
507,506,517,500,537
507,504,516,500,534
510,502,519,506,523
514,502,519,515,505
521,505,523,519,489
529,504,523,531,473
527,506,523,535,469
526,505,517,536,467
517,503,510,531,478
514,497,503,525,484
503,496,493,514,508
498,498,494,504,523
497,504,500,499,541
502,509,508,499,549
503,510,511,497,550
512,510,518,500,539
513,510,518,500,538
513,507,520,502,536
509,502,518,500,531
515,505,522,508,518
515,502,520,517,503
524,504,521,523,482
532,503,521,533,468
528,508,521,538,469
524,509,516,535,471
517,502,508,529,477
510,499,501,522,486
498,497,494,511,513
496,502,495,502,532
497,509,504,501,544
503,512,513,499,553
505,510,517,499,547
507,509,518,503,541
508,509,519,499,537
508,507,519,500,533
511,505,520,503,527
511,505,520,510,511
521,501,521,517,497
528,506,524,530,476
533,505,523,535,464
529,508,520,535,465
523,504,511,529,469
519,502,505,527,478
504,494,496,519,498
498,497,494,507,518
496,507,499,502,537
496,509,504,502,550
502,511,518,498,556
504,509,518,500,548
510,507,518,500,537
507,507,519,499,537
507,506,519,499,534
508,503,518,509,524
513,503,521,512,505
521,505,523,522,490
525,504,526,531,473
525,506,522,535,471
525,507,519,534,470
525,504,511,529,475
518,501,505,524,483
502,495,493,510,506
498,500,495,504,530
497,505,501,501,541
500,511,508,497,552
504,509,512,496,549
508,509,518,496,540
509,509,516,500,540
509,512,520,502,535
506,503,518,502,527
515,504,520,508,514
517,503,521,518,502
524,504,524,528,483
527,509,525,534,472
528,508,522,535,470
525,503,516,533,473
516,503,510,529,481
507,499,499,520,492
499,498,495,511,514
493,501,497,505,535
493,505,500,497,545
500,513,512,499,548
506,510,514,498,539
511,511,518,501,537
508,511,518,501,536
506,510,517,499,534
511,505,520,504,524
515,508,522,512,510
519,502,521,518,494
526,504,520,528,476
528,506,523,534,471
530,512,521,537,469
522,506,514,532,476
515,502,506,524,481
501,494,495,514,503
500,500,494,506,521
495,503,502,500,538
497,510,504,496,549
501,512,511,494,551
507,511,515,498,545
509,512,519,504,534
505,510,522,501,534
507,504,517,499,531
513,506,520,505,519
512,503,520,513,509
523,506,521,521,487
532,505,521,530,472
531,509,525,535,470
528,513,519,537,470
519,503,510,529,479
515,501,505,524,487
499,494,493,511,510
497,501,495,502,529
496,506,500,499,543
501,513,509,496,548
507,511,513,497,547
508,510,517,500,537
509,505,515,499,535
512,506,518,501,533
510,506,521,503,529
515,505,520,509,515
518,502,520,516,502
526,505,521,525,482
526,506,521,530,472
527,507,520,536,472
524,505,514,534,475
516,502,508,529,481
508,497,498,520,495
499,498,494,508,516
494,501,497,504,536
497,507,503,500,546
506,513,512,499,552
506,509,514,501,545
508,509,518,499,537
508,508,517,500,536
507,505,519,500,534
509,504,518,505,523
515,504,525,512,511
519,504,521,519,494
529,506,522,530,479
530,511,521,535,473
531,509,521,538,471
523,505,516,532,477
512,499,506,528,488
502,496,496,514,505
496,499,493,507,521
499,505,500,501,538
498,508,505,498,549
507,511,511,497,545
510,510,514,499,539
513,510,518,500,536
510,506,518,501,534
508,504,517,501,530
513,503,519,506,518
519,503,520,513,504
525,505,522,525,488
530,503,521,532,472
528,506,517,534,472
526,506,518,538,473
518,501,508,530,480
513,499,505,524,487
504,499,493,512,512
494,500,494,504,533
492,509,500,501,544
495,510,509,499,548
499,510,513,499,545
503,506,516,501,541
506,506,518,502,537
512,504,517,500,535
509,502,516,502,531
517,504,517,513,513
524,502,519,517,499
527,504,522,524,481
526,505,521,536,473
527,509,520,539,470
525,507,513,532,476
523,503,510,528,483
513,499,497,519,497
499,496,493,505,515
498,503,499,503,533
500,510,504,499,544
506,514,513,498,549
507,508,510,497,544
512,509,519,500,538
512,506,518,501,535
511,504,520,502,534
511,502,518,503,527
517,503,519,512,507
523,505,521,521,494
528,503,522,529,475
530,505,520,535,475
527,508,519,538,473
519,503,512,532,478
513,500,505,525,486
501,494,494,513,503
496,498,494,505,525
493,504,498,501,541
498,506,505,499,554
501,510,512,499,549
506,507,514,499,539
507,508,516,500,537
508,506,517,500,537
509,506,517,500,533
513,504,519,506,522
517,501,521,514,507
525,505,526,526,489
530,506,523,530,471
527,506,520,533,467
524,505,517,536,473
517,499,507,529,479
514,500,504,525,487
498,495,494,512,512
495,500,494,500,529
496,506,502,499,545
499,512,509,498,553
503,509,514,497,548
507,508,517,501,537
511,509,518,500,532
513,508,519,500,533
507,507,520,504,527
514,503,520,510,513
518,503,521,518,498
524,503,522,526,481
528,509,522,535,470
531,507,521,537,466
523,505,512,532,472
516,503,506,527,480
506,496,498,517,497
495,495,494,508,520
494,502,497,502,534
497,508,502,496,545
498,510,511,497,548
503,506,514,497,548
509,509,518,501,538
509,506,519,501,535
510,511,520,502,530
510,504,518,505,525
514,502,520,513,510
518,503,523,522,489
526,503,525,531,474
527,508,518,533,469
528,510,522,537,469
520,507,512,531,474
514,502,505,526,484
500,495,494,512,502
497,501,494,504,524
495,505,502,499,540
498,511,506,497,551
502,510,514,495,549
505,508,516,497,538
508,509,517,497,536
506,506,518,499,535
514,507,520,499,528
516,505,520,506,517
514,506,522,515,504
522,505,525,526,488
527,505,522,532,470
524,506,521,534,474
527,508,518,534,473
519,506,508,528,483
511,500,502,522,489
503,494,495,510,512
497,504,497,504,530
498,507,505,500,545
502,511,511,498,551
503,507,515,498,546
508,512,518,501,539
509,508,519,500,536
509,512,519,501,534
510,507,520,503,527
515,503,521,508,515
518,503,520,517,496
525,504,522,528,482
528,507,522,534,472
528,508,519,535,469
520,503,513,530,476
518,500,506,526,479
508,495,496,515,499
496,501,494,507,520
495,501,497,501,538
497,507,503,496,548
502,510,511,496,550
505,507,513,498,542
509,508,518,500,536
509,507,518,500,534
510,507,518,501,531
510,503,520,506,523
516,499,519,510,507
521,504,523,518,489
526,504,520,529,474
526,506,521,537,473
527,508,520,537,470
519,501,514,531,480
513,500,504,525,486
501,497,495,510,508
494,498,494,503,531
494,504,498,499,543
498,507,506,497,552
501,509,512,498,550
506,508,517,498,541
508,509,517,504,536
507,506,518,505,532
510,507,517,501,525
514,505,520,508,516
518,506,519,516,503
526,505,523,526,486
527,506,521,533,473
527,508,520,533,469
523,507,513,532,475
516,503,508,526,481
513,500,502,523,490
499,497,495,510,514
494,500,495,506,532
496,504,500,498,544
498,513,509,498,549
500,507,512,497,544
503,507,514,499,538
500,505,516,498,537
502,504,515,499,535
503,504,518,501,525
511,504,521,508,513
522,505,524,520,500
530,504,522,530,481
539,508,521,535,472
531,506,518,536,471
523,505,512,533,477
515,502,504,527,483
506,496,494,515,497
498,496,494,507,518
499,503,500,502,535
501,509,505,499,547
505,512,513,499,549
505,507,511,501,544
511,509,521,501,537
509,507,521,502,536
509,507,521,505,533
510,503,518,504,521
515,504,521,511,505
523,504,521,521,483
528,504,522,534,470
533,508,521,535,466
531,507,518,540,470
524,506,511,531,478
516,502,506,525,485
502,496,493,509,506
497,501,495,504,527
499,507,501,499,541
502,515,508,498,550
504,509,512,497,545
507,507,516,498,540
507,508,516,500,535
507,506,516,500,531
508,503,516,501,526
514,504,516,507,511
517,501,520,515,497
521,503,518,524,485
526,509,522,534,475
532,509,518,536,472
526,506,517,533,478
517,500,507,528,484
510,499,502,519,491
499,497,496,510,515
497,503,498,503,534
498,508,504,501,547
502,514,507,497,551
504,510,513,498,546
509,509,516,500,536
509,507,517,500,536
509,510,518,501,533
514,505,518,505,525
516,503,523,512,510
520,504,521,519,496
526,504,523,528,475
526,509,522,535,472
527,508,521,533,469
521,503,514,533,475
516,502,506,528,483
503,493,493,515,503
496,498,492,508,520
496,503,498,501,535
500,507,504,499,549
503,511,513,499,548
505,507,513,498,542
508,508,517,500,536
509,507,518,499,533
510,506,518,501,529
513,504,517,503,518
516,503,518,512,504
521,505,520,523,489
527,506,524,532,472
527,507,522,534,471
526,509,518,537,472
520,501,510,531,479
512,499,504,525,487
500,496,493,509,509
494,499,493,504,529
496,506,501,499,545
495,511,509,497,551
502,508,513,500,548
503,506,515,500,542
506,508,518,503,536
506,506,518,504,534
508,503,517,504,530
510,504,520,508,514
521,505,522,516,499
529,505,522,526,482
529,506,525,533,472
528,508,520,535,472
523,503,517,532,473
517,503,505,526,480
509,498,499,518,496
497,496,494,509,519
495,502,496,504,536
497,509,501,503,547
503,513,513,499,547
508,509,516,498,541
509,509,515,500,538
509,507,517,500,535
511,507,517,501,532
513,505,518,506,523
517,505,523,513,509
519,503,522,521,493
527,507,524,531,473
529,508,521,535,470
525,506,516,534,470
518,502,510,531,475
516,501,504,523,481
503,495,495,513,503
499,500,494,506,524
495,503,497,502,539
499,510,505,501,549
504,515,514,499,549
507,508,515,500,544
510,509,521,501,538
509,508,521,500,536
511,508,519,501,532
516,506,519,508,522
514,502,519,514,505
522,504,522,522,489
528,504,523,532,473
527,507,520,535,471
526,504,515,536,468
516,503,508,530,476
514,501,504,523,485
499,496,497,515,509
494,500,495,503,526
500,508,501,501,541
502,509,510,498,549
507,507,513,499,543
506,509,514,499,540
510,508,520,500,536
510,508,515,501,533
511,506,516,502,527
514,508,521,511,512
518,501,523,518,501
524,508,523,529,480
527,508,522,534,471
527,508,518,535,467
522,504,514,533,469
513,500,508,527,478
506,496,498,520,490
499,498,494,508,516
497,501,496,502,532
499,509,502,498,541
501,513,510,497,545
505,508,513,500,540
509,509,516,501,534
508,507,519,500,534
511,507,519,501,536
512,505,520,503,527
516,504,519,513,513
520,503,522,522,493
527,504,524,531,474
528,508,523,535,469
526,507,517,534,467
520,503,512,531,474
516,503,506,524,482
501,494,493,513,504
496,499,495,506,524
494,505,501,501,540
493,511,509,498,549
499,511,515,497,548
506,509,515,497,541
515,510,520,499,535
512,508,517,500,533
514,507,521,503,529
511,502,519,507,515
516,502,520,511,501
522,503,523,525,487
522,502,522,533,470
529,507,522,535,472
529,506,517,535,471
522,503,507,529,478
514,502,505,523,486
498,495,494,511,514
499,502,493,501,529
504,508,504,499,541
502,511,510,501,554
506,512,514,498,543
508,508,516,498,541
511,507,518,499,538
511,508,518,500,534
512,506,520,507,528
514,503,523,511,513
518,501,520,517,499
526,505,521,530,480
530,507,519,533,469
527,507,518,533,469
523,503,513,533,477
514,501,504,527,481
507,497,496,517,496
497,497,495,511,518
496,504,498,503,533
498,509,505,498,546
502,512,514,496,548
504,506,513,495,544
506,510,516,500,538
507,506,519,501,538
510,504,519,502,532
511,503,518,504,521
515,502,521,510,506
522,505,523,520,490
527,505,521,533,475
527,506,522,534,468
523,505,516,535,471
519,503,511,529,478
515,500,505,526,481
501,496,494,513,505
497,500,495,504,529
495,505,501,501,541
498,514,509,499,550
505,511,514,498,550
503,512,515,500,542
510,510,518,501,537
506,507,519,500,533
507,506,517,501,528
516,505,520,507,516
519,505,523,516,501
527,506,523,526,488
528,505,520,534,470
527,506,520,536,471
524,507,517,534,471
519,502,510,530,483
511,500,503,527,488
499,497,494,512,510
499,502,498,504,534
497,508,508,500,543
500,511,511,502,550
503,508,514,496,549
504,506,513,498,547
508,507,518,502,539
508,505,518,501,532
510,504,519,502,523
516,505,522,510,510
519,502,524,519,497
526,504,524,529,475
529,506,522,534,471
526,507,519,533,474
521,505,510,529,480
515,502,507,527,485
504,499,497,517,501
495,497,491,504,520
496,504,499,501,536
499,512,505,499,547
507,515,513,498,549
507,509,513,498,543
509,508,516,500,535
510,507,519,498,534
509,507,518,501,532
511,504,520,505,522
518,504,518,511,509
524,505,520,521,492
527,505,522,533,473
525,507,521,538,470
523,508,517,533,473
520,505,510,530,479
513,502,505,529,487
500,497,495,511,507
495,503,494,505,527
493,504,499,499,542
502,514,507,498,547
505,509,511,496,547
507,509,514,497,541
508,508,518,498,535
508,507,518,501,533
511,507,518,506,528
513,504,520,511,515
517,504,520,515,499
526,504,522,526,483
527,505,519,531,470
526,508,518,536,471
527,506,516,534,475
522,502,508,529,480
512,499,502,520,491
501,498,494,510,512
499,503,496,501,531
501,509,503,502,544
502,513,510,496,551
508,510,515,496,545
507,509,515,497,543
506,510,519,497,538
512,511,519,501,537
509,504,519,501,529
514,504,521,510,509
519,504,520,518,497
524,504,523,529,477
528,507,524,534,471
528,509,518,536,472
522,506,511,531,476
515,506,507,527,482
503,492,494,514,498
497,501,493,506,520
498,505,497,501,536
499,511,505,498,548
504,512,515,498,549
507,508,514,498,542
509,509,521,499,539
512,509,519,500,535
514,509,520,504,531
512,504,520,506,521
516,502,520,513,506
523,504,522,523,488
529,507,522,532,474
529,507,521,534,471
525,506,516,532,470
520,503,511,526,475
516,503,504,525,484
501,497,493,511,509
496,501,491,501,526
496,506,502,498,540
498,512,508,497,551
501,509,514,501,548
502,507,515,499,543
508,511,517,501,540
507,506,519,501,536
510,509,519,503,531
509,503,520,508,519
523,505,518,514,500
528,506,520,525,482
529,505,521,533,471
528,508,520,539,471
521,506,514,532,472
514,503,510,529,482
506,497,499,518,492
497,499,494,507,515
493,505,497,504,534
494,508,504,504,546
501,513,514,497,555
510,509,514,502,545
509,506,513,499,544
514,506,517,500,535
512,505,521,500,532
514,505,519,505,523
517,506,523,512,509
518,507,521,519,497
525,504,524,531,478
528,508,520,535,471
526,505,518,536,475
519,504,511,529,477
520,503,507,527,482
500,496,492,513,502
495,499,492,506,520
502,507,501,503,537
504,511,506,499,549
506,513,516,501,548
505,507,514,498,546
506,507,514,497,540
509,507,519,499,533
510,509,518,503,531
514,504,519,508,521
515,501,518,512,505
520,504,522,522,487
530,503,521,533,475
531,508,520,535,472
527,506,512,533,474
518,503,510,530,480
511,499,504,525,489
493,494,491,512,514
487,499,491,504,534
484,505,500,495,546
489,512,508,498,552
497,511,514,503,551
502,508,514,499,546
509,508,517,503,541
513,506,517,499,534
516,506,519,508,521
525,502,518,508,511
529,503,517,514,493
529,503,521,529,476
536,507,522,535,467
532,507,519,539,467
526,509,513,534,471
520,507,507,530,478
510,497,498,524,494
500,498,492,509,512
501,504,495,503,532
500,509,504,499,544
504,513,511,498,548
507,509,513,499,542
508,508,517,498,539
511,509,518,503,535
510,508,519,502,531
514,504,519,505,523
515,503,520,516,509
519,503,519,520,493
524,504,521,531,476
528,507,522,536,474
525,509,517,535,473
520,504,509,531,478
514,503,506,528,483
499,495,494,514,504
495,499,494,506,523
496,505,498,500,537
501,513,506,498,548
503,512,511,499,543
507,510,514,497,543
507,508,515,498,540
509,509,519,500,535
508,508,520,503,531
511,503,518,508,518
516,501,522,513,500
521,503,521,524,485
525,501,520,530,470
536,510,521,532,468
525,505,514,530,470
518,503,509,527,474
512,505,503,524,485
498,497,493,512,510
496,499,494,503,526
496,505,504,498,541
501,513,508,495,549
508,510,514,496,544
511,507,516,497,540
510,508,515,498,537
510,505,519,499,533
510,505,519,503,526
515,505,521,514,513
517,504,521,519,500
522,505,523,528,484
526,508,525,534,474
522,508,519,533,473
518,504,510,530,478
513,502,507,528,484
505,497,499,518,499
495,494,492,507,515
497,503,497,502,530
500,509,504,499,544
507,512,512,496,546
510,507,513,497,539
511,506,513,496,537
512,505,516,500,532
514,508,518,501,526
513,503,519,503,519
518,503,523,512,509
521,505,523,521,490
527,505,523,532,468
527,506,523,539,468
528,505,518,536,467
520,503,511,531,477
514,502,504,531,484
502,496,495,512,502
498,500,495,503,525
495,504,501,501,538
498,509,509,499,549
504,511,514,500,548
507,509,515,497,541
501,506,519,498,540
500,507,516,500,535
499,506,520,500,531
503,505,523,508,522
502,500,519,513,507
511,503,523,525,489
520,505,521,532,479
524,508,517,534,470
540,507,513,534,471
531,503,510,529,479
515,498,502,523,488
501,499,495,513,515
499,503,498,507,533
501,508,504,504,547
506,516,513,497,555
510,513,517,498,546
521,510,516,498,540
521,509,518,500,530
519,508,518,500,524
517,506,518,504,518
519,504,521,511,505
523,505,518,522,493
532,507,523,529,483
534,507,522,535,472
529,509,518,535,473
521,503,511,531,479
516,502,507,528,481
507,497,494,515,493
500,499,494,505,517
496,504,499,502,536
500,510,505,499,547
504,512,512,498,551
505,508,515,498,542
505,507,513,500,541
508,508,514,499,536
509,506,521,500,532
511,505,520,506,521
516,503,521,513,507
521,504,523,521,487
525,503,522,532,476
524,507,521,533,473
521,505,517,533,472
515,502,510,527,479
511,502,504,525,486
496,497,495,513,507
496,499,495,505,528
502,508,500,501,539
504,511,510,499,549
506,512,513,498,546
511,509,513,499,540
511,509,515,498,537
514,509,518,501,534
514,507,518,503,527
515,506,521,509,517
518,501,520,515,502
525,505,523,527,485
531,507,521,533,471
528,508,521,534,469
523,504,513,530,475
517,502,508,524,479
512,501,506,523,489
497,497,493,511,515
495,499,494,502,531
493,506,500,498,544
499,509,510,498,551
500,507,514,497,546
505,506,516,502,542
510,507,517,502,537
510,506,519,501,535
509,504,517,503,526
516,504,521,509,511
520,504,520,518,498
527,505,523,528,478
528,505,523,536,474
530,509,521,538,471
521,504,511,534,479
516,505,509,529,483
503,494,496,516,499
497,498,493,510,519
498,502,498,503,537
499,507,506,499,547
502,512,512,499,547
506,509,515,500,540
506,506,515,499,540
510,508,520,501,534
512,508,520,506,530
511,504,518,511,521
514,499,519,512,506
521,505,520,522,490
532,507,525,533,476
529,506,520,536,473
522,506,515,535,475
517,503,509,527,481
512,501,506,527,487
500,498,494,516,511
496,501,497,505,527
497,505,501,499,538
499,511,507,499,544
502,509,512,499,543
506,509,513,500,538
505,505,512,496,540
508,506,515,498,537
511,506,519,502,527
515,505,521,508,515
518,505,520,517,502
524,508,523,527,482
529,506,522,534,472
529,506,519,536,473
520,503,512,534,478
516,501,505,526,482
514,501,500,521,492
499,497,491,509,516
495,501,494,501,532
498,507,502,498,544
502,513,509,499,547
508,507,510,499,542
506,507,512,499,538
508,508,513,500,535
511,509,517,500,530
510,505,515,505,525
515,502,517,512,508
519,505,518,521,496
525,506,521,530,478
527,505,519,534,473
527,509,519,535,474
518,502,508,528,482
516,503,502,528,481
507,496,494,515,504
498,497,491,506,523
496,504,496,502,537
499,510,502,498,547
504,512,509,496,547
506,512,514,501,539
503,505,512,498,539
506,507,513,499,533
510,508,516,502,530
511,505,520,507,520
516,505,515,512,504
522,507,522,525,486
528,506,522,531,473
527,505,518,535,473
525,506,516,536,471
519,501,506,529,481
514,502,504,526,484
502,498,493,513,509
496,500,491,504,527
498,503,500,499,539
500,510,505,497,549
502,507,510,499,545
506,506,514,499,540
505,507,514,496,536
507,506,517,501,534
508,507,519,504,528
509,502,519,511,512
514,503,520,516,499
527,505,522,524,483
530,505,520,534,473
528,508,521,537,467
521,506,513,533,477
513,498,505,527,485
509,499,500,524,495
499,494,491,509,512
492,501,497,504,531
494,507,501,500,543
496,511,511,499,549
508,509,514,499,541
520,511,516,500,538
515,507,517,502,537
512,506,518,502,534
512,505,517,501,526
517,505,520,512,512
525,506,522,520,500
531,506,523,529,481
530,509,521,535,471
527,512,522,538,469
517,501,510,530,478
510,499,506,528,478
497,496,496,516,500
491,496,496,507,521
491,501,497,500,532
498,510,508,498,541
508,511,513,502,542
514,509,513,501,536
509,506,515,496,539
513,506,517,500,536
517,508,520,505,529
513,503,520,508,517
516,502,518,514,502
527,505,522,523,487
532,503,521,532,474
526,508,522,535,478
520,506,519,535,482
510,500,504,526,487
515,504,505,525,495
507,500,494,511,524
493,499,493,504,542
493,509,499,499,551
497,511,507,499,549
499,508,512,498,531
504,508,516,500,526
495,503,513,502,527
485,502,515,500,523
486,502,518,502,524
500,502,521,512,509
494,499,518,517,501
498,502,521,528,485
509,508,522,533,488
524,513,520,534,490
545,509,514,530,480
550,504,505,526,489
534,501,500,519,503
528,504,497,511,518
519,505,496,500,526
516,510,505,497,524
525,514,514,501,523
526,510,516,500,526
524,512,516,500,535
514,508,519,499,542
512,508,517,506,545
508,503,519,505,540
512,502,519,513,507
516,502,520,519,487
526,504,523,530,468
529,507,523,532,472
526,509,521,537,471
506,501,509,528,482
501,500,506,527,482
498,492,492,515,492
498,500,495,509,510
493,505,500,502,524
501,511,507,498,532
524,512,513,498,528
528,510,516,501,521
517,506,515,501,527
514,506,516,501,516
514,506,517,499,522
522,506,519,504,509
525,504,518,515,502
529,507,523,525,487
530,507,523,529,474
529,508,520,537,480
536,507,516,533,493
516,501,507,526,495
500,502,504,522,493
483,497,494,511,514
476,500,493,506,526
474,505,499,501,530
478,507,508,500,552
494,507,513,497,550
530,516,518,503,530
537,508,514,496,543
524,507,517,501,554
515,505,516,506,542
518,504,519,510,519
521,504,520,517,495
525,504,520,527,471
538,505,523,536,459
541,511,522,539,458
534,503,511,531,463
531,505,506,527,469
518,499,496,518,483
504,497,495,507,511
497,501,499,501,532
498,508,502,498,559
504,513,510,498,573
498,510,516,500,565
495,509,514,499,552
492,505,514,499,538
488,503,518,505,521
478,495,515,505,505
478,499,517,511,502
477,501,520,520,483
491,501,521,530,475
487,503,519,532,476
471,505,517,532,480
505,500,506,525,491
551,508,508,527,492
529,500,497,513,503
526,505,498,508,521
518,506,501,502,527
518,513,506,500,530
516,510,508,497,528
522,508,514,500,522
528,511,515,501,521
547,513,519,504,509
537,509,518,505,529
522,505,516,506,526
514,501,520,516,501
512,502,517,522,488
519,502,517,530,474
529,506,519,535,480
530,505,516,536,489
514,500,506,522,499
528,504,505,522,495
519,497,493,512,514
532,506,493,503,526
514,511,500,500,546
495,516,508,500,553
485,512,516,501,553
478,505,515,501,548
463,500,510,495,556
452,500,515,501,557
468,500,516,505,534
507,507,523,513,531
523,515,523,522,521
487,514,528,534,509
449,512,527,535,488
431,508,523,540,486
428,501,512,535,464
434,497,500,527,424
479,487,489,515,415
511,488,484,504,469
549,500,490,498,545
572,512,494,493,585
617,520,506,498,603
606,518,509,497,569
569,509,508,495,532
546,501,501,494,509
543,506,513,501,501
524,502,515,508,491
532,502,520,519,477
540,509,520,526,491
551,507,518,533,473
553,510,518,538,467
541,506,510,535,467
523,501,500,532,456
524,500,502,528,480
504,497,487,514,507
505,496,488,505,523
508,503,492,499,537
499,506,503,497,534
506,511,506,500,522
500,507,508,500,533
485,500,507,501,537
489,504,509,498,534
483,505,515,503,536
476,500,512,510,524
495,504,515,517,515
505,506,517,526,515
532,509,517,538,492
559,512,516,540,480
549,510,508,528,483
527,501,495,525,494
528,503,495,524,502
510,503,490,514,520
480,505,492,508,534
485,512,500,506,533
498,516,505,502,559
507,509,505,500,557
513,511,509,503,527
519,503,505,501,491
533,505,506,500,494
530,504,509,503,525
522,506,511,505,525
514,500,510,512,500
509,495,505,519,523
507,494,505,529,464
507,497,507,534,424
485,493,497,531,438
450,495,497,525,461
419,491,487,513,507
375,490,482,502,560
420,499,490,498,566
448,506,494,498,557
483,512,503,497,559
522,510,504,501,564
557,510,503,495,555
548,511,503,493,555
547,508,508,500,536
532,501,507,512,525
567,500,505,507,497
589,505,507,519,467
606,517,518,540,429
599,516,517,539,444
570,508,509,534,481
541,501,498,529,499
521,498,492,524,506
500,489,480,508,524
493,499,487,507,530
497,509,495,504,528
497,513,499,502,508
488,512,505,502,496
487,514,510,506,492
509,504,506,499,512
536,507,504,499,536
550,505,505,502,532
545,504,507,507,537
527,506,510,511,540
508,509,513,526,504
477,512,515,533,503
446,511,515,541,503
429,509,507,540,496
414,492,493,524,502
434,486,480,513,523
505,487,470,501,538
529,487,470,495,527
555,498,484,495,541
553,509,497,499,552
549,505,494,499,559
567,509,501,503,541
537,511,507,507,519
524,510,509,500,513
525,512,512,511,475
516,517,521,525,460
494,509,515,531,482
502,504,509,530,494
526,507,509,532,482
528,501,502,531,493
535,498,497,527,499
533,501,491,527,480
527,493,477,517,491
500,493,473,507,544
479,498,482,499,575
492,505,492,500,581
501,503,495,494,590
506,505,499,495,479
490,509,504,497,451
491,508,504,503,468
483,507,508,507,501
460,497,506,512,513
508,500,504,515,473
561,498,502,517,485
578,502,500,519,480
545,505,504,528,443
502,512,509,542,480
448,490,490,524,561
447,494,487,520,544
428,484,476,512,540
453,490,474,498,533
472,502,482,495,533
484,503,487,494,577
465,490,483,486,543
553,502,496,498,527
564,509,503,505,509
543,505,507,503,501
542,502,504,501,510
542,502,503,508,523
538,505,510,521,511
574,508,515,540,481
562,514,507,526,478
527,514,506,533,458
503,512,503,535,460
490,501,489,531,504
496,490,475,516,558
506,486,472,502,568
512,496,480,501,549
529,502,484,494,537
499,507,492,497,523
487,507,498,506,496
480,505,501,506,528
447,506,506,498,576
466,516,513,508,551
465,506,508,506,547
463,496,503,509,513
506,501,505,522,476
497,500,507,534,483
519,502,505,536,455
535,502,504,540,497
536,488,484,525,476
532,490,477,517,503
518,493,470,511,523
528,501,476,508,491
525,505,485,504,500
507,502,486,494,520
511,504,495,497,528
490,506,502,506,523
458,501,501,498,576
427,493,498,503,602
473,506,511,512,553
479,509,512,511,495
465,506,506,512,485
482,514,517,531,501
460,518,517,536,545
395,503,506,537,559
375,491,492,531,514
406,482,473,519,516
442,481,476,524,488
467,485,474,515,464
467,492,476,508,474
522,506,481,496,505
551,511,491,493,505
652,519,506,506,529
608,517,504,498,552
578,511,504,497,590
561,504,505,507,591
527,504,506,514,564
520,504,506,518,529
578,505,503,512,455
577,509,507,526,431
520,496,501,523,529
541,501,499,536,431
576,505,497,538,436
543,506,496,530,464
512,512,497,536,434
493,509,488,521,486
454,507,485,510,590
486,513,491,506,596
474,501,495,484,617
467,497,494,490,572
482,490,495,504,513
530,496,493,496,485
569,503,498,491,509
483,493,492,485,588
488,497,500,505,530
547,501,503,522,506
580,510,507,533,444
563,508,504,536,435
546,510,504,539,467
542,506,495,536,477
499,498,487,523,470
444,486,471,504,485
440,501,488,515,519
420,498,488,508,529
448,511,495,504,510
549,514,496,488,528
571,513,497,492,566
503,500,497,495,603
426,490,491,495,602
421,497,502,501,578
438,507,506,513,506
421,505,507,516,445
543,510,512,541,414
493,499,512,540,455
514,499,507,545,470
523,497,502,533,472
478,505,500,530,496
462,517,504,531,524
487,505,489,516,574
543,492,472,492,589
422,482,472,489,600
292,487,481,486,564
