CH1,CH2,CH3,CH4,CH5
528,506,514,533,490
518,503,509,529,493
514,503,506,526,497
503,497,496,514,514
498,497,498,507,528
498,499,502,504,534
504,504,508,500,536
508,508,512,499,536
511,505,513,500,529
509,507,516,499,526
511,507,516,502,529
509,504,517,499,524
513,505,515,504,518
517,506,518,511,506
521,507,520,521,495
523,509,517,529,487
524,510,519,534,485
523,506,513,532,485
518,503,508,527,488
512,501,505,524,501
497,496,495,510,519
494,497,498,502,527
496,502,503,500,536
503,508,511,499,537
510,509,515,500,530
506,505,515,501,529
509,502,515,500,524
510,509,516,501,523
517,505,517,501,519
518,504,518,510,511
523,504,517,516,498
525,507,518,523,490
526,509,518,532,487
525,510,515,532,488
517,507,512,529,491
512,504,509,528,499
503,499,499,519,508
495,498,498,509,520
493,500,501,502,531
497,502,506,501,540
499,506,512,500,540
501,508,515,500,537
508,505,513,499,539
516,505,516,500,526
513,507,519,501,520
513,505,516,504,513
520,506,519,513,498
529,511,519,521,495
526,507,519,529,485
521,507,518,533,484
523,507,516,534,484
518,505,511,531,489
513,503,503,525,495
502,498,496,516,514
492,495,497,508,533
497,501,501,499,533
503,507,511,501,536
506,506,515,501,533
506,506,514,501,531
509,507,516,499,526
510,507,516,501,522
511,507,518,503,518
510,504,518,508,509
511,505,518,514,502
516,507,519,525,494
521,508,520,529,486
513,509,517,532,489
507,507,513,530,493
491,501,507,528,503
483,501,504,520,507
477,497,496,511,522
470,499,499,503,535
475,503,502,501,538
513,509,513,501,528
519,507,513,502,526
526,506,514,502,522
532,508,518,499,525
537,507,518,499,525
527,505,517,504,525
523,506,518,506,514
523,505,518,515,500
536,515,521,528,480
536,511,519,529,480
529,509,517,533,486
527,508,513,533,487
527,506,507,526,497
512,496,499,519,515
508,499,496,508,528
505,501,502,503,539
507,502,506,499,544
506,504,511,498,539
508,505,516,502,526
510,506,513,500,523
509,506,517,502,523
509,507,518,502,521
507,505,518,506,520
502,504,517,511,509
512,508,517,521,499
522,510,522,526,489
522,508,519,535,490
517,505,513,536,492
519,503,506,525,496
524,502,505,523,503
507,498,498,515,523
490,497,495,507,527
485,499,502,505,525
488,505,510,504,521
498,502,512,501,520
493,502,514,501,519
494,505,518,500,520
497,504,519,501,523
533,507,519,503,512
539,509,519,509,503
532,505,519,516,497
529,508,520,520,494
535,509,520,532,484
531,509,518,536,481
527,507,513,530,481
524,504,506,526,484
517,500,504,524,487
504,493,496,512,505
502,500,498,503,531
506,503,505,500,538
509,508,512,500,534
510,508,517,499,532
507,506,515,497,531
509,507,518,500,531
505,506,518,501,532
496,503,517,503,527
494,500,516,512,520
500,502,516,517,506
508,508,518,521,489
506,508,518,530,475
499,504,516,532,479
498,500,510,531,490
510,504,505,527,514
500,498,499,518,524
504,496,496,511,525
519,501,501,503,524
527,506,507,501,526
529,506,512,502,542
519,506,514,498,545
510,505,513,498,543
507,507,516,498,534
513,508,518,501,527
506,503,517,506,510
513,505,519,518,488
525,510,523,523,471
534,512,520,530,462
541,511,519,530,466
524,509,514,533,468
506,504,510,531,475
495,504,509,526,501
479,496,497,511,531
475,497,496,505,539
478,502,503,504,540
496,508,509,501,543
529,506,513,500,540
531,510,515,499,542
521,509,517,502,537
503,505,517,501,542
497,506,515,498,545
499,507,518,505,541
504,509,521,515,526
525,512,521,522,510
548,512,523,533,497
542,517,520,534,487
544,509,513,531,480
534,503,504,526,482
512,501,500,521,480
493,494,496,514,490
502,500,495,505,500
505,502,504,504,524
501,506,512,503,546
500,507,516,500,534
514,506,515,500,522
513,504,516,501,518
500,501,513,499,524
480,499,512,502,530
468,499,513,508,516
471,503,517,516,504
462,505,520,527,493
454,505,519,537,501
465,507,517,538,505
472,503,510,530,502
506,506,506,525,507
523,504,499,519,512
498,503,497,509,540
500,508,503,508,562
497,511,512,502,564
500,511,515,500,550
516,506,512,498,536
565,509,514,503,496
582,511,517,503,485
560,508,518,505,487
554,504,515,504,476
561,505,515,508,469
549,505,517,520,468
546,510,519,527,463
547,510,516,533,477
539,506,513,529,479
527,504,507,530,476
524,503,506,528,491
514,500,499,516,530
501,497,497,505,542
491,500,498,505,539
492,503,508,505,536
506,505,514,504,523
516,509,518,502,513
506,504,516,503,517
509,507,515,498,527
507,507,517,503,527
498,505,519,510,534
486,502,512,512,536
477,504,517,524,513
502,508,521,535,491
512,508,515,539,485
506,506,511,530,507
498,502,502,520,533
501,502,500,523,545
513,499,494,513,558
521,500,496,499,549
536,510,502,495,522
543,508,511,499,511
529,498,507,498,513
533,501,509,503,478
536,506,515,507,459
536,506,517,506,476
530,505,515,503,496
528,504,512,511,474
530,502,510,517,465
535,508,518,531,477
525,507,514,531,485
528,511,511,529,479
506,507,508,528,523
494,508,506,528,526
478,500,497,520,532
468,496,495,510,535
458,499,501,511,534
462,502,504,509,534
481,507,512,502,512
495,506,513,503,493
509,502,508,501,492
533,505,512,499,503
524,504,510,497,528
501,501,505,501,542
506,505,512,511,526
510,506,513,514,531
519,508,513,526,519
534,507,512,534,488
560,508,510,535,462
556,503,501,530,487
553,502,496,521,497
532,493,489,510,494
527,496,491,505,524
524,500,495,503,542
529,504,503,499,541
522,497,501,496,539
498,497,505,499,512
491,508,514,506,498
494,503,513,502,512
477,502,512,506,513
468,503,512,509,522
470,504,512,516,517
471,507,515,527,523
475,512,514,532,555
470,510,514,535,535
506,506,505,531,488
538,502,498,526,454
526,492,489,520,474
531,489,483,512,497
511,495,488,504,506
497,501,495,499,547
486,505,506,498,542
491,508,507,498,540
484,503,508,498,560
470,507,510,504,546
455,501,510,503,552
489,505,512,502,542
499,507,512,512,549
515,503,511,519,501
529,508,508,525,445
562,506,505,526,444
581,503,497,529,475
562,501,494,526,487
538,499,494,526,500
515,493,485,514,534
497,498,487,510,537
491,503,495,509,547
497,508,500,498,541
501,506,500,495,531
471,499,503,498,502
469,498,507,508,480
431,499,508,500,518
440,504,511,500,527
471,499,505,504,553
488,502,509,515,548
553,508,510,519,513
554,509,512,528,495
529,509,507,534,516
547,514,506,537,521
549,505,499,533,527
520,498,488,527,504
509,494,480,512,485
499,498,487,506,526
495,501,497,505,531
520,499,495,493,564
517,493,493,489,521
545,503,504,505,460
554,510,510,503,458
520,500,508,504,475
525,500,511,499,498
531,506,507,512,503
516,504,509,519,508
526,510,510,530,494
508,509,507,534,483
517,505,501,537,460
527,505,499,540,474
503,492,489,536,489
516,498,487,515,483
517,493,479,500,508
519,495,482,500,517
522,504,497,502,539
492,506,503,498,594
493,509,509,496,564
498,502,501,486,569
473,499,504,497,580
515,506,510,503,542
528,506,506,504,510
554,515,512,516,480
542,505,505,523,445
527,504,504,526,449
502,502,501,531,460
531,502,495,530,462
530,503,489,524,475
477,500,490,523,518
440,484,480,515,529
459,485,483,513,532
466,490,489,510,543
494,500,492,487,552
499,502,496,490,567
539,505,502,497,554
513,499,499,500,517
519,506,509,498,511
527,505,507,499,540
520,505,508,505,527
517,504,502,507,513
508,506,505,520,492
510,509,506,530,474
543,522,510,543,486
574,522,506,543,462
556,507,492,520,493
541,498,482,514,526
497,487,474,508,538
447,484,480,512,478
428,491,483,495,501
437,496,496,494,595
439,497,500,503,612
458,501,505,507,591
547,510,506,506,507
588,509,505,501,456
543,514,513,498,492
481,510,511,506,513
391,498,504,513,518
376,497,501,528,483
424,500,501,535,487
467,494,490,528,506
551,489,478,518,498
656,497,477,526,512
608,496,475,532,468
518,495,479,503,461
460,500,488,512,473
467,506,499,508,516
507,519,514,511,481
474,506,506,505,554
474,505,507,504,598
504,506,504,500,556
541,504,501,488,562
484,493,498,499,599
395,488,497,508,575
379,489,494,526,545
420,497,496,535,438
422,502,500,535,460
452,504,495,522,477
462,499,489,532,502
376,495,484,530,530
300,483,475,520,540
344,481,476,505,581
524,499,489,509,555
658,527,509,511,522
582,528,513,501,594
466,507,506,504,581
423,504,509,497,458
420,492,497,499,361
443,491,503,511,413
491,493,500,507,483
474,486,497,512,492
498,506,503,515,530
587,515,505,533,518
537,524,515,544,501
433,501,494,526,515
334,471,466,507,542
351,482,477,523,463
403,501,481,520,487
340,488,474,491,572
365,489,483,495,597
391,502,503,488,626
668,527,515,501,638
766,533,516,505,563
669,512,508,507,499
548,495,503,497,512
550,500,505,523,430
622,515,508,493,469
672,510,508,501,499
688,507,501,513,505
649,517,510,542,479
591,521,516,562,399
567,514,506,546,416
535,503,492,525,475
515,496,481,509,496
540,507,486,519,560
517,505,496,522,544
512,499,493,498,546
504,495,499,497,504
488,498,504,500,484
435,491,500,492,521
483,494,507,502,482
493,514,516,503,547
461,514,520,516,564
533,507,514,533,500
612,510,503,502,486
585,509,503,515,455
518,514,509,534,434
502,508,504,533,463
500,494,487,526,505
503,490,483,521,465
527,487,474,501,434
483,489,478,504,530
407,502,494,508,565
473,520,513,517,609
568,521,517,517,539
602,500,501,503,557
611,505,504,478,624
597,507,517,502,541
541,502,513,501,516
546,502,507,495,452
550,506,507,506,507
563,507,503,517,453
564,506,504,530,461
517,505,502,534,465
483,500,498,531,513
457,506,498,529,531
476,515,502,534,513
435,508,494,523,500
418,505,498,514,492
404,509,505,508,565
529,508,505,504,545
576,497,497,489,551
548,484,493,488,524
534,499,503,495,497
543,508,505,494,537
537,505,507,501,516
494,494,501,507,536
510,504,505,505,526
464,501,506,507,521
406,496,505,523,496
421,512,513,552,389
348,499,501,550,444
381,484,486,529,503
510,495,484,530,522
469,500,488,501,519
433,498,494,503,571
408,495,492,505,651
427,515,507,496,660
434,512,511,506,533
458,500,506,503,476
508,516,521,513,439
531,512,525,505,496
590,504,514,516,437
674,507,507,506,504
720,513,498,497,589
725,520,507,532,567
604,508,499,523,517
462,483,491,522,475
438,492,494,531,469
424,489,490,529,475
426,490,491,529,465
345,480,486,507,556
406,504,499,492,603
522,517,505,482,598
579,507,505,491,538
567,492,499,497,467
549,500,506,501,457
494,500,507,503,518
546,520,516,510,516
524,517,517,519,530
422,499,512,521,582
348,502,519,537,471
378,512,520,552,452
342,503,508,532,422
560,513,502,522,457
682,518,501,524,524
693,517,497,526,572
514,495,488,529,571
432,489,485,498,452
395,484,486,498,458
459,497,503,506,512
631,518,514,497,518
674,524,518,500,476
601,508,512,494,494
598,503,511,489,538
587,506,510,489,510
681,523,513,509,529
670,519,511,518,552
555,495,504,527,531
415,481,499,527,529
474,504,509,551,487
477,499,506,567,525
539,511,503,499,511
535,505,494,510,383
478,497,493,505,516
516,506,500,500,551
507,501,502,495,559
529,501,505,492,536
507,505,513,499,512
527,514,518,505,511
489,506,517,504,481
539,508,520,506,484
519,514,522,517,540
512,507,520,518,508
530,502,512,509,458
543,503,506,521,413
467,504,510,525,473
450,515,518,548,499
521,518,509,525,520
553,508,497,519,528
561,489,480,509,546
542,490,483,500,520
538,495,492,499,499
587,505,503,496,512
536,500,507,490,574
500,508,515,494,605
455,498,510,500,587
484,505,515,498,491
534,507,519,508,454
528,509,520,514,473
487,505,515,514,520
446,500,514,534,509
436,491,503,527,528
397,489,495,514,539
472,504,509,539,482
491,502,503,540,530
587,519,512,535,531
508,504,498,507,555
480,506,497,502,522
482,512,509,508,467
569,525,515,514,453
452,507,512,502,498
469,515,521,504,506
517,506,516,500,504
533,505,514,498,516
566,499,510,499,557
467,488,507,507,549
506,494,508,507,502
497,498,505,514,516
389,487,505,528,448
515,513,513,535,467
565,516,509,536,439
657,504,499,537,443
612,501,494,525,488
552,501,496,509,521
510,513,505,510,511
437,516,513,508,586
396,508,518,502,564
510,502,516,499,568
485,485,502,486,625
370,496,507,502,573
353,494,516,505,519
412,480,501,494,508
437,483,505,501,507
612,526,523,516,421
587,523,520,524,474
442,486,501,521,563
541,503,510,539,458
626,513,507,541,423
629,513,506,519,535
611,514,504,526,491
573,506,501,516,507
532,505,506,513,586
545,514,519,519,536
508,524,529,507,547
463,527,540,521,566
518,507,522,491,542
513,495,509,491,507
474,492,497,478,444
401,489,509,498,497
529,502,518,520,464
636,519,517,516,442
604,500,506,520,437
551,506,507,528,471
636,525,509,536,493
619,514,505,525,536
491,498,498,526,485
451,494,492,512,513
464,493,499,506,506
506,500,501,497,561
554,507,511,493,575
556,509,519,501,605
528,507,518,505,546
523,503,517,502,515
530,507,520,502,497
541,517,525,508,458
554,513,521,509,445
554,511,522,516,480
508,513,524,528,518
498,509,516,534,496
533,505,509,522,504
523,502,503,524,533
507,499,499,526,510
506,496,489,516,465
456,486,486,508,516
480,495,496,500,544
487,500,504,493,505
524,505,515,500,499
526,506,520,500,534
501,503,516,498,548
540,509,523,501,531
533,513,525,505,521
509,504,520,507,513
501,503,518,512,492
500,503,517,520,496
517,510,521,531,478
549,514,517,535,468
543,516,518,536,486
538,507,508,531,490
499,502,505,530,518
473,497,495,522,530
454,491,489,503,533
371,488,499,498,532
402,497,504,498,548
376,489,509,495,583
464,502,522,510,571
596,522,530,505,501
597,522,526,504,511
627,518,520,499,524
499,502,517,507,470
438,501,516,514,509
471,508,518,523,518
533,512,520,533,464
568,510,517,537,477
508,503,515,540,536
489,509,504,518,536
518,516,512,521,553
531,511,504,517,512
530,500,501,509,530
478,499,505,507,596
512,503,509,492,507
506,497,513,497,492
538,509,520,504,464
541,518,524,503,478
554,507,520,503,508
495,493,507,484,531
545,513,519,508,459
543,509,521,519,509
497,504,523,539,493
437,498,517,533,489
416,515,520,539,476
440,504,511,535,495
542,505,505,526,439
598,499,492,506,492
570,491,491,504,496
507,488,494,492,570
543,493,501,493,555
600,521,517,492,521
522,504,519,503,535
469,508,524,512,545
459,505,523,497,498
482,513,527,501,474
489,512,528,507,497
482,496,521,517,532
533,500,514,509,548
549,505,514,516,488
580,514,517,527,538
578,514,510,526,477
553,505,504,535,429
511,501,506,537,481
479,494,493,512,517
492,495,500,513,490
493,504,504,501,532
481,508,516,503,561
430,501,521,497,549
431,502,515,497,555
561,512,521,502,557
544,507,525,513,553
492,508,521,501,561
477,510,521,492,511
525,499,507,495,438
575,509,521,523,495
588,516,517,528,520
624,514,512,531,468
572,503,509,528,467
518,498,505,529,477
534,513,514,535,550
524,495,496,548,561
540,507,501,501,519
485,499,505,489,463
475,504,516,501,476
511,510,523,502,504
535,521,524,498,523
542,510,518,500,525
524,496,510,493,528
489,493,513,499,501
485,498,516,509,479
534,503,517,519,476
527,503,512,520,523
513,508,516,529,492
508,504,514,533,449
482,501,509,527,509
465,496,504,529,547
455,496,498,519,519
508,509,498,510,458
517,503,501,503,519
468,490,500,490,592
473,507,516,494,551
520,510,521,493,506
553,510,522,502,505
533,506,519,499,534
498,511,524,498,541
515,507,520,503,515
532,506,520,513,494
517,501,518,520,502
529,511,521,532,517
504,513,518,541,471
504,509,513,539,484
403,489,500,532,512
318,483,498,524,509
375,492,492,510,470
446,490,494,500,539
609,514,508,501,526
629,530,521,507,535
557,517,526,504,538
555,518,522,499,517
529,508,520,495,560
587,510,517,499,550
556,499,514,495,547
526,495,506,495,514
465,493,513,511,483
461,504,518,524,544
475,505,516,533,511
531,513,518,531,484
615,525,522,540,403
567,523,519,532,493
457,511,511,531,538
443,479,484,510,525
468,489,486,494,532
559,512,508,498,499
567,502,510,497,523
529,491,516,506,534
503,505,518,497,507
502,506,519,496,502
472,508,523,498,536
464,509,518,498,535
527,508,520,512,531
573,504,511,503,553
557,502,516,525,467
508,500,515,528,464
443,508,519,535,456
424,514,520,535,476
522,517,515,535,472
568,499,497,517,490
526,481,482,495,552
532,495,497,518,574
548,513,506,491,537
544,514,518,495,511
530,510,519,500,486
532,513,522,498,538
536,509,516,494,484
512,504,520,506,534
511,504,517,500,565
550,501,518,505,493
511,501,522,537,492
545,522,524,516,497
561,521,518,520,472
552,511,514,528,423
515,507,512,534,433
500,505,509,529,505
488,500,499,518,552
457,493,497,508,574
465,502,505,499,539
475,499,509,495,550
503,501,519,497,554
513,508,521,501,514
542,503,518,497,528
549,502,517,499,517
536,505,519,495,518
512,509,525,512,505
493,511,524,526,506
515,517,524,534,466
558,518,519,534,469
573,521,521,531,480
500,505,512,524,488
485,492,499,520,498
497,494,501,523,526
503,497,495,503,549
484,495,493,494,570
466,493,501,495,515
503,500,510,494,517
534,508,519,506,472
521,509,522,504,526
503,500,517,501,536
503,506,519,500,571
498,505,520,504,518
509,503,518,511,558
526,510,519,516,492
492,510,522,532,455
454,501,516,533,489
496,504,511,531,480
513,505,508,527,469
469,505,507,533,486
379,495,498,519,510
506,498,503,527,506
526,500,505,545,515
486,498,506,486,576
433,506,519,482,586
429,503,518,504,533
594,514,514,496,491
623,513,517,492,500
605,515,517,490,590
572,509,514,498,533
583,505,513,508,512
533,504,517,513,476
532,508,522,534,459
530,511,518,534,466
533,510,514,530,464
524,504,507,530,448
554,506,505,529,438
512,499,495,512,503
471,501,500,510,539
471,502,503,497,573
509,501,505,490,601
584,508,519,505,615
524,511,522,500,595
439,496,514,498,545
463,507,526,506,465
564,516,521,489,449
539,508,525,513,470
498,502,518,516,490
465,498,517,530,498
509,505,515,541,441
499,506,517,525,488
480,501,508,524,492
483,498,501,521,496
552,505,500,521,491
545,505,497,512,502
506,499,500,504,515
502,504,510,503,534
505,509,518,509,539
503,505,521,502,521
494,508,525,509,518
512,511,523,500,518
485,508,526,500,564
500,511,522,495,559
546,514,517,505,515
551,510,520,525,468
572,516,520,530,487
506,507,516,533,494
514,507,511,523,474
503,500,505,528,464
517,498,501,526,499
527,499,496,514,537
510,492,491,507,549
483,493,500,520,517
464,502,511,505,514
423,505,519,498,531
434,507,522,514,567
512,513,524,496,547
584,521,524,492,547
623,519,526,509,545
565,501,515,507,518
472,489,514,506,527
492,505,517,520,425
552,511,517,522,433
565,508,509,527,471
562,508,511,531,455
530,507,503,523,487
513,506,506,527,462
487,498,500,521,485
491,497,497,505,567
507,500,501,501,560
498,499,510,506,542
510,507,517,492,503
508,508,521,500,556
507,509,521,498,547
534,516,523,499,520
521,507,522,505,519
471,500,516,499,535
462,499,516,514,518
465,494,515,519,526
519,504,510,526,459
582,514,515,536,432
574,518,514,535,446
527,505,503,529,481
504,502,503,528,503
491,501,501,515,537
500,498,502,506,527
508,511,513,506,519
519,515,520,501,530
513,510,525,503,532
515,508,525,505,542
546,510,516,495,522
558,505,516,499,525
502,498,512,497,542
499,498,517,509,501
502,503,520,521,477
496,513,521,525,473
478,513,518,535,472
516,505,513,536,468
444,485,500,521,510
455,484,494,526,546
521,490,493,533,504
541,501,495,499,506
562,514,510,507,523
529,506,510,497,569
527,511,519,499,597
542,511,519,491,593
557,513,521,500,548
536,510,520,501,520
480,500,521,497,538
484,502,520,504,468
526,508,519,500,496
522,508,522,519,480
497,502,518,533,465
465,503,518,538,445
497,503,512,528,446
546,501,506,529,464
514,500,499,521,483
502,497,494,512,501
498,496,496,504,520
518,500,500,499,527
528,508,514,500,527
528,511,518,497,529
522,508,521,504,531
521,510,523,502,525
519,512,522,502,515
518,513,525,504,504
512,508,526,512,528
503,511,526,526,530
512,511,521,520,495
529,514,521,531,487
529,509,513,527,471
513,505,507,526,496
505,498,500,519,485
487,497,502,525,495
504,491,494,509,531
516,499,500,505,541
499,501,509,502,544
505,502,514,496,536
512,503,517,498,536
503,500,519,504,538
508,502,514,492,527
521,507,523,499,534
527,506,521,506,544
537,503,518,512,530
514,498,517,528,472
513,504,517,518,500
531,515,518,525,480
530,512,518,530,482
528,506,509,527,486
518,499,505,526,483
498,494,494,516,509
494,497,498,513,518
495,500,502,500,524
480,502,512,510,534
500,515,516,493,533
514,506,520,499,528
513,508,523,498,534
507,504,519,502,534
513,504,522,502,520
516,502,519,504,522
523,504,520,512,513
526,506,519,518,504
526,509,518,531,486
526,510,517,535,477
536,510,516,537,485
523,506,511,534,499
526,511,511,528,492
497,495,500,521,502
466,500,500,512,526
470,506,510,497,530
502,508,514,501,520
520,507,519,495,532
528,510,521,501,544
529,514,523,501,544
522,503,517,496,542
517,502,519,502,540
493,494,513,498,523
502,498,515,512,488
526,508,517,522,477
537,509,514,530,476
527,512,521,534,476
522,512,514,533,478
506,498,502,526,498
518,500,501,519,505
529,495,495,510,516
515,503,503,507,530
511,505,513,508,540
482,502,517,501,536
507,509,523,498,522
512,511,522,499,520
508,509,522,501,504
504,503,521,500,517
514,502,519,500,549
518,506,521,511,524
509,506,522,516,500
522,508,520,528,477
541,511,517,534,474
566,515,515,534,464
533,504,504,525,485
492,497,503,524,513
461,492,497,518,515
501,493,497,511,508
512,502,506,507,533
502,506,512,500,542
506,508,522,499,541
511,506,523,499,532
514,507,523,505,530
508,503,520,498,531
507,506,524,500,525
514,503,519,503,516
510,503,521,512,507
520,502,519,520,497
528,507,520,529,484
527,511,520,533,481
528,508,516,533,481
517,504,510,528,492
517,504,506,524,495
502,496,497,513,513
496,496,500,503,526
497,501,507,502,538
501,506,517,498,540
507,508,523,498,537
512,508,524,501,533
512,506,524,501,528
512,505,522,496,530
509,503,521,500,523
516,507,523,506,514
519,504,521,510,501
529,508,522,520,487
529,510,517,529,479
527,509,524,533,483
525,508,515,532,486
514,500,505,525,493
512,501,506,520,500
499,496,505,511,520
498,499,503,504,531
499,502,512,503,540
507,506,517,499,539
511,506,522,500,533
515,508,524,501,528
508,504,526,499,530
506,504,523,498,526
510,507,524,501,520
517,509,524,509,508
516,503,518,515,507
528,508,521,523,489
537,511,521,534,481
533,512,520,533,478
526,507,513,528,483
517,499,504,524,493
512,495,499,512,506
502,495,498,504,520
500,499,506,505,532
500,502,515,500,542
500,507,520,499,547
511,505,525,498,531
513,506,527,503,532
508,503,520,496,535
512,507,528,499,528
512,501,521,503,521
517,507,523,511,509
524,506,521,519,493
529,506,519,528,486
528,506,518,532,484
526,508,517,536,484
519,502,507,527,493
515,499,503,523,495
505,493,497,509,513
497,495,501,505,528
501,499,508,502,532
503,505,517,500,540
509,506,519,501,537
517,509,528,504,529
520,508,525,503,527
513,503,520,499,529
515,503,522,502,522
513,500,521,509,514
522,505,519,509,502
527,510,523,516,491
528,510,520,519,480
532,512,519,519,480
531,509,517,528,479
520,503,507,530,492
515,502,500,519,496
498,494,497,511,520
496,501,505,510,534
492,502,513,506,544
505,504,521,496,531
515,506,522,498,528
513,509,526,499,521
512,503,525,500,522
515,507,526,498,524
512,502,520,501,519
518,506,525,507,503
522,505,521,516,501
526,507,524,525,485
531,509,522,532,477
532,512,520,534,476
524,503,514,530,483
510,501,505,527,499
506,499,503,513,505
504,499,504,506,520
499,501,509,501,530
504,506,519,501,536
508,507,525,499,535
512,507,528,498,528
514,508,528,499,524
511,505,524,500,528
512,506,530,501,523
517,506,525,501,512
520,506,526,512,504
521,508,530,522,494
524,511,527,530,480
527,513,523,533,480
531,506,519,534,480
522,504,512,525,487
518,502,509,524,494
508,499,502,512,512
499,497,502,502,527
500,503,513,504,533
501,506,523,502,538
508,506,524,500,536
513,508,528,500,525
514,506,529,501,523
514,506,527,499,525
514,506,528,502,518
518,505,528,507,504
518,504,530,515,499
523,505,526,524,489
529,508,528,532,482
534,510,525,533,479
527,505,519,532,484
517,503,513,522,493
515,500,510,521,499
503,496,505,512,517
505,502,511,505,526
503,504,516,499,534
507,509,526,498,536
509,507,529,499,530
515,508,531,501,525
511,508,530,497,526
510,507,533,502,526
512,506,531,501,520
519,507,530,510,508
520,507,528,519,498
528,510,531,527,484
529,512,526,532,480
529,513,529,535,480
524,509,520,531,486
514,501,513,521,497
509,499,509,515,508
498,499,510,507,520
500,503,515,504,532
501,508,521,501,539
508,511,528,501,535
512,505,530,500,528
517,508,533,501,525
511,504,527,498,530
514,504,530,499,520
515,507,532,504,510
518,509,531,514,503
524,508,533,520,487
529,509,531,531,480
530,512,529,531,478
528,512,530,531,484
514,505,519,528,501
513,505,518,520,498
501,497,511,510,516
498,501,513,507,527
500,504,518,502,536
507,510,524,499,536
509,509,531,499,532
513,511,533,500,527
513,510,533,500,526
509,507,532,496,526
513,509,534,501,517
519,508,533,508,505
522,509,533,511,501
529,512,534,524,489
533,512,534,532,483
529,511,532,534,483
523,512,528,530,486
515,504,519,525,497
511,504,514,518,503
502,498,511,510,518
502,501,515,505,528
502,506,522,499,533
507,511,527,499,535
511,510,532,500,530
514,511,533,500,526
511,509,531,498,525
509,508,533,499,522
514,507,533,503,514
517,508,533,511,506
522,508,533,517,500
528,513,535,526,487
530,512,534,537,484
532,513,533,535,481
519,506,525,533,489
514,502,513,522,497
504,498,512,516,510
500,499,512,508,521
503,505,519,504,528
503,510,525,500,536
506,509,531,497,535
511,511,532,502,528
515,512,536,501,524
510,508,534,498,525
513,509,535,502,518
514,508,535,506,513
519,509,534,512,505
525,511,536,521,492
525,511,539,531,484
524,513,534,531,486
526,512,532,534,486
517,507,522,528,496
510,503,518,522,498
502,504,514,513,512
500,504,512,505,525
503,507,520,503,531
505,511,529,500,534
510,510,532,500,530
512,510,535,500,523
516,506,533,502,522
515,504,529,500,520
518,505,535,504,513
513,509,539,511,509
514,507,537,516,499
520,515,536,522,493
524,513,534,527,487
529,513,534,532,485
522,507,526,531,492
511,505,521,522,499
506,502,517,521,504
496,498,510,513,521
502,502,518,501,528
502,510,524,499,532
503,513,530,501,536
500,507,534,496,528
512,511,530,500,522
511,508,531,501,525
506,507,528,500,523
511,506,532,496,512
517,509,532,508,507
520,510,537,518,499
525,513,533,528,487
528,508,532,530,486
525,512,533,533,488
520,510,527,532,492
511,502,519,522,498
507,500,512,514,509
496,500,512,502,523
498,504,518,501,534
502,509,523,498,536
507,510,528,500,530
510,506,530,497,525
511,509,533,502,519
505,507,531,498,521
508,509,533,497,516
512,507,532,504,512
518,504,531,513,504
527,509,535,521,493
530,506,532,532,483
523,505,530,533,483
521,509,528,535,489
515,508,521,527,496
509,504,517,517,498
501,501,511,511,520
496,501,508,502,528
499,505,518,503,532
506,508,524,504,535
509,510,528,499,527
514,510,531,498,521
511,510,532,500,520
506,507,529,499,523
510,510,527,502,516
510,507,531,511,510
517,503,529,514,500
521,509,532,524,493
526,512,530,530,485
529,513,532,536,484
521,507,526,534,489
513,501,515,523,496
510,507,516,517,503
501,498,507,508,517
502,491,507,505,527
504,489,514,502,532
505,497,528,501,535
504,494,521,497,530
506,497,525,506,524
508,516,531,508,519
507,526,532,507,521
512,515,533,511,514
521,510,533,514,504
519,509,528,512,497
525,512,534,518,489
525,514,532,525,486
522,511,532,534,486
515,505,522,532,494
513,506,514,521,502
504,501,509,510,510
500,500,508,507,523
500,502,512,503,531
504,505,517,498,530
512,512,524,499,532
511,510,527,498,526
512,510,529,502,524
510,503,525,499,522
511,507,523,500,518
513,504,525,505,510
515,505,529,513,504
522,508,529,522,491
525,500,526,530,485
526,493,523,532,486
525,491,521,535,488
514,486,519,529,495
505,479,509,520,504
498,499,508,514,516
497,524,516,507,526
504,521,515,502,529
509,515,520,494,531
510,511,522,497,529
510,506,527,497,528
511,503,528,499,524
507,496,517,495,526
510,502,521,496,517
514,503,525,507,510
516,498,524,515,500
526,511,528,526,489
528,519,530,534,482
524,505,524,533,483
525,508,523,532,486
517,513,518,527,496
509,498,507,521,504
497,496,506,511,519
497,499,510,502,528
504,510,518,499,533
507,511,521,498,533
507,503,523,496,530
511,508,527,500,524
513,520,530,496,521
508,504,520,495,522
509,506,526,500,513
515,515,528,506,504
519,510,527,512,495
528,510,529,525,487
524,509,525,532,487
525,512,524,535,483
517,505,517,538,490
510,501,508,521,496
502,502,506,516,510
497,501,504,509,523
497,501,511,506,531
500,505,522,501,535
511,510,524,501,532
512,509,526,500,528
513,508,524,497,523
507,506,523,499,527
510,514,527,501,520
513,508,527,506,513
516,508,525,513,501
522,510,529,522,492
526,512,528,532,482
524,513,523,534,482
523,511,522,533,483
518,508,515,528,488
506,498,505,517,500
500,500,503,516,518
498,500,506,508,530
500,503,510,502,536
503,508,522,501,538
507,510,524,497,533
512,510,526,501,526
511,508,527,499,526
509,505,524,497,526
508,504,522,500,523
515,505,526,506,510
517,506,522,513,502
522,508,531,525,492
526,513,524,532,481
524,511,524,536,485
518,506,517,530,485
515,504,512,526,495
509,497,503,516,504
501,497,502,509,517
502,501,504,502,530
504,504,513,499,535
506,510,521,496,536
506,509,521,498,537
513,511,527,500,529
513,508,525,500,525
510,505,523,496,525
511,505,523,503,519
517,506,524,508,507
517,507,526,518,502
523,508,524,526,486
527,512,523,532,484
525,510,521,531,484
517,506,513,526,489
512,502,507,525,498
503,496,498,516,513
500,498,497,505,524
500,502,505,499,532
501,507,514,500,537
506,510,521,502,539
509,508,524,502,532
512,509,520,497,525
510,505,521,496,529
502,502,522,503,525
512,504,517,503,517
516,505,521,512,504
524,507,523,525,492
525,508,520,532,483
526,509,515,533,481
524,509,514,534,485
520,505,507,528,492
510,499,501,521,500
504,499,499,515,516
497,498,499,505,527
502,505,509,502,535
506,510,517,499,541
510,509,519,500,536
513,509,524,501,530
511,508,523,500,527
509,505,519,498,530
511,507,521,501,522
513,505,522,508,511
517,506,523,516,503
522,508,521,524,489
526,508,517,532,481
526,513,519,535,480
522,506,511,529,483
514,503,505,527,494
507,495,496,516,504
501,496,497,510,517
500,500,505,505,531
503,505,507,499,535
507,508,519,503,540
510,506,520,500,534
511,507,523,505,530
506,504,521,501,529
508,505,519,496,526
509,505,520,504,515
511,503,518,515,509
519,503,517,516,502
525,511,520,525,481
527,507,517,534,481
528,511,516,536,479
520,506,509,531,484
510,502,502,522,495
501,494,495,514,513
496,496,497,511,524
498,501,505,501,532
509,510,510,495,537
509,511,519,499,535
511,507,522,501,528
514,508,522,502,526
509,507,519,498,530
511,507,521,496,523
512,504,520,505,514
517,504,516,512,499
521,504,519,521,490
530,509,519,531,478
525,509,514,533,480
524,509,513,534,482
514,502,504,530,493
510,499,498,522,498
499,493,493,513,516
501,497,497,502,527
498,504,508,501,536
503,507,516,499,538
508,510,520,498,534
512,509,522,501,528
512,508,521,498,526
507,503,524,499,528
510,503,517,501,515
516,506,519,508,506
519,506,517,516,500
522,506,519,526,488
526,508,517,530,479
524,509,515,537,481
523,508,511,533,486
511,501,505,526,499
504,496,496,518,506
499,498,497,510,518
496,500,498,504,533
501,506,510,499,537
508,510,515,498,538
508,508,517,499,535
510,506,521,502,529
509,506,517,499,527
506,503,518,499,526
509,503,517,503,520
516,507,517,508,506
522,506,518,516,495
525,508,518,531,485
526,513,516,533,479
525,510,515,536,481
520,506,507,531,488
510,501,503,525,499
501,496,493,512,510
499,498,496,508,525
500,500,504,505,529
502,503,510,501,538
510,506,516,501,534
509,509,521,500,530
510,509,521,500,528
508,507,519,499,526
510,509,521,499,523
515,507,518,505,518
513,503,517,515,505
521,508,522,524,494
526,507,516,528,481
522,508,515,533,485
524,509,512,534,483
514,500,505,532,491
501,498,500,531,506
502,499,494,505,513
501,503,496,501,526
504,506,506,497,535
506,510,513,498,538
509,508,516,499,532
514,506,518,497,525
510,507,519,499,524
508,503,515,499,526
508,504,519,502,522
513,504,517,510,513
516,505,515,515,498
522,506,516,528,492
528,509,516,531,480
530,509,513,533,483
526,509,509,534,487
515,503,503,526,496
504,497,493,515,505
501,501,494,510,518
497,499,499,504,530
503,505,506,498,535
507,509,512,495,540
508,508,516,498,531
511,507,517,500,525
509,507,518,498,523
509,504,515,499,523
509,505,517,502,517
513,502,515,511,510
518,505,517,517,497
526,506,514,528,491
526,512,516,535,485
525,510,514,536,482
519,506,507,530,490
511,502,503,525,499
503,495,493,515,508
497,498,496,508,524
499,504,501,503,537
502,505,507,498,538
506,507,515,499,535
509,508,517,501,530
513,509,517,497,526
511,506,518,501,525
507,504,518,500,523
512,504,512,504,512
517,504,515,511,503
524,507,517,521,491
527,507,516,531,480
523,504,511,531,483
523,505,511,537,485
515,509,505,528,492
512,501,498,519,497
500,498,493,514,515
498,499,496,504,525
501,505,504,501,532
506,512,513,500,539
512,507,516,496,532
513,509,519,505,527
506,509,519,501,523
505,503,515,501,526
509,504,513,499,519
518,505,516,508,508
518,506,516,516,499
522,506,518,527,491
526,510,515,531,485
526,511,510,532,482
521,507,509,532,486
512,502,502,528,495
502,496,494,517,506
499,499,495,509,521
498,501,499,503,531
500,504,507,500,536
505,509,516,500,537
508,507,517,499,532
515,509,518,502,526
511,506,516,499,525
506,505,516,497,524
510,506,516,504,516
515,504,515,511,504
520,503,515,520,497
524,507,518,530,481
525,509,512,531,482
523,510,514,535,480
515,505,508,532,490
509,500,499,523,496
503,497,492,513,512
497,496,495,507,526
500,503,501,500,533
504,507,511,497,535
508,507,516,496,532
507,506,518,498,528
512,507,519,497,524
511,504,518,499,522
509,505,519,500,521
509,502,518,506,514
515,506,515,511,502
522,508,516,522,490
526,511,517,531,486
526,508,515,530,483
525,507,514,534,483
517,501,505,530,493
509,496,498,522,501
498,498,493,514,518
496,500,499,502,526
501,505,505,500,536
504,509,515,501,537
506,507,517,496,532
510,505,519,503,525
510,507,517,498,523
509,505,519,498,526
508,504,517,504,519
514,505,519,506,508
517,503,517,515,499
524,507,521,532,489
528,509,518,529,481
528,512,517,535,482
523,506,512,535,485
512,502,505,528,492
505,497,494,513,505
499,497,495,509,520
496,498,500,503,532
502,506,507,499,535
508,509,516,500,535
510,508,519,499,530
515,509,521,505,524
509,507,519,498,525
507,504,517,500,525
507,500,517,504,519
514,505,518,508,501
518,504,518,522,494
525,505,514,525,483
532,513,516,527,482
528,511,512,531,482
519,506,507,527,490
513,502,500,524,498
501,495,494,513,513
498,498,495,504,523
501,502,502,503,532
504,509,510,499,537
508,508,515,498,533
512,508,518,500,529
513,508,518,500,526
514,507,519,501,525
508,504,517,502,523
510,504,518,505,510
515,503,518,514,504
525,509,520,526,490
525,509,515,530,483
526,510,512,534,484
523,508,512,532,485
516,504,506,525,490
507,500,500,523,502
499,498,492,511,514
499,499,499,506,527
502,501,505,501,537
504,506,513,497,540
507,507,517,498,534
511,508,519,502,529
508,505,520,502,527
510,502,517,496,527
510,504,518,500,520
516,507,518,509,507
518,506,519,517,499
520,506,518,523,485
526,507,519,534,484
526,511,518,535,483
518,506,511,530,486
516,503,505,527,494
505,498,496,516,509
500,497,496,507,520
500,502,503,503,531
503,508,510,502,533
507,511,518,501,536
511,509,518,499,530
511,507,520,501,526
511,506,520,501,525
506,502,518,498,526
511,504,518,502,516
517,505,518,512,505
520,509,523,521,496
523,509,518,527,486
525,508,517,534,482
524,510,513,531,482
516,504,507,528,492
511,501,502,524,498
500,495,496,516,514
497,497,497,504,524
503,501,504,505,532
504,504,513,501,538
507,509,517,500,534
512,511,520,501,526
511,512,520,501,526
509,507,520,499,524
512,506,520,501,519
511,502,520,508,512
513,505,521,515,505
522,508,520,521,493
526,509,515,527,483
525,510,516,533,483
522,509,514,531,485
515,505,503,526,492
509,501,501,520,502
499,496,495,513,519
497,497,497,503,528
500,505,505,500,535
504,508,513,497,537
508,506,515,499,533
512,507,518,501,528
506,504,518,499,526
507,504,515,498,525
509,504,518,501,517
515,506,522,509,509
517,507,517,517,501
525,508,517,527,487
524,511,516,534,482
526,510,515,534,484
520,509,509,530,490
515,504,503,527,496
502,495,496,518,512
501,496,496,507,520
497,501,501,505,532
503,506,510,498,536
508,509,515,498,537
508,507,517,498,531
512,509,521,499,527
512,508,517,499,525
511,505,519,498,525
512,507,519,504,516
513,504,516,511,508
518,505,517,521,498
523,507,521,533,489
524,508,516,530,480
526,509,516,534,486
519,506,507,527,490
510,501,503,527,499
495,494,497,513,511
500,499,497,504,526
499,502,501,501,534
503,502,510,500,535
507,507,515,499,531
508,506,519,505,528
511,507,519,497,525
511,506,519,492,523
509,507,518,498,520
511,507,518,506,512
517,503,515,512,503
522,507,516,521,490
525,509,515,531,484
525,509,517,532,482
523,510,513,534,486
517,504,505,527,493
507,498,498,521,504
499,497,496,513,515
500,500,499,504,528
500,503,508,501,537
505,505,514,499,539
508,508,518,501,532
511,511,521,503,525
508,508,521,499,526
511,505,518,499,526
509,502,520,500,520
512,504,516,506,511
518,504,518,516,496
523,508,517,524,486
528,510,518,531,483
526,509,514,535,484
519,510,511,533,488
514,502,504,527,494
502,495,496,517,506
498,495,496,509,520
496,497,501,505,532
503,504,507,498,536
506,504,515,498,535
506,502,515,498,531
512,506,517,499,525
511,506,519,499,523
506,503,517,496,522
513,506,519,503,517
514,505,520,512,505
518,507,518,521,494
525,509,519,529,484
522,509,514,532,488
524,507,514,533,485
516,504,507,530,493
508,501,501,524,501
502,498,497,513,516
496,497,497,506,528
497,500,502,502,534
500,507,510,499,542
504,505,516,498,536
511,506,519,503,529
510,507,522,500,527
510,509,520,500,523
507,505,518,501,523
510,505,517,505,516
516,504,515,511,503
523,507,517,523,493
524,509,519,531,484
525,509,511,531,484
521,508,511,533,488
515,501,504,527,492
508,500,496,520,504
497,496,494,512,519
498,500,498,503,528
502,504,506,501,535
506,507,514,500,536
507,506,516,496,531
511,508,521,501,526
510,508,520,499,525
507,506,518,496,527
511,506,516,501,518
519,507,519,508,507
516,506,518,519,500
525,509,517,527,487
523,510,519,533,485
523,510,516,534,483
518,508,507,531,493
514,503,505,525,495
503,496,495,515,509
497,497,496,509,524
498,501,505,504,534
501,505,514,501,539
506,508,516,498,536
509,505,515,499,531
508,507,521,501,525
510,506,516,497,525
509,506,515,496,524
510,504,517,501,516
519,505,518,511,504
520,509,519,521,493
525,507,517,530,479
522,506,516,532,485
524,508,511,533,485
516,506,506,529,492
509,500,503,521,497
500,494,494,513,516
496,497,496,505,524
500,502,504,505,533
507,509,514,500,536
505,508,517,499,534
509,511,521,502,529
509,509,520,497,528
511,507,519,500,526
508,505,519,500,521
511,503,518,505,515
514,504,517,511,502
522,507,516,522,491
526,509,518,530,484
524,506,514,535,486
521,508,510,534,489
516,504,505,527,494
506,499,505,520,505
500,497,495,507,518
498,500,499,501,529
500,503,505,501,536
507,509,515,502,538
509,506,515,498,533
511,508,519,499,528
510,507,519,498,525
509,504,519,500,522
509,502,518,503,518
514,504,518,507,507
516,506,519,515,501
521,508,517,526,491
523,509,515,529,486
522,509,516,535,483
520,507,510,531,490
511,502,503,526,497
503,494,495,516,508
497,496,496,510,524
499,503,501,504,529
499,505,510,500,537
508,509,516,498,538
508,508,517,497,532
510,508,519,499,527
508,506,520,498,526
507,504,518,500,526
510,503,514,501,516
513,504,517,511,505
523,508,520,521,494
525,506,516,530,484
525,510,516,533,485
521,508,514,538,485
517,503,507,531,491
510,502,500,525,503
502,499,494,515,514
496,496,497,507,528
497,501,503,506,536
501,503,510,500,538
509,506,516,499,536
509,504,517,501,533
510,509,518,501,526
507,506,517,499,526
508,501,516,500,522
513,507,517,508,513
513,508,517,515,506
526,508,519,527,491
525,507,517,530,485
524,506,516,535,481
525,507,511,532,488
516,505,509,529,495
504,497,498,519,507
502,497,495,511,518
497,498,499,502,530
502,501,506,500,537
505,508,513,497,538
508,506,514,498,532
510,506,518,501,533
509,506,518,498,526
509,505,518,499,522
510,505,516,502,518
512,504,518,512,509
518,506,517,517,497
522,509,516,528,489
525,509,518,531,483
525,510,515,534,482
515,503,507,528,488
513,502,504,525,494
501,497,496,517,509
498,494,493,508,523
500,500,501,502,531
504,506,509,500,537
508,506,517,500,534
509,504,517,500,529
511,508,520,500,527
512,508,519,500,525
508,504,519,498,524
509,503,517,504,516
514,502,516,513,510
520,507,517,523,500
526,509,518,526,482
524,509,513,532,480
522,506,514,535,485
514,503,504,530,494
511,503,501,524,498
502,498,496,512,514
498,498,498,506,524
500,502,504,502,536
503,508,512,500,536
503,508,517,498,535
508,508,519,499,527
511,509,519,500,527
509,507,518,500,525
513,504,518,503,520
514,504,519,507,509
516,507,517,514,504
522,507,517,524,490
524,509,521,532,484
525,506,514,534,484
519,506,511,531,488
514,504,504,527,495
506,500,497,521,507
498,500,495,509,518
497,500,502,505,531
502,502,505,498,538
504,508,515,501,539
507,507,517,501,534
512,511,520,502,527
512,507,519,497,526
514,506,519,502,524
510,503,518,503,520
516,501,517,510,510
516,504,516,518,499
523,506,519,535,489
526,510,514,531,485
525,510,515,530,482
519,503,508,530,487
512,503,505,527,494
506,497,496,515,511
496,494,496,508,525
499,499,498,501,532
500,504,509,496,536
507,508,517,496,533
511,507,518,499,528
511,504,518,502,527
507,502,516,499,528
510,504,515,497,522
512,503,518,501,512
512,505,518,511,505
517,507,520,520,493
526,508,518,532,484
526,511,516,533,486
526,511,514,533,482
515,505,507,526,489
512,501,502,525,494
500,497,497,514,515
496,497,497,503,529
501,503,500,499,535
504,506,510,498,539
507,505,513,497,531
511,505,517,501,530
510,508,518,499,526
508,503,517,500,524
508,502,515,501,521
515,503,518,507,509
517,505,517,512,502
521,507,519,523,489
523,508,520,532,486
526,509,515,534,483
521,507,508,531,488
515,503,504,526,490
509,498,497,521,502
500,497,495,512,519
499,499,500,504,531
501,504,504,500,537
503,506,511,501,540
505,505,514,495,534
512,511,517,496,530
508,506,518,503,528
507,505,518,501,526
512,501,517,499,518
515,504,515,508,508
518,505,517,513,497
525,506,516,528,487
524,510,518,534,483
524,510,516,533,484
519,504,507,531,493
513,502,504,523,494
503,497,496,515,512
500,496,495,507,525
499,501,502,501,531
502,504,508,499,536
507,506,515,499,535
509,506,514,498,529
511,504,517,500,530
510,505,517,500,524
508,502,517,501,522
510,503,517,502,513
515,505,517,511,505
523,506,518,521,493
525,507,518,529,483
526,509,517,537,483
523,508,512,534,485
513,502,506,529,493
512,501,501,524,497
501,498,494,513,516
498,498,497,505,529
500,501,505,503,532
503,508,514,499,537
508,509,515,500,534
508,508,518,501,526
509,507,518,499,524
509,504,518,500,521
512,504,516,502,520
514,508,518,508,508
515,502,517,516,501
525,507,517,526,489
523,508,518,535,485
521,509,516,532,483
521,511,511,533,489
518,502,505,528,497
505,495,496,519,506
499,497,495,512,519
498,500,499,501,528
501,503,505,500,534
506,508,514,500,536
508,507,513,497,532
512,508,516,501,533
510,505,516,500,528
510,504,515,501,525
512,504,517,505,515
519,506,517,512,503
521,506,517,518,499
522,507,514,527,485
525,511,516,535,483
524,511,510,535,484
519,505,507,531,490
511,503,502,526,496
506,499,495,514,512
496,496,494,509,526
500,502,497,500,532
499,505,505,500,537
507,507,515,499,536
508,507,519,500,530
510,507,517,502,526
509,506,519,501,524
509,506,517,501,523
510,504,519,505,516
514,506,514,513,509
523,505,517,525,495
526,508,516,529,485
521,507,516,535,485
520,509,513,531,482
517,503,505,528,490
513,503,503,524,498
499,495,493,512,516
497,497,494,504,527
500,502,504,498,533
504,507,509,498,535
503,503,515,498,534
509,507,517,501,530
510,506,517,500,529
510,506,519,500,522
508,503,518,505,520
512,502,517,511,513
520,505,516,513,498
525,509,519,526,486
522,510,517,532,486
525,510,514,533,482
520,505,508,529,490
514,503,502,525,495
506,499,497,517,506
498,496,495,510,521
497,498,498,503,534
500,503,502,497,535
506,507,513,499,535
506,505,514,498,531
509,506,519,499,528
510,507,520,501,524
509,507,518,501,523
509,504,519,504,519
515,502,517,510,507
517,505,516,519,499
527,509,519,528,485
523,508,514,534,488
524,512,516,535,483
519,505,506,530,490
515,503,505,528,498
502,497,494,513,511
498,498,496,507,524
498,502,503,504,533
502,505,512,501,534
506,508,515,497,534
510,507,516,500,530
510,505,520,499,523
510,505,518,500,522
510,506,519,498,521
512,503,517,502,512
515,506,519,511,505
521,506,518,523,490
523,508,516,529,483
527,510,516,532,483
523,509,512,534,483
514,503,507,530,492
509,500,501,524,496
502,496,496,513,513
498,499,497,505,528
497,501,504,503,536
501,505,514,501,537
506,504,517,500,532
510,508,520,501,526
511,509,519,500,523
512,507,522,499,522
510,504,514,502,520
513,506,518,506,510
515,502,517,516,501
525,507,519,528,491
526,509,516,529,482
527,511,516,533,482
522,505,509,531,486
515,502,503,527,492
507,502,497,522,503
495,498,497,509,519
494,499,502,504,533
501,504,503,499,538
507,511,515,499,537
508,506,516,498,532
513,507,519,500,526
510,508,518,500,523
509,504,518,504,520
505,503,519,509,519
514,504,517,509,511
519,506,513,515,497
524,510,518,526,484
525,509,515,532,482
526,510,515,535,481
519,506,509,528,489
514,503,504,525,493
502,497,494,515,511
498,500,495,506,528
498,499,503,502,532
502,505,511,500,537
507,508,517,498,535
511,506,517,500,528
507,507,520,500,526
509,506,518,497,525
511,507,517,499,519
514,504,517,501,511
516,506,517,512,504
521,508,519,522,493
521,507,518,532,485
523,508,512,531,484
523,510,513,533,485
516,505,508,528,492
511,501,505,525,499
499,496,494,511,516
495,498,497,503,528
501,504,502,500,535
504,506,512,499,536
507,505,513,498,532
508,507,519,505,529
510,510,520,501,527
510,507,516,499,525
513,505,518,504,520
514,507,519,509,509
516,504,517,516,502
523,509,518,526,488
525,509,517,533,484
526,505,514,535,487
524,508,511,530,487
516,504,504,527,493
507,498,496,519,507
500,495,495,512,523
498,500,497,501,532
500,503,508,501,535
505,507,513,498,539
507,506,521,499,534
514,508,520,499,528
511,508,521,499,526
510,507,521,500,523
508,505,519,501,516
513,505,519,510,509
518,506,517,520,498
525,507,518,526,483
524,509,518,535,482
525,510,516,533,482
519,505,506,530,488
515,503,502,526,494
500,496,494,515,516
495,497,496,506,529
497,501,499,501,537
501,507,512,499,540
509,508,517,498,536
508,509,519,501,530
511,508,518,501,525
509,506,519,498,524
509,505,518,498,521
513,503,517,504,512
514,505,516,510,504
522,508,518,522,494
525,508,515,530,483
525,510,515,533,485
523,506,510,532,485
515,502,503,527,492
513,502,502,524,496
500,499,496,512,517
497,500,499,504,530
499,505,505,498,535
502,506,514,499,540
506,505,514,501,534
512,507,518,500,526
511,506,520,502,523
510,506,520,499,525
509,507,518,502,519
511,504,518,510,510
514,503,516,516,501
523,508,519,526,489
521,506,516,533,484
526,512,516,535,484
519,507,506,530,489
515,503,504,526,493
506,499,494,522,512
503,499,496,504,519
500,501,501,502,531
500,502,507,506,537
506,507,518,501,537
506,505,517,502,533
512,510,520,497,526
511,509,520,501,527
509,507,520,499,522
514,508,518,503,517
512,505,518,513,509
516,505,519,521,497
523,508,517,533,488
525,510,514,529,485
528,511,513,531,483
518,507,507,529,487
513,503,504,524,496
501,496,496,519,509
495,497,495,506,528
497,501,503,502,534
502,506,508,500,539
506,508,516,498,534
509,508,518,498,528
512,507,520,502,526
510,505,520,502,525
511,505,518,500,520
513,503,517,503,512
516,503,517,512,504
522,506,519,521,490
525,509,518,532,483
524,507,514,533,486
523,506,512,534,480
514,502,504,528,489
510,499,502,524,497
499,497,494,512,518
497,499,498,503,528
501,505,505,502,533
506,507,514,498,538
506,506,517,496,531
510,507,520,498,526
509,506,517,498,525
504,501,518,499,527
508,504,517,501,520
514,504,520,506,507
517,503,518,512,497
522,507,517,527,488
526,507,518,534,479
523,508,516,536,484
522,508,511,530,488
514,504,506,528,493
504,498,495,517,513
497,496,496,508,519
499,500,501,502,531
503,504,507,500,536
509,508,516,498,534
508,506,514,498,532
511,508,522,500,528
509,507,523,499,526
510,506,521,500,521
510,503,519,504,515
515,505,520,511,507
523,506,520,518,495
526,502,516,529,488
526,511,517,534,481
524,511,515,535,486
518,505,508,528,490
512,503,505,523,495
501,495,496,514,512
498,497,494,506,526
498,501,503,499,532
502,504,512,501,535
506,505,513,495,533
508,506,514,496,529
511,506,518,500,526
509,507,519,500,524
509,505,517,502,522
512,502,518,505,514
514,504,515,512,503
521,504,517,524,497
525,508,519,529,484
524,508,515,535,485
523,506,510,533,484
517,501,505,529,491
509,500,502,525,499
500,497,495,511,520
498,499,497,504,531
502,500,505,501,535
504,507,513,497,540
507,506,518,501,533
511,507,519,500,528
509,506,516,496,525
510,506,516,499,525
510,505,514,501,520
513,506,518,510,510
518,505,518,516,500
524,505,517,525,488
524,508,515,535,486
523,508,512,531,485
520,506,509,532,488
514,503,508,529,496
503,496,496,520,510
501,497,493,507,522
503,500,501,502,527
501,505,509,500,534
501,505,515,497,535
506,506,519,499,535
509,507,520,499,528
511,507,520,499,526
511,507,517,500,523
512,505,518,504,517
513,505,519,512,509
518,509,519,520,496
524,509,518,530,481
522,509,517,534,484
526,511,516,535,481
516,505,507,531,489
507,500,502,528,501
503,497,495,513,510
500,497,494,502,526
497,501,503,503,534
501,506,510,499,539
508,508,517,498,534
510,507,520,499,529
512,507,521,502,524
511,507,518,499,525
511,506,519,502,518
514,504,519,506,514
518,505,517,514,505
524,507,515,523,491
528,506,516,535,483
524,511,515,534,479
518,506,512,536,487
513,502,505,527,495
508,500,501,523,501
499,498,497,511,517
495,499,498,505,530
502,502,505,500,537
506,507,514,499,538
507,504,516,500,533
510,507,517,499,529
511,507,516,499,526
509,506,518,499,522
509,503,518,503,519
513,507,519,508,508
516,503,516,518,502
525,508,518,525,487
525,506,514,533,483
520,508,515,537,487
521,508,509,531,490
518,505,505,528,494
503,496,497,517,509
497,496,494,509,521
498,499,499,503,532
501,501,506,500,541
504,507,513,504,539
506,507,517,503,533
513,509,519,498,523
511,507,520,500,523
513,506,520,501,520
511,505,520,504,516
517,507,518,512,509
518,506,520,520,495
524,507,517,528,485
524,509,514,534,487
521,507,512,535,487
517,504,504,529,492
512,504,501,526,497
501,497,495,516,516
495,498,497,506,527
498,503,504,503,533
504,511,512,500,538
509,508,516,495,534
511,507,517,500,530
511,507,519,498,525
510,507,520,499,524
509,504,516,499,520
513,504,515,506,512
520,504,517,517,503
524,507,518,525,489
523,505,517,531,483
524,506,515,534,481
521,508,517,534,486
518,506,506,532,493
510,502,502,525,501
500,496,493,512,518
500,499,499,501,526
500,504,504,499,537
507,507,514,499,537
507,505,517,497,531
511,508,519,497,526
510,507,516,499,525
509,506,516,499,522
509,504,518,504,516
515,505,517,507,508
519,506,516,516,498
524,504,515,525,486
527,509,517,535,481
523,508,514,535,484
521,507,509,532,488
514,506,504,528,496
505,499,499,516,508
500,500,497,510,520
496,501,501,503,532
505,507,509,496,535
506,508,516,498,536
509,505,516,499,528
511,507,516,499,525
509,506,516,499,524
510,501,518,501,519
510,504,515,501,515
515,504,518,512,502
519,506,517,519,494
523,509,519,529,482
524,510,515,534,484
524,510,513,533,479
516,504,508,529,489
512,502,502,527,497
502,496,498,514,509
496,495,496,505,524
502,502,501,498,531
497,503,511,501,540
508,505,515,499,531
509,506,518,497,527
510,508,520,498,523
514,506,519,501,521
511,506,520,501,519
509,503,517,506,515
515,504,514,511,501
521,507,518,521,490
524,506,518,531,480
518,510,517,534,481
519,505,512,535,484
514,503,504,530,495
513,502,500,518,497
496,495,496,515,517
492,495,496,503,532
502,504,503,496,533
504,505,512,498,541
508,506,515,498,532
509,507,518,502,526
509,508,522,502,524
509,507,522,503,523
508,506,520,503,520
510,502,518,508,508
517,506,516,517,500
525,508,520,527,486
525,510,519,534,483
525,509,514,533,483
519,504,508,532,491
512,502,504,523,493
504,499,500,519,508
493,495,499,518,520
500,502,506,497,533
502,504,507,498,538
504,506,514,498,535
511,505,516,498,530
512,508,520,501,525
512,508,518,500,525
512,506,519,501,518
515,505,519,503,515
514,503,518,513,507
519,506,519,521,496
527,505,518,529,482
524,509,518,533,483
524,508,514,534,483
517,508,506,528,490
513,502,504,525,494
502,495,496,514,513
496,496,497,508,528
497,502,501,500,541
501,505,511,504,540
509,508,518,495,532
507,507,518,499,527
512,507,517,500,527
507,504,519,502,524
507,503,518,502,523
512,504,516,503,512
517,505,517,511,502
522,507,518,525,489
525,508,514,530,482
524,508,514,535,484
519,506,509,534,486
515,505,504,526,494
510,500,501,521,499
502,497,497,511,518
499,500,496,504,528
502,504,506,501,534
504,507,513,498,536
506,504,517,502,532
508,507,519,500,527
511,508,519,500,524
510,503,517,500,523
507,502,516,504,523
509,500,516,513,510
517,504,518,518,497
525,507,518,522,484
526,507,516,534,480
521,509,514,534,484
518,505,504,529,489
513,503,504,524,495
502,496,493,513,508
498,496,496,508,519
497,500,502,501,531
502,502,508,500,540
505,510,517,501,539
509,506,517,498,529
511,506,518,499,523
508,504,519,503,525
510,506,524,502,522
510,505,518,506,516
512,505,522,513,507
522,509,520,521,492
524,506,516,530,487
523,508,515,532,485
519,507,511,533,487
514,502,504,527,496
511,501,503,527,496
502,497,496,513,514
497,496,493,506,528
496,498,503,500,536
504,506,512,501,539
510,508,518,500,533
510,506,519,500,528
509,507,518,499,527
505,503,519,502,530
507,501,517,501,521
514,505,515,506,507
516,504,515,511,499
521,505,517,524,490
525,507,518,531,481
519,506,516,534,485
518,508,511,530,486
512,502,502,526,493
508,498,499,521,499
499,498,497,510,517
502,498,502,506,531
506,503,506,499,533
507,507,518,500,535
509,507,520,501,531
508,507,517,497,531
509,506,519,498,527
510,503,522,501,521
512,508,520,503,516
514,504,516,511,508
516,505,518,519,500
525,506,517,526,485
527,512,518,533,481
524,509,510,531,485
519,506,511,530,490
513,502,504,526,495
504,496,494,515,510
498,497,495,504,521
500,501,501,504,529
501,504,511,499,539
506,509,517,494,533
508,506,518,498,529
509,507,520,499,527
510,506,518,498,530
510,505,518,502,518
508,502,518,508,512
516,506,517,509,504
525,507,519,519,491
526,511,519,532,484
523,507,518,533,484
511,500,514,547,490
516,503,504,524,496
514,502,503,521,496
501,497,494,510,513
498,499,496,505,527
502,503,503,501,533
505,507,513,499,534
507,506,513,497,532
508,503,516,499,531
512,506,519,501,526
512,504,519,501,525
508,503,518,505,520
512,505,519,505,511
517,505,518,512,499
520,505,517,524,494
525,508,517,531,481
524,510,516,534,483
520,508,509,531,487
515,504,506,529,493
509,501,497,521,506
499,498,497,512,516
499,500,499,504,529
502,504,505,500,535
505,509,517,500,536
509,507,517,500,531
510,507,518,497,526
511,507,517,500,523
507,505,517,501,526
507,503,517,504,518
515,505,515,509,507
518,505,516,519,500
525,509,517,529,484
526,509,518,532,484
523,505,511,533,485
522,505,509,532,488
517,505,505,530,495
502,496,496,517,511
496,496,496,511,525
496,500,499,503,536
501,505,510,502,537
507,507,516,500,535
507,504,516,500,530
512,511,520,502,526
510,506,519,501,524
509,507,518,502,524
507,502,517,503,513
515,504,518,513,505
522,508,517,522,490
525,506,519,531,488
524,507,514,533,488
521,508,514,532,488
519,504,507,529,491
512,505,502,525,498
501,498,496,512,515
499,500,497,502,528
501,504,503,501,535
508,508,514,498,536
508,506,515,499,535
508,505,518,500,531
512,507,516,501,526
509,508,518,500,524
510,503,517,501,519
513,505,517,507,513
517,505,518,514,502
522,504,517,527,497
524,509,519,533,487
527,508,515,532,485
519,510,512,532,489
515,506,503,526,493
508,501,500,521,504
498,496,496,511,519
496,498,499,504,532
495,502,508,508,537
506,509,516,498,539
509,509,516,501,528
505,505,514,503,532
508,508,518,496,523
512,505,519,500,522
504,502,518,508,517
509,504,518,514,507
517,507,518,518,495
524,509,516,528,484
527,508,515,531,483
525,508,514,534,485
518,502,507,530,492
511,501,503,526,493
496,494,497,519,507
485,492,496,511,524
508,504,497,493,529
512,506,510,501,534
510,510,518,500,532
511,508,519,497,530
509,506,518,501,529
511,507,517,500,523
508,506,518,502,523
505,503,517,504,516
505,504,515,507,504
508,504,519,520,492
519,508,515,528,485
516,507,515,533,484
519,505,511,532,489
527,506,505,527,494
521,503,503,526,499
512,497,499,514,515
504,500,496,505,530
500,501,504,502,537
507,510,514,500,535
512,510,516,500,529
516,509,519,499,523
515,510,519,501,524
517,509,519,497,525
515,506,516,500,519
513,504,518,507,507
519,505,515,513,501
525,510,518,525,489
525,509,518,538,484
525,509,515,532,484
521,504,511,532,487
514,504,506,524,493
506,501,500,520,505
500,498,498,511,519
497,499,499,505,532
501,505,505,501,537
509,509,516,501,536
509,506,514,498,533
510,505,516,499,526
509,506,519,500,523
510,506,517,500,520
513,502,517,503,514
514,504,518,508,505
520,506,519,518,496
523,507,520,527,485
524,508,518,532,483
521,506,513,535,486
519,506,508,531,491
513,502,508,527,495
498,494,493,515,509
492,497,494,506,523
491,501,501,500,532
497,506,510,498,537
501,505,513,499,543
503,505,516,502,529
507,506,520,502,524
513,506,519,502,521
518,505,521,503,522
520,504,516,504,514
521,504,516,518,509
522,506,517,521,493
530,508,519,526,480
523,506,516,531,485
521,508,510,532,487
519,505,506,529,491
516,503,503,524,495
499,496,492,511,515
497,499,495,504,527
498,502,503,503,536
504,507,513,500,536
507,507,516,498,530
508,505,517,502,527
513,507,517,497,522
508,505,517,499,523
507,503,514,502,520
511,502,516,507,508
512,503,517,512,499
517,503,518,527,490
524,506,517,533,482
528,509,515,530,485
521,506,509,528,486
516,503,503,524,492
509,498,498,520,501
498,496,496,514,521
496,499,502,508,533
502,505,506,500,535
510,508,516,497,539
509,508,517,499,535
503,505,516,499,528
513,507,517,497,525
512,506,517,501,521
509,503,516,505,518
514,505,515,509,507
518,505,514,516,496
524,506,519,525,486
521,509,515,534,488
522,508,515,536,485
510,502,510,534,488
514,505,504,530,496
508,498,493,508,514
498,498,495,504,523
496,500,505,505,531
498,504,507,499,540
501,506,515,495,533
498,504,516,501,528
497,505,518,506,528
496,506,517,497,528
502,505,519,497,520
500,502,517,507,516
516,506,515,512,497
526,508,521,524,488
530,508,516,527,483
535,512,515,533,479
529,507,510,532,484
519,506,506,528,490
514,503,502,524,502
501,497,496,514,516
498,499,497,507,528
504,501,504,502,533
506,508,513,501,534
506,505,516,498,533
516,504,517,493,523
521,504,515,498,529
520,507,517,498,527
515,504,518,500,522
517,503,518,510,512
517,504,518,517,507
517,506,519,525,498
511,507,517,533,493
500,508,513,533,493
490,505,511,534,483
482,500,504,533,480
470,495,497,520,501
464,494,495,509,516
474,494,498,501,526
490,503,504,497,538
525,508,515,496,539
553,510,518,506,529
549,506,517,506,528
541,508,518,496,519
528,505,518,490,512
517,504,517,503,506
517,504,512,512,516
517,503,518,516,503
522,507,520,528,501
537,509,518,534,496
527,507,511,533,503
510,503,506,530,508
491,503,501,525,525
460,495,498,512,535
438,492,493,502,540
421,495,499,502,530
421,497,505,501,525
426,501,514,503,513
456,500,514,496,495
505,506,517,503,498
549,509,519,499,517
594,515,523,506,505
618,517,520,509,491
591,514,519,518,486
567,513,521,523,472
566,510,518,535,455
556,508,509,529,466
546,507,509,526,493
537,509,507,521,491
533,504,501,520,492
521,495,495,512,508
513,498,497,502,530
515,506,507,498,536
516,507,514,499,535
521,506,516,506,533
523,510,517,498,520
521,506,517,500,524
520,508,518,500,526
516,505,518,504,522
517,505,516,507,521
514,506,515,514,518
515,507,520,526,508
520,510,520,535,501
512,506,517,537,502
511,506,514,536,507
518,509,506,526,496
510,498,497,516,506
511,495,494,510,511
510,498,494,499,515
509,501,501,497,519
506,504,510,496,523
508,505,513,498,517
502,504,516,501,514
505,506,522,502,512
507,505,518,504,514
515,505,516,498,508
520,504,517,511,499
520,506,516,520,490
526,509,519,528,483
521,507,517,536,472
523,507,512,533,476
514,503,508,534,486
513,500,504,529,492
500,491,493,518,510
501,496,494,505,514
497,499,501,502,527
500,506,509,500,539
500,506,515,500,539
503,506,515,500,534
502,505,517,499,530
499,503,518,502,528
501,502,518,501,524
514,503,515,505,513
522,503,516,512,502
526,509,518,521,494
523,505,514,529,487
520,508,515,531,491
516,506,511,532,491
500,503,506,529,502
492,501,504,527,512
482,497,495,511,523
478,498,498,503,537
473,502,506,503,554
472,507,515,500,554
470,507,515,502,548
475,504,517,499,527
483,502,512,496,515
509,506,516,497,512
515,505,514,502,507
516,505,516,506,503
537,505,515,514,488
545,509,514,528,482
531,510,513,531,490
529,511,515,537,478
522,506,511,534,483
537,507,503,529,460
522,494,492,518,472
519,497,492,511,496
517,503,501,513,521
499,501,501,500,570
511,507,509,488,558
505,503,509,492,542
500,505,510,497,535
489,502,515,498,540
463,498,513,497,541
436,497,513,503,531
443,497,512,513,524
464,501,514,523,507
464,500,516,537,502
465,501,509,526,493
484,500,504,525,476
569,511,501,521,479
624,519,510,527,498
563,509,499,518,521
531,503,496,503,544
511,502,499,504,557
512,506,508,500,556
541,508,518,506,522
555,507,515,505,504
552,505,513,506,497
532,505,506,501,490
519,500,505,498,482
522,501,506,502,491
533,509,512,511,461
548,507,510,515,461
530,507,509,526,470
534,509,508,533,462
535,507,506,538,470
517,501,500,528,483
516,503,490,519,516
497,498,486,506,560
508,502,491,497,572
527,507,500,502,555
516,510,510,503,547
499,511,516,507,536
496,510,516,508,532
494,508,517,504,507
514,513,515,506,498
524,503,506,501,483
523,498,504,502,505
529,500,505,516,524
534,504,507,523,521
526,503,505,532,461
523,505,507,532,468
516,503,501,536,481
522,504,497,524,476
511,496,488,520,487
491,492,486,515,511
479,494,489,507,543
511,512,504,499,548
513,509,509,495,550
503,503,508,490,555
501,504,508,492,554
501,505,508,501,535
483,499,509,499,537
473,495,507,505,543
467,500,507,513,551
476,503,510,520,537
519,513,512,525,491
521,516,509,534,476
522,515,507,535,479
508,504,500,532,481
517,498,496,527,476
506,489,486,510,483
516,496,485,501,474
516,499,489,494,542
503,502,498,495,563
498,501,505,500,541
500,504,510,502,520
532,505,510,503,472
529,506,509,500,471
503,499,508,502,494
503,495,504,510,520
532,500,504,507,503
548,505,509,524,500
570,512,508,532,491
564,511,500,529,472
539,503,499,527,470
521,497,494,527,484
507,502,489,521,497
451,497,486,509,532
411,503,494,508,533
421,505,501,509,562
434,510,507,489,596
461,508,509,495,597
495,508,508,499,595
534,504,511,499,585
552,504,508,497,538
522,500,508,502,527
502,498,506,504,503
481,489,502,527,490
481,491,502,521,458
514,499,503,531,424
530,507,500,535,430
533,501,497,530,487
529,506,493,526,495
556,501,489,520,511
530,496,483,507,549
523,503,492,504,581
529,510,499,506,558
534,510,505,501,513
533,505,514,512,492
527,504,505,497,527
502,503,506,497,514
502,511,517,510,481
506,516,513,510,513
512,519,514,508,552
514,503,507,520,564
493,493,496,519,541
496,493,493,529,504
500,491,492,531,460
466,491,485,526,465
456,494,482,524,442
456,485,476,522,477
477,485,476,511,528
508,496,485,504,547
506,513,499,503,573
543,522,513,485,545
547,520,519,507,523
549,514,513,493,487
544,507,501,493,479
552,499,501,498,453
546,502,506,506,473
512,498,506,514,521
489,494,504,534,562
457,492,500,532,606
478,499,492,534,548
477,500,483,527,500
496,497,484,530,455
513,492,479,523,458
534,502,481,499,541
551,515,500,514,568
495,512,506,518,568
453,510,514,517,559
430,500,509,510,494
425,499,505,483,540
443,493,502,498,542
457,491,493,479,595
545,504,497,476,518
578,513,510,512,491
528,509,507,525,484
493,498,501,533,459
491,499,497,537,461
503,492,485,544,407
521,490,474,506,439
530,493,482,518,467
517,493,484,540,527
542,498,482,517,578
574,506,487,503,547
546,509,498,497,576
497,507,506,497,512
468,510,514,498,505
431,500,511,505,520
396,487,507,529,608
384,496,502,475,660
476,496,504,499,535
534,502,501,505,475
511,499,498,517,414
568,520,502,526,429
457,507,507,541,460
367,498,494,532,522
360,483,476,524,557
374,475,465,513,583
381,480,474,509,529
563,511,492,512,481
611,523,502,508,519
605,519,508,492,505
604,516,512,499,478
566,507,507,496,473
551,494,501,502,447
532,494,501,499,453
492,488,503,515,538
465,490,500,511,546
459,498,495,494,512
497,500,489,512,501
579,516,498,535,465
556,511,495,534,477
521,495,482,525,528
573,507,485,532,485
592,516,489,538,492
540,505,482,510,553
556,517,496,510,525
527,505,502,510,492
481,503,512,508,558
484,505,508,507,612
495,507,514,503,585
442,496,500,493,593
457,489,498,485,587
484,479,486,484,561
544,500,497,500,583
582,511,500,513,578
551,503,491,526,437
564,504,492,543,310
541,505,487,537,411
532,505,477,519,526
533,507,486,535,597
484,493,478,525,623
473,490,482,531,531
488,492,483,516,495
521,510,501,507,396
532,517,515,499,489
491,507,510,487,486
436,499,506,490,474
405,496,507,497,452
380,501,509,505,449
348,494,509,528,528
335,491,502,519,557
343,502,499,510,555
321,494,490,514,520
509,501,495,543,445
639,510,486,540,401
572,492,468,518,518
537,502,478,531,557
467,495,474,519,588
474,501,481,507,613
488,511,498,502,530
458,500,502,484,579
453,497,502,487,553
477,495,504,496,468
357,486,508,506,595
353,496,504,500,594
467,510,510,504,546
527,514,514,514,498
393,489,497,509,498
278,481,492,521,501
391,495,489,528,405
504,513,497,532,415
626,513,486,528,487
617,495,475,539,446
612,480,466,541,462
484,471,458,493,544
511,486,469,479,609
656,517,495,489,479
613,525,518,502,500
548,523,524,515,523
488,520,523,532,437
351,507,521,524,490
401,520,522,508,484
456,511,516,501,553
568,509,509,494,595
582,498,501,512,563
656,528,508,522,441
712,527,501,534,410
692,508,487,532,440
651,499,474,520,438
579,498,475,523,437
534,487,469,510,481
564,507,484,515,551
544,514,496,516,556
528,510,505,514,587
415,498,509,503,517
376,505,515,501,541
412,502,517,487,563
495,504,514,500,557
589,511,516,505,516
596,511,516,513,599
613,505,501,518,677
610,516,505,525,632
598,505,492,512,559
621,509,490,532,259
610,512,493,534,312
527,497,482,518,404
545,497,480,520,375
547,497,480,513,522
496,492,480,511,572
434,492,491,511,515
412,509,510,516,450
415,508,515,500,551
426,502,519,503,612
560,505,506,484,565
565,501,507,487,495
524,498,509,501,489
476,499,508,511,503
420,499,505,517,540
433,502,500,512,531
608,522,502,533,455
632,519,500,536,463
554,505,491,525,482
501,499,482,520,491
549,501,483,521,500
552,492,478,510,557
512,494,490,516,534
422,484,496,517,549
346,483,502,493,601
241,479,500,499,586
296,496,504,488,576
345,494,509,514,584
441,512,521,517,592
472,507,516,509,505
536,488,509,510,516
554,510,506,514,480
610,518,504,525,417
602,522,505,528,424
642,534,514,540,439
581,520,503,532,465
506,500,488,519,453
454,481,479,505,516
438,493,488,513,542
526,518,501,510,555
491,504,503,506,605
625,510,508,485,578
602,510,517,502,479
555,500,514,523,451
414,485,505,504,540
450,491,498,480,525
531,500,505,499,528
533,505,506,512,505
460,493,503,526,487
334,488,497,523,475
347,488,496,532,460
444,516,509,554,489
561,524,505,530,523
635,516,494,511,518
696,510,490,507,494
631,515,500,517,464
655,523,510,511,495
602,522,515,496,521
549,513,518,505,505
545,505,512,502,551
551,503,513,499,554
556,501,511,501,536
547,498,506,500,466
532,503,511,504,537
472,500,512,522,489
438,499,504,522,493
462,499,508,533,497
503,510,507,535,453
482,505,499,523,490
556,509,496,529,474
603,506,491,535,482
548,499,495,528,519
559,512,498,497,539
501,510,508,499,527
499,531,529,513,554
468,515,520,503,603
442,495,503,477,526
429,481,498,479,467
574,504,512,500,497
644,526,522,517,518
544,516,524,521,555
456,503,514,517,582
512,498,506,517,520
545,495,497,520,443
509,495,498,524,425
424,491,490,529,487
345,482,489,518,538
396,475,481,514,596
418,485,481,507,650
355,492,498,527,596
527,506,507,509,462
662,525,521,497,476
680,532,528,503,476
624,511,513,495,478
570,508,518,502,481
542,502,514,493,486
512,502,516,506,464
547,507,513,507,474
594,511,515,520,476
561,509,515,533,464
533,505,510,536,479
542,509,506,522,476
459,495,498,527,516
477,506,503,525,501
481,501,497,517,524
515,502,496,510,540
522,507,505,508,545
549,514,516,502,534
535,507,513,497,545
532,509,523,506,526
498,503,515,505,499
487,503,519,505,537
492,504,514,504,513
501,506,518,529,531
493,504,513,503,498
505,505,515,513,480
493,508,521,535,489
586,516,506,533,448
594,513,504,528,454
597,516,502,519,488
549,509,499,518,569
418,484,485,506,646
435,480,482,496,584
412,491,498,507,488
414,501,508,490,544
343,489,508,488,578
417,490,513,493,600
508,499,512,496,507
521,508,523,509,430
559,513,520,506,430
604,515,524,518,489
658,521,519,551,438
631,517,516,528,526
538,509,514,521,529
567,525,517,533,490
577,520,507,530,543
508,501,497,518,653
373,485,490,512,579
369,481,486,501,500
379,481,493,513,390
534,500,508,505,468
513,501,515,497,503
505,506,519,500,473
456,505,517,493,519
505,510,521,509,519
596,521,520,495,546
627,521,523,507,522
563,510,519,517,548
531,508,521,522,505
534,502,517,526,442
552,502,510,532,460
545,510,505,531,487
539,508,500,519,482
484,494,501,528,490
514,494,493,511,533
534,497,490,493,515
542,499,501,500,512
490,503,513,503,520
457,509,521,509,552
391,513,527,508,550
381,500,516,500,523
485,498,512,494,467
574,501,514,492,502
548,503,518,513,501
545,507,518,517,494
559,507,514,517,501
583,513,513,534,453
548,515,526,539,459
499,503,507,538,467
529,505,506,531,470
500,501,498,513,518
437,496,495,509,534
463,493,497,497,570
510,490,501,488,604
420,495,510,496,623
464,513,531,524,537
562,524,532,524,457
667,514,519,503,507
583,510,519,490,562
553,505,516,487,532
533,498,515,504,476
533,507,519,526,381
542,514,520,526,481
537,510,518,531,521
541,514,514,532,504
496,498,499,527,584
437,497,493,514,586
389,496,495,515,552
462,505,501,514,519
484,499,503,512,457
577,507,509,499,462
559,517,521,501,525
513,505,517,494,538
477,497,515,495,561
499,499,513,495,527
520,500,517,498,519
530,501,517,506,489
493,504,522,517,547
461,500,512,518,502
501,510,516,531,414
580,514,517,541,426
605,520,516,540,481
524,500,506,533,489
487,499,499,516,505
484,491,491,503,503
516,496,497,499,549
535,504,508,503,543
494,512,518,499,561
472,510,518,499,557
513,513,519,493,595
498,505,516,503,536
471,513,529,509,544
461,509,530,512,531
467,505,520,518,465
455,494,508,512,464
536,507,511,512,467
570,500,513,527,484
596,510,510,532,493
560,506,507,529,479
513,500,500,531,476
494,490,495,517,492
444,486,488,501,545
402,484,493,495,561
540,511,513,514,525
548,519,529,510,490
484,501,521,504,534
484,509,524,501,541
433,503,520,501,584
535,505,519,499,589
613,504,516,506,514
562,506,516,518,422
529,503,514,520,465
541,505,521,552,470
581,522,518,507,478
556,513,515,521,500
507,513,510,524,504
487,506,508,531,505
457,495,497,526,507
468,492,491,500,548
533,508,509,505,528
517,505,514,497,518
466,501,519,501,546
525,506,519,502,559
472,503,521,493,532
393,488,515,494,504
424,487,513,492,565
641,514,516,506,501
588,512,516,518,457
552,506,517,536,418
516,506,514,531,471
528,516,517,536,468
473,509,514,521,518
400,496,497,510,592
394,490,493,517,611
532,492,493,519,451
577,498,501,525,492
570,503,503,509,505
552,508,508,477,523
537,512,519,500,550
571,527,533,511,544
514,499,519,495,538
535,507,523,496,514
566,509,522,499,500
559,501,515,509,525
540,502,508,515,512
558,509,512,518,482
526,511,519,525,483
501,510,517,535,488
483,504,510,535,456
464,497,504,532,496
478,496,495,514,454
518,497,491,511,492
491,497,499,499,585
455,500,510,506,614
524,517,523,503,527
582,521,529,508,490
522,514,524,500,509
481,504,519,500,531
468,504,525,505,509
525,509,521,496,574
560,507,515,505,573
604,507,513,516,507
504,499,510,522,409
489,502,511,532,422
510,502,512,536,465
503,499,504,527,533
456,499,500,524,566
481,491,487,511,567
495,491,490,504,535
544,506,506,501,474
535,511,516,497,496
519,509,520,504,526
513,509,524,502,531
508,507,524,502,543
481,501,519,512,531
443,499,518,493,508
453,501,514,491,516
484,506,517,511,510
573,515,517,523,504
564,521,521,536,524
522,509,514,536,497
499,504,513,547,479
448,489,493,522,448
540,510,499,510,495
572,506,499,515,453
560,504,498,505,516
432,493,500,491,553
423,501,516,500,521
474,504,516,498,527
544,515,526,504,539
467,505,525,510,542
384,488,515,502,540
455,496,517,507,496
486,496,519,522,478
617,521,519,512,505
609,519,519,520,496
554,502,509,523,472
593,514,509,522,481
545,507,506,530,520
546,502,504,524,520
541,498,498,522,554
508,496,495,505,552
545,512,504,518,481
546,512,513,510,520
552,519,522,502,550
491,504,520,500,550
478,508,526,502,534
380,491,508,485,571
474,505,521,497,522
501,505,520,508,469
437,487,510,517,496
421,492,512,520,519
392,506,515,519,450
472,516,520,533,470
602,521,515,536,438
624,509,503,524,477
598,506,503,529,499
579,501,496,521,473
528,496,497,513,496
524,501,506,502,536
539,507,514,495,531
544,510,517,493,569
532,512,523,505,551
518,506,523,500,536
526,506,519,499,547
545,512,525,504,603
542,511,524,505,586
495,498,516,524,534
481,494,513,527,448
455,500,518,540,520
520,515,513,516,528
533,514,513,522,459
541,510,506,532,440
508,498,497,521,425
512,494,491,507,453
536,497,496,502,505
535,502,502,498,556
519,509,518,495,581
518,505,518,492,551
511,514,528,509,515
502,508,521,505,589
475,496,515,516,611
526,504,513,477,520
503,511,524,503,488
471,505,520,511,486
507,513,523,526,485
563,512,520,535,413
560,512,513,543,441
529,504,507,531,491
507,498,497,515,509
507,494,495,520,493
522,490,491,509,475
512,495,495,499,488
463,502,508,495,507
469,505,518,504,556
480,508,523,512,582
559,517,527,493,573
534,512,525,498,589
492,499,519,493,516
471,494,516,494,517
462,496,513,507,500
468,502,516,518,479
462,506,512,527,503
530,519,518,541,500
557,518,519,538,464
500,498,502,524,492
435,491,499,525,523
552,495,494,520,484
557,502,500,509,473
531,499,503,505,504
466,496,509,493,542
430,495,517,493,557
490,510,520,500,539
469,501,521,506,551
504,511,522,503,573
409,494,518,503,570
594,512,522,495,543
601,510,521,507,466
585,510,520,538,426
582,512,517,533,458
539,511,513,528,415
525,506,508,528,454
494,497,497,516,507
521,499,499,519,510
518,501,498,509,506
559,512,506,511,498
526,511,513,504,520
501,513,521,503,545
460,506,518,494,566
509,511,523,497,551
442,490,512,495,550
528,494,514,494,562
557,503,517,502,554
512,505,519,507,444
475,502,517,518,434
480,510,521,531,470
525,508,513,534,531
498,507,511,537,494
531,509,505,531,457
534,507,505,524,487
482,497,500,512,546
544,506,505,508,564
543,509,511,511,574
444,500,506,492,576
450,502,512,489,593
485,499,518,509,521
491,501,521,527,473
479,506,516,488,454
500,506,520,491,484
518,510,520,497,518
532,506,520,506,545
562,510,520,519,462
586,505,516,533,451
527,504,519,541,472
516,518,513,522,510
538,512,504,524,487
565,510,499,521,442
528,493,491,509,521
482,491,497,512,594
535,508,506,501,564
505,504,512,497,520
533,510,520,503,526
539,513,522,501,532
563,512,520,498,514
531,500,513,489,573
489,499,517,498,513
507,508,521,505,498
500,509,522,533,507
520,509,515,517,495
534,511,518,520,483
537,510,518,528,466
516,508,515,533,513
498,498,499,517,517
512,501,502,521,558
486,494,492,511,582
486,494,496,534,518
477,500,508,522,441
501,506,517,499,510
499,510,523,491,494
501,508,524,486,520
511,510,525,497,519
515,505,519,497,507
483,499,517,508,502
479,493,515,509,501
524,505,516,514,501
541,515,521,527,484
530,513,518,529,484
521,523,524,541,489
530,515,509,528,493
544,508,501,523,502
426,487,492,523,545
360,479,484,492,619
449,486,492,491,621
581,509,505,497,517
525,505,517,501,473
493,507,524,509,482
541,507,520,496,527
453,490,513,489,510
547,509,518,496,504
576,516,523,512,477
571,511,521,518,466
516,506,521,528,441
532,512,520,531,443
548,513,517,527,478
532,512,514,533,501
525,507,502,529,489
513,503,504,525,475
520,494,496,516,522
458,490,494,510,566
444,484,497,498,570
404,492,504,493,554
505,507,521,518,519
579,524,526,493,495
517,513,525,497,509
393,494,520,499,539
386,499,519,503,558
413,498,518,507,571
560,519,520,514,512
485,506,522,530,436
524,510,519,527,474
572,516,518,540,461
588,511,512,536,494
536,510,510,531,520
535,503,505,521,486
502,488,491,509,498
521,495,493,506,490
521,498,502,485,558
597,518,517,494,609
536,515,526,494,600
467,504,524,502,559
423,492,516,508,512
573,508,517,505,421
654,514,524,513,486
570,507,518,496,549
570,509,516,508,511
532,504,515,520,481
487,504,517,541,481
515,511,514,531,451
488,500,500,525,464
474,493,497,518,492
499,497,498,520,483
508,503,503,516,497
528,504,506,504,504
494,506,511,504,559
475,502,518,503,591
478,500,516,508,564
499,505,521,491,545
496,504,522,492,525
522,511,523,506,462
542,506,523,514,485
532,508,524,514,507
515,504,518,519,492
506,498,517,536,475
518,510,515,518,475
549,519,514,524,514
502,502,505,533,505
532,508,507,522,537
519,498,500,512,588
505,494,501,532,510
496,507,504,499,491
506,508,513,493,513
543,506,515,494,504
539,508,518,496,527
525,503,517,500,505
503,499,515,495,523
493,500,520,503,519
461,501,518,509,514
454,498,515,514,493
486,499,518,522,497
593,515,519,530,483
568,515,517,533,490
563,511,508,536,461
519,504,504,526,486
510,500,499,520,546
471,488,486,505,612
406,485,491,497,664
425,505,509,499,532
457,511,519,506,492
546,508,515,501,489
587,512,522,508,532
591,516,526,500,513
574,520,522,498,497
541,501,515,496,471
511,496,516,506,494
515,509,521,517,458
512,507,520,528,472
521,506,517,537,451
550,512,516,540,443
546,510,510,532,481
511,504,500,521,516
489,493,493,513,541
461,488,492,512,526
403,484,497,500,533
370,491,503,496,579
422,506,518,492,576
541,521,528,507,517
579,523,526,501,494
492,501,519,500,487
429,495,516,496,531
512,500,516,501,524
613,513,522,516,491
590,508,518,519,502
503,504,514,527,479
476,502,517,531,462
489,503,513,536,465
533,499,504,526,504
532,504,504,527,509
554,512,502,519,496
522,501,503,514,530
492,496,506,506,543
529,502,520,507,555
550,517,516,488,542
524,515,521,494,543
515,503,519,494,546
527,500,517,500,523
509,502,522,507,500
483,497,516,506,497
468,498,516,517,517
525,513,523,520,503
618,522,522,536,459
561,521,521,534,478
495,502,509,526,512
528,501,502,520,507
570,502,496,517,492
534,491,490,506,529
503,495,498,499,516
487,504,508,501,520
491,510,521,514,511
497,504,521,508,508
500,507,522,504,497
505,506,526,493,544
506,503,521,498,534
505,504,522,504,550
518,507,522,513,539
505,500,518,532,507
537,513,518,516,502
525,504,516,537,454
523,508,510,535,462
519,510,512,529,474
517,507,503,521,492
496,503,500,518,498
479,498,500,514,515
475,496,501,505,547
504,506,508,497,544
512,509,521,505,553
527,512,523,506,542
527,512,525,501,553
485,496,512,491,562
504,504,512,496,512
511,503,514,497,472
527,502,516,508,471
532,508,517,524,488
536,510,519,529,470
525,510,516,534,466
512,507,514,545,451
498,501,508,542,488
508,501,501,533,491
515,498,492,502,516
515,499,496,495,537
510,505,510,502,560
514,509,516,502,550
510,504,513,495,556
493,503,521,503,558
488,508,522,502,554
494,503,517,495,504
513,504,523,503,480
524,504,517,505,504
529,503,516,507,505
531,505,518,519,492
534,507,517,530,476
528,507,515,535,482
531,510,511,527,483
519,504,503,530,500
509,500,498,521,501
497,495,494,510,514
496,494,501,505,528
491,502,509,506,542
485,509,521,499,545
470,501,524,508,544
514,511,520,495,525
523,509,519,500,526
539,513,523,499,524
526,507,524,506,517
530,504,515,508,499
513,507,521,518,504
528,516,522,533,502
537,514,520,536,488
512,509,514,538,481
453,496,503,521,508
426,492,495,515,523
478,490,491,505,532
568,504,499,506,500
540,506,505,503,507
515,504,511,502,527
529,509,519,500,529
515,507,521,499,527
514,505,523,499,528
513,503,520,498,529
513,506,520,499,528
523,505,522,509,505
533,508,520,513,497
536,510,515,520,489
536,514,519,530,479
529,509,515,533,482
525,511,511,533,484
513,505,505,528,495
517,498,498,522,498
504,496,494,511,513
502,497,500,505,528
501,503,507,499,536
503,509,514,500,542
503,506,519,500,539
511,505,522,504,533
513,506,521,502,528
507,502,520,501,530
509,502,521,502,525
513,505,518,504,515
519,504,518,514,506
526,507,519,524,489
532,509,519,529,484
531,507,515,534,489
528,510,510,531,487
518,504,505,523,496
506,497,499,519,505
501,498,496,509,523
499,502,503,505,533
499,501,509,499,539
501,506,518,499,541
503,502,520,496,536
509,506,524,505,533
512,504,523,502,531
510,501,519,497,527
515,504,522,504,517
521,506,522,509,509
526,508,520,517,498
530,509,518,525,485
529,510,518,534,483
529,510,517,534,480
520,505,508,529,492
507,497,501,522,502
502,497,495,515,513
498,496,495,506,525
501,502,503,502,536
503,508,516,501,541
509,509,524,501,540
509,507,525,503,534
512,505,522,500,527
510,502,520,497,526
511,509,524,501,524
513,502,521,503,519
518,505,520,510,509
526,509,522,521,495
534,510,520,532,484
533,511,517,533,483
530,508,514,539,487
518,503,506,523,495
511,499,502,522,503
501,496,499,515,517
496,498,501,511,532
498,503,510,505,536
506,509,520,505,540
509,508,522,504,535
513,509,528,504,530
512,509,523,499,529
511,507,521,494,529
508,505,525,497,523
513,506,521,501,513
518,506,519,510,503
530,510,519,522,492
539,511,521,531,478
540,508,513,531,480
538,508,511,531,480
525,500,503,523,492
517,498,496,518,501
502,497,497,506,524
504,500,501,503,527
507,508,512,500,538
510,508,523,500,536
514,505,522,496,530
510,507,523,499,523
505,505,526,498,531
503,505,523,502,533
509,505,523,503,521
515,506,523,510,510
524,510,525,519,496
531,509,521,532,490
533,510,518,538,483
529,511,518,541,482
520,504,513,536,489
512,500,504,528,496
500,495,496,511,510
499,499,500,495,527
501,502,510,497,543
500,506,519,498,548
509,510,524,495,539
512,509,524,499,527
515,509,527,500,513
514,503,523,497,527
510,501,525,505,514
519,506,524,499,508
528,505,522,508,525
532,512,523,516,526
536,508,517,528,476
530,508,519,534,483
525,508,516,531,473
518,503,511,523,486
507,499,508,523,496
501,499,505,511,507
495,501,505,506,527
500,503,514,502,530
505,505,524,501,531
508,508,527,502,531
513,509,530,503,525
513,505,528,499,521
513,506,524,496,524
517,505,523,500,516
517,505,531,508,508
520,504,524,515,497
529,509,526,526,485
533,508,524,532,481
537,512,524,531,478
529,509,518,529,487
517,502,507,520,502
509,498,503,515,509
501,497,499,503,522
503,503,508,501,527
502,505,518,499,534
513,509,526,504,534
515,506,526,499,528
519,507,529,501,522
518,509,529,503,520
510,502,524,498,522
513,501,525,497,513
520,505,519,498,504
526,509,516,503,499
532,511,515,515,487
530,511,514,520,487
527,509,508,521,487
522,507,500,517,493
514,501,507,535,499
504,493,505,536,514
501,498,518,528,523
502,502,528,514,531
506,505,528,500,536
510,507,532,499,535
518,509,534,502,525
519,507,534,502,523
513,503,529,499,526
511,504,532,507,521
515,504,529,508,514
519,504,531,515,506
530,508,531,521,493
531,511,534,531,484
531,509,528,533,486
531,510,523,532,483
522,503,517,527,492
514,501,511,522,497
503,499,506,512,516
502,504,508,504,526
503,508,516,503,536
508,508,527,499,541
513,503,524,497,534
515,499,526,500,528
520,502,530,503,525
516,504,529,499,526
517,501,526,502,518
518,492,520,509,510
521,497,520,514,504
532,512,529,524,485
538,523,534,530,477
535,519,535,529,483
526,508,526,526,489
519,505,521,520,495
509,503,511,512,509
506,503,509,503,518
503,502,506,505,530
507,507,513,505,534
510,511,526,507,537
512,509,529,503,532
516,511,531,502,529
516,506,529,500,524
514,504,527,499,519
515,507,529,505,515
520,506,527,512,508
526,505,529,520,495
529,506,527,530,488
532,509,521,531,482
532,511,522,534,478
522,505,513,526,489
514,503,510,521,500
504,503,505,511,515
502,506,511,505,525
500,505,513,503,534
504,511,527,502,537
511,513,527,500,533
516,511,532,504,522
516,511,534,503,522
512,506,529,499,526
512,506,530,502,521
513,506,529,507,515
519,510,531,514,506
524,510,530,522,492
530,511,530,532,482
531,514,528,532,484
530,513,528,532,485
520,507,519,527,491
514,503,512,521,502
503,501,511,513,517
500,501,509,503,528
503,505,517,501,534
506,510,527,500,536
512,513,529,501,529
513,508,532,505,526
514,510,533,500,523
512,506,530,498,523
513,507,530,499,517
516,509,530,509,509
518,508,529,516,501
527,510,530,523,487
530,512,529,530,481
530,512,530,534,479
524,508,524,533,489
519,506,518,527,498
505,500,509,517,510
502,502,510,511,522
501,505,516,503,533
506,509,521,498,535
511,512,525,499,532
510,507,533,502,528
512,509,534,503,524
513,510,534,501,523
510,504,531,500,520
512,507,533,503,512
515,505,533,512,508
521,511,535,520,496
527,511,533,528,488
527,510,530,532,485
527,514,530,533,485
520,508,529,530,493
513,502,517,527,501
507,498,510,515,513
501,499,509,507,526
503,504,519,502,533
503,510,528,502,537
507,511,531,499,534
510,509,534,500,527
511,508,531,501,525
511,509,534,499,524
512,509,531,501,520
514,509,533,507,511
518,509,530,514,503
523,512,535,521,493
527,515,534,532,481
526,514,533,533,486
525,511,531,534,489
518,507,522,528,492
511,504,516,522,502
501,503,513,514,514
498,502,515,508,529
502,506,522,503,533
508,512,528,500,535
509,510,532,499,529
510,512,533,503,529
509,508,536,505,524
508,506,533,499,524
508,506,533,506,518
515,506,533,510,510
519,508,531,515,497
524,513,535,530,489
525,510,534,532,484
528,512,530,535,483
525,509,525,531,489
519,506,516,525,496
504,497,512,519,509
498,500,513,511,520
496,504,518,506,529
501,509,528,502,535
508,513,530,502,530
511,510,532,502,526
515,510,534,501,523
509,507,531,500,523
509,506,531,501,524
516,508,533,504,514
519,506,531,513,502
521,508,534,522,497
527,510,535,534,488
529,512,534,535,483
528,514,532,534,484
517,508,522,529,490
511,502,517,522,500
501,500,511,515,511
500,501,512,507,523
501,502,516,502,532
504,509,523,500,535
509,510,530,501,532
514,510,531,502,525
515,507,533,503,518
514,504,529,503,515
515,504,530,505,515
514,506,531,508,512
513,507,529,513,507
519,508,533,522,496
529,513,533,529,486
525,509,531,534,488
521,509,527,533,489
518,506,521,524,494
509,500,514,521,504
499,498,509,511,517
498,497,513,506,527
496,502,518,498,531
506,508,523,499,537
512,508,528,501,528
512,509,530,500,523
509,507,530,498,525
509,507,529,499,526
511,503,529,502,518
515,506,530,508,508
518,506,529,520,502
525,510,529,525,489
527,513,529,531,484
525,516,529,535,483
521,507,524,531,491
514,505,518,524,498
502,497,508,519,511
500,499,506,508,521
500,499,510,504,533
501,503,520,501,537
509,508,524,499,534
510,506,524,500,531
512,504,529,505,523
509,504,527,498,526
512,504,527,500,522
515,501,531,512,515
515,502,533,517,505
517,502,535,524,496
522,495,530,527,489
524,502,522,523,486
527,511,523,522,483
517,499,517,527,491
507,482,506,517,501
502,493,501,515,514
499,518,510,509,523
501,503,511,502,529
502,504,518,504,534
507,512,523,508,533
511,511,533,509,525
512,510,536,509,523
509,516,531,495,523
508,509,533,493,519
513,504,527,498,510
516,498,509,501,502
523,500,511,501,495
523,495,517,508,489
522,503,522,512,488
523,511,525,516,491
518,497,516,538,496
508,485,509,549,504
499,482,507,528,519
497,480,510,497,528
498,491,514,497,537
504,503,517,497,535
505,518,524,504,531
513,520,528,503,524
512,520,532,505,521
510,524,530,499,522
511,515,528,501,516
515,513,525,508,508
517,508,525,518,505
524,516,528,527,491
525,513,530,536,483
524,511,524,537,486
523,511,517,529,489
515,504,511,523,497
505,496,504,517,510
501,498,502,508,520
502,510,512,503,525
501,512,517,500,534
505,512,526,499,536
508,510,526,498,529
510,505,524,501,525
505,501,526,499,525
506,504,525,499,522
510,509,526,504,514
514,506,526,511,503
518,507,525,520,495
526,514,523,528,486
526,515,524,533,486
525,515,521,534,484
517,505,515,530,493
509,503,510,525,502
501,504,506,512,515
497,500,506,507,526
500,506,510,502,535
502,508,520,498,536
507,510,528,500,534
513,511,525,501,528
511,510,524,499,526
509,508,522,498,524
509,506,525,499,520
511,505,526,506,510
516,506,524,512,504
523,508,525,524,490
527,508,524,533,485
527,509,523,530,483
526,509,521,533,486
515,506,514,529,495
505,500,506,518,507
499,499,501,508,518
497,502,505,505,530
501,505,514,500,534
505,509,522,499,536
507,505,523,500,533
508,511,526,502,525
511,508,526,501,523
508,505,524,499,524
509,502,523,502,518
514,504,525,509,506
519,503,524,518,497
523,503,522,527,487
526,512,523,534,483
527,517,521,536,484
521,509,511,529,490
514,504,509,526,495
502,496,501,515,508
497,497,501,511,524
499,502,504,503,531
498,503,514,505,538
505,510,521,497,535
510,508,523,499,528
513,507,524,501,527
510,504,524,501,524
508,506,523,500,526
512,507,523,505,515
512,506,523,512,505
521,507,523,521,493
522,505,522,530,487
525,507,520,529,482
528,510,518,532,483
517,502,510,528,491
510,502,506,523,498
500,498,502,514,514
493,496,500,504,525
499,503,505,501,532
501,506,514,501,538
507,506,519,497,537
511,509,522,501,530
514,511,524,501,528
511,506,521,498,524
510,504,521,497,522
514,503,522,504,511
513,504,521,512,502
521,508,520,524,491
527,508,520,531,483
527,509,519,532,483
521,506,513,532,486
513,502,508,529,495
507,498,498,518,503
501,494,497,511,512
497,500,502,503,530
500,503,510,501,537
505,509,517,500,540
508,507,519,499,533
514,511,524,499,528
509,507,523,500,524
508,503,519,499,525
510,501,518,501,520
515,504,521,506,509
518,505,517,516,496
523,508,519,526,488
524,508,518,533,483
524,507,514,535,481
524,507,510,531,486
514,504,503,525,495
505,496,496,513,509
497,496,498,509,523
498,501,510,504,533
500,504,512,501,536
507,508,520,497,533
507,504,520,500,532
511,510,524,500,528
510,510,521,500,527
508,505,517,498,525
513,503,518,502,516
516,504,516,510,505
516,506,521,523,495
520,506,518,532,482
527,510,515,531,482
523,508,514,537,484
517,504,508,524,490
512,502,503,523,497
500,496,499,514,514
497,497,498,504,527
497,502,510,503,535
504,508,517,499,539
508,507,516,498,532
513,508,524,502,526
514,511,522,501,523
510,506,521,498,524
509,504,520,502,520
512,503,520,508,510
516,502,519,515,500
521,504,518,525,490
526,509,517,530,480
522,509,516,532,484
520,506,507,530,488
515,503,506,525,493
505,496,497,521,506
498,497,495,509,516
498,503,502,505,527
499,504,510,501,538
507,511,518,498,539
509,506,518,499,535
512,506,520,500,528
509,506,523,500,529
508,505,519,496,526
507,504,519,502,519
515,502,519,510,507
517,505,517,519,499
523,510,517,528,486
523,510,517,535,483
521,508,514,535,485
518,506,507,529,489
513,504,504,526,495
501,495,493,515,512
497,496,494,508,524
498,501,501,502,533
501,506,508,498,534
507,511,518,501,536
509,506,519,501,530
511,508,517,499,528
511,505,520,500,527
506,503,518,501,526
510,503,517,504,516
516,506,517,513,505
524,507,519,520,493
525,507,518,531,483
524,509,511,532,483
527,510,514,533,484
518,505,505,529,490
508,505,501,525,497
500,494,493,513,512
498,496,496,506,527
502,504,504,502,535
505,505,514,500,536
506,507,517,497,534
510,507,519,503,531
512,511,521,501,526
511,507,519,500,523
510,506,518,501,516
514,506,516,506,512
518,506,516,514,502
522,506,516,524,492
525,509,514,532,483
525,512,516,536,483
521,507,510,531,488
514,503,505,527,492
505,496,496,519,502
500,496,493,511,519
496,498,500,508,529
499,504,508,502,537
505,510,517,499,538
507,503,515,500,533
510,508,522,502,526
508,507,520,497,524
509,505,518,500,523
508,504,516,501,519
512,505,519,508,510
517,506,517,520,499
523,507,516,527,486
526,510,516,533,481
527,510,514,535,484
518,506,507,532,490
516,505,504,528,495
504,497,494,512,510
497,500,496,508,525
497,501,502,505,533
503,506,511,500,536
507,508,516,499,535
509,505,518,499,532
512,510,520,499,527
511,507,519,501,527
507,504,518,498,521
512,502,517,505,511
515,504,517,513,501
519,506,513,521,492
525,507,517,528,485
522,507,514,531,487
523,509,512,533,485
517,503,505,531,494
512,501,498,523,499
501,497,493,508,514
497,498,496,504,526
501,505,503,502,535
505,508,509,498,537
506,507,515,501,535
509,509,519,501,528
512,507,519,501,525
509,506,519,500,523
509,504,518,500,519
513,504,517,507,512
515,505,516,514,502
521,507,518,526,488
526,508,517,532,485
524,510,510,532,483
522,508,511,532,487
515,505,504,528,495
504,497,496,521,506
500,498,495,508,518
499,498,499,504,529
502,506,508,500,537
504,508,515,501,536
509,506,514,499,529
508,505,517,501,527
509,504,518,498,527
507,505,516,500,525
508,504,517,502,518
514,506,516,509,506
518,507,519,517,497
526,509,518,529,487
524,508,514,534,485
524,509,511,531,482
514,503,506,526,490
510,501,503,529,496
501,496,492,513,510
499,494,495,507,523
500,502,500,503,531
502,506,510,499,537
506,507,515,499,533
509,507,519,498,528
512,505,518,501,526
509,506,519,501,525
508,505,516,500,523
509,504,518,511,515
513,506,515,512,508
519,506,517,521,494
525,510,517,530,480
525,512,516,534,484
524,507,511,534,483
515,506,503,528,493
511,502,499,521,499
499,496,494,511,513
498,499,496,505,528
500,500,503,501,533
503,507,509,498,538
505,505,515,498,534
510,507,519,503,527
511,506,517,501,526
510,506,518,500,522
508,505,518,504,519
512,504,518,504,509
516,502,516,514,499
522,506,516,523,490
526,510,516,531,483
525,508,515,530,482
521,505,507,533,488
513,501,502,528,490
508,496,496,516,503
499,498,495,510,521
499,502,497,500,533
502,506,505,499,537
506,507,514,499,536
508,507,515,497,531
510,506,517,501,525
509,503,517,500,526
508,504,515,498,525
509,503,514,501,517
515,507,517,511,506
519,506,518,516,498
525,505,516,528,489
526,507,516,533,481
523,509,513,536,484
518,505,508,529,489
512,503,505,527,496
502,497,494,512,509
498,497,495,507,524
498,502,504,503,534
504,505,508,497,537
508,507,514,497,534
509,504,516,501,533
513,506,519,503,526
511,506,519,500,524
507,506,516,501,526
510,505,514,504,513
515,507,517,513,506
520,506,514,520,493
524,508,519,530,484
522,508,516,536,486
523,509,516,533,487
517,503,505,528,489
513,502,503,523,499
502,494,494,511,516
498,500,496,503,529
499,503,502,499,536
503,508,512,499,541
505,506,519,499,535
514,507,520,499,528
508,506,520,498,525
508,506,517,499,525
509,504,516,500,522
514,505,514,506,510
516,505,518,515,500
520,506,517,527,491
525,509,514,532,485
525,509,514,534,483
520,508,508,531,492
514,504,501,526,496
506,497,497,519,506
501,497,496,509,521
498,501,501,504,531
502,506,507,501,538
506,508,512,495,537
505,505,517,499,532
514,506,520,502,531
513,507,520,501,525
509,506,518,498,525
510,505,515,504,520
515,505,519,514,509
516,508,518,520,499
525,508,516,527,488
525,509,514,531,485
521,508,515,536,485
515,504,508,530,489
511,502,504,528,497
501,495,494,516,511
498,499,494,507,525
503,500,502,502,531
502,505,507,496,536
507,502,513,500,537
508,504,517,499,529
510,508,521,503,524
512,507,520,504,523
512,506,519,504,519
508,504,518,507,515
512,502,516,514,508
521,509,519,523,495
525,507,513,529,484
526,507,515,533,483
525,509,513,534,485
517,505,507,528,493
510,504,501,525,502
499,494,494,512,515
497,495,496,503,528
499,501,502,500,536
504,508,515,500,536
507,507,515,499,530
511,507,517,501,526
508,506,517,501,527
509,506,519,500,523
510,506,516,502,519
512,506,519,509,508
515,504,516,517,501
522,508,516,526,489
521,506,516,531,484
524,510,514,530,482
519,506,509,537,489
512,502,502,527,498
506,496,495,518,505
500,498,495,509,520
496,499,498,505,531
502,504,506,500,535
507,510,514,501,534
508,505,517,498,527
513,509,517,499,527
509,506,518,501,528
509,506,518,501,526
508,503,518,504,518
515,504,517,511,509
517,506,517,521,498
525,508,518,529,485
524,510,515,533,484
524,511,516,533,484
516,504,507,531,492
512,501,501,526,497
499,495,493,513,514
498,501,495,507,521
500,501,500,502,532
503,504,509,496,534
507,507,514,498,534
509,505,515,499,529
508,506,519,503,526
506,506,517,502,524
508,506,517,502,521
509,503,517,507,513
513,503,515,513,504
521,508,518,522,490
524,509,515,530,483
524,508,514,533,481
522,505,511,534,484
515,505,505,528,490
512,504,502,525,497
500,497,493,512,518
497,499,494,503,525
501,506,505,502,535
505,507,513,499,534
508,505,514,499,537
512,507,520,506,527
509,506,520,502,524
512,507,520,502,523
506,504,519,502,518
510,505,522,510,511
515,504,517,513,502
526,508,520,525,488
527,508,518,534,482
523,510,515,533,482
521,506,511,533,485
513,505,506,529,493
506,498,497,519,505
496,495,494,509,521
498,499,499,502,531
501,505,509,498,536
504,506,516,500,537
508,507,519,500,532
513,511,520,500,526
507,507,520,498,525
511,506,518,501,522
513,505,518,501,516
513,504,518,512,507
519,507,523,521,496
526,507,517,529,483
525,512,516,533,483
523,508,512,535,483
518,501,508,531,487
513,499,503,527,496
500,497,493,514,515
496,498,496,507,522
500,503,501,503,533
501,508,513,500,536
507,508,519,499,534
511,510,518,501,526
510,508,518,499,525
507,506,517,501,524
510,507,515,499,521
512,504,518,503,511
516,505,516,513,503
521,507,518,519,491
524,509,517,529,483
522,507,516,534,485
525,506,511,533,482
516,503,505,527,491
513,502,501,524,496
502,498,493,511,517
498,500,498,504,529
500,503,506,501,535
505,509,511,497,538
505,506,518,503,532
512,508,523,502,526
512,507,521,500,524
510,507,520,500,523
512,505,519,502,518
512,504,520,509,510
515,505,517,516,501
523,507,517,526,483
524,509,516,532,483
526,509,514,536,481
523,509,510,532,487
511,503,505,526,495
504,499,496,517,505
497,497,494,510,521
497,500,502,510,530
499,503,507,501,537
505,508,516,500,533
507,509,517,498,531
510,508,523,499,527
507,506,520,497,524
507,505,518,500,521
510,504,515,501,515
515,505,518,510,503
520,505,518,515,493
523,506,518,532,485
527,511,514,533,483
524,509,512,536,480
515,505,508,527,489
513,501,505,526,493
499,494,495,519,511
498,497,493,505,524
498,501,498,500,532
502,505,512,497,538
505,504,517,497,536
508,507,520,500,529
511,508,520,499,525
509,507,519,497,526
509,505,517,499,521
510,502,517,503,510
517,504,515,513,504
520,505,519,524,490
527,508,517,530,484
524,508,516,534,483
524,508,510,532,483
514,500,505,526,492
510,501,501,522,497
501,496,494,510,514
498,500,498,505,528
499,503,506,497,532
501,506,514,501,538
507,506,516,499,530
511,508,518,498,526
508,511,520,500,526
510,506,519,500,523
509,504,518,504,518
514,504,517,509,508
516,502,518,521,500
524,508,517,526,486
524,509,518,533,481
524,507,513,534,488
519,507,507,531,488
515,504,502,526,495
504,498,496,515,507
496,499,495,509,523
499,503,501,503,530
501,503,509,500,537
506,509,516,500,536
508,506,517,500,529
512,509,517,499,526
508,505,515,500,527
509,506,521,501,523
509,504,518,503,517
515,506,518,511,504
521,507,517,521,494
523,511,518,532,484
523,508,516,534,484
523,507,510,533,485
518,508,507,529,492
511,503,504,526,496
499,495,494,513,512
497,498,492,505,525
496,499,502,503,536
504,506,512,506,537
507,510,518,502,534
511,507,520,501,525
509,507,520,502,525
510,505,521,498,524
509,506,520,500,521
511,505,519,503,511
515,503,516,514,502
522,507,516,523,491
527,509,517,532,484
523,512,516,534,484
520,507,510,533,487
514,502,504,527,495
510,499,498,521,504
501,498,495,509,516
497,499,499,504,527
501,503,506,498,534
504,508,513,499,537
505,507,522,500,533
510,510,520,500,528
510,507,523,502,526
510,505,519,503,522
509,505,519,500,516
514,503,518,509,504
515,503,517,516,498
521,507,516,528,489
525,509,515,532,485
526,508,514,536,484
519,506,508,533,489
515,502,506,528,493
508,498,496,520,508
503,498,496,511,522
499,502,503,503,532
501,504,505,496,538
505,510,517,499,535
506,505,518,497,530
508,506,520,502,527
509,506,520,499,525
510,505,519,498,522
511,502,516,502,517
513,503,517,509,505
520,505,515,520,493
527,508,520,530,485
524,512,517,533,484
522,508,514,535,486
515,504,503,529,495
510,501,502,523,500
499,497,492,513,518
498,496,493,506,530
500,499,503,503,535
503,504,512,499,538
508,506,516,497,534
507,507,517,501,535
510,507,521,502,526
511,506,520,501,525
513,506,519,502,518
513,506,517,508,511
516,504,516,513,505
522,506,517,521,490
523,509,516,531,484
524,509,511,532,486
523,508,509,532,488
516,504,503,526,495
507,504,501,523,501
500,497,493,510,519
496,500,500,502,529
498,504,505,500,535
504,508,512,498,539
509,505,517,499,534
510,507,521,502,528
510,507,520,499,526
513,507,520,501,525
509,504,519,504,520
513,504,518,511,511
516,504,517,519,502
526,508,517,527,489
525,509,520,535,485
524,509,515,536,483
517,506,515,532,491
512,504,504,527,497
501,496,494,516,511
499,495,494,509,525
496,500,499,504,536
500,502,509,503,540
508,509,512,499,537
509,505,516,500,530
510,507,516,500,527
508,507,518,500,530
511,505,520,501,524
508,503,516,504,516
515,505,517,511,504
517,506,519,521,495
525,508,514,529,483
527,510,516,535,486
522,506,512,532,488
517,505,506,529,494
508,500,500,524,500
501,496,494,512,513
499,496,495,506,525
498,502,504,499,533
501,506,512,499,539
508,508,516,498,536
508,507,519,499,531
507,505,519,501,530
510,506,519,500,524
511,507,519,499,521
516,505,519,508,513
514,505,521,515,504
522,509,517,523,492
525,509,516,532,481
523,508,515,532,486
522,506,511,532,486
515,503,503,527,498
509,502,497,520,503
497,496,495,510,518
497,498,499,504,528
502,504,506,498,536
505,511,513,498,541
507,507,517,500,533
512,509,519,501,529
512,508,520,501,525
508,506,520,499,522
509,505,518,502,517
513,505,519,509,507
517,505,518,514,498
523,507,518,527,490
525,508,515,533,485
526,509,515,533,484
518,505,509,529,488
516,502,505,527,494
501,499,497,517,508
497,498,495,509,526
498,501,500,501,532
502,506,509,498,538
506,509,516,500,537
506,504,517,501,533
507,505,519,500,530
509,506,520,500,525
509,505,519,502,523
509,502,516,504,518
516,503,518,511,503
521,505,519,522,493
523,507,517,529,486
527,509,516,530,483
522,509,518,533,486
519,508,507,528,492
511,504,505,524,498
499,497,493,513,517
497,499,499,503,527
500,503,504,500,534
505,507,511,497,538
505,506,517,499,535
508,507,522,500,530
513,509,521,503,525
510,507,519,499,523
510,505,521,501,520
511,506,519,507,512
514,503,517,513,503
522,508,518,524,491
525,506,517,532,484
522,509,514,531,482
522,507,512,533,485
514,503,506,527,493
513,502,501,522,503
498,496,495,514,517
495,496,498,505,528
501,503,504,500,538
505,509,518,500,536
508,507,517,498,531
509,507,521,500,526
507,507,520,500,526
509,507,519,501,522
511,507,519,503,516
512,506,520,511,506
518,506,518,517,498
523,506,516,527,487
524,510,514,531,483
523,509,513,534,484
516,504,508,529,490
512,503,504,528,495
503,493,494,516,511
498,498,498,507,522
498,501,500,502,527
498,503,509,499,537
505,509,518,500,534
505,509,517,499,527
510,508,516,500,525
508,506,519,498,524
513,508,520,501,519
512,506,519,505,512
514,505,518,512,504
520,508,517,521,493
525,505,519,531,482
523,509,516,535,484
522,509,513,532,484
514,504,507,529,491
512,502,507,525,496
501,496,495,514,514
496,495,497,505,527
497,500,504,501,533
507,511,514,499,535
508,507,518,494,530
505,503,518,500,529
511,508,521,500,522
511,507,518,499,522
508,505,520,500,517
512,505,518,503,508
515,505,519,515,499
522,508,521,524,490
525,510,517,528,482
525,509,515,531,482
521,507,511,532,483
518,504,506,526,491
510,500,501,522,500
501,501,497,512,515
496,501,501,505,528
501,503,507,501,535
505,508,516,496,536
507,505,517,500,531
509,508,521,502,526
509,507,520,498,522
509,507,517,499,524
508,501,517,503,519
515,502,517,509,508
516,504,518,517,499
523,508,517,526,486
526,511,518,533,478
525,510,514,533,484
518,506,508,532,490
515,502,505,528,491
502,494,494,517,506
497,498,495,507,519
496,501,501,501,534
497,503,508,498,540
508,509,518,499,535
508,506,516,498,529
512,505,520,500,527
511,507,521,500,523
511,507,519,500,521
512,504,515,505,512
516,504,517,511,503
523,505,519,520,490
525,508,516,529,483
524,505,516,533,483
523,507,511,532,483
516,504,508,529,491
515,501,503,525,498
501,497,497,513,511
497,498,497,506,526
499,503,505,501,533
504,508,515,502,536
508,507,517,498,532
509,506,516,501,528
511,507,520,502,525
510,507,517,498,523
509,505,521,499,519
512,504,518,506,508
516,505,517,513,500
523,508,519,526,487
524,508,517,533,483
524,507,514,535,482
521,509,510,533,485
513,503,505,524,492
508,498,498,520,502
500,497,493,511,518
498,500,500,505,528
500,505,509,499,535
509,507,517,498,533
507,502,516,502,534
508,506,523,503,528
512,508,519,498,524
509,505,518,498,521
508,501,516,503,522
512,502,517,511,508
516,506,520,519,497
525,509,517,528,482
525,512,517,529,482
522,507,512,533,484
516,505,511,531,490
512,503,506,528,495
500,496,497,517,510
496,496,496,510,523
500,502,504,503,531
503,506,509,499,537
507,507,515,499,533
508,506,519,501,529
513,509,521,502,524
509,507,520,501,524
509,505,520,501,521
509,503,518,503,512
517,505,517,512,505
520,506,520,523,492
528,508,519,530,483
523,508,517,534,484
522,506,513,531,484
515,506,505,527,495
512,502,500,523,498
501,495,495,513,514
499,498,497,505,527
501,504,504,500,535
502,507,515,497,536
505,506,518,498,534
509,505,519,499,528
512,507,522,500,526
513,506,520,502,522
509,505,520,501,519
513,506,517,508,508
516,505,519,515,502
522,508,518,525,489
525,510,516,528,485
523,509,516,535,484
521,507,509,531,486
514,503,505,525,492
506,499,498,518,505
497,496,495,511,522
496,499,500,502,530
500,503,505,499,538
505,508,516,503,537
504,506,519,500,532
509,508,519,502,527
512,510,521,501,523
510,507,520,502,524
510,505,522,504,519
512,505,520,510,510
519,504,519,519,498
520,507,517,528,484
525,513,516,534,487
522,509,513,531,484
517,507,506,530,490
514,504,500,525,495
502,496,494,515,509
502,500,497,508,523
496,503,503,503,532
503,506,510,498,538
507,507,518,498,532
507,505,518,503,531
512,507,521,497,527
509,506,519,500,525
508,505,520,502,518
512,504,518,505,511
515,506,518,513,504
519,507,519,521,493
526,510,513,531,483
523,508,515,534,485
523,511,511,533,483
517,507,505,529,490
514,503,503,524,497
498,496,495,513,515
493,496,498,507,529
498,501,504,501,537
503,506,513,503,539
509,507,517,499,535
510,508,520,502,530
510,509,521,501,527
508,507,519,501,525
509,507,518,506,523
510,502,516,508,510
517,504,515,513,502
523,507,519,526,489
527,511,513,528,483
527,511,516,535,483
519,507,510,532,485
514,505,505,525,491
508,500,498,517,507
497,497,495,510,524
496,500,499,502,531
501,504,508,501,535
506,508,517,499,534
509,507,517,499,531
508,506,519,500,525
509,506,520,499,524
510,505,518,499,519
510,504,516,500,516
515,504,518,510,504
520,506,518,519,492
524,506,516,528,486
523,507,517,532,482
525,506,512,536,486
518,505,509,530,490
511,502,503,526,496
502,496,493,513,510
499,498,496,507,520
499,502,502,503,531
502,507,511,500,534
508,507,517,498,530
508,507,517,499,528
509,506,518,502,526
512,508,520,499,525
511,506,518,501,522
513,505,518,505,514
515,505,518,511,504
523,507,519,522,490
523,509,518,531,483
522,508,515,535,485
521,507,512,530,485
514,502,505,526,494
512,503,498,522,499
501,498,495,512,517
499,499,501,504,529
502,504,506,500,533
502,504,514,499,539
508,507,517,499,532
509,506,515,496,528
509,506,519,501,527
511,507,520,503,523
509,502,518,502,517
512,504,518,508,510
516,505,514,513,503
524,508,517,526,485
525,511,518,532,482
522,505,514,533,487
521,506,509,528,489
515,503,504,526,492
507,499,496,518,506
502,499,496,508,519
498,504,501,504,530
502,506,509,500,535
506,508,516,500,532
508,507,517,498,530
508,504,519,498,528
511,507,520,500,524
511,507,519,501,522
510,504,518,502,515
515,505,518,509,506
519,504,518,517,493
525,510,517,528,484
525,508,514,534,481
524,505,511,536,484
518,508,507,531,487
508,504,504,524,494
501,497,495,509,511
498,497,495,502,524
496,498,500,501,538
501,507,513,499,538
506,508,517,497,533
508,507,520,501,531
511,509,522,500,526
510,506,519,498,524
509,505,519,503,521
508,503,518,508,514
515,506,519,514,502
524,507,520,524,489
527,510,516,530,480
523,509,515,534,484
519,507,507,531,484
513,502,505,530,492
509,502,500,523,500
500,498,493,508,517
497,499,498,501,527
499,504,504,500,535
503,508,512,499,539
509,508,516,499,533
510,508,517,499,526
510,506,517,500,525
506,503,520,503,523
508,502,518,508,521
512,502,517,505,511
516,501,516,511,500
527,509,519,524,487
526,510,517,532,481
525,507,512,532,483
521,508,509,532,489
515,505,504,527,493
508,499,497,517,505
497,497,496,509,522
500,499,501,503,532
500,505,508,500,536
508,510,516,500,535
510,507,517,499,530
507,507,515,497,528
511,506,518,500,528
508,506,516,501,525
510,504,516,504,516
513,504,518,512,506
518,506,519,520,495
525,508,516,528,485
524,509,516,532,481
525,511,513,533,485
519,506,507,530,489
514,502,503,526,495
503,498,494,514,512
497,499,497,507,525
499,502,503,502,533
502,509,512,500,539
508,506,516,499,531
510,504,515,500,534
510,507,523,501,527
510,509,520,501,526
513,505,520,502,522
512,502,518,507,513
515,504,520,514,505
522,509,519,523,492
524,508,517,532,484
524,505,512,533,487
521,506,509,533,486
514,504,503,529,495
511,501,502,527,500
499,496,492,510,518
497,499,501,506,530
499,503,507,502,535
508,508,515,500,536
506,507,517,500,530
505,502,516,498,531
510,506,524,501,526
512,508,519,501,522
509,504,519,499,518
516,506,519,509,509
517,506,517,516,501
522,506,517,526,489
525,509,517,531,484
524,509,513,534,485
520,505,507,530,489
511,502,504,528,497
504,495,493,517,508
499,496,497,507,522
498,500,501,502,531
501,505,505,499,537
504,508,517,500,537
510,507,520,500,532
512,505,518,500,527
509,506,521,499,526
509,505,517,501,524
509,504,518,506,519
512,503,518,512,509
521,508,519,520,493
525,508,517,530,487
526,511,517,531,481
521,507,513,534,490
518,505,508,529,492
512,502,504,525,496
502,493,495,515,513
497,495,496,509,525
501,500,501,502,530
501,505,512,501,538
507,509,518,499,536
509,505,517,497,530
511,502,518,499,526
507,503,518,497,525
507,503,518,499,523
512,505,515,505,515
515,506,515,513,504
521,508,519,524,492
524,508,516,532,486
525,509,516,534,484
518,504,508,531,491
515,505,505,527,491
510,500,504,524,501
499,494,495,511,517
499,498,499,505,529
499,501,506,500,538
505,508,516,498,541
507,507,517,497,533
506,504,518,499,531
511,511,520,500,528
511,507,519,500,523
511,504,517,503,518
514,505,518,509,509
518,506,517,517,501
520,506,516,526,487
521,508,518,534,482
523,508,513,533,485
520,506,505,528,489
514,503,503,523,493
504,498,493,517,511
497,498,496,509,520
502,499,500,501,530
502,505,507,500,538
506,511,516,499,535
512,508,519,501,529
510,508,517,499,528
511,507,518,500,521
509,504,520,502,519
510,503,518,507,516
519,506,518,510,505
523,507,518,519,493
524,508,520,530,485
524,509,516,534,484
524,508,512,534,486
520,507,508,526,490
514,504,505,524,497
501,497,496,514,511
498,499,498,507,526
498,503,505,503,534
503,505,514,500,537
507,510,516,500,533
508,505,515,500,532
510,506,519,499,526
510,506,523,502,524
510,505,520,503,519
510,501,518,507,512
515,501,517,514,502
522,509,520,526,491
527,505,515,531,487
526,509,515,531,481
517,503,509,536,490
515,504,504,529,493
511,501,501,523,499
501,497,495,512,516
502,500,500,506,528
502,505,505,501,535
505,507,513,498,537
510,507,518,496,531
510,507,517,499,529
509,507,520,500,523
510,506,518,499,522
510,503,517,503,522
512,504,518,510,511
518,504,518,523,500
523,505,518,528,485
528,509,516,532,481
525,510,514,533,482
519,505,507,529,488
513,502,504,526,495
504,498,495,516,508
500,498,497,508,522
501,502,501,503,530
503,505,506,500,536
506,508,517,497,533
510,506,518,502,531
508,505,515,500,529
510,506,520,498,524
510,506,519,501,520
511,505,515,503,515
514,505,516,510,509
523,508,519,521,491
525,506,517,533,484
524,506,515,532,485
522,508,513,534,484
517,504,505,529,491
512,502,500,524,496
505,496,494,511,511
499,497,495,506,524
501,503,504,503,531
502,507,514,497,538
507,507,519,501,536
511,508,520,500,530
512,507,519,499,524
509,507,519,499,523
509,504,519,502,521
514,503,519,505,513
516,504,515,513,502
522,506,518,524,492
525,506,518,532,484
524,510,515,533,483
519,504,507,531,489
516,503,505,527,492
511,503,500,522,503
498,499,499,512,519
497,500,503,505,530
501,507,508,500,534
504,507,516,499,535
508,506,516,499,531
510,505,518,502,529
511,505,521,501,524
509,509,520,501,524
513,505,518,502,517
515,504,520,511,502
518,508,519,517,498
525,508,517,527,485
524,511,518,530,483
521,508,511,533,486
517,507,507,529,490
516,507,503,526,494
506,495,496,514,509
500,498,496,507,524
502,501,502,502,531
500,502,509,499,539
507,509,517,499,536
508,506,519,497,531
508,507,517,499,527
511,506,520,500,521
511,506,520,498,521
511,504,516,503,514
514,503,519,515,504
520,505,519,520,495
524,507,518,526,481
524,509,516,533,483
520,507,513,534,488
520,505,507,526,491
515,504,503,522,496
502,498,496,512,514
497,500,498,505,527
500,504,504,502,534
505,509,513,501,535
506,508,516,500,531
510,506,519,501,528
508,507,519,497,528
509,504,519,499,524
510,505,516,500,519
513,506,516,505,512
515,502,515,514,504
524,508,519,523,491
524,509,520,532,485
523,507,516,534,485
521,507,511,529,490
515,503,505,525,493
509,500,499,522,502
501,499,497,511,518
499,501,500,505,529
502,505,506,501,536
505,509,513,498,539
508,508,518,499,533
509,506,517,499,532
509,506,520,500,527
510,507,520,499,524
511,505,519,503,519
515,505,518,510,508
515,504,519,520,497
523,509,519,523,488
525,507,517,533,484
525,509,511,532,485
517,504,508,530,489
513,503,505,527,495
504,499,497,516,509
498,497,497,508,523
499,501,502,502,533
501,504,510,498,535
506,507,520,501,535
510,507,520,501,529
507,503,518,499,530
509,508,520,500,528
511,506,519,501,522
512,505,519,503,513
515,506,519,508,503
520,506,520,528,495
524,508,518,529,483
525,510,516,532,480
524,511,513,528,486
514,503,506,525,490
510,502,503,524,495
501,496,496,511,512
498,498,498,504,524
499,503,503,499,533
501,507,512,499,538
507,507,518,500,532
507,505,519,499,529
508,508,519,499,529
510,507,520,500,524
509,504,520,502,518
509,503,520,507,509
516,505,518,510,500
521,507,519,524,489
524,508,517,533,486
522,505,515,534,485
519,503,508,529,486
515,505,503,525,491
508,500,500,517,500
501,499,493,512,518
497,501,499,507,533
502,505,507,497,532
505,507,516,496,537
511,509,520,499,531
509,504,518,500,526
507,504,518,498,524
507,501,517,502,525
511,502,515,504,522
514,502,517,510,508
518,503,518,516,498
523,508,517,527,485
526,508,517,534,483
524,512,515,535,483
515,504,507,529,492
511,503,505,526,495
502,495,498,519,511
499,496,496,509,523
498,503,501,504,531
500,504,510,500,539
506,509,516,495,538
510,507,519,498,528
508,505,519,497,527
507,504,520,499,528
511,509,520,500,523
514,507,519,506,513
516,507,518,513,506
523,506,519,523,494
527,508,517,530,485
525,508,513,534,483
522,506,509,532,487
516,502,506,530,493
512,501,501,526,498
496,496,497,519,519
497,499,498,506,530
502,504,504,497,534
503,505,514,498,536
503,508,515,500,537
515,509,520,496,528
512,506,518,496,525
512,505,520,500,526
505,502,521,504,519
517,502,515,506,507
517,506,517,515,501
528,508,519,527,490
525,508,518,533,485
527,510,513,535,482
522,506,508,529,489
516,504,507,526,496
509,498,498,515,505
500,499,496,510,519
498,500,501,504,534
502,505,510,500,537
504,508,515,498,537
508,506,524,501,533
512,506,518,500,529
509,506,516,497,525
509,505,521,505,523
509,505,522,505,519
513,501,518,509,509
516,503,518,517,498
524,508,520,527,484
528,508,518,530,482
525,509,513,533,486
517,503,505,527,490
511,501,504,527,494
502,494,496,515,510
500,498,499,506,524
502,502,503,503,530
504,506,511,496,535
508,509,520,500,533
509,507,519,501,529
507,505,517,499,529
511,508,521,501,523
512,507,520,501,521
513,505,518,506,513
516,505,519,511,506
522,508,517,520,493
525,508,517,530,485
524,508,517,534,483
523,506,509,530,489
513,501,505,529,494
510,499,503,525,499
498,495,494,512,515
498,500,495,504,528
500,505,505,501,540
507,508,516,502,538
509,507,518,498,531
509,507,522,501,528
508,506,520,503,526
511,506,520,500,523
509,504,520,500,520
512,504,520,505,510
517,505,519,516,501
523,506,519,524,491
527,509,517,528,484
525,510,516,534,481
515,503,508,532,493
515,503,506,527,492
506,498,497,520,506
499,496,496,511,520
497,500,501,505,530
502,506,508,501,535
503,508,515,499,536
507,506,518,503,536
508,507,517,496,528
510,506,521,497,525
511,506,520,500,522
510,503,518,502,517
514,504,518,509,506
518,505,518,518,497
527,509,519,529,485
525,512,518,533,485
523,509,516,535,483
515,502,507,528,490
513,503,505,526,497
502,496,494,513,511
498,496,495,509,523
500,501,505,504,532
503,506,511,501,537
509,510,518,500,533
510,508,519,499,528
507,504,519,499,528
509,505,521,501,524
513,506,519,501,520
515,504,517,504,515
514,503,516,510,501
521,507,518,523,491
526,508,515,529,484
527,509,517,532,482
522,508,511,533,487
516,504,506,527,491
509,502,502,520,496
501,498,493,512,517
498,500,497,504,529
501,505,501,501,535
502,507,515,499,536
507,506,518,505,534
513,510,521,499,528
508,501,517,498,525
509,507,520,499,524
506,502,519,505,521
505,500,519,509,509
513,503,516,523,505
528,511,516,520,489
529,512,518,528,483
526,509,516,538,485
520,505,506,530,490
516,504,504,527,495
506,499,498,519,507
498,498,493,510,524
498,500,499,503,533
499,503,508,499,536
506,510,517,499,537
510,507,518,501,531
510,506,516,499,528
506,503,517,500,525
512,505,519,503,524
509,502,519,505,517
508,504,519,515,508
517,507,517,518,499
529,511,517,526,484
526,509,516,534,484
524,509,512,536,485
514,505,505,527,496
512,503,503,526,499
502,498,496,514,514
498,498,502,507,526
498,502,502,503,533
503,506,512,498,539
507,508,516,498,534
509,508,523,503,529
509,506,520,499,528
508,505,520,501,523
512,506,518,500,520
513,505,517,504,513
515,504,518,515,502
518,506,519,525,494
526,509,518,532,483
527,512,515,533,481
519,507,510,534,490
516,507,505,528,494
515,506,503,525,497
499,498,495,513,517
497,497,497,506,530
500,501,505,504,537
503,507,516,502,538
502,504,521,503,531
512,509,518,495,530
508,505,517,500,528
510,506,520,501,523
512,506,516,502,518
517,506,520,511,508
517,506,518,517,499
520,506,518,524,489
526,509,517,529,482
527,511,518,534,482
518,503,508,530,491
512,501,505,526,495
504,498,496,519,511
499,498,494,506,520
499,501,502,502,528
502,505,509,498,534
502,505,515,499,536
506,510,518,500,531
510,506,517,500,527
511,505,519,500,524
512,507,520,501,518
511,504,519,504,515
514,505,520,510,506
519,506,518,519,497
526,507,519,527,481
527,510,515,533,483
524,509,516,536,482
514,501,506,529,494
514,504,506,526,496
500,495,495,515,512
497,499,495,507,526
500,502,499,501,532
498,504,512,498,538
509,509,519,498,533
511,508,520,501,526
508,506,519,495,526
509,506,519,500,523
507,504,520,504,521
509,502,519,509,514
516,503,518,517,504
522,507,519,521,491
524,507,522,532,484
523,505,515,536,483
520,507,507,532,484
512,503,503,531,493
509,501,499,523,498
499,497,495,504,517
497,499,499,503,529
501,503,506,499,534
504,506,515,500,540
509,508,516,498,534
510,507,520,499,527
505,504,516,498,530
508,505,523,500,525
511,506,519,502,520
513,504,519,509,510
516,504,520,517,501
523,507,519,524,488
520,505,517,532,484
519,507,516,539,483
518,503,508,529,490
514,501,505,527,496
502,496,495,516,507
497,497,496,504,519
503,501,501,501,529
502,506,509,500,537
506,507,518,500,537
513,507,517,499,529
513,502,518,499,523
506,508,520,500,526
510,508,519,500,522
512,504,518,502,514
515,506,517,510,506
520,503,517,520,499
524,507,518,529,482
521,510,517,531,485
522,506,514,533,485
514,502,506,527,494
512,501,502,524,497
501,495,492,513,510
498,495,494,507,526
498,503,502,501,534
498,503,513,503,537
504,507,515,500,535
511,509,518,498,531
511,509,518,497,529
511,505,519,499,520
512,503,519,502,519
512,504,518,506,513
515,504,518,516,503
517,501,519,530,496
514,504,520,534,488
531,514,514,525,484
527,510,510,529,490
515,503,503,523,493
512,502,501,520,496
503,500,495,511,515
499,498,498,500,526
501,506,505,500,531
505,506,514,502,538
510,506,516,500,531
512,507,519,503,526
511,505,518,497,527
510,506,515,498,521
509,502,517,502,517
513,504,515,509,508
520,505,518,516,499
521,505,517,525,489
524,505,514,532,487
526,510,516,533,483
519,507,507,531,488
517,504,504,530,494
503,498,495,518,508
499,498,495,507,521
496,502,500,502,531
499,506,510,499,538
500,507,511,499,536
495,505,519,501,532
494,505,520,498,529
488,501,517,497,528
489,501,518,502,524
475,498,515,503,520
464,496,514,507,514
464,501,512,519,503
471,505,518,529,491
457,504,510,531,499
450,504,511,533,511
445,498,501,525,523
473,504,503,518,522
505,499,493,509,532
553,501,495,503,528
574,505,503,500,518
577,516,515,499,529
579,517,522,505,533
554,511,522,504,536
548,512,520,501,533
541,512,522,502,531
536,507,520,501,508
533,503,517,507,485
537,501,517,517,474
545,509,519,527,463
548,511,519,531,467
551,509,516,539,471
544,507,511,532,476
527,503,504,528,485
522,501,500,521,489
509,498,497,509,510
503,500,496,501,523
500,503,505,502,533
502,508,516,500,534
509,508,518,502,524
513,507,519,502,520
508,504,518,498,521
513,504,518,497,518
516,502,516,500,515
514,502,516,510,503
523,505,516,517,490
528,509,518,527,481
535,511,516,533,477
529,511,517,537,480
516,505,507,530,490
512,504,505,525,498
509,498,497,514,510
502,499,493,505,530
496,499,498,502,543
500,508,510,504,537
509,510,517,497,535
511,510,517,499,533
510,507,518,499,532
506,503,516,500,527
523,508,520,500,504
523,503,517,506,491
521,501,520,515,485
525,507,520,521,482
533,511,514,527,478
531,511,514,531,480
524,511,512,534,484
508,503,504,526,497
502,502,502,526,500
493,497,495,514,518
492,498,495,506,540
493,503,504,503,549
498,506,511,499,544
505,509,517,501,534
512,509,521,501,523
507,506,518,498,515
512,506,519,499,521
508,506,521,503,517
507,502,518,511,510
514,505,516,517,506
520,512,520,525,501
515,509,516,536,489
516,512,514,532,484
514,508,509,531,479
505,500,504,524,482
504,498,496,520,484
503,495,493,512,505
506,500,501,508,528
506,505,506,502,538
508,506,510,494,534
505,502,516,505,531
506,506,518,497,533
492,502,515,493,530
484,501,515,498,526
485,498,516,502,523
489,504,518,512,514
489,502,520,520,496
495,507,515,529,493
496,508,517,534,498
502,508,513,532,503
489,504,507,527,508
469,503,504,528,513
469,493,493,514,524
516,498,493,503,523
540,503,500,506,509
531,507,509,505,512
519,509,515,499,513
512,504,519,503,517
514,507,517,500,515
508,506,515,499,505
516,509,521,501,508
512,505,515,502,520
534,508,521,513,506
559,514,519,523,510
546,509,515,531,492
529,508,510,533,484
512,505,508,534,492
513,501,497,523,477
