CH1,CH2,CH3,CH4,CH5
524,508,524,522,504
527,513,526,525,503
529,513,523,526,505
524,514,524,533,510
513,510,512,524,516
510,510,512,523,518
497,504,502,513,524
491,501,500,506,524
505,504,503,507,520
509,502,504,505,518
510,502,506,500,514
509,503,512,505,511
510,504,515,505,515
515,503,517,502,512
515,503,518,508,504
520,505,520,511,501
523,508,521,518,505
527,510,523,521,507
530,515,527,527,504
527,513,521,527,512
522,513,518,527,507
514,509,512,523,513
510,511,512,522,516
497,503,500,510,523
490,501,500,507,519
489,502,500,504,518
490,502,503,503,514
491,502,508,504,517
509,508,516,507,514
509,502,514,503,518
518,504,518,508,508
527,504,520,511,510
529,507,524,512,506
527,508,523,517,509
529,510,524,523,508
535,515,526,530,508
531,514,521,529,508
523,513,517,528,515
516,511,513,522,522
507,502,506,516,531
498,499,500,509,536
496,501,500,505,532
497,500,501,503,518
500,502,506,506,508
506,503,511,506,501
516,499,516,506,496
512,500,510,506,498
514,501,517,506,503
515,503,519,508,507
519,505,522,515,511
521,509,523,519,507
527,513,527,526,506
524,511,523,526,507
522,515,524,533,512
517,511,516,526,517
521,510,512,523,515
503,503,504,512,524
493,501,501,506,523
491,502,503,506,521
505,502,500,504,516
500,498,506,505,514
503,504,513,508,508
503,502,509,510,501
506,500,513,505,504
525,504,518,504,513
524,506,525,506,522
527,506,525,511,518
532,513,534,520,521
529,514,534,524,521
527,515,529,528,514
524,517,521,528,513
520,508,511,531,495
516,513,502,524,500
497,502,490,512,513
493,505,493,505,520
501,505,507,507,518
499,504,506,504,509
502,501,506,504,508
511,504,513,507,508
514,501,514,503,518
511,502,515,506,516
512,503,518,509,518
518,506,516,515,507
519,507,521,517,506
527,512,523,520,518
532,512,522,523,512
527,515,522,527,516
522,513,517,526,503
517,511,513,524,508
509,506,505,518,517
502,503,500,511,520
495,505,501,507,510
492,502,503,505,506
501,502,510,506,501
502,503,510,506,497
505,503,514,507,492
502,500,512,502,505
512,504,517,511,506
516,504,519,511,514
525,506,521,512,515
530,511,525,520,510
530,511,523,524,507
533,514,525,528,509
526,514,520,527,513
524,513,515,524,522
529,511,512,521,520
511,503,498,512,524
493,501,498,505,529
494,499,504,504,525
496,502,507,503,519
499,503,507,504,512
502,502,511,504,502
506,503,513,505,508
507,505,517,504,511
516,503,517,506,508
521,505,523,509,506
521,507,525,520,505
521,511,520,526,505
528,515,526,525,508
541,516,524,529,513
532,517,521,527,522
517,510,512,520,534
514,513,514,522,529
503,502,501,510,539
494,503,502,505,536
503,503,505,505,507
505,506,512,508,503
512,503,507,506,498
511,505,515,507,493
510,504,518,504,498
515,505,519,506,491
515,504,528,510,491
517,508,531,514,513
524,506,533,518,514
519,510,530,521,528
525,513,513,525,525
526,518,513,526,512
519,510,520,524,499
514,509,517,522,495
512,506,509,518,504
499,502,510,512,511
496,503,507,509,509
495,505,488,504,514
516,504,499,506,506
511,501,502,501,504
509,502,507,504,514
510,503,509,504,520
519,504,515,507,512
519,504,515,512,514
522,506,520,514,517
521,508,519,517,520
527,514,522,525,523
527,514,520,528,517
526,514,517,530,508
521,511,511,525,522
514,512,513,528,522
503,504,502,516,524
496,500,497,508,533
495,502,500,505,531
488,501,503,503,521
493,503,508,504,515
495,503,512,506,514
496,502,513,503,508
504,504,515,505,502
514,507,523,509,497
519,504,520,513,498
523,507,523,517,509
518,510,523,524,521
525,515,526,527,518
532,513,524,532,519
535,518,521,529,518
518,514,515,522,523
516,511,512,519,525
504,507,504,512,529
499,502,501,508,527
500,502,502,506,515
504,503,506,505,509
510,502,509,509,509
513,505,513,505,510
517,502,513,503,515
518,504,516,507,522
518,504,520,507,525
523,504,519,509,519
523,508,521,516,517
528,512,522,523,506
531,515,526,531,508
527,513,521,530,502
515,510,514,525,512
522,512,515,527,518
511,507,507,520,526
506,503,502,511,534
499,506,503,508,522
496,504,507,505,527
498,502,507,505,518
505,503,507,507,506
509,504,515,513,504
503,501,515,505,516
506,506,524,505,531
506,507,521,508,517
509,506,522,515,506
519,507,525,516,496
522,511,526,524,498
525,510,518,526,505
519,510,516,526,502
507,507,511,521,511
525,513,513,524,504
517,506,505,518,507
519,502,499,508,504
522,503,501,508,508
514,504,504,510,513
514,502,508,503,516
511,504,512,504,517
512,503,513,507,500
512,502,515,504,511
517,504,520,508,508
520,505,521,512,503
524,507,521,518,498
531,514,526,526,492
535,516,527,529,487
532,516,525,530,491
528,513,519,527,498
520,510,512,523,512
521,512,512,530,519
507,505,502,522,534
500,504,504,513,551
502,502,508,514,535
503,504,510,502,525
497,503,514,487,543
499,500,513,495,549
503,502,508,501,543
510,505,510,508,515
517,507,523,513,529
519,508,510,517,533
517,509,515,524,521
526,511,540,523,524
529,519,566,527,494
533,520,551,527,484
523,513,541,522,503
508,505,508,516,484
502,503,475,517,466
495,503,493,510,472
491,503,491,505,498
511,506,503,505,509
524,511,517,503,490
518,507,520,496,478
526,509,527,498,517
525,506,517,493,531
514,501,502,488,532
513,499,503,513,497
519,502,519,539,483
523,512,536,533,522
525,514,545,534,541
519,514,529,529,570
514,516,520,516,565
509,511,513,515,542
511,510,495,524,511
508,502,492,517,496
512,501,504,516,454
514,498,498,508,416
512,501,502,509,439
507,502,501,505,486
510,506,508,508,484
512,505,514,508,518
507,502,521,506,542
519,505,530,518,547
516,503,529,523,559
527,508,521,525,521
530,508,497,521,514
532,514,496,515,529
527,515,517,522,558
529,516,533,527,535
523,509,539,524,545
518,515,541,533,561
499,508,527,515,578
493,504,481,493,560
485,499,463,498,538
479,505,490,509,549
484,505,504,500,573
496,502,516,501,529
508,502,518,510,508
511,501,514,506,496
525,501,522,510,478
532,503,523,513,502
543,511,528,517,508
544,516,528,518,513
540,520,528,527,521
531,517,535,528,526
515,504,536,521,513
497,501,521,513,537
507,510,534,512,565
513,507,515,524,536
506,508,507,509,529
508,511,513,535,500
491,505,506,534,451
474,494,484,491,463
496,493,496,507,413
523,491,498,504,426
532,503,511,509,463
523,503,511,506,497
518,504,507,509,481
512,507,506,514,531
517,512,516,527,552
512,517,542,523,528
511,520,539,526,552
500,516,528,519,536
499,514,521,520,535
501,506,489,514,513
505,504,497,511,473
537,510,504,515,436
518,505,496,515,426
515,502,504,516,384
521,506,515,520,429
519,505,523,521,450
510,494,516,515,530
510,494,507,508,554
515,501,500,503,538
540,513,539,515,499
554,521,555,527,442
555,521,547,529,474
543,514,513,525,538
525,507,488,526,526
512,497,502,526,522
517,504,504,526,485
484,495,484,502,522
475,493,481,498,518
475,497,495,501,530
484,506,503,505,538
493,507,513,503,503
491,500,507,502,505
506,504,514,503,513
543,510,520,505,545
524,507,518,503,538
518,506,521,513,495
524,511,523,516,559
529,512,520,520,593
530,512,522,526,532
531,514,516,529,547
527,514,515,530,543
527,520,540,526,517
506,507,518,514,531
490,500,504,508,547
488,497,490,510,528
484,497,491,503,508
493,503,505,506,515
500,505,506,506,525
508,503,506,499,499
514,493,497,486,507
507,500,506,492,526
514,503,520,501,512
519,508,543,516,507
516,516,551,526,529
528,515,531,534,517
536,517,516,538,518
532,515,493,534,537
522,514,518,529,544
514,511,497,514,532
501,506,486,492,507
489,501,486,484,525
491,503,496,504,538
483,499,513,507,566
491,502,525,514,540
509,504,508,521,514
526,507,507,504,480
530,505,517,511,488
528,506,514,506,475
515,505,520,510,470
519,510,533,519,459
509,508,536,526,482
522,521,538,526,511
516,510,519,514,548
517,505,486,512,516
517,501,488,514,503
512,506,500,521,512
499,508,505,525,528
499,510,515,529,546
491,505,526,524,540
485,499,519,509,497
492,497,513,504,497
509,503,500,508,501
513,499,495,499,484
521,507,535,507,478
536,511,532,513,429
545,506,531,512,390
531,510,500,511,388
537,514,515,531,451
528,517,547,538,600
520,516,542,531,616
516,511,502,519,578
506,506,489,503,570
497,506,501,509,541
501,508,509,522,485
489,502,499,503,523
488,497,513,493,502
488,498,517,516,521
514,504,503,512,554
524,512,508,516,509
521,508,520,516,496
504,502,518,503,544
502,502,521,509,522
506,499,523,517,517
509,504,520,519,498
516,511,525,529,494
527,514,523,528,503
526,513,519,526,509
520,511,512,526,511
520,515,516,531,490
510,511,512,527,464
500,503,504,518,446
503,497,500,510,414
523,496,501,505,454
508,495,500,501,508
500,503,510,502,508
505,500,503,504,510
509,501,515,498,535
532,505,510,505,508
516,505,527,514,513
506,502,517,517,539
513,508,524,516,558
528,516,531,528,569
524,514,527,529,557
506,511,520,528,532
488,505,507,526,507
495,510,510,527,491
469,505,503,515,510
461,500,500,505,518
465,497,498,499,535
504,503,505,501,549
562,517,521,512,516
556,515,521,512,534
542,504,520,507,534
503,497,521,503,550
523,504,522,505,498
540,503,517,496,491
549,508,502,500,481
554,501,485,519,482
550,510,518,532,491
541,523,555,541,531
527,517,535,536,564
507,511,524,530,555
490,502,528,525,532
499,499,529,526,514
513,501,514,524,469
523,500,498,499,421
540,501,473,504,351
545,501,501,514,382
518,496,505,497,489
502,497,516,485,606
505,499,532,490,601
515,504,532,505,534
514,508,529,517,541
518,515,523,530,539
528,520,503,535,527
512,514,500,534,535
510,517,509,543,542
493,513,507,537,582
488,512,500,528,553
495,501,503,507,521
497,498,497,488,502
501,497,522,491,529
514,505,525,508,499
514,511,493,507,505
507,510,538,509,510
506,502,532,511,525
510,497,523,506,492
502,497,506,489,505
488,499,492,483,625
508,499,494,483,587
545,510,513,513,521
534,509,525,534,525
514,516,531,536,525
528,519,529,537,459
526,513,513,528,429
527,511,513,529,416
508,506,502,517,442
494,503,502,497,494
481,498,488,507,565
503,511,500,523,507
498,500,504,505,538
507,501,503,517,518
517,501,521,512,512
523,503,522,517,499
517,505,527,516,500
502,501,520,510,531
521,509,537,510,507
518,511,536,516,520
521,515,534,532,503
519,519,522,533,536
511,517,514,538,546
501,514,526,533,476
504,512,525,528,497
507,507,519,517,523
494,499,483,504,551
498,499,491,508,506
516,503,489,502,488
515,500,497,498,484
518,504,510,498,527
513,500,508,495,577
522,498,506,499,533
529,503,515,501,500
533,503,515,508,493
519,509,547,524,522
527,520,560,541,538
509,521,557,549,547
479,517,503,535,548
467,510,490,521,563
460,506,501,523,532
469,498,490,510,497
460,491,485,504,488
456,494,491,506,450
492,501,499,508,439
515,501,502,501,449
509,500,506,502,464
488,500,511,506,495
486,502,515,502,514
504,506,520,511,530
557,512,521,510,528
582,515,525,514,487
570,516,527,521,515
549,516,526,527,549
534,508,516,524,553
530,515,517,533,513
509,509,508,523,538
503,507,506,523,518
490,507,504,515,524
471,495,497,517,541
486,506,507,513,536
503,505,509,506,520
513,503,511,505,499
520,503,512,502,506
526,509,514,499,553
520,503,512,493,535
527,503,517,504,483
543,505,523,521,439
537,509,529,537,468
549,517,537,527,507
551,514,535,534,503
544,518,532,538,508
532,518,504,518,533
525,513,499,521,522
507,510,504,521,545
501,506,504,517,527
493,507,509,511,578
465,498,500,497,601
508,503,512,503,541
516,504,504,497,514
520,504,516,503,482
513,493,504,499,471
519,499,512,501,472
528,503,518,507,492
538,505,517,513,499
542,511,521,519,485
534,511,517,522,476
536,515,517,530,494
533,516,517,529,493
526,514,521,524,502
518,511,510,517,525
507,503,492,509,525
498,499,461,495,526
490,497,473,485,519
496,501,512,507,502
506,506,541,514,503
505,506,542,512,527
507,505,528,528,532
504,498,487,517,515
503,502,529,505,506
512,511,545,515,509
510,506,526,518,545
521,511,520,515,560
524,513,502,525,488
530,514,522,526,471
536,518,521,535,490
521,509,512,535,486
507,509,515,536,513
502,505,506,537,547
500,507,531,515,536
495,502,536,511,538
500,503,526,507,511
511,502,494,487,457
516,502,477,503,433
499,492,496,508,456
489,488,495,504,525
518,504,510,495,539
521,508,524,514,521
514,506,526,519,542
524,516,528,522,511
528,517,529,524,519
529,518,519,526,514
523,517,521,525,527
512,510,507,528,530
511,508,506,535,531
505,510,508,532,534
501,504,494,506,526
484,497,490,491,520
497,504,516,506,522
505,509,516,497,529
509,508,519,507,525
507,502,513,502,492
511,509,526,499,487
508,504,525,502,506
515,503,529,506,525
528,506,517,528,513
533,504,508,535,492
530,511,519,525,483
519,513,516,531,509
514,517,516,518,543
494,512,520,520,553
489,509,517,516,583
478,504,512,512,554
484,504,502,509,524
464,497,488,505,534
469,497,507,503,505
512,501,511,503,468
529,504,516,504,473
524,497,513,501,496
514,498,515,500,530
513,505,517,505,558
541,510,522,515,535
542,519,524,520,516
541,522,527,527,504
522,517,521,526,503
543,518,521,532,477
526,515,513,527,497
506,510,509,523,528
501,505,501,514,522
504,504,501,516,496
501,506,505,518,503
509,508,511,520,469
504,508,516,517,487
501,508,518,497,512
524,505,516,494,534
541,505,518,503,525
521,498,511,498,492
528,497,510,498,493
543,504,516,509,508
548,510,520,519,519
538,513,526,524,505
536,519,526,533,483
532,515,515,523,498
525,511,511,519,503
515,508,507,513,532
504,502,500,513,540
506,503,504,516,519
489,502,503,509,521
480,503,502,507,506
489,501,511,510,498
495,502,515,513,498
499,502,514,496,503
501,503,518,503,531
501,504,519,505,534
525,505,521,512,511
542,509,524,519,492
555,515,523,527,482
543,517,515,525,506
529,516,509,529,520
518,515,508,525,531
507,509,499,513,526
499,497,510,514,518
489,500,507,514,537
493,502,505,512,519
510,502,502,509,503
519,506,509,511,504
514,504,514,508,491
510,502,518,505,502
505,496,517,500,508
509,502,517,503,527
521,507,510,504,497
524,515,512,507,513
533,513,528,508,523
536,514,536,514,509
526,511,512,529,513
520,514,524,552,526
516,510,518,544,539
516,515,502,533,521
503,505,497,525,521
494,502,496,512,543
497,509,494,489,553
494,505,505,487,535
504,506,516,503,518
515,512,519,508,495
513,504,519,502,486
512,500,543,504,506
525,497,549,507,495
527,504,552,514,494
524,501,478,511,499
526,511,499,531,510
529,516,525,541,501
518,518,527,540,526
512,516,522,536,544
502,509,515,526,563
507,508,514,518,533
503,501,502,504,517
490,500,502,508,504
499,504,490,513,496
511,506,493,506,456
512,506,503,504,484
503,503,510,511,526
497,501,521,501,533
504,505,524,511,543
512,506,523,517,542
518,508,518,520,525
522,509,514,507,507
531,515,523,512,502
532,510,522,522,486
532,517,522,531,501
525,513,513,523,498
516,509,510,522,517
501,506,506,517,528
490,504,503,517,537
485,504,508,511,524
478,505,511,508,553
451,501,511,498,568
455,503,515,499,569
473,500,515,500,510
485,496,511,506,476
530,504,519,514,433
542,505,519,513,447
560,505,517,509,508
565,511,519,517,514
566,516,514,522,514
551,514,512,525,522
540,512,506,524,532
534,510,501,519,519
522,505,509,524,506
510,503,516,520,504
502,499,508,514,501
499,503,509,510,520
504,506,511,508,529
495,503,511,500,558
497,506,519,508,527
490,502,519,505,538
496,504,521,508,524
513,504,523,503,524
512,505,524,517,500
513,504,520,520,496
551,511,522,525,457
552,516,525,527,442
539,515,524,534,463
520,514,519,527,546
511,513,517,527,556
505,513,508,528,528
499,507,504,515,530
503,505,504,511,522
510,502,502,507,485
512,503,507,506,498
520,503,505,503,501
523,505,511,501,514
516,495,509,500,505
515,502,514,501,520
526,502,518,503,503
527,504,524,511,506
526,505,529,524,494
523,509,527,527,506
531,512,522,524,501
538,515,520,527,498
529,514,516,527,515
522,509,514,520,517
513,507,504,511,514
502,506,497,505,516
502,502,505,505,514
509,508,508,502,507
504,503,518,503,520
500,502,508,500,523
504,504,528,502,506
501,496,502,505,498
514,502,519,502,511
519,503,532,517,519
520,504,529,522,516
530,507,512,522,511
529,513,507,524,510
527,515,520,523,509
526,517,523,526,507
512,508,511,521,528
509,512,505,524,532
506,506,500,534,539
499,503,498,521,532
495,503,499,512,501
498,503,501,496,496
507,504,504,496,506
508,502,504,503,509
512,505,521,509,506
511,504,522,501,509
511,504,528,508,517
507,504,537,515,519
520,509,526,513,515
524,510,511,525,507
526,512,519,525,508
531,515,522,528,518
524,516,523,532,529
518,511,511,529,530
510,508,501,527,518
506,506,506,521,507
492,505,496,507,505
491,502,502,493,533
492,504,508,493,536
499,503,514,500,512
504,504,516,502,519
509,501,513,505,507
512,501,513,499,505
516,503,519,504,520
514,502,518,508,527
512,506,521,516,522
512,511,524,524,498
510,511,523,531,489
505,518,520,532,489
499,511,513,525,514
508,509,510,524,516
504,504,502,516,523
489,502,499,507,525
506,501,499,507,517
518,503,504,505,501
520,503,507,505,502
507,504,516,509,503
501,498,518,504,497
495,500,513,501,512
519,509,522,506,519
528,509,522,510,507
532,511,523,515,500
521,515,527,522,500
516,513,525,529,509
507,512,521,530,513
514,514,519,530,514
532,507,514,526,515
527,510,508,526,519
517,505,501,514,525
508,499,503,508,520
507,508,509,508,515
497,504,509,506,512
491,503,509,504,507
498,505,515,505,505
493,499,519,504,515
510,503,517,503,518
537,505,519,507,512
530,505,520,511,509
521,505,521,520,496
520,508,522,522,504
519,514,526,528,514
532,513,520,529,517
536,514,518,529,526
522,513,512,525,527
490,507,505,519,533
486,505,501,512,525
496,504,500,509,511
481,502,503,505,521
484,504,511,505,509
510,506,511,505,501
518,506,519,506,494
502,503,515,504,498
486,500,514,502,504
505,505,517,506,509
540,509,526,515,507
542,510,523,518,506
531,517,529,527,506
525,515,519,530,510
554,517,520,531,502
559,515,514,526,512
538,509,510,524,520
532,507,502,515,516
519,505,500,510,518
515,505,504,509,517
512,506,505,505,512
513,504,508,504,508
520,507,515,506,503
521,506,515,505,503
518,505,515,502,507
520,507,517,504,507
523,503,518,508,506
525,507,521,514,511
530,511,524,520,507
529,518,527,527,511
526,514,521,527,512
522,517,522,530,514
515,512,513,524,519
508,509,509,522,521
499,504,501,513,526
497,503,501,511,524
505,503,503,501,518
505,501,507,506,512
504,502,509,504,512
508,504,515,505,504
512,504,519,506,504
508,501,516,504,509
517,505,521,508,510
517,505,526,512,508
520,510,526,516,511
527,510,524,524,511
528,513,524,525,509
531,515,522,527,513
524,515,519,526,519
515,511,512,522,523
504,505,504,516,525
497,501,500,511,524
498,503,503,514,520
501,502,505,517,514
502,503,510,514,509
504,506,514,511,506
508,503,516,511,505
508,503,516,505,507
513,502,519,505,509
518,504,521,503,509
518,506,522,509,509
523,505,528,513,509
529,514,525,521,512
529,513,522,529,508
528,517,522,532,512
519,512,514,525,515
509,508,509,515,522
503,505,503,515,528
498,506,505,514,527
497,501,502,510,519
498,503,505,507,517
501,502,508,504,508
508,506,515,505,508
509,505,516,503,506
507,501,514,500,510
511,502,517,505,513
512,503,518,502,511
515,505,520,507,514
522,512,527,511,514
525,516,528,522,515
526,514,523,526,521
519,515,520,529,521
513,510,511,522,516
513,507,508,521,516
501,503,501,511,522
498,506,504,507,521
501,502,506,505,515
507,506,511,501,507
510,502,510,502,508
509,508,515,502,506
510,506,516,501,507
509,501,516,504,511
519,503,521,507,511
518,507,522,511,508
525,507,522,515,506
525,512,525,521,510
527,513,525,528,513
525,517,528,531,517
515,510,517,527,520
505,508,510,522,525
504,505,505,518,522
495,501,500,512,520
493,503,501,508,516
499,504,504,506,515
501,506,509,504,510
506,504,511,503,507
518,506,516,506,502
524,505,516,508,505
520,503,517,504,506
521,503,519,508,507
525,506,521,513,505
531,510,524,519,513
530,517,528,525,509
527,514,523,527,511
528,514,521,529,513
521,512,514,526,516
513,508,509,517,523
498,503,503,513,525
489,502,503,509,525
502,504,504,509,515
505,504,507,506,508
500,502,509,504,508
504,505,514,507,507
506,502,518,501,508
505,502,516,500,511
508,501,517,503,514
510,504,520,508,514
517,503,522,515,513
529,507,522,525,511
520,511,525,527,513
518,513,522,530,515
516,515,521,531,517
520,510,514,523,519
507,508,509,517,517
496,503,503,512,519
497,506,501,509,514
506,503,505,508,509
514,502,506,502,513
530,504,510,501,521
527,507,517,504,518
519,505,518,504,509
514,502,516,506,511
520,505,522,509,497
523,506,523,513,501
524,512,524,518,507
528,511,524,526,509
531,519,530,533,509
531,514,522,530,514
528,512,517,531,515
520,513,516,525,519
508,507,509,517,524
502,502,500,510,521
501,501,502,506,519
502,502,503,501,513
506,504,509,497,513
503,502,509,499,507
509,504,514,501,505
511,503,515,498,508
512,502,517,500,511
518,505,522,505,513
521,506,523,512,512
523,508,526,514,510
527,513,525,523,512
526,515,525,527,516
525,514,521,525,519
518,513,516,525,519
512,508,510,521,521
502,500,505,517,526
496,498,503,516,524
498,502,502,509,518
501,502,501,511,512
502,501,511,506,510
505,505,515,506,506
508,506,514,506,506
510,504,514,507,508
510,505,519,503,509
516,505,519,508,517
520,507,522,513,518
524,508,523,515,512
530,516,528,521,513
527,513,522,521,520
525,517,522,529,522
515,510,513,521,520
510,512,512,515,521
504,504,502,503,531
497,507,502,493,527
496,502,501,491,521
500,507,506,500,512
502,502,507,497,507
509,504,513,502,503
510,504,518,510,500
508,502,518,509,504
516,502,518,508,508
517,505,520,512,511
521,509,522,517,512
527,512,525,525,512
530,515,525,531,511
527,516,521,530,516
521,513,515,527,518
514,510,510,524,519
504,501,500,518,527
497,505,504,515,526
496,504,500,510,524
495,502,503,506,519
504,504,508,506,514
498,504,512,505,506
504,503,517,506,506
503,507,520,509,508
511,501,516,505,507
515,502,519,509,509
513,505,522,514,513
525,509,523,519,510
530,514,525,526,513
536,513,522,528,511
534,516,521,529,509
526,513,516,530,517
515,509,511,526,522
503,503,502,515,526
499,502,499,511,525
499,503,503,508,521
502,503,507,505,517
503,503,508,503,510
506,504,513,504,507
510,505,518,505,507
508,502,515,502,508
511,502,518,504,504
516,505,520,508,509
520,506,521,513,512
525,510,525,521,512
530,512,524,524,513
532,515,523,530,514
529,515,519,530,514
521,512,513,525,518
506,506,507,520,523
494,502,500,513,527
488,503,502,507,521
489,500,501,505,517
493,503,507,501,516
499,501,508,502,517
511,501,511,506,511
521,507,517,499,513
523,503,515,500,511
522,504,519,504,511
520,503,519,511,511
525,507,520,516,513
534,514,524,522,507
532,511,521,528,506
532,515,521,530,511
525,515,516,533,516
517,512,512,527,520
506,505,504,522,525
501,503,501,515,530
492,499,504,509,522
491,504,502,504,518
493,503,506,504,510
496,503,509,508,501
497,505,515,503,498
504,504,517,503,503
513,507,516,504,508
521,502,517,506,515
518,506,520,515,511
523,511,524,521,510
531,514,525,526,508
525,514,522,527,512
513,515,520,527,512
508,515,513,521,519
499,508,507,514,524
506,506,500,514,527
521,501,501,519,520
530,508,508,514,512
526,507,506,510,508
519,505,511,505,505
519,505,514,506,504
519,506,517,509,505
519,504,518,502,508
523,504,520,502,508
523,506,521,504,508
528,507,521,509,513
527,511,523,515,512
532,514,524,522,512
532,512,519,525,512
528,512,517,532,523
520,511,512,524,517
512,507,506,523,517
503,503,501,519,516
498,501,500,509,515
498,502,502,508,509
500,502,505,506,508
498,501,507,502,510
506,504,514,505,513
506,503,516,503,521
501,499,513,497,532
513,505,516,501,522
517,504,519,510,502
527,509,522,518,493
525,513,525,525,500
536,515,523,528,504
533,516,521,530,510
528,514,517,529,516
518,511,510,529,514
510,505,503,519,519
500,503,500,511,520
499,503,501,509,517
500,504,504,505,512
503,502,506,503,505
505,505,508,507,505
510,504,517,503,502
510,503,515,502,504
513,501,515,501,507
514,504,518,506,507
519,506,522,513,508
523,509,522,519,510
526,512,526,523,512
528,514,522,529,521
528,521,525,534,521
520,513,514,528,521
513,508,509,525,523
499,507,501,516,521
493,502,499,510,522
494,502,498,511,519
498,502,507,505,511
499,501,505,503,506
506,505,513,505,504
512,504,515,504,502
510,502,515,503,506
514,502,518,506,510
517,504,518,511,510
521,506,519,518,516
526,511,525,522,511
522,509,524,527,509
521,513,520,528,514
520,515,518,531,507
512,511,509,526,513
503,508,505,528,517
499,508,501,515,522
503,504,500,507,525
503,503,501,505,511
504,502,504,505,508
504,502,508,505,510
506,507,517,503,503
513,505,516,504,505
516,501,515,503,512
518,505,519,507,509
524,508,522,509,513
525,510,522,514,515
529,511,522,521,507
529,514,523,528,510
527,518,524,535,513
519,513,515,526,518
508,511,510,525,521
497,509,506,519,526
493,505,500,513,524
491,504,498,509,519
494,502,502,504,514
501,503,506,503,510
511,504,510,502,505
514,505,515,503,503
511,503,516,502,505
510,502,515,501,511
528,503,517,504,513
529,507,520,515,516
530,511,523,519,513
533,513,526,525,513
532,514,523,530,514
528,517,523,533,515
522,513,515,529,520
514,508,507,524,516
503,503,500,515,521
500,502,498,510,522
498,506,502,506,524
500,504,504,505,515
503,503,506,504,510
508,510,513,505,503
510,505,519,504,503
510,503,517,502,507
510,503,515,505,509
513,504,518,505,512
516,506,520,512,513
523,511,525,521,512
529,513,523,526,512
523,516,521,529,519
522,516,521,527,516
516,510,510,530,521
513,503,509,522,522
505,503,501,514,526
497,501,498,508,524
493,501,501,505,524
502,505,505,502,523
510,504,509,496,520
505,506,515,501,519
508,508,518,501,522
512,504,517,501,514
508,505,523,504,505
515,505,521,508,499
510,505,518,516,503
526,512,524,525,499
538,517,525,531,505
536,519,524,535,508
528,514,518,532,507
525,513,513,527,518
518,505,503,519,523
508,503,500,510,529
507,503,501,507,519
503,503,505,509,506
508,506,511,507,503
508,504,509,502,499
511,504,515,503,500
513,507,522,503,504
512,498,520,501,507
516,503,518,504,507
521,506,521,509,506
525,510,523,517,508
530,513,524,523,512
531,515,524,530,513
526,515,519,529,513
516,511,514,531,518
510,510,510,525,522
501,504,502,519,525
494,503,502,510,522
495,502,501,506,517
506,502,505,504,512
504,504,509,501,511
502,503,512,503,503
508,503,513,503,504
503,502,516,502,512
503,503,519,504,512
515,504,521,510,510
524,508,523,514,513
529,511,525,521,510
531,515,526,528,513
525,511,521,532,521
530,517,519,531,516
521,512,513,527,517
515,507,507,522,523
496,503,501,514,528
502,504,501,510,519
506,504,504,507,514
506,503,507,505,509
502,505,512,502,509
511,506,516,504,504
514,506,518,504,504
513,503,517,503,508
515,506,522,506,513
515,506,522,512,515
516,508,524,516,516
518,506,525,524,513
519,514,526,528,516
516,514,521,530,510
510,513,518,530,517
511,510,511,525,521
514,503,504,517,528
511,503,500,511,525
510,502,503,508,517
511,505,505,507,514
509,503,508,505,508
516,503,511,503,502
521,505,516,504,499
517,503,517,503,505
513,501,516,505,507
514,501,518,505,509
522,506,521,511,509
523,510,525,519,513
530,512,523,523,510
537,515,523,527,513
533,516,521,530,517
522,513,514,526,520
518,514,514,523,521
507,504,501,519,526
504,502,498,508,522
499,502,502,506,519
503,503,506,506,513
504,502,507,500,511
507,505,514,503,510
511,505,518,505,508
510,501,521,503,511
511,502,517,504,515
512,504,520,508,513
517,505,520,512,513
520,509,523,519,512
527,514,524,527,510
526,513,520,528,510
525,514,523,529,512
519,512,515,527,519
519,510,509,523,521
507,504,504,514,523
498,501,500,508,518
499,502,502,506,514
503,503,510,504,508
503,501,509,503,506
510,506,516,504,509
511,504,517,503,511
506,501,514,499,514
513,497,514,507,522
517,504,520,510,514
521,507,521,513,503
527,515,528,529,500
528,514,525,530,501
526,513,520,534,503
522,513,517,530,511
517,512,513,527,515
503,506,503,520,522
499,501,497,516,519
505,504,502,511,515
502,501,502,507,510
503,503,511,505,505
505,502,514,504,505
514,504,516,504,504
512,503,516,506,501
510,502,516,501,512
518,503,519,507,508
519,503,518,513,508
523,508,522,516,506
529,513,525,525,511
529,511,520,528,513
528,521,525,531,517
519,513,515,528,520
514,508,508,524,521
500,503,500,515,525
491,501,498,510,523
498,503,502,509,516
495,502,504,501,511
496,502,507,503,514
504,508,513,505,503
517,504,515,500,502
512,507,522,504,507
507,501,518,502,507
519,503,519,507,508
521,505,520,513,513
528,511,523,520,511
526,514,524,526,513
523,513,521,529,518
518,513,518,525,517
512,510,511,524,517
516,507,505,519,521
499,503,501,515,530
492,501,500,508,530
499,501,501,505,520
506,503,502,506,513
502,501,508,503,507
501,501,512,503,499
499,502,514,503,499
503,501,516,504,509
523,503,519,507,505
531,504,520,511,502
526,505,520,514,512
539,514,525,524,511
538,514,524,531,509
533,516,523,533,512
525,513,517,526,524
515,512,513,527,522
504,505,503,519,528
494,502,499,511,523
487,501,500,507,521
491,498,507,506,515
505,501,505,503,509
508,504,506,503,512
528,506,516,505,505
524,506,516,508,504
519,503,516,502,505
529,504,519,508,509
530,506,522,513,514
529,510,524,519,516
524,511,523,525,516
531,516,524,530,512
527,515,520,530,510
517,516,514,527,517
514,509,509,523,519
499,499,496,514,524
508,503,499,510,526
513,504,503,508,524
508,507,504,505,517
503,503,506,502,515
510,504,512,506,500
512,504,514,506,501
514,504,516,507,506
516,503,517,503,507
517,504,518,507,507
522,507,521,515,506
527,512,524,521,507
530,517,524,526,512
527,514,520,529,513
527,514,521,531,517
518,512,512,526,521
505,508,506,520,525
492,502,499,513,524
488,501,499,509,522
489,505,502,507,520
493,502,507,505,515
492,501,509,500,515
504,501,513,502,515
525,506,516,503,507
517,504,515,506,503
523,505,519,507,500
528,509,522,511,504
528,509,522,517,509
527,511,523,522,510
529,514,524,528,509
529,516,522,532,508
521,513,516,528,511
515,511,512,525,514
502,503,500,523,524
503,503,502,513,522
503,502,499,511,519
497,503,504,507,513
501,502,505,504,513
503,504,513,504,513
504,504,515,504,504
503,503,516,502,507
515,503,517,504,510
518,504,519,511,510
517,507,519,510,513
527,508,523,519,508
537,513,525,526,512
533,513,522,528,512
532,517,521,531,516
521,513,514,527,521
514,509,509,523,525
502,504,501,514,529
495,502,500,509,527
497,502,498,507,518
497,502,504,505,511
500,502,507,506,511
503,503,513,505,504
510,504,516,505,497
507,502,516,503,502
508,503,517,503,506
511,503,521,513,510
518,508,522,516,512
525,512,520,522,508
532,516,526,530,507
527,515,521,530,511
526,516,518,531,516
515,514,515,527,521
521,511,509,522,522
508,508,504,512,524
499,502,498,511,518
497,503,500,508,515
502,503,505,502,516
498,503,508,501,514
504,504,519,505,509
502,502,516,503,510
501,502,517,504,509
510,504,519,505,505
525,507,522,512,501
525,507,521,521,512
527,513,525,523,513
530,515,524,527,516
529,515,520,529,520
532,515,519,530,514
521,513,515,527,515
509,506,504,517,524
503,502,500,510,523
496,502,501,507,521
496,504,504,505,515
507,500,507,504,507
514,505,512,503,508
512,503,515,502,502
510,503,517,505,506
507,504,516,501,507
511,502,520,505,508
516,506,522,510,512
522,509,524,519,506
527,514,525,523,511
535,516,525,527,511
534,515,521,530,514
519,512,514,526,520
509,508,509,521,524
496,502,500,514,528
492,500,498,506,519
495,502,502,508,504
498,502,505,506,498
507,503,508,504,491
524,506,514,505,485
522,505,516,504,490
513,503,517,503,514
509,501,518,503,528
515,503,519,507,519
519,507,519,516,521
524,511,523,520,521
529,514,526,527,524
537,515,523,529,524
531,517,522,532,525
519,511,512,525,524
514,508,507,520,528
502,502,500,512,525
494,501,499,507,518
494,501,503,506,515
499,507,509,505,515
502,503,511,501,519
506,500,518,502,515
511,499,517,505,507
514,504,520,501,504
512,507,519,506,508
518,506,522,510,509
522,509,522,522,504
523,511,520,524,506
532,515,526,530,507
525,514,521,530,509
519,515,517,527,521
522,513,514,526,516
513,508,506,521,523
502,505,502,514,523
499,504,503,510,518
498,503,506,508,514
497,502,507,503,508
500,501,510,499,509
503,502,514,501,504
512,503,516,503,503
515,501,517,502,508
519,504,521,507,511
529,508,522,511,512
526,510,524,518,512
528,514,525,525,511
529,515,524,530,512
528,514,520,531,510
519,513,515,529,519
515,509,510,520,520
502,505,501,515,525
499,500,498,510,521
495,500,497,506,518
492,502,505,506,516
498,504,508,508,511
504,504,513,502,510
504,503,516,507,503
506,503,520,504,508
505,502,519,506,511
520,503,519,506,510
536,509,523,516,513
533,511,521,521,511
535,513,524,529,516
530,514,521,528,516
527,515,519,530,520
520,513,514,527,525
514,512,508,523,522
501,505,504,513,527
496,503,501,512,529
495,502,502,506,522
499,502,506,503,510
501,500,512,505,500
506,504,515,505,499
511,504,516,503,502
514,505,517,501,506
522,505,519,505,506
523,507,522,509,508
524,510,526,515,508
527,512,523,524,508
531,515,525,530,511
525,513,519,529,515
525,515,517,530,519
512,510,511,526,519
500,504,502,518,526
492,501,499,511,524
498,498,505,509,519
501,503,505,505,515
498,505,506,503,508
499,502,509,502,506
508,502,520,504,504
508,505,517,503,504
506,504,517,504,508
510,508,522,508,512
527,508,522,513,512
528,511,524,520,510
540,517,526,529,513
535,517,524,530,513
528,515,520,530,516
520,513,515,528,525
518,515,514,526,523
505,505,502,517,529
501,503,500,512,523
501,505,501,507,514
506,505,505,508,509
503,502,506,503,508
512,506,515,506,505
513,505,516,504,502
510,504,518,504,508
513,503,518,509,513
521,504,522,509,516
521,506,522,515,516
525,511,524,521,515
528,516,524,527,508
525,512,520,530,510
523,513,518,530,518
517,512,514,526,525
506,509,509,522,528
500,506,502,516,522
497,503,501,510,520
495,498,506,510,514
497,502,506,505,505
499,503,508,507,506
508,504,514,503,505
515,503,517,503,506
514,503,518,504,510
517,502,523,508,512
523,506,523,512,514
523,508,522,515,519
525,511,524,523,514
525,513,524,529,515
525,515,522,532,518
521,512,517,529,520
512,509,511,524,522
499,503,502,521,525
493,504,503,511,522
498,502,501,509,519
507,503,505,507,515
505,503,507,504,509
498,500,508,500,508
516,505,514,508,510
518,503,516,503,512
513,501,516,503,509
517,505,523,506,508
522,506,522,513,511
527,509,524,519,502
533,512,524,523,506
528,512,521,529,506
526,514,520,530,511
520,512,514,529,520
518,510,510,525,519
503,504,501,519,526
499,501,501,510,522
499,502,502,508,515
502,502,504,504,508
501,503,507,505,508
508,506,515,503,505
508,504,516,501,504
505,502,516,501,506
510,503,518,503,511
515,504,520,508,513
514,505,520,513,514
520,506,525,524,513
531,514,526,529,508
527,513,521,533,513
518,515,518,529,516
509,512,512,525,522
505,509,508,519,528
495,505,502,511,533
492,502,501,508,528
501,503,502,506,514
516,504,507,505,505
514,508,511,504,506
516,504,515,503,503
516,504,517,501,508
513,503,518,501,512
519,504,515,508,514
520,505,521,514,509
519,506,522,516,504
524,514,526,524,506
522,512,523,528,509
522,514,520,531,514
520,513,515,530,517
509,511,512,528,522
513,503,499,522,526
510,504,500,516,524
511,505,503,509,520
503,504,505,506,517
504,503,506,503,513
508,503,511,504,506
521,507,518,506,497
517,505,518,504,502
516,502,519,506,507
520,503,519,505,509
525,506,522,512,511
529,511,525,519,511
528,515,525,524,509
530,515,521,533,513
529,518,522,532,516
520,512,514,526,518
517,509,509,523,521
499,502,500,515,530
494,496,498,508,526
501,503,503,507,514
503,503,504,504,508
504,503,508,509,492
511,506,514,510,489
512,505,521,506,491
509,503,517,500,510
507,505,521,503,520
508,504,520,508,518
518,506,520,512,512
522,510,524,522,516
526,514,525,528,515
533,514,521,530,515
527,520,523,535,529
517,512,511,531,535
513,509,509,522,531
506,503,502,515,527
498,504,499,513,521
496,501,502,506,511
495,501,505,505,508
498,502,512,503,506
504,503,513,501,500
506,505,517,506,503
509,502,516,503,504
515,503,518,506,509
527,507,522,515,509
532,508,522,517,509
529,511,523,525,512
529,514,524,528,514
531,516,522,531,518
521,514,514,529,522
517,511,509,526,528
503,505,500,519,531
505,504,500,513,524
503,503,501,508,513
502,507,505,507,512
503,503,507,503,510
506,504,512,503,508
511,504,515,503,505
511,503,517,502,502
511,501,516,501,507
514,503,520,506,510
518,505,521,511,512
523,508,520,522,509
528,514,526,525,510
527,512,522,527,514
523,516,522,531,515
512,511,514,527,517
505,510,512,524,520
496,503,502,515,526
492,502,501,510,530
494,503,503,507,524
509,504,506,505,514
508,503,509,503,516
507,504,515,507,508
512,503,517,503,507
510,503,519,501,509
510,504,520,504,510
526,505,523,507,511
526,507,521,513,510
527,510,523,521,509
528,514,524,526,510
521,514,521,531,520
518,513,519,528,515
514,512,513,526,519
509,508,512,522,523
508,502,500,513,524
507,501,497,509,520
508,504,503,510,513
505,503,508,507,509
503,502,510,502,515
510,504,514,504,508
512,505,518,506,514
509,504,518,506,514
516,503,515,504,512
520,506,522,509,513
521,508,522,516,511
527,512,523,527,513
530,512,521,529,515
535,519,525,531,522
524,512,514,532,525
518,512,513,528,520
506,505,503,519,523
499,501,500,515,516
495,502,501,508,517
502,502,505,507,514
505,502,507,503,506
503,502,511,501,507
509,506,517,505,502
510,504,518,508,503
515,503,518,503,505
514,502,518,507,509
516,505,521,513,511
520,511,524,519,514
521,508,522,529,509
522,514,524,530,516
523,514,520,530,517
523,513,515,528,521
524,511,517,526,522
505,502,502,519,529
503,502,501,509,522
506,502,502,506,513
503,503,505,504,514
504,502,509,503,508
508,506,512,502,504
511,505,517,500,507
513,504,518,503,509
511,503,518,508,511
518,503,520,507,512
518,507,521,518,511
521,511,525,522,509
529,512,524,528,506
526,512,521,529,512
517,513,518,530,515
517,511,513,526,516
510,507,506,524,521
497,501,500,510,529
492,500,499,507,527
502,502,501,505,517
513,504,506,505,514
510,503,507,503,513
513,506,516,504,511
511,500,521,503,509
515,502,515,503,506
514,507,519,507,506
519,506,521,512,504
521,507,522,517,508
525,511,523,522,509
528,513,522,533,513
518,513,519,530,514
519,512,515,528,518
509,512,513,528,525
496,505,503,518,527
490,502,499,512,522
492,501,500,509,515
502,503,503,505,512
509,503,506,502,502
514,502,508,501,495
525,505,518,506,488
523,506,517,504,490
519,504,519,504,495
521,504,519,508,495
520,505,521,513,517
523,508,522,518,527
534,512,524,526,522
532,513,522,529,528
528,514,520,531,531
517,511,512,525,528
514,511,511,526,518
503,507,505,514,525
497,501,499,510,526
499,502,501,507,515
503,503,505,506,510
507,502,507,502,507
509,503,512,508,506
510,505,517,506,505
509,502,516,501,508
513,504,519,503,511
517,505,520,508,513
520,505,519,512,514
528,511,524,521,512
529,512,523,526,510
526,512,521,528,513
525,514,518,529,514
517,515,512,526,520
509,509,505,526,525
501,507,506,513,527
495,506,500,508,518
496,504,500,504,515
499,502,506,504,513
502,503,511,503,511
507,505,515,504,510
508,503,516,502,506
506,502,516,498,506
514,505,522,505,501
516,505,520,510,504
518,507,521,516,509
523,512,524,524,509
537,513,523,527,506
531,514,520,531,511
522,512,514,533,519
511,506,510,529,524
501,504,503,517,537
492,498,499,509,535
495,500,500,507,513
492,500,502,504,506
498,507,511,504,504
510,503,510,502,502
523,505,515,504,496
519,503,517,501,503
515,502,517,501,507
516,506,522,504,509
524,504,520,510,509
525,506,519,520,510
531,513,525,526,506
535,514,522,528,506
528,514,519,530,509
518,511,513,526,516
516,510,512,526,513
499,505,501,514,523
494,501,499,509,524
494,502,503,508,528
494,504,505,507,517
502,502,508,499,510
509,503,508,507,502
507,503,516,505,503
512,503,517,505,505
513,503,519,505,507
517,504,520,509,510
521,505,521,513,513
526,508,521,523,514
527,513,524,525,515
527,514,522,529,520
521,512,517,527,521
515,512,514,527,526
513,509,508,521,526
500,501,500,512,524
504,502,499,508,517
502,503,502,507,515
503,506,506,505,510
503,502,509,501,509
505,504,515,503,505
510,509,518,504,507
510,504,519,505,509
513,504,521,506,514
520,506,523,511,515
525,507,523,516,514
532,512,525,523,514
528,517,525,527,519
533,514,520,529,515
527,514,517,529,515
523,511,513,526,517
508,505,504,513,527
499,503,501,512,528
496,501,501,508,522
496,500,502,504,514
499,502,508,503,509
503,502,510,502,506
507,504,514,498,507
501,502,515,501,506
505,502,516,502,510
513,503,519,502,513
514,508,520,509,516
527,511,524,517,517
538,512,523,522,517
538,513,522,528,514
533,515,520,532,510
526,513,515,524,520
516,512,512,524,524
511,504,502,515,529
511,506,501,509,523
505,505,499,505,516
507,506,509,505,510
502,501,507,502,506
512,504,514,504,506
508,507,516,503,506
512,504,516,504,507
513,503,518,503,509
514,503,520,508,512
515,505,521,511,509
518,509,523,522,505
517,512,523,526,511
517,512,520,529,518
511,512,516,528,520
515,513,514,526,526
510,509,508,521,522
518,505,500,514,518
510,504,501,510,519
511,504,504,508,518
502,503,502,504,510
502,501,509,503,511
507,504,514,504,505
506,503,516,503,504
508,503,517,508,511
527,504,520,507,511
527,506,522,513,515
527,509,523,519,515
528,515,524,524,507
531,513,523,529,501
529,515,521,531,507
523,513,516,530,516
517,511,512,527,515
507,504,503,518,522
498,502,500,511,522
500,504,503,509,519
500,503,503,505,514
502,507,507,503,509
503,502,514,502,509
511,506,513,504,506
511,503,516,501,505
508,507,516,502,504
508,502,518,506,504
515,505,520,512,506
522,507,523,520,512
528,515,523,530,517
527,513,521,529,517
527,513,518,531,518
520,513,514,529,519
511,512,511,528,516
497,502,501,515,525
492,501,497,507,521
493,501,501,506,512
503,502,504,505,506
506,502,507,504,509
507,505,511,508,506
511,504,516,508,505
513,505,518,503,509
513,506,520,505,504
509,502,517,507,504
510,505,519,512,514
530,511,524,524,514
525,514,524,527,509
521,514,520,529,517
517,518,519,531,516
511,512,512,527,519
530,510,508,523,524
516,504,500,512,531
509,503,504,509,527
504,505,501,505,518
506,502,506,505,508
507,504,510,505,501
513,508,517,504,499
512,502,519,503,504
515,503,516,501,507
518,503,518,504,513
527,505,521,514,520
527,507,521,516,515
531,510,523,523,509
532,514,523,529,505
530,515,520,531,512
525,511,519,533,520
516,514,514,525,519
509,504,501,517,525
494,502,499,511,523
500,502,501,508,516
498,504,505,507,509
499,503,507,504,505
501,502,510,502,504
511,505,516,504,503
505,506,517,502,506
505,503,519,502,506
522,502,519,506,508
522,504,519,512,511
524,508,523,518,510
525,513,525,526,513
536,515,524,531,515
531,514,519,530,514
520,516,518,528,521
512,509,510,525,516
502,502,500,514,522
497,502,498,508,523
494,501,501,506,514
497,503,505,504,512
505,503,509,503,511
510,501,514,502,503
516,504,516,502,501
512,502,517,502,502
513,503,520,504,507
517,506,521,511,509
520,506,521,514,509
520,510,524,521,510
525,513,524,526,513
524,515,520,532,518
520,516,521,528,515
512,512,514,526,525
505,511,510,523,525
495,503,500,512,525
496,504,501,509,522
500,503,504,506,518
499,504,509,504,511
508,502,508,501,508
516,503,515,503,503
515,503,514,502,505
512,501,516,501,507
510,501,518,503,512
519,503,520,509,511
522,502,521,515,510
519,509,521,525,517
520,512,520,527,518
520,518,522,530,520
527,517,519,531,524
518,512,513,527,515
506,505,504,518,520
495,503,500,512,520
494,501,500,507,516
500,502,503,503,507
495,501,507,502,505
493,501,510,501,502
496,504,513,500,502
505,503,515,502,506
519,505,519,503,506
529,505,521,509,512
540,507,522,515,510
541,509,523,521,509
539,513,525,526,511
535,518,527,531,516
533,514,521,535,517
525,512,513,527,513
520,514,511,525,520
508,503,501,514,525
501,501,499,508,522
498,505,502,506,514
501,505,505,505,504
501,501,507,501,498
504,502,510,505,502
507,503,514,504,505
507,503,518,501,511
514,505,519,505,514
514,503,521,509,516
520,508,522,515,512
526,511,523,525,515
524,512,523,526,512
531,513,520,530,515
527,514,518,531,516
517,511,515,530,522
509,509,509,528,524
495,502,500,514,525
492,503,498,508,521
493,501,501,509,515
505,503,507,505,511
506,503,510,507,512
513,506,518,504,512
516,505,518,503,515
511,503,517,501,517
511,502,518,504,517
515,503,520,510,511
526,508,523,516,500
527,511,523,523,495
531,512,523,528,499
523,515,521,531,508
519,512,515,526,512
515,510,512,528,509
501,504,503,519,528
494,500,499,510,527
495,502,501,506,526
495,504,504,505,518
496,504,509,503,512
506,505,508,507,506
513,506,517,506,500
510,503,517,504,503
513,503,518,503,502
510,503,518,505,505
515,507,522,512,511
522,511,524,520,517
529,513,524,524,514
531,513,522,527,515
524,515,522,530,510
521,513,515,529,515
519,511,511,525,517
505,505,503,517,523
499,500,498,508,520
500,498,502,505,517
506,500,505,505,510
503,502,510,502,507
507,504,513,504,504
510,506,517,507,507
510,504,518,503,503
513,506,520,503,509
517,509,524,508,509
520,506,521,513,513
525,505,523,524,511
526,513,524,527,509
526,513,520,529,513
525,515,518,531,517
519,515,517,528,523
513,509,509,528,528
500,504,500,514,532
496,501,500,508,526
494,503,501,509,516
497,504,506,502,505
501,502,509,500,506
503,502,514,502,503
508,504,517,501,501
513,504,518,502,502
515,503,519,506,504
520,506,523,512,508
521,508,522,516,510
523,513,528,523,515
524,508,520,524,518
522,513,519,530,517
520,512,515,530,518
508,510,511,526,523
500,505,502,517,528
501,503,499,511,523
496,503,501,507,519
494,506,504,503,515
500,502,506,502,508
497,505,509,500,506
502,505,517,501,502
515,502,515,500,504
518,502,521,502,505
517,502,517,506,513
516,505,524,511,513
523,512,526,520,512
530,511,523,527,516
524,507,520,527,516
529,515,519,532,514
516,512,513,525,517
522,512,512,526,522
501,504,502,516,529
493,501,499,508,529
504,500,507,506,522
509,505,506,504,512
513,504,508,501,505
527,505,514,502,506
524,507,518,503,506
523,505,518,502,507
523,503,518,502,511
522,505,524,507,513
525,509,523,513,516
529,510,523,520,513
532,516,528,531,514
527,513,519,532,513
526,512,517,531,514
520,513,513,527,516
513,511,510,524,523
500,505,501,519,527
496,502,500,509,523
496,502,502,506,518
500,503,507,503,514
504,503,509,503,507
508,506,520,506,505
508,505,515,504,508
508,503,518,500,513
512,503,519,506,509
518,504,520,511,505
518,503,517,516,507
522,510,524,524,513
526,514,523,528,514
518,513,519,529,518
524,513,516,529,522
521,511,513,527,522
504,504,503,521,528
497,501,499,510,523
498,501,502,512,513
499,502,504,505,509
501,502,507,503,502
504,501,514,502,502
511,505,516,503,500
514,504,518,504,502
512,504,521,505,506
516,506,520,507,509
519,510,523,515,510
523,509,523,520,508
526,514,527,530,507
526,513,522,529,512
525,516,520,532,514
517,510,513,529,516
510,511,512,527,522
496,502,500,514,530
497,505,503,511,525
500,502,502,507,518
501,503,505,504,512
502,502,507,502,515
506,502,515,501,508
509,504,515,501,507
511,498,519,500,509
513,502,518,502,511
515,504,523,510,514
517,507,522,514,516
526,510,523,520,506
526,513,524,527,510
522,513,520,529,517
516,514,517,532,518
513,513,513,529,517
513,508,509,524,518
497,503,501,513,525
497,502,500,509,520
502,502,502,506,514
504,505,506,504,512
504,504,512,504,507
510,506,516,506,500
510,504,519,505,507
509,504,521,503,510
510,503,517,506,513
516,505,520,508,512
521,509,523,516,513
523,511,523,522,510
531,515,524,529,516
531,515,519,530,519
526,514,517,531,523
518,512,510,529,526
508,507,507,518,530
500,504,501,512,530
497,503,503,509,525
496,503,503,504,513
494,506,509,504,504
498,503,512,503,503
504,506,517,504,503
505,505,519,502,503
509,505,520,503,505
514,505,521,506,515
528,504,520,514,515
534,511,526,521,514
530,513,526,528,513
522,513,522,530,517
519,511,516,533,521
521,512,514,527,523
506,510,511,524,523
497,505,503,516,530
488,499,495,507,529
496,500,501,506,523
503,502,506,503,518
515,503,507,501,517
519,503,512,502,511
517,503,516,503,505
512,503,517,503,503
524,507,524,507,506
530,507,522,507,517
527,505,520,510,517
532,509,521,518,519
530,513,524,527,513
535,514,521,530,515
537,516,520,534,515
526,517,514,529,516
517,509,508,525,519
504,504,500,516,518
503,502,500,509,508
497,500,501,506,508
505,502,508,508,509
508,503,510,503,505
514,504,514,502,506
512,504,517,501,502
513,503,518,502,503
513,503,519,505,504
516,504,520,509,506
523,507,522,517,509
523,511,524,523,510
525,516,526,535,517
525,514,520,529,516
529,512,515,528,519
514,515,515,526,523
509,504,501,517,525
501,502,498,511,523
493,501,500,508,515
499,503,502,505,509
503,503,508,507,506
503,502,511,505,505
518,506,516,506,504
514,504,516,502,510
516,503,518,502,514
515,504,518,504,516
520,510,523,515,518
521,506,522,518,513
527,513,524,526,514
525,513,520,528,513
523,515,519,530,517
522,514,515,529,521
514,511,511,525,523
502,505,501,514,528
497,500,498,509,530
497,501,501,507,518
502,503,506,506,513
502,497,511,502,505
506,501,512,501,509
510,503,517,503,501
511,502,516,500,503
507,500,519,503,508
515,507,523,506,508
518,508,522,517,510
522,510,523,520,510
525,513,525,525,511
521,511,519,527,513
520,514,517,528,521
513,511,511,524,523
514,509,508,522,523
503,505,501,513,525
496,502,499,505,527
507,504,503,505,518
507,503,506,504,508
507,501,507,501,508
509,504,513,503,505
510,504,516,502,506
507,503,517,502,509
512,502,519,503,508
517,504,523,510,507
519,509,526,521,512
521,514,527,523,510
524,514,523,532,514
519,511,516,529,522
511,512,514,528,519
513,511,512,527,518
515,511,506,520,524
500,503,500,512,524
493,502,501,508,520
495,501,502,500,515
495,501,506,502,511
496,501,506,500,503
514,504,515,503,505
525,507,519,501,507
522,507,519,504,507
520,502,524,507,508
523,505,521,511,513
525,508,523,519,509
530,513,525,526,509
530,513,522,528,507
533,513,517,530,507
522,513,514,528,515
514,510,509,524,523
499,501,499,516,537
495,502,499,508,540
496,502,501,506,531
497,501,503,504,514
494,500,507,503,496
494,501,511,504,494
505,503,516,503,506
509,502,517,507,508
508,503,519,507,497
510,504,520,508,505
510,505,523,513,511
525,511,523,521,510
535,516,525,529,508
528,515,520,530,509
529,515,517,529,511
523,516,518,528,517
519,509,508,523,518
513,503,500,514,519
511,504,500,510,516
506,501,500,505,507
509,503,505,504,506
512,500,509,507,505
514,504,514,501,504
514,504,516,502,498
513,505,522,504,502
515,504,520,506,500
518,506,521,513,496
522,511,525,520,502
526,511,525,524,506
529,515,525,529,512
527,513,519,530,513
520,513,515,528,519
513,515,516,527,529
497,501,501,520,535
497,505,501,512,527
500,505,501,508,519
497,503,503,505,515
499,501,505,500,508
503,502,510,500,509
509,502,516,503,507
514,503,518,503,507
512,504,518,503,507
511,503,520,507,509
515,505,521,513,514
519,510,528,520,514
533,513,524,526,511
531,513,522,528,514
524,513,519,531,515
524,513,514,528,522
519,512,511,528,524
504,504,502,516,532
496,501,496,508,527
496,502,501,507,521
499,501,505,506,511
500,501,509,503,508
503,501,512,501,507
507,503,517,503,506
515,502,518,503,504
520,503,519,502,506
518,503,520,508,507
521,506,522,517,514
521,510,524,521,514
524,514,526,529,515
524,514,523,530,519
519,517,518,530,520
510,510,513,526,524
523,508,511,523,523
508,504,502,515,526
500,501,501,509,521
498,500,501,504,520
501,501,508,505,513
504,500,510,501,510
511,503,514,505,507
517,503,517,502,505
506,502,518,502,505
514,502,520,505,506
517,505,523,512,505
522,508,524,518,511
523,510,524,523,510
527,512,524,529,514
526,516,521,532,516
517,513,516,528,520
510,512,513,527,526
497,504,504,518,529
490,503,501,512,526
492,503,505,511,517
493,502,504,505,507
511,502,508,505,503
516,506,516,504,507
519,505,516,504,506
512,505,519,503,507
515,506,520,504,513
519,504,521,506,520
522,506,521,512,518
524,512,525,520,521
528,512,524,525,511
531,512,522,529,502
526,515,521,531,505
519,512,515,528,513
518,508,509,525,514
504,505,505,515,527
507,503,501,511,525
507,502,504,510,517
506,504,507,507,513
502,504,509,504,511
505,504,514,504,505
508,505,517,505,500
513,503,519,506,505
513,503,518,510,505
515,502,519,508,508
519,505,521,515,510
524,509,522,521,512
525,516,524,528,509
523,514,521,528,517
524,514,517,529,525
515,513,513,532,528
507,508,506,522,534
499,504,501,515,531
499,505,505,509,523
496,503,502,506,518
499,504,508,506,510
499,502,509,503,510
498,502,514,502,510
501,505,520,501,508
508,506,516,502,504
510,501,522,505,505
520,507,523,512,505
523,507,522,514,507
531,514,526,525,508
544,518,527,533,508
540,517,522,532,513
529,515,517,531,515
519,511,512,525,517
507,506,506,518,524
499,503,500,513,524
500,504,504,509,518
499,503,505,507,514
501,502,511,504,509
511,502,510,502,501
511,506,520,504,500
516,506,517,506,508
519,505,519,503,506
519,504,519,506,508
526,507,521,513,513
526,509,522,517,511
528,514,524,525,513
527,514,522,528,515
523,516,520,530,515
517,508,511,532,517
511,515,514,526,520
498,503,501,514,525
494,501,498,507,521
493,502,500,509,516
504,504,505,504,510
506,501,507,502,508
508,502,512,501,507
506,501,515,503,504
509,506,516,501,505
512,503,519,504,500
517,504,520,507,507
520,508,523,515,514
534,511,524,521,513
533,513,524,527,518
531,513,521,530,518
524,515,516,533,512
521,512,515,527,520
513,507,508,523,518
499,501,500,511,521
498,505,501,508,522
501,502,504,503,521
499,503,507,506,509
499,502,510,502,503
504,506,514,502,503
506,501,519,500,506
506,503,518,500,508
510,503,518,504,510
516,506,521,509,511
521,507,522,515,512
528,512,524,523,512
524,515,524,529,510
522,512,518,528,511
528,513,513,533,519
528,515,516,529,517
511,505,502,517,524
501,506,497,515,524
500,502,502,507,521
500,502,506,504,524
502,503,508,503,519
504,503,515,502,513
510,504,515,502,503
515,503,516,502,501
516,504,519,503,504
515,505,524,506,510
516,505,521,512,515
518,509,523,519,510
524,512,525,527,512
521,510,519,532,513
513,510,518,530,517
507,515,513,530,526
513,511,510,526,518
513,507,505,517,523
503,502,499,510,526
496,502,502,508,520
506,504,508,506,513
510,503,509,503,504
513,504,509,506,502
516,504,518,504,503
514,504,517,508,509
512,502,520,503,511
515,503,518,505,516
527,508,523,515,514
527,511,525,520,515
527,510,525,529,514
524,512,521,530,517
515,512,515,529,517
521,513,513,529,517
515,512,512,524,520
501,503,500,517,530
495,501,500,507,527
495,501,501,500,523
501,503,506,503,508
503,502,509,502,500
499,501,512,501,507
499,502,513,506,507
507,501,516,502,508
520,503,519,506,510
528,507,521,509,515
536,510,522,516,518
536,512,526,524,519
534,516,525,529,525
531,515,519,530,520
525,515,516,530,515
517,510,511,531,512
506,506,502,519,517
498,502,499,512,519
499,504,502,509,518
502,505,506,506,514
503,507,507,504,510
505,503,511,502,503
510,505,515,506,499
512,504,518,503,503
516,504,519,504,507
518,504,520,507,510
520,507,522,513,508
523,510,523,520,508
529,514,524,526,514
525,515,522,530,518
520,513,517,529,518
514,512,513,526,521
512,510,509,523,517
505,504,502,514,524
497,503,500,510,525
505,504,503,507,518
507,505,506,506,513
504,504,509,503,511
500,502,511,501,513
501,503,515,502,506
504,503,517,502,512
506,502,518,502,514
508,503,519,507,516
513,506,522,513,516
533,511,524,522,512
546,515,526,528,513
536,514,522,531,513
531,513,517,529,511
516,511,512,526,519
511,509,509,521,522
503,504,502,513,526
505,504,502,510,519
505,502,504,506,514
507,506,509,503,508
509,502,509,498,505
506,502,511,505,505
508,507,521,501,505
507,504,518,504,508
512,505,521,507,509
514,505,523,512,512
528,506,521,521,511
534,513,526,524,513
530,514,525,527,518
525,513,519,527,517
524,514,516,527,513
516,512,513,525,516
507,505,503,516,525
498,502,501,511,524
496,503,503,508,518
497,503,506,506,512
502,505,512,503,506
504,503,512,503,502
507,507,517,504,501
508,503,518,504,505
508,503,518,504,507
509,502,519,506,512
514,509,520,513,514
520,509,524,520,514
526,512,525,526,519
519,512,522,529,524
525,512,518,529,526
524,514,514,531,521
511,509,510,525,517
496,502,499,515,516
493,501,501,511,519
495,505,502,509,512
495,502,505,505,507
512,502,507,502,503
515,503,512,498,507
511,503,515,503,501
509,503,517,502,502
507,502,518,504,507
521,508,522,508,508
523,507,521,512,513
528,511,523,522,517
535,518,527,528,510
534,514,522,531,510
522,516,520,529,508
515,513,513,532,513
505,513,512,524,518
493,505,500,512,521
498,502,501,509,518
499,505,502,505,515
502,503,507,500,515
502,503,511,503,515
500,502,513,503,517
520,503,516,500,509
521,504,519,503,507
519,504,520,506,509
520,506,521,510,505
522,509,523,518,497
533,510,523,524,507
532,514,523,526,514
527,516,523,530,520
522,513,516,529,520
518,513,515,526,519
501,505,503,517,525
500,503,499,512,522
499,501,501,509,513
498,501,503,504,509
500,502,508,503,506
506,504,512,502,505
514,506,518,504,507
512,505,519,504,506
511,506,521,505,508
514,504,522,510,514
518,505,521,510,514
526,510,525,520,516
529,514,526,526,513
526,513,522,529,517
519,513,517,528,515
515,514,516,530,510
506,510,511,524,516
494,505,501,513,521
490,502,500,508,528
490,502,503,503,523
497,504,508,503,520
507,503,508,501,514
515,505,514,502,513
516,505,516,501,509
518,504,516,501,508
515,502,520,507,504
517,505,521,509,506
521,507,521,514,509
536,511,523,522,510
538,514,524,527,510
531,514,520,530,515
523,513,516,528,521
517,513,513,526,528
509,508,507,520,528
501,503,500,513,533
495,500,503,513,525
496,505,502,506,511
507,505,508,506,497
509,503,511,507,503
513,502,514,502,500
512,504,518,503,500
512,503,517,501,507
513,503,519,505,506
517,505,520,509,508
521,508,521,517,509
529,512,522,523,507
528,515,524,528,517
524,514,518,528,519
521,513,515,529,522
513,512,512,526,523
505,504,501,516,526
498,502,495,512,518
498,505,503,507,510
500,497,503,508,506
502,503,507,503,505
511,503,511,502,507
508,503,514,501,508
511,503,518,503,508
505,504,519,503,510
508,502,520,503,514
509,503,519,510,510
521,511,524,520,515
524,515,526,527,515
523,513,522,529,518
529,514,518,529,521
520,512,514,528,524
513,508,511,525,523
497,502,500,516,523
502,502,499,511,516
510,502,501,507,514
508,502,505,505,509
505,503,507,506,509
509,504,514,503,509
512,504,517,504,508
512,504,521,505,511
513,502,519,504,513
516,502,519,506,516
520,509,524,513,518
523,510,524,518,511
536,513,523,526,506
533,513,520,530,510
527,513,517,529,517
522,513,513,528,519
509,508,506,522,519
502,502,500,513,522
500,503,501,510,520
500,505,505,506,515
503,507,506,504,509
504,499,510,505,506
507,500,513,502,505
509,503,516,503,505
507,502,516,504,510
507,501,518,505,512
515,508,525,514,510
519,510,524,518,513
519,509,523,523,510
520,514,523,529,514
524,515,521,532,516
522,513,516,532,519
512,510,511,525,522
506,505,505,516,526
500,501,497,509,530
502,505,504,507,519
502,501,503,505,518
501,504,506,503,510
506,501,509,501,508
513,502,513,502,504
527,503,513,506,503
529,506,520,505,507
523,503,519,506,510
518,503,519,510,514
521,514,526,519,513
523,513,524,526,512
523,514,523,530,514
522,512,517,530,520
510,510,512,527,522
526,512,511,525,521
518,506,502,517,529
505,504,500,509,530
504,503,503,507,525
507,503,507,505,518
510,501,507,502,512
507,499,512,503,505
511,502,515,505,499
513,502,517,504,500
516,503,518,505,510
519,504,519,507,512
523,507,522,514,511
523,509,522,520,508
530,513,524,527,510
533,514,521,529,519
523,512,516,525,526
516,510,512,526,522
510,507,506,518,524
502,501,499,515,515
495,501,498,509,518
497,501,502,507,513
499,502,505,509,509
501,503,511,503,510
508,502,513,504,505
509,500,518,503,507
510,502,517,502,508
511,501,518,505,509
517,503,519,508,513
528,509,525,518,509
530,511,523,525,507
530,514,524,530,511
526,512,517,530,511
524,514,516,531,516
516,509,510,526,516
503,506,501,518,525
496,504,502,517,526
497,502,501,508,525
498,502,504,506,515
496,501,506,504,508
495,501,510,502,510
508,504,515,502,503
506,501,514,504,505
513,503,518,506,505
518,507,519,508,512
522,507,522,513,514
526,509,522,517,513
528,512,524,524,515
528,511,521,529,517
530,512,516,528,521
527,510,512,528,523
518,510,510,526,517
506,502,500,516,522
503,501,498,508,522
499,501,501,510,518
502,505,502,509,511
502,501,507,501,510
502,501,511,502,505
508,503,516,503,506
509,503,517,503,508
511,501,519,505,512
516,507,522,511,513
520,509,521,518,518
525,509,522,521,514
528,515,526,532,516
527,512,519,529,518
530,512,515,529,520
518,508,510,527,514
507,506,504,524,516
499,505,501,512,517
497,505,500,507,517
505,501,502,505,514
503,504,507,501,513
507,505,511,504,505
512,503,514,504,503
511,504,517,503,505
505,503,518,503,506
507,498,519,506,509
515,503,519,511,513
517,507,522,516,515
516,510,523,524,516
529,514,523,530,516
535,515,520,531,518
532,514,517,532,520
526,510,511,525,516
511,505,503,518,519
504,503,503,512,522
506,503,502,507,517
501,502,503,505,511
503,502,507,504,506
507,503,511,503,502
509,502,514,503,509
511,504,518,504,504
512,503,520,504,506
513,509,527,509,505
515,506,526,514,506
524,512,530,523,498
528,515,529,528,506
526,515,519,532,520
528,514,512,529,526
518,511,511,527,521
514,511,510,526,520
501,502,499,515,520
498,500,497,507,521
497,501,500,510,509
500,503,506,508,493
508,503,509,505,491
519,503,512,504,492
518,503,514,503,491
517,504,517,505,496
519,508,522,507,508
520,505,521,511,521
522,509,524,517,535
523,513,524,523,536
526,515,524,528,530
524,516,526,531,533
520,514,523,530,533
517,518,524,532,520
513,509,514,524,507
507,505,501,521,498
507,502,495,511,484
500,502,495,504,501
504,503,504,504,479
511,501,509,502,468
514,504,513,507,482
512,504,514,503,509
514,502,511,503,502
513,503,515,505,529
518,503,518,511,519
523,507,520,516,521
529,511,522,523,520
530,512,520,527,518
527,513,517,527,530
518,509,512,527,525
515,511,510,526,522
506,505,502,518,524
499,502,499,510,526
497,499,501,509,518
499,501,503,504,516
504,502,506,503,509
504,503,512,503,510
507,501,513,501,508
511,503,517,504,507
512,504,522,509,512
518,505,523,510,515
522,506,523,513,515
526,510,525,521,516
528,513,525,526,512
529,515,529,530,519
524,515,530,528,520
520,514,528,527,519
514,510,525,523,516
504,505,508,514,516
497,498,485,505,518
497,504,482,500,511
502,503,507,507,503
504,502,514,510,501
507,503,519,506,507
509,503,521,503,506
518,503,516,501,502
519,504,515,509,511
522,506,514,510,511
521,511,521,518,516
524,510,521,521,512
530,515,523,527,512
529,515,522,533,509
519,508,513,527,519
516,511,512,527,526
507,506,502,521,528
499,503,500,512,533
496,506,504,510,524
497,501,502,505,517
502,502,506,503,512
500,502,509,502,508
506,503,509,502,509
510,503,515,502,509
515,503,518,504,512
515,504,520,507,514
518,506,522,512,511
519,506,522,517,508
526,511,524,525,511
528,516,523,531,515
524,515,519,527,523
519,512,512,527,524
519,512,510,526,530
503,504,500,517,536
499,505,504,510,538
502,505,507,509,524
499,502,505,503,522
505,503,509,501,512
509,503,513,500,496
510,500,514,499,486
516,503,513,504,481
516,504,519,512,495
516,503,516,513,506
511,502,520,512,516
515,511,531,521,516
523,514,532,530,503
523,514,531,533,507
519,515,527,531,525
518,512,511,527,529
518,512,501,523,532
503,505,492,512,529
504,501,495,508,525
500,501,498,506,524
504,502,503,510,509
507,508,508,506,497
514,505,513,505,496
512,506,516,503,498
519,504,517,504,496
516,504,519,505,499
523,504,520,510,499
526,506,520,516,489
534,511,522,524,484
534,514,523,528,512
527,515,519,531,530
521,509,512,528,536
517,510,507,529,528
510,508,506,523,524
495,499,500,515,525
487,501,499,511,537
477,498,500,502,539
486,500,508,503,525
497,502,508,500,512
500,500,511,495,519
514,502,513,500,509
518,505,515,503,493
527,509,523,513,493
529,508,523,513,487
529,510,523,519,482
533,513,524,523,477
530,517,525,531,504
518,521,523,532,545
500,516,520,531,549
502,519,521,533,542
491,508,507,520,562
496,506,504,519,539
496,502,501,506,490
504,500,498,504,465
516,500,501,504,471
523,502,509,506,470
522,505,512,506,489
525,503,515,508,501
527,504,526,515,518
529,508,554,527,508
531,509,553,532,515
530,510,551,530,526
528,512,539,524,552
525,509,481,505,554
526,513,510,511,533
514,507,498,511,518
512,502,487,517,480
507,503,488,508,482
499,503,485,509,486
492,500,498,501,538
499,507,506,501,525
497,507,510,498,517
506,504,515,509,507
505,502,514,513,503
513,506,522,508,487
516,508,529,507,517
524,501,527,501,522
531,510,529,499,491
530,513,517,510,495
536,519,526,519,476
545,516,488,525,476
531,512,494,525,502
517,507,526,536,503
515,505,535,544,521
510,502,512,534,525
501,505,516,523,497
503,505,493,501,459
505,504,500,487,481
507,507,512,507,483
501,503,502,512,514
509,504,517,507,501
507,505,512,510,503
522,512,522,523,493
521,506,522,517,516
531,505,521,515,462
532,509,531,522,458
532,512,535,533,490
521,512,531,530,563
510,509,507,529,568
507,508,498,523,551
496,502,503,511,535
499,504,506,519,500
494,504,507,533,538
485,504,510,530,514
514,506,483,519,463
522,509,519,517,486
511,498,506,489,553
493,497,494,478,593
499,504,529,487,602
498,501,540,494,608
505,503,546,496,612
534,512,550,516,525
541,517,520,531,478
533,524,540,542,474
529,525,539,543,458
518,519,519,534,472
492,512,493,517,548
473,501,470,492,547
481,495,471,490,506
496,504,489,495,507
506,505,502,493,505
506,497,519,508,469
518,494,514,512,456
520,495,506,498,489
538,501,516,510,480
528,502,510,523,532
514,497,516,504,592
528,512,521,504,549
518,512,525,527,581
505,513,521,528,586
523,518,523,525,513
526,510,523,526,497
527,504,514,523,482
522,507,516,521,489
512,497,479,512,488
507,501,493,508,511
502,503,498,495,540
501,503,498,493,518
508,504,503,498,473
513,500,522,506,442
512,500,538,512,446
489,503,518,501,552
493,509,514,514,558
505,518,522,524,538
510,511,530,532,531
519,507,532,533,539
526,510,547,533,567
530,516,542,536,554
526,507,521,529,510
531,500,481,523,507
536,506,492,514,471
521,505,495,506,519
501,501,497,503,549
499,504,502,504,535
502,501,499,500,505
512,507,509,499,482
517,503,510,500,492
501,500,508,507,509
490,499,505,528,516
516,508,521,524,521
529,511,516,495,506
526,509,518,514,523
521,511,527,525,525
522,512,524,536,514
519,515,518,543,532
523,519,525,536,518
517,516,523,545,482
509,508,510,533,469
506,502,506,518,459
502,506,511,501,506
496,498,508,485,518
520,503,504,495,491
506,498,497,503,475
487,495,512,508,558
509,518,544,500,572
508,509,544,500,564
509,504,535,510,523
517,500,483,504,534
527,509,508,506,500
540,512,515,519,488
534,513,510,523,490
531,511,507,528,481
512,515,512,536,526
508,513,512,519,522
492,507,507,520,530
488,504,502,518,506
496,504,501,510,492
493,501,506,507,473
497,504,504,496,513
514,506,511,489,523
511,505,524,486,525
510,499,521,495,496
526,506,513,503,485
527,505,530,529,528
516,506,551,538,538
521,513,560,550,514
529,512,525,559,534
514,510,513,546,539
509,509,482,522,512
523,510,495,522,460
514,503,485,526,482
484,498,492,519,511
486,502,504,510,461
472,495,497,503,514
469,495,503,495,529
462,491,502,489,529
480,488,507,491,524
503,497,504,488,532
550,511,519,496,509
566,516,532,510,504
551,516,534,517,514
550,517,531,527,521
549,517,525,532,520
546,517,521,538,525
536,512,525,542,512
525,517,520,540,510
512,512,517,540,515
493,508,508,524,504
495,502,499,509,494
504,501,492,507,513
494,501,486,495,510
512,501,501,498,474
531,505,521,504,442
525,503,513,490,461
504,502,512,490,527
493,501,518,501,560
498,501,515,500,547
516,512,522,508,507
523,510,528,531,511
522,519,530,533,512
529,514,517,536,518
527,512,512,536,532
532,513,511,534,559
520,517,516,537,560
512,507,502,519,531
513,506,504,515,524
517,503,506,505,511
516,504,511,502,505
515,504,515,497,500
520,507,520,502,499
515,500,512,492,522
514,501,513,494,525
516,502,512,511,516
512,503,516,524,513
514,513,540,527,532
528,516,543,538,528
532,521,545,565,564
529,519,528,541,529
531,509,499,511,492
534,508,488,521,446
512,504,495,523,478
509,508,512,519,486
515,510,542,514,509
497,499,530,504,482
479,494,528,498,498
487,492,461,489,500
504,500,485,501,506
507,503,519,510,506
515,504,524,500,494
518,503,527,494,486
514,505,517,504,519
519,512,509,520,548
529,519,519,515,520
521,517,512,534,505
498,513,502,539,500
505,507,492,526,508
505,507,485,513,540
498,505,504,503,509
497,503,519,513,505
495,507,517,507,494
484,503,510,515,533
492,495,507,515,518
502,505,516,510,518
508,499,510,506,500
519,507,520,505,506
525,504,518,495,493
522,505,521,506,537
529,507,521,508,528
524,507,516,508,526
536,514,519,529,510
546,517,519,539,485
541,511,515,537,475
529,512,515,538,481
496,502,506,531,532
485,502,510,534,551
492,505,515,529,517
485,498,505,507,510
490,496,494,488,515
494,500,520,500,491
497,500,509,498,477
497,501,503,496,530
521,503,512,503,537
538,509,518,503,493
533,506,523,516,488
526,512,535,531,487
518,510,528,530,497
509,511,517,526,531
501,517,528,540,559
510,513,512,530,550
520,509,507,524,538
503,503,503,520,541
497,501,500,516,527
500,500,507,518,529
516,503,505,498,528
513,505,498,495,517
524,512,512,504,478
511,506,515,501,455
509,504,519,497,486
523,502,523,499,465
526,500,529,503,477
517,499,528,509,509
523,504,532,531,524
548,513,533,533,521
535,516,523,551,533
526,512,514,526,526
522,513,486,511,534
513,516,509,516,525
504,507,495,514,534
494,507,493,512,534
487,503,500,507,529
499,502,506,494,523
507,500,508,485,508
503,499,508,473,508
508,497,512,479,498
522,501,518,519,488
528,507,527,523,505
515,504,517,512,504
513,504,514,519,487
521,513,524,525,466
519,513,528,543,484
529,519,521,540,477
511,512,507,531,546
506,515,498,526,562
498,510,490,518,559
479,504,514,515,561
464,499,538,533,563
471,502,539,501,517
480,500,507,486,496
492,501,476,491,473
496,498,505,499,487
501,499,515,497,514
500,498,515,498,524
501,498,514,500,519
524,509,522,512,507
534,513,522,521,513
538,518,523,526,518
554,519,524,527,517
542,521,523,532,524
525,515,515,530,541
518,513,509,528,526
525,507,500,522,520
521,504,508,518,519
506,506,504,510,523
500,509,510,508,505
493,506,515,505,496
498,505,516,499,519
495,502,516,499,515
503,498,513,499,455
509,497,513,499,444
517,500,515,509,421
522,502,514,508,507
534,509,522,516,561
544,514,526,526,599
542,515,523,533,558
524,513,517,538,550
526,518,519,543,510
519,514,505,529,505
504,506,502,521,523
485,497,504,515,525
480,500,504,504,552
505,503,502,494,521
522,498,501,497,514
523,504,512,500,512
532,505,515,498,511
539,504,522,504,454
533,501,517,500,451
526,499,515,498,478
524,502,517,527,491
529,506,515,526,506
528,512,528,534,487
528,511,523,543,470
535,516,517,538,470
518,517,516,532,545
503,513,519,527,549
490,507,518,521,541
493,505,518,513,493
485,497,510,508,518
505,499,492,512,514
522,501,497,502,480
518,500,498,493,496
513,500,498,489,505
518,503,522,488,504
515,504,553,503,515
519,507,555,539,521
525,503,511,549,518
520,505,506,519,525
529,517,504,509,514
536,519,509,527,508
522,512,508,526,509
523,513,516,526,511
504,504,509,517,532
494,503,505,511,530
491,496,496,509,523
499,502,499,497,516
506,505,529,504,507
509,503,517,503,505
514,500,489,490,495
507,501,494,502,505
509,502,504,508,518
514,501,509,500,523
515,503,524,519,528
529,513,537,520,500
524,520,537,531,495
519,519,530,539,513
502,511,517,533,559
500,511,512,528,556
499,510,512,527,522
499,502,501,518,505
498,501,502,529,525
493,501,503,497,527
495,505,510,506,531
495,504,511,497,521
492,503,516,503,525
495,502,519,502,507
501,501,517,498,505
524,501,520,502,500
542,504,523,508,494
529,502,517,511,522
527,507,519,515,482
531,514,524,530,497
533,517,520,537,524
535,515,509,529,510
523,510,508,531,508
517,507,507,526,505
505,501,508,520,493
501,503,506,512,495
499,501,505,505,506
503,500,504,504,503
505,499,506,500,499
500,500,512,497,514
488,500,517,500,519
482,501,523,509,552
482,501,520,502,520
486,502,521,507,502
497,505,517,513,499
486,506,519,523,528
520,514,520,532,531
562,515,519,534,524
549,514,514,534,518
543,514,516,534,500
526,506,502,525,488
516,507,504,518,486
511,506,505,511,500
502,502,504,504,514
505,505,510,501,537
518,504,514,497,508
524,507,520,500,519
515,504,521,501,522
515,509,525,503,535
511,504,523,504,510
514,507,519,517,483
527,509,520,514,464
532,512,519,523,473
537,514,516,529,527
539,518,517,540,521
528,514,515,536,537
525,513,512,537,544
495,503,503,532,572
496,503,497,503,524
500,502,503,504,516
500,501,510,512,527
499,498,507,494,518
505,505,513,490,507
506,504,510,488,523
503,506,521,492,532
525,506,522,502,504
530,504,520,503,506
537,504,521,512,505
535,506,521,518,495
535,512,524,530,516
526,512,519,533,539
533,517,516,524,500
524,518,517,534,507
512,507,506,541,530
501,506,497,538,547
504,513,507,502,504
496,501,507,510,462
503,503,518,507,459
501,504,526,490,491
503,502,531,480,524
516,504,531,492,521
521,506,532,501,500
516,504,510,509,502
528,505,510,512,515
519,505,490,503,506
523,506,471,504,517
531,523,510,518,510
525,515,508,511,513
523,513,505,539,515
520,507,519,543,515
503,509,523,531,524
499,502,502,518,522
497,504,510,519,507
501,505,511,507,509
495,500,515,506,509
504,504,516,502,508
505,504,518,493,509
502,502,518,492,510
514,505,518,506,510
518,506,525,510,507
526,509,531,521,508
529,510,534,533,515
525,508,529,534,518
526,514,510,535,532
524,521,525,535,533
512,514,515,531,550
498,508,508,526,547
494,506,501,520,522
497,502,499,519,508
498,505,500,502,486
501,502,507,502,481
501,504,510,499,499
508,505,515,503,512
508,499,516,503,519
511,505,521,495,524
504,503,520,499,544
519,508,522,506,513
524,508,519,510,488
526,510,521,521,493
526,512,522,530,505
518,512,521,539,516
514,512,516,538,527
518,511,512,529,532
518,510,506,521,530
488,498,501,523,544
498,503,498,501,522
502,503,501,509,497
506,505,508,504,507
506,504,513,501,511
511,508,521,504,473
503,501,518,509,473
507,507,520,496,458
492,502,518,498,518
503,503,518,503,518
496,500,518,516,506
513,509,519,521,530
509,512,519,528,574
539,516,516,532,547
537,514,515,536,544
532,513,512,533,520
510,504,501,522,544
491,500,501,516,554
498,497,501,510,518
494,504,507,507,521
509,509,514,504,503
509,506,513,496,505
507,499,513,494,494
523,500,515,491,498
520,501,517,495,522
511,501,517,502,529
511,504,516,502,525
522,510,523,518,503
525,510,523,535,481
509,507,521,554,505
509,514,515,522,505
501,513,509,540,533
523,511,507,531,507
546,508,506,519,491
526,504,502,510,497
519,499,500,502,507
514,502,505,502,510
510,501,508,498,511
511,508,516,497,506
518,504,516,493,497
518,504,519,493,493
517,502,518,497,508
540,511,527,510,501
544,510,524,518,496
537,513,524,527,493
545,515,526,544,500
546,517,519,529,504
532,512,511,531,527
522,512,509,533,528
519,510,505,532,517
506,506,498,517,518
503,506,504,511,528
505,504,506,508,524
506,504,507,500,514
505,503,511,495,504
505,503,516,498,501
511,500,513,490,503
514,504,514,500,507
512,502,517,505,510
523,510,523,510,510
531,510,525,515,511
534,517,533,534,510
532,516,527,539,516
518,517,524,542,523
521,513,514,538,530
516,514,512,526,524
501,510,508,521,531
488,501,501,508,528
498,499,500,503,518
492,498,503,512,505
495,500,504,504,522
504,505,515,498,507
509,505,513,497,516
503,504,519,498,522
509,503,519,496,506
513,505,522,501,512
515,499,523,513,518
527,512,525,522,510
527,514,524,533,516
519,515,521,535,527
522,516,517,531,513
508,508,509,532,521
512,510,510,535,525
501,498,501,528,532
483,498,496,508,527
487,505,503,506,523
514,509,509,503,510
510,505,513,504,509
513,508,516,499,504
505,503,514,489,497
504,501,515,496,500
505,502,521,500,507
496,503,523,505,514
495,505,521,510,519
516,511,525,525,517
519,512,524,535,520
514,514,524,534,513
493,508,512,533,515
480,508,513,536,516
494,505,501,532,526
475,500,499,517,536
465,499,499,507,531
460,495,501,504,528
471,502,506,495,537
505,502,510,491,548
495,498,515,490,548
492,500,513,489,530
522,509,519,493,495
510,508,523,505,461
505,506,525,514,483
505,507,525,523,502
514,513,525,529,506
539,515,526,535,500
582,518,525,549,496
573,520,518,550,511
570,520,517,542,500
548,508,502,531,508
533,504,499,518,513
529,504,505,508,506
527,501,503,500,497
520,501,508,493,505
524,509,520,493,514
521,505,516,489,521
520,508,524,491,523
517,504,524,508,522
525,503,521,512,510
545,505,518,486,481
540,506,520,520,487
543,513,521,533,490
538,513,520,541,499
528,513,516,546,503
518,510,511,544,515
515,509,510,542,513
499,500,499,526,518
503,500,496,515,513
501,505,502,505,512
511,504,508,496,510
511,503,510,487,511
517,503,512,483,504
514,501,516,482,504
513,502,517,486,505
516,502,522,490,508
520,503,520,504,510
521,506,521,511,509
531,512,525,526,511
533,515,523,536,509
525,513,519,548,514
518,516,519,543,516
514,513,510,540,518
509,510,502,539,525
501,505,501,523,525
494,504,502,513,521
502,503,505,504,523
504,504,509,498,513
503,507,514,489,510
510,506,516,491,506
506,501,519,486,511
515,503,519,495,503
513,505,520,497,507
516,501,521,505,511
522,508,523,519,513
528,510,523,534,517
527,514,525,543,520
524,516,519,535,518
513,511,510,537,524
510,515,513,535,522
495,504,500,524,527
491,501,498,510,525
492,502,501,505,519
504,505,506,500,512
504,507,513,494,508
501,507,517,493,504
507,503,515,490,505
503,501,515,490,509
508,503,519,494,508
513,503,518,503,508
527,506,522,512,508
533,510,525,525,511
536,516,528,537,506
533,519,524,541,515
523,516,519,543,525
509,508,507,527,529
515,514,513,539,521
504,504,505,527,527
497,501,500,516,524
495,507,504,510,516
507,503,507,503,507
506,502,509,497,507
509,504,515,493,507
507,506,519,496,509
508,502,516,497,509
511,506,526,502,511
516,506,522,504,514
519,509,522,507,513
523,511,521,518,511
525,514,523,530,514
528,515,519,539,517
524,513,515,540,522
519,508,508,536,521
521,509,507,534,524
504,502,501,525,530
498,502,502,515,521
496,502,505,501,519
504,503,509,494,509
504,502,513,488,510
512,506,517,483,505
508,502,517,481,509
512,502,519,483,506
516,501,519,489,511
513,501,518,503,514
512,505,521,510,512
529,515,524,524,512
527,514,522,536,515
526,513,517,540,518
517,513,515,542,526
514,511,507,537,524
513,505,502,535,529
508,503,500,521,525
503,502,502,513,521
503,502,505,503,512
502,501,508,500,514
508,504,514,491,505
505,502,517,488,504
507,499,518,492,505
509,501,521,494,504
517,503,521,498,508
517,504,522,506,512
521,508,523,514,513
524,513,523,526,515
519,511,517,538,518
514,512,517,548,526
508,512,509,538,525
510,511,509,540,524
508,508,505,527,524
505,503,496,519,523
508,503,506,506,518
508,501,506,496,514
514,503,509,487,517
511,506,516,487,512
498,501,516,487,515
494,501,518,480,506
498,505,525,491,507
497,502,521,498,515
495,503,520,510,518
506,507,523,525,514
521,511,521,547,523
529,517,521,535,515
531,514,518,541,528
526,511,513,541,542
535,514,504,531,532
524,504,496,522,514
516,506,505,515,495
510,504,504,506,499
509,506,510,500,497
506,504,511,494,499
503,503,516,487,502
500,499,512,479,511
514,503,519,484,509
512,504,521,490,516
516,505,520,499,515
523,508,522,512,504
536,513,525,526,509
536,515,522,536,515
529,517,519,542,515
523,513,512,542,515
529,512,511,546,519
515,507,505,534,525
511,503,501,520,525
507,506,504,510,520
506,503,506,504,512
509,506,515,497,508
512,509,521,496,505
512,504,518,493,504
510,500,516,491,507
515,504,520,495,511
519,502,522,503,510
522,504,519,509,511
526,511,525,525,507
524,509,525,539,511
519,517,523,541,513
515,518,521,541,519
505,508,508,532,528
504,509,512,534,526
504,504,500,521,527
503,502,500,511,521
505,503,504,503,523
508,505,509,501,515
511,505,511,502,510
511,505,516,496,506
511,502,515,494,515
514,504,520,495,511
515,504,522,500,510
518,505,521,506,513
520,507,520,513,515
526,512,524,524,517
529,515,524,532,515
527,520,523,535,517
523,513,516,534,518
516,511,513,533,527
507,507,506,528,527
499,502,501,518,525
497,499,499,509,520
496,500,503,505,515
499,503,508,504,512
501,504,512,504,511
508,506,518,496,506
505,504,514,485,508
506,502,517,488,510
513,506,521,497,513
522,507,522,508,511
526,510,523,517,512
533,512,525,527,512
534,514,523,535,514
524,517,521,540,520
515,511,512,530,523
512,511,511,528,524
501,505,503,518,529
495,503,500,510,525
495,502,501,503,520
496,503,504,502,514
500,503,508,499,508
506,505,514,498,506
512,505,516,495,506
506,500,515,490,509
510,504,519,494,507
510,503,519,498,510
516,504,519,499,512
521,511,522,508,518
525,515,524,519,514
524,516,522,530,520
525,516,521,537,520
524,511,512,533,520
514,510,512,539,519
500,507,504,531,526
497,504,502,518,526
499,504,504,510,520
504,504,508,507,513
501,501,509,502,505
508,504,513,502,503
505,504,513,503,507
512,504,519,501,508
511,505,521,504,511
519,506,522,509,513
516,508,522,516,517
530,509,525,529,511
534,515,525,534,513
525,515,521,537,514
518,514,517,536,518
510,510,510,531,523
505,508,505,527,528
493,503,501,518,527
493,502,498,510,522
511,505,506,507,516
510,504,509,502,510
509,503,511,498,507
510,505,517,498,507
508,502,516,495,509
513,504,520,497,506
515,504,520,501,509
520,505,522,508,510
523,507,522,516,510
527,513,525,527,510
531,514,524,534,512
528,514,518,540,514
518,512,514,534,519
514,510,510,531,519
502,502,505,523,526
497,503,501,515,526
497,502,501,505,517
498,502,504,500,513
502,504,509,499,509
507,506,517,499,507
509,504,518,496,512
509,504,520,495,517
515,503,520,497,516
514,504,521,502,518
514,508,523,510,516
521,508,524,521,514
526,517,527,526,512
524,513,520,530,519
529,516,518,534,521
520,508,510,530,519
511,511,510,528,515
499,503,500,517,514
502,504,499,508,515
498,500,505,506,517
505,504,504,505,513
505,503,506,500,510
502,502,507,497,499
493,504,516,492,501
490,505,520,493,513
506,507,523,496,509
514,506,524,500,511
513,508,525,508,512
527,512,525,518,513
552,515,526,533,507
554,517,526,545,507
534,518,520,548,512
526,505,509,542,512
521,506,506,535,518
508,502,499,526,518
504,505,504,520,511
505,501,505,512,513
505,503,507,500,522
506,502,510,493,512
505,503,513,480,510
504,503,513,476,503
509,505,517,478,503
507,503,521,489,511
514,507,526,499,515
526,509,523,508,511
537,513,525,523,509
538,515,525,532,510
537,517,522,537,509
527,517,514,540,520
523,511,513,535,519
507,505,503,524,526
502,503,502,517,523
501,503,503,513,519
502,503,506,506,514
502,501,508,502,506
501,503,512,498,501
504,503,517,498,504
500,502,515,501,512
505,504,522,500,510
514,505,525,505,511
514,507,526,516,510
524,510,526,525,508
524,507,522,533,512
530,514,524,534,513
525,514,519,537,517
511,509,512,529,530
505,509,510,528,528
507,505,502,516,528
507,503,500,512,521
500,502,503,507,517
505,503,507,505,511
512,503,511,500,510
515,504,516,501,505
509,503,515,502,508
508,503,518,498,511
517,504,521,502,511
520,506,522,508,512
528,509,523,515,516
534,511,524,524,511
529,514,525,531,513
531,516,524,538,513
530,515,517,534,518
519,511,508,534,524
512,509,509,525,528
501,504,501,514,530
501,503,503,510,522
501,502,503,504,513
503,503,508,502,511
505,503,511,497,506
512,504,514,499,503
509,502,516,496,506
514,503,520,500,507
516,503,521,504,510
520,504,520,509,513
524,508,522,516,512
527,512,523,525,513
534,516,525,533,517
529,517,522,537,517
516,512,513,533,521
517,511,511,532,521
509,505,503,523,527
503,504,501,515,525
498,504,503,506,523
497,503,504,504,518
500,504,508,498,509
506,504,514,497,505
508,505,517,497,507
507,501,516,493,514
509,503,520,497,515
513,504,520,502,516
515,502,523,513,516
523,509,524,521,513
521,512,524,529,511
518,512,520,534,517
519,517,521,537,517
518,512,513,534,529
516,509,508,529,526
490,506,503,519,532
502,503,500,511,518
504,506,503,505,507
505,502,504,500,505
500,503,510,497,504
523,508,517,497,502
522,504,517,493,503
518,503,518,493,505
519,504,520,501,507
521,504,522,507,511
527,507,522,515,512
528,512,523,524,517
533,515,525,537,514
529,518,524,545,517
525,516,517,546,518
513,509,510,539,521
504,506,503,532,523
493,502,499,520,524
494,502,500,512,522
498,503,503,504,514
501,504,507,497,513
514,505,513,492,506
512,509,519,489,504
507,502,516,484,508
509,503,518,487,510
513,502,519,494,506
517,505,522,506,507
519,507,522,516,510
534,513,523,529,515
538,515,523,541,516
531,516,520,547,520
519,511,512,545,522
513,515,515,544,525
499,503,500,532,529
497,505,498,521,526
503,501,500,510,516
496,501,504,501,513
498,502,508,495,509
498,504,512,490,512
504,503,516,491,504
511,502,515,486,507
510,504,519,491,503
517,505,522,503,513
524,507,522,508,517
532,513,522,523,510
530,515,525,534,510
523,514,521,543,518
515,515,518,546,520
504,510,510,542,530
502,508,506,538,524
484,500,496,526,532
489,503,500,519,530
486,500,501,506,525
489,502,504,497,513
494,508,514,495,498
512,507,517,494,492
522,503,516,488,497
533,505,518,489,503
536,506,520,498,509
540,506,522,503,511
547,510,524,514,514
541,514,525,527,512
538,513,526,541,513
534,514,518,545,519
531,518,519,548,513
518,509,509,540,522
513,506,500,538,525
506,504,500,523,525
503,506,504,513,519
502,502,502,503,513
502,502,507,496,509
513,504,513,493,507
512,505,517,491,505
515,503,517,488,509
512,506,523,490,508
516,504,521,495,512
521,507,522,506,510
522,510,523,517,512
523,512,523,528,512
525,514,522,540,516
525,515,519,545,516
514,513,516,548,522
511,509,506,541,522
498,504,500,530,528
505,503,499,523,525
504,502,500,510,518
501,504,505,502,512
503,505,510,496,509
510,506,514,492,505
511,505,516,489,506
508,500,515,489,509
518,504,520,490,510
519,507,523,497,514
522,507,521,508,517
525,509,521,519,513
527,513,520,534,511
526,512,519,540,514
522,514,517,545,518
513,509,508,540,522
508,506,505,544,525
499,499,500,532,531
496,505,501,517,522
493,503,502,508,516
495,506,506,499,508
500,502,508,493,504
502,504,516,492,503
501,504,517,489,505
505,502,517,489,507
516,504,521,493,507
531,505,520,500,508
530,508,522,511,511
531,512,523,522,513
534,517,523,534,515
531,520,525,541,518
524,513,515,542,520
514,510,509,539,527
505,506,503,533,525
496,503,499,524,522
494,502,500,515,515
493,506,508,506,513
501,503,507,500,514
513,502,511,494,506
513,504,515,488,506
507,502,516,488,509
513,506,518,490,509
515,502,519,499,509
520,502,523,505,513
524,508,521,515,511
528,512,523,527,516
524,514,522,537,522
520,514,518,542,522
520,514,513,543,520
520,514,510,540,513
506,506,501,534,524
500,504,499,520,518
501,501,499,510,515
502,501,503,503,510
506,500,513,499,511
510,507,517,495,503
512,506,517,495,506
512,502,517,491,507
517,503,520,491,509
515,507,520,498,509
524,506,521,508,509
524,511,525,521,510
529,512,523,530,510
526,514,520,538,515
525,514,517,543,517
518,510,510,539,522
507,510,509,539,524
494,502,500,524,527
490,501,501,514,521
492,500,501,506,514
493,502,507,501,516
494,503,510,495,511
512,505,515,495,504
513,504,519,492,503
522,502,517,491,504
522,506,521,496,507
524,507,523,503,508
519,508,523,513,512
526,510,523,522,511
529,515,524,535,513
534,516,522,544,516
524,515,517,543,522
511,506,508,539,527
505,507,505,532,531
491,503,497,521,527
488,503,502,512,521
487,504,509,506,516
493,502,508,499,506
488,502,514,492,507
505,506,518,493,502
514,503,517,489,508
525,504,520,489,512
521,505,522,495,521
519,506,522,503,521
524,505,524,516,514
535,512,524,526,510
533,515,524,537,506
538,516,521,543,505
523,512,513,541,513
508,510,510,536,520
506,506,502,528,531
499,504,501,521,524
497,502,503,514,515
499,501,504,504,510
508,503,510,497,507
511,505,516,493,499
517,505,515,494,497
511,501,515,487,505
514,503,520,491,509
513,504,521,497,513
513,505,523,507,512
524,512,524,521,511
531,515,524,532,510
523,514,521,538,516
532,516,518,542,516
525,513,511,540,521
510,509,506,537,522
498,503,499,524,527
496,502,500,513,528
495,503,502,506,518
498,502,505,500,517
509,502,509,495,520
521,504,514,493,512
513,502,513,491,508
516,501,515,489,498
523,504,520,497,502
524,507,523,501,505
527,509,523,510,512
532,515,526,518,510
532,515,524,528,517
532,516,520,538,520
527,516,517,541,520
518,509,507,537,518
513,507,503,531,522
501,507,500,521,524
499,501,503,513,521
499,503,502,510,514
500,504,508,504,511
505,504,513,495,504
507,505,519,494,501
506,507,518,491,508
505,505,524,492,508
507,504,521,496,510
517,506,522,505,511
522,509,523,515,515
523,513,523,531,520
527,513,521,535,514
541,516,520,543,513
524,513,514,538,520
514,509,505,542,524
501,504,500,529,530
494,502,498,519,527
498,502,501,511,518
508,505,506,504,513
505,503,508,498,509
507,504,512,493,503
509,503,518,494,503
508,505,519,486,509
516,503,518,490,508
518,503,516,501,515
523,508,520,507,515
526,510,522,521,512
534,514,524,530,512
527,514,519,537,516
522,515,517,542,517
516,513,511,540,522
510,510,508,538,522
500,501,500,530,528
497,503,502,518,524
496,502,501,508,521
497,501,508,499,509
497,502,509,494,508
504,505,516,493,500
504,504,517,491,500
507,504,521,490,505
514,503,520,492,509
524,506,517,500,509
526,507,521,509,509
529,513,524,522,515
530,514,524,533,517
526,514,518,539,515
523,513,515,541,520
520,511,509,539,524
509,508,504,534,529
499,504,500,522,525
498,503,501,514,519
500,504,505,506,518
501,505,511,499,509
506,504,511,493,500
514,505,517,492,499
511,503,517,488,504
512,503,519,490,505
515,503,520,495,506
525,506,522,502,511
526,510,523,515,512
527,512,522,525,510
528,512,520,534,518
523,515,519,542,517
514,512,512,540,525
505,508,506,537,527
496,504,501,530,531
504,504,499,520,526
494,499,499,515,525
497,507,506,504,519
493,509,513,497,516
493,504,513,493,505
494,503,515,490,496
498,502,516,488,502
506,508,520,492,507
515,503,519,496,512
553,511,524,512,512
546,511,522,518,509
542,512,521,527,513
536,514,519,536,517
537,515,516,540,514
527,509,514,543,515
519,510,507,537,518
506,505,500,527,524
498,502,499,517,522
498,502,502,508,518
501,502,505,502,512
500,502,510,496,506
504,504,516,493,501
507,502,517,490,501
512,500,516,488,508
523,504,520,494,511
516,505,521,502,509
526,506,520,510,506
527,510,522,523,508
528,518,526,538,511
529,516,522,542,516
525,518,518,546,524
529,511,509,539,525
516,508,504,536,530
502,502,499,523,530
500,505,504,514,524
501,503,507,505,511
502,503,508,500,500
507,504,512,496,504
510,504,515,492,502
509,501,514,487,503
513,503,517,493,506
515,503,519,491,511
518,507,519,502,510
520,509,522,514,512
522,512,524,526,512
524,514,522,536,515
523,515,519,542,516
517,514,513,541,521
512,508,507,537,522
502,503,499,528,526
496,503,500,523,523
503,505,502,512,517
504,504,506,504,512
507,504,509,497,508
514,506,516,498,503
515,504,517,493,501
512,500,513,487,508
516,505,518,495,510
516,506,522,500,511
518,507,521,508,515
523,510,523,520,512
527,514,524,531,512
526,514,520,539,516
523,519,520,544,520
516,512,508,544,524
516,509,506,537,522
508,504,500,526,527
499,502,499,516,524
497,502,502,508,515
498,501,505,501,505
504,501,509,495,508
506,502,516,496,500
508,503,517,491,504
512,503,517,489,509
515,501,516,493,509
521,509,521,502,510
521,507,522,510,513
528,512,524,524,510
532,514,524,535,513
530,516,521,542,515
524,515,516,544,519
516,510,508,539,522
505,505,502,533,526
501,503,498,518,525
503,505,502,515,519
500,504,505,507,514
502,501,509,500,508
504,503,512,491,508
507,503,516,491,505
507,503,520,489,506
508,505,522,490,508
513,503,520,492,509
520,509,524,504,510
521,509,523,515,510
526,512,526,527,511
531,514,522,536,514
530,516,520,544,516
519,513,514,543,521
509,507,506,537,521
497,504,500,527,530
495,501,499,518,522
501,503,502,511,517
505,503,505,500,511
503,502,509,496,508
506,505,516,496,502
508,504,518,491,502
516,502,517,493,505
519,503,520,492,508
519,505,520,493,517
522,506,520,504,518
529,511,524,519,512
530,515,523,529,512
527,512,519,537,514
524,513,516,541,516
517,512,513,540,517
505,508,507,538,522
495,507,502,526,525
488,501,499,516,523
490,501,502,508,515
494,504,507,501,517
494,500,510,494,515
506,507,520,492,511
518,505,519,489,511
510,501,516,486,512
528,501,521,492,510
532,509,522,502,517
527,507,522,511,507
528,510,522,525,498
531,514,523,537,493
529,513,520,543,503
523,514,516,544,514
512,509,507,538,518
507,506,503,533,521
503,503,499,522,519
496,502,501,513,515
499,504,503,504,513
498,503,508,498,507
508,502,511,491,502
508,504,515,492,502
509,504,517,488,505
504,501,517,485,508
507,502,519,492,514
516,506,523,507,512
527,509,523,516,508
524,513,524,529,514
519,515,522,537,518
536,516,519,543,516
532,512,511,540,518
523,510,507,539,519
510,504,503,529,527
501,506,499,520,526
498,502,502,510,527
498,502,505,502,513
498,501,508,492,514
508,508,514,492,504
513,505,517,490,496
525,503,517,489,503
523,501,516,492,504
523,507,522,499,509
524,506,520,508,511
525,509,523,518,508
526,516,527,529,507
526,514,520,538,512
524,516,518,543,516
516,512,511,540,520
510,510,508,537,525
499,502,499,522,527
495,501,503,516,521
500,503,504,504,518
500,506,510,499,509
501,503,511,494,507
502,502,516,491,504
504,504,518,488,505
516,503,519,488,508
515,503,520,492,504
516,505,522,500,512
519,511,523,511,511
518,510,524,524,509
523,512,521,537,514
517,513,523,543,511
517,513,513,542,517
508,509,510,538,526
515,505,502,529,527
514,506,501,522,528
511,505,503,512,522
503,504,505,506,521
505,503,509,497,513
503,503,512,490,507
513,505,518,490,498
509,507,520,492,505
510,500,518,490,507
518,503,520,494,509
525,507,523,505,513
532,510,523,515,511
534,515,523,529,512
532,513,520,535,514
529,517,522,545,518
521,513,513,541,521
513,506,504,540,522
504,505,501,529,528
494,504,494,520,525
495,502,506,513,517
498,503,504,504,514
503,503,510,496,510
501,504,515,493,504
517,504,518,491,501
512,500,517,488,507
514,503,516,494,505
518,503,521,499,507
519,505,522,505,512
525,511,525,519,514
529,513,523,531,511
526,515,520,539,515
522,514,516,543,515
512,514,512,542,521
505,508,505,535,526
498,505,501,527,528
489,501,498,514,523
502,498,506,507,517
511,503,506,500,507
510,502,510,498,503
512,503,515,490,499
513,505,519,490,503
507,500,517,488,507
517,502,519,494,505
517,504,519,500,508
518,502,517,509,509
521,510,523,522,511
524,515,522,533,513
528,515,520,541,514
521,513,514,541,517
511,508,508,539,524
500,504,501,530,537
505,504,499,521,530
509,504,503,513,524
508,502,505,504,515
507,503,509,498,504
506,502,512,492,499
510,507,519,490,504
507,502,518,488,507
506,500,516,486,507
522,506,521,495,507
529,507,523,504,510
527,509,523,513,511
529,515,524,529,509
526,512,519,534,514
526,518,521,546,512
522,513,513,542,513
518,511,509,539,521
505,504,500,528,524
500,502,499,518,520
496,503,503,509,517
496,505,510,502,511
496,503,511,495,510
500,504,515,493,501
507,504,517,489,501
505,502,518,487,509
506,502,519,489,510
521,505,521,497,509
528,508,522,508,512
534,511,523,518,511
532,513,522,529,511
533,513,519,538,515
526,515,516,541,515
518,512,511,540,518
511,509,506,537,522
503,504,500,525,526
496,502,499,518,519
498,502,502,507,517
502,504,508,500,512
505,504,511,494,508
509,505,515,491,502
514,504,518,489,502
512,502,517,487,510
514,502,519,491,508
521,504,520,499,509
521,508,522,510,512
526,510,521,521,512
529,515,525,537,519
527,514,517,539,517
518,516,516,540,525
506,514,509,539,527
492,503,500,532,529
485,501,498,523,531
485,499,499,513,525
483,499,503,510,509
484,500,506,500,503
515,502,509,491,500
529,507,517,492,498
525,502,519,497,495
522,503,518,493,503
529,505,521,496,511
522,506,523,506,511
527,511,525,520,512
538,514,524,527,509
540,517,523,536,512
534,517,520,543,515
525,514,514,541,520
516,511,510,537,522
505,505,500,529,527
502,503,499,520,525
502,503,503,514,518
503,507,508,503,512
504,503,508,496,507
509,505,514,493,503
512,505,518,492,505
510,503,518,490,511
512,502,516,491,510
516,504,519,497,512
518,507,521,507,517
523,510,523,517,513
525,514,523,531,514
525,515,521,540,514
523,515,520,544,516
515,511,510,541,521
514,513,507,538,527
505,502,497,523,527
498,503,499,515,522
500,502,502,506,517
502,503,506,500,511
504,503,508,499,509
508,505,515,492,504
511,503,518,490,504
502,501,515,486,509
512,503,519,492,512
517,506,521,502,511
524,509,522,512,514
524,511,522,522,511
531,515,522,534,512
529,515,520,542,515
519,513,514,542,518
511,510,509,541,523
502,505,501,531,528
495,503,497,521,526
505,503,498,512,519
509,502,503,504,514
508,503,506,498,508
507,501,508,491,507
508,504,517,491,506
506,504,520,492,513
500,499,515,488,518
502,500,516,494,525
506,503,518,503,520
508,506,520,515,510
523,513,523,527,511
538,517,522,539,509
545,518,522,548,511
540,516,514,543,515
524,512,508,538,525
510,507,502,531,532
502,504,498,519,530
501,503,501,511,516
505,504,507,507,502
505,503,509,497,501
511,505,515,492,501
515,506,518,492,499
508,502,516,488,503
509,503,519,491,505
517,503,519,499,508
515,502,520,509,510
534,512,523,521,506
536,515,525,533,510
531,515,521,541,514
527,516,518,544,515
515,512,511,541,518
511,509,507,536,524
501,505,500,525,529
495,501,499,515,521
498,502,503,507,515
501,503,508,501,511
506,503,512,494,508
508,505,516,489,503
508,504,518,489,504
508,501,516,486,507
517,503,520,489,514
519,506,523,502,511
521,507,522,512,512
525,516,527,527,513
528,516,526,539,513
525,514,519,542,516
520,512,514,547,519
512,509,508,537,525
504,505,503,532,529
495,501,498,521,524
496,502,502,513,518
500,501,503,503,513
501,502,507,496,508
501,503,513,492,506
507,502,515,494,506
507,503,518,489,508
505,500,516,487,509
510,502,519,495,509
519,506,522,506,513
528,508,522,516,506
532,511,523,527,509
530,512,521,536,515
523,514,518,543,515
511,511,512,539,523
500,507,506,537,524
488,503,500,528,531
484,504,499,517,521
486,502,501,510,514
494,503,510,501,514
511,503,508,496,509
528,506,515,494,499
528,506,519,492,501
519,502,517,489,504
523,503,520,493,508
519,501,520,502,508
521,507,522,509,519
524,513,523,519,519
523,513,522,530,520
521,512,518,537,524
517,513,516,542,520
511,514,511,540,523
519,509,504,537,512
513,504,500,527,517
506,504,500,516,522
514,503,503,511,513
508,502,505,499,506
506,502,509,495,503
512,503,512,495,502
516,503,517,490,504
514,502,517,489,510
512,502,519,493,513
521,509,521,502,511
528,510,523,514,509
529,515,525,524,512
532,513,521,535,508
527,514,518,543,510
522,513,514,546,517
518,510,509,541,521
505,505,501,532,526
496,501,497,521,523
496,501,500,512,512
504,503,504,500,510
501,503,507,497,508
500,502,510,491,502
504,503,510,493,497
507,503,516,490,498
508,506,517,489,502
510,504,525,497,506
510,505,521,502,515
520,508,521,516,509
524,512,523,529,510
521,514,522,539,515
528,515,519,545,517
517,512,512,542,521
521,509,507,539,518
510,505,501,529,526
504,505,504,520,524
505,503,501,514,517
503,504,506,502,510
508,503,508,495,511
512,506,515,494,503
516,504,517,490,503
515,503,517,487,506
516,503,519,494,513
517,503,520,497,511
521,506,520,506,510
528,511,525,521,508
530,515,524,533,510
526,515,519,540,517
523,515,517,545,518
519,514,512,543,521
509,512,507,535,521
501,505,502,525,525
495,502,499,515,520
496,502,503,506,520
498,504,505,505,510
499,501,508,492,507
503,503,514,492,503
501,498,517,489,505
503,498,516,486,507
514,502,519,493,507
522,507,521,503,509
525,508,522,513,509
523,512,522,523,513
523,513,524,534,519
523,516,519,541,519
527,514,514,542,522
520,510,508,539,525
505,503,499,531,528
505,503,498,524,524
505,503,503,514,516
505,502,502,506,510
504,503,508,498,510
503,501,515,495,503
506,508,516,493,500
506,503,518,490,502
505,500,516,486,511
508,500,517,492,517
513,504,519,502,516
522,513,522,515,515
530,513,524,527,512
532,515,521,539,511
534,515,518,543,512
524,511,511,543,516
512,508,507,539,525
503,502,504,529,529
498,501,499,516,529
495,501,502,509,521
493,502,506,503,515
503,503,510,495,515
507,508,514,491,508
505,505,518,489,509
504,503,518,487,510
517,502,519,489,507
526,504,521,498,511
524,507,524,510,516
525,509,523,518,515
534,513,524,532,518
529,513,520,539,523
522,513,515,544,526
515,511,512,544,522
499,506,504,536,517
505,504,500,526,514
492,501,499,515,517
503,501,505,509,515
519,505,509,499,511
511,505,512,495,505
511,505,520,493,501
507,505,520,491,505
509,506,518,487,510
512,502,520,493,514
518,505,522,501,510
528,508,522,512,509
534,512,527,525,510
532,515,523,535,511
529,515,519,538,514
521,513,514,542,518
516,512,510,540,522
504,507,505,532,530
498,505,498,520,527
495,505,503,511,524
496,502,503,502,521
498,502,507,496,515
505,502,511,490,504
512,502,518,490,497
513,505,519,496,502
512,502,520,491,508
515,508,521,496,511
518,505,522,506,507
521,508,519,516,507
525,516,528,529,511
530,514,521,538,516
517,514,518,542,517
511,512,513,543,524
502,504,507,540,521
494,504,501,529,523
493,501,499,520,524
502,505,505,511,517
514,502,504,501,511
509,503,509,493,511
516,507,513,492,502
515,505,517,490,498
513,503,517,487,505
517,503,519,488,514
519,505,521,499,516
523,506,520,508,516
523,510,523,521,511
535,513,524,533,510
526,511,519,543,518
522,516,516,547,517
515,513,512,543,523
512,508,505,535,526
509,504,499,524,524
505,503,499,518,519
502,501,502,506,517
505,503,508,501,511
505,502,510,493,507
512,505,515,490,507
515,503,518,487,511
509,504,516,486,513
515,503,520,492,515
514,506,522,501,513
523,510,522,513,508
527,514,524,524,503
529,515,524,537,510
527,515,523,541,513
520,511,512,541,515
516,511,511,542,523
497,502,500,530,532
493,505,501,523,530
491,498,505,516,524
484,499,501,501,521
492,503,509,494,516
495,503,509,489,517
503,505,516,493,513
515,512,523,490,505
509,502,516,488,505
527,502,515,494,504
535,507,521,506,511
530,508,521,515,505
531,515,525,526,506
527,515,521,538,512
527,515,518,542,512
519,516,514,540,521
510,506,506,537,526
513,501,497,534,525
503,505,500,518,520
499,504,502,510,516
498,502,503,504,511
499,502,513,492,508
503,503,516,490,502
511,505,522,490,506
516,508,521,490,506
514,503,514,491,508
514,503,513,498,514
517,505,517,507,517
523,511,524,522,516
526,513,521,531,516
531,513,517,535,520
528,514,514,542,519
526,513,511,541,517
516,506,503,536,518
504,504,501,525,519
501,500,496,517,519
501,502,501,507,513
504,503,507,499,511
504,506,509,494,506
512,503,514,491,499
508,501,515,488,499
510,502,519,488,505
514,507,520,493,507
517,502,524,502,509
522,508,520,512,510
528,510,522,522,513
531,515,523,537,512
526,515,519,542,514
519,512,513,543,518
509,510,509,540,519
501,504,501,532,528
491,501,498,521,525
497,501,501,513,519
507,507,508,505,516
506,503,508,499,513
506,504,513,492,513
517,505,517,490,510
514,503,518,488,509
509,504,517,487,507
515,504,520,496,503
518,506,521,505,512
526,514,523,516,515
532,512,523,527,513
528,515,523,538,517
529,512,516,541,515
520,511,511,542,516
513,509,509,536,519
513,505,502,531,519
509,504,500,518,520
504,502,501,509,513
503,502,505,502,506
504,501,507,494,504
509,504,514,492,501
512,506,519,490,502
511,503,518,488,504
512,502,518,489,506
516,504,521,497,514
519,507,522,508,512
523,510,523,520,507
530,515,525,533,511
524,513,520,539,515
520,514,515,542,516
524,513,513,542,519
509,507,504,535,523
499,503,499,524,528
494,502,500,515,525
498,504,503,506,519
510,508,512,499,510
508,503,510,492,507
509,505,512,492,504
511,504,517,493,502
509,508,521,492,503
511,503,521,495,509
515,507,523,503,511
521,509,522,512,512
523,511,522,522,515
522,514,523,536,513
531,512,520,548,517
527,515,515,544,520
516,515,513,542,526
504,504,501,532,532
497,504,501,523,528
497,503,503,516,519
501,502,503,506,506
499,502,508,499,501
503,503,512,492,505
504,504,518,491,505
508,503,518,489,504
506,500,515,490,512
527,502,520,494,513
533,506,522,506,511
530,509,523,516,510
533,513,524,528,512
533,514,522,538,515
527,516,520,545,518
515,512,512,541,523
507,510,508,540,524
499,502,499,529,524
496,501,499,517,527
496,500,501,508,518
504,502,506,504,514
504,502,510,496,509
505,504,516,493,501
504,503,518,492,506
513,505,519,487,509
516,507,521,490,512
515,504,524,496,517
519,506,520,506,521
523,509,522,522,513
524,514,524,532,509
525,514,520,538,511
525,514,517,542,518
535,513,513,542,521
517,508,506,537,527
504,506,506,527,527
497,502,501,517,520
501,503,504,506,512
504,503,507,500,502
507,501,509,493,503
511,504,516,491,500
512,504,519,490,501
515,503,519,489,506
513,503,521,494,506
516,505,522,502,509
520,506,520,510,513
527,512,523,524,512
536,514,523,536,511
534,515,522,542,514
526,513,515,543,520
514,509,509,540,522
504,504,501,532,531
498,503,499,521,525
495,501,499,510,517
495,501,502,505,516
502,503,508,499,510
505,503,511,492,504
505,503,515,490,503
510,502,517,490,504
508,500,517,489,504
512,505,523,497,503
521,507,524,504,508
531,509,522,516,509
538,513,523,527,510
535,515,521,538,510
528,516,519,545,511
519,513,513,544,518
512,508,507,539,519
501,502,502,532,525
495,502,498,519,522
494,501,501,510,516
499,503,506,502,513
509,502,508,495,510
509,504,513,492,503
514,504,516,489,502
514,504,516,488,504
514,502,518,492,511
516,505,521,499,511
521,507,520,508,509
527,511,523,517,514
529,511,522,533,512
525,513,515,538,516
525,515,516,543,518
521,516,515,542,521
513,507,504,536,523
502,504,500,526,528
499,501,499,516,520
496,500,501,507,513
497,504,510,500,507
500,503,507,498,504
505,507,520,496,498
506,503,517,489,503
503,499,517,490,512
510,506,521,492,508
524,508,522,504,508
515,508,522,513,512
525,512,524,528,514
530,515,522,537,513
524,515,518,542,515
519,513,512,541,525
514,516,514,541,527
505,504,499,530,526
511,503,498,527,525
505,503,501,516,512
502,502,504,508,510
508,503,509,496,510
514,504,512,492,505
513,504,516,489,503
512,503,515,486,503
523,503,518,489,508
522,503,519,494,508
524,505,520,504,510
528,508,521,515,507
530,512,522,525,516
529,514,520,537,515
527,518,522,544,519
524,514,513,543,522
509,508,506,537,523
499,507,502,528,532
490,500,496,515,528
496,502,501,507,522
495,501,504,500,513
490,501,507,493,508
505,505,514,495,503
511,504,517,491,502
501,503,517,489,508
515,502,518,490,509
531,505,521,500,515
529,506,520,508,510
533,511,523,521,510
533,514,524,534,506
531,518,521,544,513
528,516,517,546,517
515,512,510,542,521
509,507,505,537,526
496,503,500,526,527
500,502,499,515,525
501,503,503,507,515
499,503,506,499,505
507,502,508,492,504
515,505,518,491,502
513,505,520,489,506
516,501,517,488,508
515,502,518,492,507
523,505,520,503,509
524,509,522,514,511
528,511,522,524,510
529,513,521,535,511
527,514,517,542,514
525,512,512,542,519
515,512,514,546,522
501,503,499,531,527
494,502,499,522,527
493,502,501,512,525
494,501,503,503,517
496,501,508,497,511
498,501,510,491,509
515,503,515,489,503
517,508,519,490,507
512,501,517,489,508
509,501,519,496,515
512,505,520,505,514
519,509,524,517,510
520,512,523,529,513
529,514,521,538,517
536,517,519,545,517
528,512,512,542,520
520,508,508,540,522
505,504,500,528,531
498,502,498,516,526
501,502,501,508,519
501,506,509,501,515
504,503,509,493,516
514,505,513,498,506
513,502,516,488,504
518,505,520,490,505
509,501,516,493,509
518,505,522,501,507
518,506,520,508,506
526,510,522,520,510
529,514,523,532,515
526,510,518,536,521
525,514,515,541,521
514,510,510,539,523
508,508,504,533,525
506,505,501,527,520
502,503,501,516,518
496,503,503,507,514
502,504,510,500,514
503,501,508,492,511
510,506,518,492,505
508,504,518,488,505
511,504,519,488,512
514,504,520,493,516
520,504,521,501,517
520,511,525,511,521
523,510,521,522,518
528,512,520,534,516
525,514,518,542,517
520,512,514,542,518
512,513,510,540,515
508,502,499,533,522
502,501,497,521,523
501,502,500,513,517
503,500,503,506,512
509,503,508,498,515
507,506,512,492,513
508,503,515,489,510
507,502,516,485,513
507,498,522,492,506
512,508,523,497,497
519,507,522,506,501
525,513,526,517,507
523,512,523,527,509
521,513,517,536,511
520,514,516,542,514
509,511,510,540,519
504,511,510,542,517
495,503,500,527,522
507,502,499,517,520
503,501,501,508,515
502,500,505,500,508
503,502,510,493,506
515,505,516,493,505
517,506,520,489,501
519,504,519,490,504
518,502,519,491,506
521,508,523,500,508
522,507,521,505,515
528,513,522,520,511
528,512,521,530,510
522,512,519,539,516
519,514,515,543,518
516,512,512,541,523
504,507,503,534,524
492,503,499,523,526
489,502,499,514,522
510,507,505,506,514
511,505,507,499,509
506,503,511,494,508
507,504,516,491,503
506,503,516,485,505
517,505,520,491,506
516,502,516,494,507
521,508,525,503,511
526,509,522,513,514
530,512,522,524,517
535,515,523,535,518
529,516,521,541,515
520,514,515,541,521
512,511,509,538,525
500,504,501,529,527
494,501,499,519,525
505,506,501,512,519
515,505,509,504,511
513,504,508,497,506
508,502,511,490,508
510,508,521,491,503
513,505,520,491,506
511,502,519,490,507
515,503,520,496,509
519,506,523,507,512
526,510,523,519,510
529,513,524,530,512
529,515,522,539,515
527,515,517,542,515
517,512,513,541,521
515,512,512,540,520
501,503,500,526,522
499,504,499,517,522
500,506,505,509,517
499,502,506,503,511
499,502,511,496,508
503,507,518,493,501
502,504,519,493,499
498,503,518,490,507
501,503,520,493,506
518,503,519,499,507
520,509,520,509,513
527,506,518,520,515
534,513,523,532,513
542,513,518,538,512
534,515,518,544,516
522,514,513,545,521
512,506,503,535,524
501,504,499,525,527
498,503,503,514,520
496,501,503,505,516
502,502,507,499,508
500,503,513,492,509
507,508,516,492,502
506,503,516,490,506
507,503,516,493,509
510,503,519,498,514
511,504,520,501,515
532,508,522,513,512
540,512,523,526,509
537,510,522,536,511
532,513,518,547,518
525,516,514,547,522
514,506,508,539,524
503,504,501,533,528
492,501,498,521,525
493,502,503,515,519
493,503,502,506,519
496,498,508,496,513
497,501,511,491,508
504,504,518,491,502
523,505,519,489,496
524,503,518,489,501
522,504,522,497,508
520,505,522,505,509
525,507,522,521,509
525,511,521,528,508
523,513,520,538,511
520,513,516,542,516
526,513,511,541,522
514,510,508,540,526
500,503,499,527,531
501,504,500,518,527
496,501,501,513,516
498,507,511,503,507
500,502,510,496,508
501,508,515,492,505
506,504,517,490,502
516,503,519,490,502
523,505,522,494,502
523,507,520,505,509
522,507,521,509,511
528,509,522,520,508
532,513,522,531,510
527,512,517,537,518
524,516,517,545,513
521,512,511,542,515
515,509,507,538,523
496,503,496,525,523
494,503,500,515,518
497,502,503,506,516
505,504,508,500,507
504,502,510,493,506
506,503,515,490,501
512,503,517,487,503
510,501,519,488,506
514,503,520,493,510
517,504,521,502,510
523,505,520,511,510
530,510,523,524,512
530,514,523,535,518
525,516,519,542,516
518,511,511,545,518
511,510,510,541,516
501,504,501,532,523
500,500,498,520,523
502,501,500,510,520
498,500,503,502,514
498,501,507,493,519
508,498,509,494,514
517,503,517,494,504
515,503,517,488,497
517,504,520,490,504
517,504,519,501,512
517,503,519,504,509
526,509,523,518,505
531,511,522,528,508
527,512,521,537,519
523,514,518,544,516
518,513,513,543,520
511,509,507,539,519
498,504,498,532,530
489,502,501,518,521
498,503,504,508,514
505,502,505,500,509
505,501,509,494,509
507,502,514,491,503
511,503,517,487,504
517,504,520,490,504
514,502,518,491,505
518,504,521,499,508
523,507,523,510,512
526,510,523,521,510
530,513,522,531,510
529,514,520,540,514
527,514,517,543,516
517,513,515,545,523
510,508,506,536,523
501,502,499,525,528
499,500,500,514,522
497,500,501,504,515
500,502,507,498,509
502,501,515,492,508
510,506,517,491,502
511,503,516,488,504
514,502,519,489,505
509,504,521,493,514
513,505,521,500,517
519,509,523,514,516
523,511,523,523,515
520,516,522,536,518
515,513,518,540,514
508,509,511,541,517
521,512,511,542,520
502,504,500,534,534
493,500,498,520,529
501,501,499,508,524
507,500,504,502,510
496,501,506,495,506
517,504,511,490,499
528,506,517,490,495
522,505,519,492,501
517,502,517,488,506
519,503,521,500,510
523,504,521,505,513
528,509,527,524,510
531,513,523,528,508
530,513,519,538,512
531,515,517,543,514
518,511,510,541,515
512,510,508,541,519
498,503,498,529,525
493,500,497,515,525
493,500,500,508,522
492,502,508,499,515
493,501,506,495,512
503,505,515,488,507
520,506,518,492,504
517,505,521,492,499
516,504,519,492,507
520,506,522,502,510
522,505,519,508,517
530,511,526,522,508
529,514,523,533,510
524,515,519,541,517
521,517,517,547,520
514,510,509,542,518
506,509,507,539,526
499,505,500,527,525
498,501,498,515,518
499,502,501,504,518
500,503,505,497,510
509,503,507,492,507
511,503,514,491,502
513,505,520,489,507
512,507,518,489,518
511,502,518,493,513
514,504,518,505,506
511,505,518,508,522
523,511,520,523,517
539,516,523,537,508
541,516,521,544,504
532,513,512,545,507
520,511,508,541,514
510,504,500,531,525
498,505,500,523,521
503,504,501,515,517
506,504,504,508,510
504,502,508,500,505
506,501,509,493,505
507,504,517,491,502
511,503,517,492,505
514,503,518,490,508
515,502,519,495,510
516,504,520,505,511
521,510,523,518,510
523,508,522,530,511
523,513,520,538,515
518,513,516,544,514
508,511,510,546,523
520,510,509,541,520
513,504,500,533,527
500,506,502,519,524
498,502,500,512,519
509,503,506,502,513
511,502,508,494,508
514,504,514,494,506
513,504,517,489,505
511,500,514,490,508
511,505,519,490,512
517,505,522,501,517
519,506,520,507,514
525,512,527,522,514
525,513,528,537,513
522,516,523,544,515
522,514,517,545,519
519,514,512,542,524
511,508,506,536,528
496,502,499,524,528
502,502,499,518,515
503,501,504,505,508
504,505,509,498,502
505,502,510,492,504
513,504,517,491,502
511,505,516,491,502
514,505,519,492,508
509,501,519,491,513
512,504,521,503,506
522,508,522,514,506
525,510,522,527,506
525,514,523,539,510
521,518,521,543,515
508,513,511,542,519
505,512,511,542,521
492,504,500,531,525
484,502,499,522,526
503,502,502,512,519
506,500,503,503,508
513,502,506,495,506
517,504,512,493,511
517,505,516,490,503
519,502,517,489,502
517,505,521,492,509
523,502,519,495,510
527,507,522,506,514
527,510,522,516,511
529,512,522,528,510
527,512,519,537,509
523,513,516,544,508
516,512,512,542,519
520,512,509,540,521
506,506,501,528,527
496,502,497,515,523
498,502,500,507,517
497,502,504,499,509
500,502,509,494,506
513,504,518,493,502
514,503,517,489,501
519,503,519,490,506
518,504,520,494,509
521,509,523,501,512
521,507,521,509,513
527,511,522,520,512
530,514,522,531,503
529,514,518,539,511
524,515,516,543,518
515,516,514,544,526
508,508,505,533,531
497,502,499,520,531
494,501,501,515,522
493,499,504,510,507
505,501,506,499,502
502,501,508,492,500
510,505,518,493,497
518,505,517,492,498
520,505,518,495,507
515,503,519,496,514
518,505,520,504,513
523,509,522,515,516
527,513,523,524,516
530,516,523,535,514
525,514,517,540,518
518,511,510,539,522
509,510,508,532,529
502,503,500,526,526
499,502,499,518,524
491,501,500,509,520
509,502,503,502,512
512,503,505,502,509
507,503,511,494,508
510,503,515,493,504
509,501,512,491,506
511,502,517,490,510
511,502,519,499,512
520,505,519,507,516
529,509,523,519,519
532,512,522,529,524
525,513,520,535,525
521,513,516,538,523
524,512,512,537,521
515,510,508,536,520
498,505,502,524,528
492,499,498,512,531
507,503,501,508,519
507,503,505,505,508
508,504,509,498,500
513,503,513,496,489
512,504,517,494,495
513,503,517,498,506
514,503,520,500,506
517,503,520,504,509
521,507,524,512,510
525,509,521,523,508
529,516,521,536,515
534,513,519,536,518
525,514,516,538,521
516,511,509,534,519
508,509,505,531,521
498,505,499,520,522
497,503,500,513,515
500,504,504,511,508
501,507,507,501,503
501,503,513,496,505
507,505,516,496,503
507,502,516,498,506
506,502,518,493,508
512,502,518,496,510
520,505,521,508,514
525,509,522,514,514
526,512,524,525,517
524,515,523,534,520
518,511,518,536,524
516,512,512,535,521
515,514,514,536,522
504,503,499,523,526
511,505,499,517,520
507,502,500,509,516
502,505,502,503,513
505,503,508,502,508
510,504,512,497,506
509,505,518,497,503
509,504,516,492,510
514,503,518,493,506
515,502,518,500,510
519,505,519,514,512
530,509,522,519,509
532,512,522,528,510
533,511,518,535,513
526,514,516,538,516
517,512,511,536,521
513,511,510,534,523
494,501,497,520,525
492,501,499,514,527
491,501,501,507,517
492,502,504,502,509
495,501,506,498,508
504,503,513,496,503
516,504,518,497,502
517,504,519,498,503
514,503,520,499,505
513,503,520,505,507
516,504,516,511,512
537,511,523,522,513
539,513,524,531,513
532,518,524,536,519
528,514,516,537,517
529,514,513,535,520
517,508,505,529,521
504,503,500,519,527
498,502,500,511,519
500,503,503,504,519
502,502,506,500,511
503,505,509,498,508
505,503,514,497,505
507,506,521,494,505
511,504,518,496,506
513,503,519,503,511
516,505,521,503,515
519,506,520,514,510
522,511,521,528,514
533,516,522,533,512
535,515,521,538,514
526,513,515,537,519
514,510,509,532,520
507,503,501,525,528
500,504,500,517,524
498,502,504,512,519
500,502,510,504,513
504,502,508,500,508
505,506,512,497,505
508,505,513,501,503
515,504,519,497,506
513,502,519,497,506
515,503,520,501,509
519,504,520,509,511
527,510,523,519,513
527,511,522,526,509
527,512,520,533,515
527,515,519,538,517
516,508,514,540,520
512,510,509,532,521
498,503,501,517,527
493,501,498,516,525
493,503,501,512,519
501,503,506,501,512
507,502,506,496,509
511,502,513,493,507
514,502,517,496,504
514,503,518,495,508
515,502,518,497,507
516,504,521,505,515
518,506,521,512,513
524,509,523,521,515
525,518,523,534,516
519,513,517,538,520
518,513,516,537,517
519,512,510,533,521
511,509,506,529,532
495,501,498,516,528
487,499,503,512,523
485,499,500,504,514
509,501,505,500,506
511,501,508,497,504
508,504,515,497,503
511,502,516,496,498
522,502,516,498,495
522,504,521,503,504
520,504,521,507,506
522,507,521,515,509
525,510,522,525,507
521,512,525,531,509
519,515,519,535,514
519,513,514,535,516
525,513,512,534,517
508,504,500,521,530
500,502,499,512,539
509,501,499,507,528
512,502,505,502,526
503,502,508,498,519
504,502,513,495,506
508,501,520,498,496
511,504,519,500,502
511,504,523,501,508
511,503,519,502,513
515,505,520,508,514
537,514,525,523,509
536,511,522,527,507
533,514,522,533,518
530,516,520,538,520
521,513,514,535,524
514,510,509,530,520
499,499,501,527,518
494,499,497,511,515
495,500,502,507,518
497,502,507,504,516
504,502,509,498,509
509,502,514,497,501
513,502,517,501,505
509,501,517,497,505
511,502,520,498,509
512,502,520,503,512
516,507,520,513,515
537,511,523,521,509
538,511,522,535,512
529,513,518,536,513
526,515,517,536,515
520,515,516,532,518
511,508,506,523,531
498,502,499,515,525
497,502,501,511,522
498,503,509,506,516
501,502,508,503,507
501,501,510,498,507
504,502,514,494,512
513,503,512,495,507
515,504,520,495,514
516,505,521,502,514
518,503,520,506,514
522,507,522,517,508
525,509,522,525,502
528,515,522,528,512
526,512,518,535,515
519,512,515,536,519
516,512,512,534,521
506,503,502,523,523
494,502,499,515,521
498,501,500,509,518
501,502,504,503,517
505,503,509,500,512
506,502,513,498,508
508,504,517,497,504
508,502,517,497,506
502,503,519,498,507
506,501,518,503,509
513,504,520,509,511
519,506,522,524,514
524,512,524,529,511
520,513,520,533,512
527,515,518,537,512
531,517,517,535,513
520,513,512,530,513
502,506,504,519,521
500,503,499,514,524
501,501,502,503,520
501,502,510,503,508
504,506,512,499,511
506,503,514,497,515
511,503,516,495,515
511,503,513,500,519
514,503,520,499,517
515,503,519,505,512
518,506,521,513,508
524,509,523,521,508
527,512,523,531,511
527,516,523,535,518
523,512,515,534,516
516,510,509,533,520
511,509,507,528,525
502,501,498,516,525
495,501,499,514,522
497,501,503,504,519
508,504,509,501,514
505,502,508,501,511
507,503,515,497,507
510,508,521,498,510
509,502,519,497,514
512,502,520,500,520
515,508,520,506,529
518,507,522,515,522
524,515,527,529,520
526,513,523,533,521
520,512,519,536,513
520,514,516,539,507
521,512,512,534,500
508,507,504,526,510
500,502,499,515,516
499,502,505,507,515
504,501,504,503,507
509,502,511,501,496
510,503,512,498,494
510,502,515,496,494
513,503,518,500,500
512,501,519,498,500
515,503,524,504,504
520,509,525,514,513
525,510,523,520,518
527,513,524,531,517
528,514,522,535,515
525,515,520,538,518
515,512,512,533,522
511,512,512,530,524
496,502,496,522,536
497,500,498,509,526
507,502,502,507,511
506,502,505,500,508
505,502,509,497,508
506,502,512,501,505
510,506,521,499,507
512,500,516,502,510
516,504,522,501,513
516,504,522,506,512
521,508,523,514,517
528,510,522,521,515
530,516,526,533,519
527,514,524,535,524
524,514,517,534,514
521,511,511,532,515
510,507,506,526,522
502,505,501,518,526
498,505,503,509,519
503,501,502,505,517
499,504,508,504,515
501,502,510,497,518
509,506,517,502,508
509,504,518,499,496
511,503,517,497,490
515,505,523,500,505
521,503,516,510,505
524,508,523,516,502
527,512,522,524,505
531,516,523,532,516
525,515,520,535,521
522,513,515,533,520
510,511,508,530,520
495,506,503,522,529
491,502,499,516,533
490,500,500,506,520
488,501,503,502,509
499,502,508,499,501
501,502,514,498,505
515,503,516,498,503
524,504,517,498,503
522,509,524,500,500
521,503,519,503,501
524,505,520,511,506
528,509,522,522,507
531,513,524,527,507
533,515,521,532,516
530,516,518,535,517
523,513,514,533,520
514,511,509,529,521
503,504,500,518,527
497,501,498,507,528
499,503,502,505,524
503,505,506,506,515
503,505,510,500,511
505,504,517,499,507
512,503,515,496,502
514,503,517,498,505
516,503,519,501,510
520,504,525,510,514
522,505,524,512,511
524,512,529,526,512
528,513,527,529,510
522,513,520,533,515
517,512,508,532,515
507,511,507,531,521
506,509,505,527,527
498,504,499,516,529
496,503,496,513,522
503,501,502,504,513
509,502,504,501,506
502,504,510,496,506
505,505,516,498,508
504,504,517,499,510
505,506,518,498,513
509,503,520,501,522
512,504,523,506,523
519,506,520,514,516
528,511,521,524,504
534,514,522,529,501
532,513,521,534,503
531,513,514,533,510
520,512,510,530,515
510,505,500,523,525
504,505,500,513,526
503,502,500,505,525
504,503,504,506,521
504,505,507,504,519
504,501,510,495,518
508,508,518,501,503
508,503,518,498,497
511,503,520,498,501
516,508,521,505,508
521,506,521,510,512
523,508,521,519,515
537,511,522,527,513
540,513,521,534,512
531,514,519,536,517
517,512,515,534,520
506,510,510,530,518
495,504,502,520,528
488,500,498,511,521
493,503,503,507,520
497,501,506,503,514
498,502,508,498,510
513,502,513,498,497
513,504,518,498,504
525,503,517,498,501
523,505,521,503,509
516,504,519,504,514
522,508,521,511,516
533,511,522,521,514
533,513,523,528,512
527,514,519,532,515
519,513,516,534,516
525,513,514,532,522
515,509,509,528,525
500,501,499,516,527
496,502,496,511,526
510,505,508,504,514
512,503,515,505,510
509,504,516,499,506
510,505,528,502,504
508,504,527,499,506
514,504,527,497,507
519,502,532,503,500
519,505,528,511,500
523,507,502,514,501
531,512,509,523,509
530,511,517,530,519
526,513,514,532,527
521,513,509,534,528
515,512,523,532,520
499,504,517,520,521
496,504,511,513,520
492,503,507,506,521
497,501,482,498,522
496,500,470,494,517
500,499,498,500,510
501,501,514,504,509
502,503,525,502,516
513,505,524,505,517
509,501,522,510,522
512,509,523,515,518
519,512,525,522,523
536,513,524,528,522
540,512,519,532,505
531,511,514,534,499
522,511,510,531,517
517,510,509,531,522
508,501,499,517,515
506,500,497,509,512
505,500,499,505,498
504,500,505,500,504
501,500,511,499,502
509,504,520,500,501
513,504,521,500,489
516,502,517,499,493
517,503,514,501,499
517,504,518,505,500
