CH1,CH2,CH3,CH4,CH5
521,514,512,561,516
513,511,501,561,518
499,497,491,544,520
495,500,491,527,517
500,502,496,518,509
497,503,501,508,506
492,499,504,500,510
491,500,510,497,504
497,503,514,493,506
497,502,514,499,505
507,503,518,501,506
521,507,519,513,506
527,509,518,524,505
542,513,521,540,507
545,516,519,552,516
534,517,516,563,524
526,516,512,565,521
518,514,506,564,520
510,509,498,553,527
502,503,493,537,529
496,504,495,521,522
501,500,496,513,518
507,502,503,506,512
503,501,504,495,511
507,508,511,495,506
512,504,515,494,515
508,502,513,494,521
513,505,516,506,511
513,506,517,514,506
518,510,519,528,501
525,513,520,544,503
530,517,519,558,507
528,518,516,565,512
522,519,512,565,518
518,514,505,557,525
503,504,493,545,532
496,503,491,533,536
496,497,496,518,524
498,502,498,508,518
491,501,503,499,504
496,499,509,494,497
501,504,516,493,498
506,503,515,492,505
506,506,515,496,510
508,503,516,504,513
523,507,518,518,515
528,512,520,533,507
531,516,522,548,513
526,516,516,559,513
524,516,512,563,512
516,514,507,563,511
514,510,502,555,517
500,504,492,541,520
489,499,490,526,523
492,501,496,516,519
497,502,501,506,513
494,501,504,497,510
496,501,508,494,503
506,503,513,494,506
507,502,514,495,511
510,506,516,498,514
516,509,523,511,514
518,510,518,523,514
524,510,518,535,516
524,515,519,550,522
522,517,515,565,527
518,516,512,565,532
507,511,505,560,524
499,510,497,553,514
507,504,494,539,513
504,501,494,527,509
495,503,496,515,496
506,506,502,504,492
505,504,505,495,504
508,503,510,491,500
508,502,511,490,513
509,503,515,491,519
509,504,516,499,517
518,505,520,513,513
521,510,518,527,502
529,515,520,542,506
526,517,518,555,511
531,517,513,561,512
527,512,506,565,515
515,513,507,559,516
500,506,496,544,524
493,502,494,533,524
491,501,495,519,518
495,501,499,508,513
501,504,503,500,506
500,502,507,496,505
510,504,513,495,507
513,506,516,493,509
508,504,517,495,513
510,506,519,506,515
513,507,519,516,515
518,515,523,531,516
521,518,524,546,516
520,518,518,557,517
526,517,512,562,514
519,514,505,557,520
524,515,504,562,523
510,503,499,545,525
496,505,496,526,521
494,502,498,516,519
498,502,502,506,512
496,501,505,497,507
501,504,510,493,504
504,504,513,491,505
511,506,515,496,504
519,506,517,495,509
521,506,518,506,502
523,509,519,522,508
528,513,517,538,509
534,517,520,552,502
527,516,512,562,509
527,516,510,564,512
512,513,504,562,516
507,509,499,553,521
496,504,493,538,523
495,505,499,523,523
492,501,497,510,521
493,502,501,501,515
496,503,506,493,513
504,504,511,498,508
503,503,515,498,506
504,503,514,495,506
511,503,517,505,509
522,507,518,515,512
523,511,519,526,511
528,513,518,545,507
531,518,519,555,517
527,519,514,561,521
523,517,509,561,527
516,513,504,555,530
506,505,494,550,524
495,505,492,533,515
491,503,496,521,516
491,498,503,508,513
493,502,502,499,514
496,501,507,493,508
503,502,510,491,509
499,502,516,491,506
505,504,514,494,502
508,505,518,505,507
507,510,517,516,508
517,514,521,532,506
522,522,521,547,510
533,519,516,557,514
525,518,512,561,519
513,518,510,560,527
518,516,505,556,529
508,507,494,545,530
497,502,491,524,526
499,503,498,514,517
505,504,500,505,508
508,502,503,496,501
512,505,510,492,505
513,506,513,495,508
508,506,515,494,504
512,504,516,497,512
517,506,517,508,505
521,508,518,521,510
527,515,520,534,512
531,518,520,550,515
535,519,515,560,513
526,517,511,562,515
516,513,505,559,522
509,508,499,550,529
494,503,492,535,529
491,504,499,523,526
484,500,496,509,524
490,500,502,497,510
494,504,507,493,505
502,504,512,493,499
505,503,513,492,502
519,506,517,496,503
519,507,514,506,510
521,508,520,514,509
523,511,519,525,510
529,516,521,541,511
531,520,520,555,518
524,518,513,561,520
517,515,508,561,519
508,518,505,558,518
495,505,494,544,529
488,504,492,531,526
485,502,495,521,526
503,507,500,508,516
509,505,504,502,511
507,503,507,494,514
516,506,514,493,502
509,505,515,492,507
508,505,516,495,514
513,507,519,505,518
518,508,518,516,522
523,514,520,531,515
525,519,525,546,507
529,517,518,562,499
529,518,514,563,507
523,518,511,560,524
515,513,504,555,535
498,505,497,538,538
496,501,490,523,525
506,506,495,516,502
503,504,501,507,503
500,503,506,497,507
499,505,510,494,505
507,506,515,492,507
511,506,517,494,507
513,511,519,500,505
516,509,520,510,509
517,511,519,521,505
527,515,521,536,508
529,519,522,554,504
525,518,515,559,509
522,516,509,559,509
522,515,504,556,528
512,512,501,549,532
495,502,491,531,529
494,502,492,521,518
496,502,497,509,514
502,505,504,502,510
499,505,508,493,508
500,505,512,492,510
509,504,514,487,508
511,503,515,496,507
514,505,518,499,513
515,510,519,512,516
515,516,522,526,518
535,518,522,540,512
532,521,525,553,516
526,518,515,560,520
518,516,508,560,518
511,517,509,558,518
515,507,495,543,517
511,506,494,531,519
501,507,496,518,517
499,502,502,506,511
497,505,503,498,508
497,503,506,492,499
504,505,513,489,502
505,506,515,489,520
509,507,518,491,531
509,502,519,503,536
515,509,522,514,524
530,514,520,532,493
538,519,522,543,495
533,523,521,557,498
534,520,514,563,500
525,516,508,559,518
518,515,508,554,520
501,506,494,538,528
498,504,493,525,523
495,505,496,513,518
496,506,502,502,512
496,504,506,496,513
500,506,512,493,509
504,507,519,490,515
506,506,517,494,518
507,502,522,495,522
513,507,519,507,508
520,509,519,519,493
526,513,520,533,501
528,517,521,547,509
527,518,516,555,519
524,520,515,560,525
516,518,508,557,527
510,513,502,550,534
504,505,494,534,518
494,505,495,524,515
494,502,498,508,516
500,504,502,495,519
498,503,507,493,514
503,505,512,490,505
501,504,514,489,506
517,507,518,490,505
523,513,520,502,497
521,510,521,512,495
523,511,519,524,489
531,516,521,542,491
534,523,527,554,499
528,518,518,559,512
525,518,514,560,523
520,521,517,555,537
502,510,504,542,550
495,505,495,530,544
491,502,496,518,526
490,500,496,505,520
493,500,495,496,509
501,502,504,490,494
508,506,513,497,477
509,509,516,493,494
512,505,520,495,504
519,507,518,505,509
524,509,518,514,510
526,512,520,528,513
527,517,520,541,522
527,518,516,553,522
525,519,512,560,521
516,513,504,560,515
513,515,508,556,510
496,505,497,542,521
499,504,495,524,526
501,501,497,510,518
499,502,503,503,510
506,503,508,499,511
510,506,515,494,503
514,507,519,492,501
506,504,525,493,500
510,506,522,498,501
518,509,523,509,498
525,511,526,522,489
525,515,527,536,495
530,514,523,554,504
523,515,523,554,525
521,518,519,564,529
511,517,524,561,524
507,514,523,554,527
489,503,513,534,557
484,504,501,518,563
489,504,504,508,524
494,501,488,498,485
500,505,494,489,459
525,503,509,491,460
529,503,513,493,456
525,502,514,491,469
515,501,513,492,530
514,509,521,506,529
525,513,519,523,498
536,517,517,537,496
530,524,515,560,538
529,521,514,571,529
523,521,519,575,529
519,523,529,570,550
501,515,537,545,582
485,509,550,521,581
489,506,548,506,519
495,502,516,501,508
496,504,487,492,518
488,498,463,479,520
499,505,506,488,521
504,505,518,497,498
507,503,508,495,464
514,504,509,502,509
514,506,503,512,511
533,512,507,529,493
546,516,508,547,489
545,519,506,559,498
543,514,502,570,502
533,516,513,563,521
521,514,516,558,535
510,507,510,541,528
497,505,499,522,524
505,505,498,514,506
502,507,499,505,499
503,504,510,495,482
506,508,513,494,484
503,507,517,492,477
504,507,519,489,491
504,505,516,490,506
505,504,520,500,524
519,506,528,521,508
534,515,536,541,537
538,520,535,550,537
532,516,525,547,528
525,517,498,535,546
511,513,505,563,549
507,510,511,556,522
504,507,506,543,494
503,505,505,531,486
506,504,484,514,504
497,506,506,498,524
501,507,517,489,503
509,511,529,491,515
506,508,529,488,509
508,506,514,495,516
513,505,501,505,507
530,508,510,537,501
535,508,533,540,510
539,518,551,556,509
549,521,553,567,489
536,512,485,551,485
519,512,496,549,517
512,513,505,558,508
494,508,487,547,518
489,510,507,536,502
492,507,499,522,515
497,503,499,504,530
510,504,519,501,513
506,505,529,499,491
503,506,531,490,490
502,505,526,485,514
524,508,493,486,512
526,508,491,493,511
530,511,499,503,496
532,513,508,509,496
526,514,517,528,512
531,521,521,550,540
510,528,541,583,628
501,524,528,584,590
496,515,509,572,568
482,503,505,561,540
488,499,475,545,477
501,495,500,525,406
517,501,506,485,419
527,505,498,472,431
522,503,514,482,441
502,504,509,479,547
491,503,517,487,596
498,507,526,500,549
512,510,525,510,516
514,501,519,519,496
529,508,516,533,473
553,518,521,555,448
550,519,518,561,447
543,521,516,565,458
517,513,506,552,542
504,506,498,542,536
496,499,489,527,510
490,501,492,511,529
485,498,495,498,545
486,500,501,490,539
506,514,519,496,547
502,511,516,495,586
501,510,520,494,611
497,509,522,494,576
512,510,526,497,534
513,511,524,502,534
503,511,521,510,505
517,515,522,526,496
520,517,518,537,486
517,514,511,565,481
513,518,506,576,461
512,516,506,566,453
504,505,492,539,516
531,507,493,530,503
508,506,496,518,519
506,505,500,503,505
500,497,498,491,556
500,500,508,495,549
512,509,515,497,498
517,504,517,493,492
518,507,539,493,476
514,503,541,496,513
510,503,539,507,548
526,510,515,527,541
528,522,519,548,526
531,517,498,558,520
527,524,515,559,516
516,520,508,556,529
518,517,499,553,533
507,507,509,534,528
499,507,516,517,534
484,501,531,508,532
501,508,515,513,522
509,507,471,495,510
513,511,505,508,503
494,504,509,497,499
497,504,515,498,508
508,505,516,496,516
510,503,514,505,518
508,507,518,512,532
519,512,522,531,525
528,518,522,548,524
523,514,513,561,516
534,515,498,571,492
531,512,494,565,497
516,514,501,556,523
506,507,491,525,509
501,505,503,520,480
501,504,505,514,484
495,499,504,499,493
496,500,492,479,500
514,506,524,483,505
516,506,515,494,539
507,505,517,495,527
506,505,518,497,564
526,514,521,510,543
530,513,511,517,517
518,515,505,528,515
515,514,502,545,495
537,518,506,554,514
532,513,514,560,487
524,518,516,562,456
502,513,510,541,548
477,503,510,521,552
487,500,531,511,520
500,504,553,503,482
505,501,521,499,506
506,504,533,511,514
510,505,521,531,487
490,502,486,490,546
506,508,503,486,499
513,506,509,492,500
517,510,515,502,553
524,511,520,514,464
533,510,517,528,492
540,513,510,543,521
533,521,512,562,489
523,523,507,582,527
501,511,491,552,568
473,501,503,528,537
485,495,491,515,499
508,495,491,507,475
504,494,487,495,489
515,497,493,489,456
517,506,509,493,454
518,502,525,493,486
510,500,523,488,525
519,499,529,497,522
523,508,536,509,527
533,513,540,524,506
530,517,548,538,488
519,517,538,542,536
528,517,485,546,528
528,523,514,561,517
523,514,513,558,532
508,512,508,548,540
498,504,495,532,525
489,501,481,521,528
482,504,496,515,538
478,499,497,499,530
483,503,507,495,536
494,507,513,495,538
513,507,514,494,513
518,505,520,489,517
510,501,518,496,510
501,503,516,508,473
523,510,520,522,506
539,514,516,531,506
537,514,523,542,510
534,511,513,551,480
536,512,512,552,483
532,516,501,548,507
514,505,480,534,533
498,501,485,520,523
501,503,497,511,508
489,503,502,499,513
486,502,507,499,473
491,504,513,500,502
486,505,519,494,545
488,504,523,497,486
485,506,526,497,503
482,505,526,508,519
510,512,529,524,481
535,518,520,525,491
538,521,518,537,540
526,513,505,540,551
523,512,494,549,547
521,508,502,547,491
532,513,513,553,444
525,507,506,538,461
511,504,501,519,526
502,507,505,510,569
523,503,503,507,503
516,503,501,497,478
501,503,517,495,474
490,503,523,491,541
510,507,543,498,526
526,504,527,489,492
533,504,510,494,481
525,509,523,506,508
527,514,531,522,519
546,524,530,553,519
537,519,512,576,521
526,519,508,570,529
518,513,503,561,542
512,507,492,545,544
496,503,491,523,575
486,505,502,510,576
491,505,509,516,521
490,505,509,507,488
494,503,528,488,501
505,505,540,483,535
513,503,544,489,511
528,507,524,490,514
521,506,486,489,521
517,508,512,517,510
512,514,532,534,554
534,521,537,553,478
538,517,524,560,436
544,518,512,550,440
530,512,494,540,474
493,503,507,548,543
503,503,516,538,559
508,503,504,522,533
500,499,463,509,517
496,505,491,507,479
508,503,505,497,453
509,502,511,494,479
513,499,513,485,488
516,499,526,480,453
523,503,540,484,481
518,507,540,500,577
522,510,536,514,520
524,512,525,525,493
525,515,533,542,534
529,514,508,531,545
527,520,495,542,534
509,523,517,553,543
496,518,504,555,577
494,510,493,542,553
494,508,495,535,575
480,503,496,520,547
489,510,503,509,514
485,506,511,501,478
495,503,523,498,440
504,495,511,490,464
512,498,500,483,502
507,498,505,480,591
523,504,516,495,544
540,502,531,513,513
541,504,507,528,459
552,515,526,544,441
553,523,531,559,421
537,519,514,563,442
508,512,504,558,539
509,508,501,560,586
501,503,493,543,580
508,501,497,525,531
505,501,500,513,509
494,502,508,499,476
463,499,506,477,556
484,502,503,478,528
503,501,512,491,513
496,503,519,496,509
477,500,518,499,488
459,500,515,504,497
479,505,517,526,494
480,510,518,538,537
482,516,521,549,550
491,512,512,553,540
530,514,507,554,529
549,520,510,555,561
550,512,496,542,546
529,509,495,531,528
513,506,497,518,504
527,502,497,506,495
518,507,506,495,517
516,503,507,490,494
515,504,513,493,487
518,499,515,490,517
515,503,510,492,510
521,504,517,500,500
521,507,514,509,498
528,510,517,529,492
529,517,522,540,497
528,518,514,551,506
533,518,511,555,529
542,523,510,554,557
529,511,500,553,538
512,504,492,531,555
506,500,493,519,485
512,499,493,514,469
509,503,502,502,474
511,503,518,497,482
508,504,523,490,511
518,504,526,489,504
510,502,509,491,501
521,506,510,493,496
530,507,513,504,500
527,508,517,520,522
532,513,520,538,515
544,522,523,556,496
538,521,520,564,522
526,519,516,564,533
509,514,507,552,528
502,512,499,534,546
495,500,489,520,512
490,502,490,515,504
498,503,495,509,499
491,503,505,509,522
489,506,511,500,516
498,504,523,488,513
511,502,512,475,533
522,507,517,469,515
518,505,525,499,522
520,507,512,516,493
525,505,514,517,470
518,508,511,530,513
535,514,517,544,496
534,514,504,546,512
528,518,527,546,547
524,517,535,547,542
509,509,525,538,550
489,500,483,518,554
485,499,469,512,498
487,502,495,511,492
506,503,510,504,475
510,501,513,489,496
513,506,532,495,506
518,505,537,500,531
512,500,536,494,550
512,497,519,501,534
520,503,499,502,475
528,512,500,510,464
527,514,509,539,481
537,519,510,556,515
532,520,514,557,552
526,515,510,549,529
514,512,504,550,518
489,502,497,534,521
491,500,490,522,509
494,501,486,510,526
500,504,494,501,546
498,500,497,489,543
503,501,507,486,516
508,499,522,488,492
509,500,527,492,492
502,503,522,492,491
515,503,521,507,494
520,506,526,516,527
525,514,524,526,531
525,520,531,545,497
523,515,527,551,519
516,513,520,556,507
514,512,519,553,499
516,507,483,549,496
498,499,487,534,507
493,500,489,526,505
491,502,501,508,513
497,504,512,498,521
509,502,512,485,508
513,504,516,484,504
505,499,517,485,490
513,505,514,491,513
514,506,526,500,501
506,507,525,514,516
513,510,525,521,525
523,516,524,533,520
544,516,525,548,502
538,513,516,552,499
531,515,511,554,499
518,513,508,551,520
497,506,496,536,525
489,501,495,524,517
482,501,498,512,513
498,502,503,507,515
522,507,504,493,503
513,503,506,492,484
509,507,512,487,513
508,509,519,488,535
507,507,527,489,527
510,506,523,501,521
511,509,526,511,524
529,522,529,528,518
542,517,525,540,511
534,517,521,558,518
530,520,523,570,520
520,515,520,567,516
510,511,505,559,520
511,504,489,533,527
495,498,490,506,545
489,503,495,498,551
484,499,507,501,530
489,502,514,492,503
493,502,517,478,489
476,500,517,483,525
499,500,516,487,503
514,504,525,497,529
518,506,522,504,505
539,510,521,513,493
538,513,523,527,494
542,517,526,540,503
536,520,527,549,518
530,520,518,557,510
516,511,516,558,499
508,507,504,547,485
493,501,499,528,540
492,501,497,512,542
496,499,500,499,511
495,502,507,493,480
494,504,514,487,492
516,505,522,490,478
515,503,518,487,492
524,504,517,488,517
529,503,516,492,542
535,508,518,505,571
537,510,519,515,534
533,513,519,526,509
532,518,526,543,513
515,515,520,554,490
504,515,517,565,479
493,511,511,563,504
493,506,501,542,516
493,503,501,529,526
490,504,498,513,533
498,499,494,503,524
515,502,505,498,499
524,499,512,490,491
518,501,516,487,479
516,503,528,488,493
516,502,540,489,503
520,506,534,501,525
508,501,523,506,558
541,515,506,529,480
545,521,507,535,491
541,516,520,546,503
536,516,524,553,502
525,517,524,556,507
514,505,494,547,517
506,508,502,528,526
506,503,523,515,521
506,504,525,504,523
501,502,507,488,512
500,499,481,495,514
499,500,494,493,515
508,507,518,489,505
508,500,521,484,506
510,498,517,491,511
514,509,520,509,509
518,508,523,524,513
519,515,524,539,521
525,521,537,557,525
526,515,519,562,523
533,517,513,557,491
527,514,508,555,467
520,510,505,548,499
507,502,499,535,511
500,501,496,519,536
492,500,504,514,530
489,502,512,507,535
491,500,507,493,530
504,502,518,476,516
513,503,513,474,512
508,503,521,485,513
514,505,524,490,511
519,507,533,500,510
527,506,527,516,510
527,513,518,533,512
524,516,517,548,519
526,521,521,569,523
524,519,518,563,529
514,510,503,544,529
497,505,499,535,533
493,503,500,520,541
488,501,500,508,545
489,502,507,507,537
493,507,516,497,515
492,504,519,490,488
501,502,519,486,501
513,501,517,484,512
507,503,521,490,526
523,504,523,498,507
530,508,525,511,501
533,516,532,531,489
532,516,529,539,464
543,516,525,553,457
521,512,516,556,517
518,510,505,551,534
508,504,505,550,522
490,500,493,533,505
479,493,491,518,521
492,499,503,506,526
486,502,509,497,532
484,498,509,488,536
494,498,513,490,492
529,504,523,487,497
532,506,520,488,511
525,504,524,493,510
521,504,522,502,503
517,506,523,513,514
518,511,526,531,509
528,521,528,546,508
534,516,522,558,508
531,518,518,560,516
521,516,514,556,522
526,516,512,550,527
502,510,505,536,572
487,505,504,518,568
490,501,503,503,556
504,498,507,494,500
519,500,512,490,474
522,503,517,486,472
524,502,514,484,491
518,501,519,484,507
524,496,536,492,511
526,505,545,506,525
517,510,543,525,536
522,513,518,535,531
516,516,513,548,513
517,517,504,554,507
510,518,507,554,503
519,512,504,550,505
510,509,498,537,541
512,498,492,525,521
509,502,500,516,499
503,502,501,502,502
500,499,506,492,511
513,496,512,488,511
513,502,517,486,505
514,503,517,484,502
517,500,517,488,501
525,502,518,493,502
524,506,522,512,507
532,514,527,525,512
534,514,524,536,511
531,516,523,554,509
530,521,522,557,504
522,515,513,556,511
517,511,508,549,528
499,504,496,536,522
495,503,504,521,528
493,504,514,513,517
494,504,521,501,514
500,502,521,492,513
501,500,511,488,507
510,504,509,485,496
511,498,520,484,504
510,502,519,493,511
515,506,519,503,514
525,508,520,515,523
530,512,526,531,509
530,515,523,542,521
527,515,516,552,505
523,518,515,556,503
515,515,510,552,512
510,508,503,545,521
502,504,500,533,529
499,502,499,515,529
494,502,497,501,521
497,502,504,491,515
498,500,508,482,511
506,501,512,483,504
508,504,510,482,510
511,504,509,487,512
513,505,513,501,513
517,507,513,510,518
519,509,522,518,514
525,512,533,536,511
532,519,541,552,509
534,519,530,560,505
530,515,519,556,511
522,517,513,553,510
507,505,502,537,516
502,502,499,531,508
498,501,505,513,515
487,499,504,502,530
495,500,514,496,507
501,502,511,488,506
503,501,516,489,501
499,501,525,488,498
504,501,526,494,505
505,501,526,505,481
509,503,525,510,483
505,507,526,526,498
501,513,528,541,539
530,517,524,551,534
533,517,521,557,530
507,512,513,554,532
501,515,511,555,507
491,502,499,536,521
497,499,498,521,524
498,498,501,510,515
479,502,505,495,525
497,503,513,490,525
522,507,519,489,507
516,505,521,486,519
505,501,519,484,531
504,501,521,487,519
515,503,520,498,511
500,501,519,510,497
515,510,526,529,493
522,517,525,544,502
514,516,520,552,522
501,513,515,553,532
506,509,507,551,498
544,512,506,547,503
542,507,501,533,517
538,503,500,516,508
517,500,501,504,506
503,502,506,498,504
497,501,508,487,509
506,502,518,483,504
518,503,521,488,500
523,504,524,485,503
527,504,521,493,511
543,506,522,500,511
539,510,522,515,515
533,513,525,528,515
538,519,523,541,516
549,520,519,554,509
531,517,515,554,517
519,513,509,552,511
498,505,499,538,516
492,501,496,525,514
498,500,499,514,509
494,499,504,508,507
493,500,507,493,508
512,501,513,490,505
513,502,517,488,507
531,504,519,490,494
534,506,520,491,502
527,505,522,499,504
525,506,523,511,506
527,511,525,526,508
546,519,526,539,502
542,519,522,553,508
531,518,518,556,512
521,514,513,553,514
523,514,509,552,521
509,506,497,535,529
497,504,497,524,525
491,500,500,510,524
502,499,503,500,519
502,500,509,491,521
505,503,518,488,500
521,506,524,488,490
515,503,522,485,501
517,505,522,492,508
516,505,524,503,505
520,510,522,516,503
524,510,528,531,505
527,512,525,544,506
525,515,520,556,514
534,517,515,558,513
534,516,511,553,521
523,511,505,544,521
503,504,495,530,524
496,500,499,513,518
498,505,503,502,511
498,499,510,492,512
501,500,511,487,512
504,501,516,484,509
510,504,521,486,507
511,503,522,489,507
515,504,523,495,509
519,508,524,504,508
524,508,522,510,509
531,514,525,528,510
534,516,521,540,511
526,515,515,546,515
524,517,513,550,518
514,512,508,546,519
502,500,499,533,525
493,500,494,520,528
496,499,498,510,525
493,500,503,496,523
495,502,507,489,514
498,501,513,486,513
499,502,520,486,504
498,501,522,486,506
506,503,524,490,502
511,503,529,500,507
518,506,526,513,513
519,509,527,527,513
530,517,529,539,510
541,518,525,552,510
535,519,520,558,510
524,518,514,555,512
512,511,510,552,519
496,503,501,534,524
489,500,496,520,524
485,499,499,508,519
492,499,503,494,518
503,500,508,490,509
513,504,515,488,507
507,504,519,486,503
506,502,524,486,505
510,502,522,493,505
509,503,522,501,509
517,510,525,514,511
526,513,526,528,508
526,518,527,542,515
532,519,523,553,516
527,516,517,555,516
516,512,511,550,524
502,507,505,544,527
479,499,499,530,535
479,503,501,517,537
481,501,506,507,541
484,502,510,503,524
480,501,516,492,513
488,506,522,486,516
517,508,532,491,491
516,507,529,492,484
527,506,527,494,489
541,511,524,505,495
540,513,522,515,506
554,514,524,528,510
559,519,526,543,509
549,518,519,548,511
538,517,516,551,520
527,513,514,556,518
507,504,504,533,534
503,502,503,524,525
494,499,505,510,533
494,501,506,503,530
497,500,501,494,496
517,498,508,485,487
522,500,516,484,491
515,501,522,485,499
512,502,521,488,507
515,502,522,494,520
518,506,524,510,515
523,512,527,523,509
533,517,528,537,513
533,518,525,546,520
529,519,522,551,511
522,513,512,552,506
517,510,507,545,517
502,504,498,533,532
493,499,494,516,527
499,501,502,509,511
498,500,506,500,514
500,503,512,494,514
504,506,516,490,516
508,503,520,487,515
506,502,520,483,519
509,502,523,491,512
514,505,524,493,509
522,507,524,512,509
527,516,526,528,509
534,516,526,543,510
531,515,520,554,516
526,517,517,556,519
525,516,513,554,522
513,509,506,544,526
495,501,498,527,538
494,505,499,516,523
493,500,502,508,513
496,500,511,497,509
501,501,510,489,505
504,505,518,492,506
508,504,527,500,510
511,505,530,497,512
510,504,527,498,518
517,504,524,492,519
520,507,519,501,521
532,511,528,525,520
533,520,524,542,522
530,515,518,547,525
522,515,514,552,515
516,512,510,547,516
505,508,504,538,522
498,504,503,525,525
496,501,500,510,530
496,499,501,501,522
495,500,509,497,513
500,500,514,490,505
505,502,519,491,497
508,500,525,488,495
510,503,524,492,508
518,504,524,498,519
522,508,526,510,518
526,512,526,523,517
534,517,528,540,492
532,516,523,548,500
526,514,516,551,512
520,515,516,553,518
513,511,509,549,517
500,503,498,532,519
494,498,498,520,521
496,506,503,512,520
497,502,509,500,508
498,501,511,498,511
500,501,515,489,507
507,504,523,487,502
509,503,520,490,516
512,505,524,493,512
516,503,526,500,514
523,506,522,512,507
528,513,526,528,506
529,517,527,542,512
530,517,521,551,515
527,517,513,556,517
518,512,510,549,519
516,510,506,545,519
498,502,498,529,524
492,500,498,516,535
495,502,504,507,526
500,501,507,497,524
500,499,515,488,521
502,501,514,485,520
507,501,518,482,514
509,502,520,488,508
517,503,524,495,507
523,507,526,512,509
523,508,523,517,510
525,512,523,529,517
534,518,523,543,510
530,517,518,550,512
520,511,510,549,517
509,513,506,548,514
491,502,499,540,525
485,501,498,529,513
485,501,502,515,529
486,500,503,499,526
505,502,510,498,510
508,503,514,489,501
512,501,516,486,509
519,502,519,489,509
521,507,525,488,513
525,506,524,501,520
530,507,526,510,507
526,516,529,525,514
525,516,527,538,515
527,516,524,548,513
524,516,518,553,513
518,514,512,553,524
524,514,506,548,524
517,506,499,537,509
506,500,497,520,524
510,501,501,515,519
504,500,504,501,511
501,500,509,493,501
511,500,512,485,502
522,502,517,487,489
514,501,518,483,503
516,501,518,491,517
517,505,523,501,513
529,507,523,514,503
542,513,525,528,503
537,512,521,538,505
535,514,519,548,511
530,515,515,550,518
523,513,511,551,517
516,512,508,545,532
496,505,501,526,547
494,501,497,515,546
498,501,503,506,530
496,501,507,499,520
498,501,512,492,497
505,505,515,490,490
506,501,518,485,502
510,502,521,489,503
516,504,524,498,505
520,507,524,505,510
527,508,523,518,513
530,514,524,532,511
534,515,524,543,511
526,516,518,549,522
524,515,514,551,525
516,512,510,551,525
506,503,498,540,525
497,502,497,527,535
493,500,498,513,523
494,497,508,506,512
498,502,508,497,518
501,500,514,488,521
507,502,519,486,513
511,504,519,487,515
512,505,520,481,523
516,501,520,490,525
522,505,520,510,517
525,507,529,528,515
534,515,526,541,516
533,516,522,550,518
530,514,517,556,512
522,514,511,552,531
514,511,506,544,533
504,506,502,532,528
496,501,496,514,513
492,500,499,504,502
497,503,504,494,502
500,502,516,492,502
505,502,516,488,502
506,502,520,488,501
510,501,519,485,510
518,503,523,490,508
521,506,525,500,512
525,508,526,517,513
528,514,531,526,517
534,518,528,540,509
530,516,524,548,512
525,515,516,552,514
519,513,512,548,521
510,509,505,545,521
497,501,496,523,525
494,502,497,513,523
492,500,503,504,522
500,502,509,496,513
501,497,511,490,501
508,500,517,486,502
511,504,520,488,504
510,502,521,488,506
513,502,523,493,507
519,505,524,505,505
527,508,521,517,506
529,514,522,535,508
530,511,528,544,509
528,516,519,550,522
522,514,515,551,526
512,511,507,548,526
510,505,499,538,528
498,500,496,526,522
482,500,500,512,521
491,506,504,502,519
505,504,510,496,521
494,502,514,490,516
508,501,516,484,505
522,504,522,487,497
510,504,528,491,494
515,503,522,492,515
517,506,525,502,521
520,515,526,520,526
526,515,523,536,525
531,515,523,546,515
523,513,516,552,501
527,512,511,549,525
516,513,509,547,528
522,507,500,532,536
519,503,500,520,525
513,501,502,508,503
513,502,510,502,499
505,500,510,493,503
511,503,517,489,502
518,506,522,491,497
520,505,522,489,502
519,504,524,491,510
522,505,525,500,512
526,508,525,514,516
531,512,525,525,509
533,516,526,540,510
533,516,522,552,515
533,517,517,553,517
523,514,510,549,519
515,513,511,545,531
499,502,497,529,536
496,500,499,516,529
495,505,504,507,525
495,501,507,497,515
496,500,511,489,504
503,501,516,490,509
507,503,520,486,516
509,507,521,487,514
509,503,522,491,513
510,504,523,504,500
516,508,524,516,498
523,513,525,531,502
521,516,526,544,511
522,517,520,550,529
528,516,515,551,531
519,515,512,549,537
516,504,503,538,531
499,501,497,525,525
496,505,502,515,516
496,499,503,499,503
503,505,508,497,504
518,501,513,487,500
512,499,515,484,492
520,502,520,485,496
517,503,523,491,494
518,502,522,495,493
524,509,523,507,507
533,511,525,521,510
533,515,527,536,514
526,517,525,546,516
516,515,518,551,519
506,513,513,550,520
501,511,509,546,517
489,502,500,532,532
483,501,496,523,533
504,503,502,509,523
521,499,506,500,512
517,502,511,490,510
508,501,515,484,513
508,502,520,482,519
516,504,523,486,519
516,502,524,490,508
520,502,526,498,500
527,506,524,512,502
524,508,524,526,501
530,516,523,540,507
538,518,523,549,513
529,515,515,550,517
518,513,512,549,522
516,511,508,546,522
501,503,500,530,529
516,504,502,518,522
509,501,503,506,518
504,501,508,497,511
502,501,512,491,516
507,502,516,490,510
508,502,524,487,505
511,500,522,488,506
509,501,519,495,504
516,503,526,509,503
519,509,524,517,503
535,513,527,533,509
542,517,527,545,516
529,517,523,552,519
537,517,518,553,521
531,517,513,548,523
520,506,497,538,528
504,501,496,525,528
499,501,498,515,522
498,501,505,503,519
500,500,509,494,513
500,500,508,488,512
502,502,516,485,512
505,501,521,488,511
505,501,524,490,512
514,502,524,498,512
523,506,526,510,512
528,510,526,522,512
532,515,527,536,513
532,517,524,547,515
530,515,518,550,519
521,511,511,549,522
517,511,509,549,527
501,501,497,533,530
496,500,497,520,522
490,501,502,510,521
494,501,506,501,506
500,502,510,496,510
501,503,516,486,507
508,504,520,488,510
507,504,522,487,508
509,503,524,494,509
515,508,524,500,511
525,507,523,516,509
524,513,527,528,507
531,520,530,540,520
530,516,522,548,526
532,513,513,548,531
532,512,509,547,523
525,513,508,546,522
505,504,498,528,540
499,502,499,513,539
496,500,502,501,536
495,502,506,495,517
495,498,509,492,487
505,499,515,489,478
513,502,521,490,487
515,501,520,489,499
519,504,521,494,501
518,504,523,506,503
519,507,524,517,497
527,516,530,532,502
531,520,525,545,507
527,514,519,545,521
524,514,514,552,524
517,515,515,551,530
501,505,503,538,543
500,505,500,526,541
495,500,499,508,541
494,501,504,502,529
498,505,510,496,523
496,504,513,489,515
502,503,516,486,488
512,501,519,486,483
518,504,521,487,492
525,502,516,499,498
527,506,522,509,498
529,510,524,519,501
534,514,524,535,500
531,515,521,546,508
527,514,516,551,513
524,513,510,551,519
517,511,509,549,526
490,501,496,534,536
497,499,498,520,518
501,502,501,511,510
494,503,503,498,513
498,496,509,489,508
505,503,515,488,500
511,503,519,487,498
507,502,521,488,504
510,504,523,493,503
507,503,522,500,507
510,505,524,516,513
528,512,524,526,508
542,516,525,540,508
546,521,522,549,511
535,515,513,551,518
524,515,512,551,522
522,510,503,545,525
506,507,500,528,533
501,501,498,515,527
498,502,502,506,522
501,501,506,495,517
500,500,511,489,515
504,502,515,488,512
503,504,519,487,506
504,504,521,489,495
507,503,523,496,497
515,506,525,508,508
513,509,524,516,510
534,515,527,532,512
543,519,530,545,514
541,518,521,551,517
536,515,515,552,523
524,512,510,549,522
509,504,500,539,527
498,500,497,524,530
492,499,497,516,531
495,499,500,502,526
494,500,510,496,495
496,501,514,488,504
503,501,516,484,513
517,502,519,487,510
512,504,523,488,515
516,506,525,498,503
527,509,529,512,493
528,512,524,523,501
532,516,525,534,507
531,516,523,545,518
531,516,518,551,525
518,513,511,549,521
511,517,508,545,525
495,504,496,532,523
486,499,494,519,512
489,501,500,512,518
488,499,504,496,517
483,498,508,491,517
492,501,514,487,518
510,507,518,485,511
520,503,521,487,501
526,503,523,492,498
535,506,523,498,501
534,507,523,511,511
537,514,527,528,517
540,517,526,540,515
531,516,521,548,521
524,514,515,550,522
519,512,511,548,528
517,507,512,545,519
499,501,496,528,520
496,501,496,516,517
503,504,501,506,515
503,502,507,498,513
503,502,509,491,503
507,503,515,487,505
510,504,519,485,501
511,501,516,486,500
514,502,522,493,506
525,507,525,505,508
526,510,522,516,511
531,513,525,530,510
535,516,524,543,509
532,516,518,549,512
526,514,512,555,517
519,513,509,550,519
507,503,499,538,523
498,503,496,523,528
496,500,499,513,522
494,501,504,503,519
495,500,508,493,517
498,503,514,488,513
501,499,517,487,511
504,502,520,486,505
504,502,522,489,503
522,508,525,497,506
524,506,528,508,507
528,511,524,520,506
533,516,525,539,510
532,515,522,547,514
528,515,517,549,520
521,509,515,549,519
511,511,508,546,524
502,503,498,529,530
501,502,497,519,524
496,501,497,510,522
496,500,509,498,517
498,499,509,489,515
501,502,514,488,513
503,501,518,485,513
507,502,521,487,520
518,503,523,489,512
521,500,527,499,504
523,507,524,510,513
527,512,525,525,509
534,517,526,541,508
530,515,521,548,514
524,511,514,553,508
520,512,511,551,512
520,511,508,544,516
503,502,498,526,523
500,500,499,515,519
496,502,502,504,506
496,500,506,495,501
503,500,516,489,505
504,500,515,487,502
504,499,519,485,512
510,502,522,486,516
514,504,523,490,519
520,507,528,504,519
522,512,524,514,521
526,511,524,525,522
532,517,524,544,506
529,516,522,551,511
520,514,509,554,519
516,513,510,549,524
506,503,501,537,529
499,501,497,527,525
496,500,499,509,522
494,501,504,502,517
500,501,508,494,509
507,501,514,489,507
506,505,518,485,510
508,503,522,485,513
501,503,524,488,512
503,506,523,497,504
510,505,523,508,505
514,506,526,521,508
518,518,527,535,507
536,515,522,543,519
556,517,519,549,522
544,514,513,547,529
530,514,511,548,529
506,504,495,531,534
503,501,498,521,530
495,499,501,504,525
510,504,506,499,513
512,500,509,490,504
513,503,516,487,503
514,500,522,484,500
517,503,522,485,500
522,503,518,491,500
522,504,523,500,505
524,506,522,513,515
536,513,526,524,526
538,517,527,535,526
539,518,521,543,524
531,514,514,547,499
527,513,511,548,510
518,510,507,543,519
503,502,498,526,531
498,503,499,515,520
495,499,502,503,510
499,501,510,495,502
501,500,510,488,502
504,500,516,486,500
508,501,525,485,502
511,503,523,490,508
514,502,523,491,506
523,505,524,503,511
521,507,525,516,514
529,515,527,532,507
531,515,523,545,505
530,517,521,552,512
522,513,513,553,526
523,513,510,545,527
512,508,503,536,535
500,501,499,526,527
498,499,499,508,521
491,500,504,501,518
496,503,509,494,511
497,499,512,487,503
501,499,516,483,509
504,502,523,490,513
507,502,522,486,522
524,504,524,496,518
534,506,522,511,515
535,513,529,522,518
537,515,526,534,504
534,515,523,541,504
530,516,514,550,515
524,514,516,555,520
519,512,509,547,518
505,502,499,533,532
502,501,498,520,529
495,499,501,507,527
497,501,507,499,525
497,500,511,495,519
504,503,517,486,512
502,500,519,484,504
503,502,522,486,505
505,502,524,488,510
520,504,524,498,506
519,507,524,510,508
523,511,525,523,510
543,518,527,538,513
548,520,525,547,515
538,516,516,551,521
524,509,515,549,513
520,512,510,545,517
504,503,500,527,530
500,500,500,520,521
498,497,508,502,516
500,503,510,496,512
503,502,514,490,508
506,501,517,486,504
513,506,521,486,504
514,504,522,487,506
517,503,524,492,512
521,509,525,501,515
523,508,528,513,519
529,512,528,528,521
532,516,525,541,519
533,517,521,549,515
523,513,513,548,520
519,511,510,542,522
507,505,501,535,530
501,501,498,523,533
496,501,500,510,530
494,500,504,500,526
503,501,512,496,500
500,501,516,487,502
502,500,517,483,503
510,502,522,485,507
508,501,517,483,510
513,500,523,493,514
515,505,529,506,515
522,510,527,521,516
525,512,527,534,508
542,518,524,547,505
542,517,519,551,510
520,513,512,547,523
518,513,510,545,521
505,504,499,531,527
496,500,498,517,524
490,499,501,507,521
492,501,507,498,514
500,503,509,488,505
511,506,518,489,505
511,501,519,488,508
509,502,525,486,507
518,501,523,487,510
519,503,523,497,511
532,511,527,508,507
540,514,528,525,512
540,516,526,533,515
537,519,523,547,519
530,517,517,547,524
523,512,511,545,526
519,514,511,549,525
504,504,500,531,532
497,500,499,514,528
496,500,501,503,528
500,506,508,496,516
500,500,512,489,506
512,502,519,486,506
510,503,522,484,512
511,504,522,487,500
520,505,524,492,510
523,507,526,502,513
526,513,525,515,508
529,513,523,526,499
529,516,523,540,512
527,516,520,550,520
514,511,510,548,520
512,511,509,547,527
500,507,502,538,534
486,501,497,520,535
496,499,500,515,511
497,506,505,502,517
499,502,511,492,519
497,501,514,485,515
499,500,517,485,523
521,505,524,487,505
523,506,525,489,509
520,504,524,497,504
529,508,526,508,509
529,512,527,520,513
529,514,526,532,513
527,518,526,542,515
524,517,518,550,512
519,513,511,548,508
526,511,511,544,509
510,502,491,531,520
502,501,495,518,524
505,501,501,508,514
501,498,502,497,506
503,499,509,490,503
509,499,522,489,501
510,501,518,484,498
518,504,522,486,497
518,503,523,495,501
521,506,525,499,514
525,512,524,510,517
527,511,524,519,512
532,518,528,537,515
534,517,521,546,517
530,516,514,551,519
520,513,509,547,520
516,511,506,542,523
503,503,498,529,532
497,501,498,517,524
498,499,499,504,523
494,501,507,496,518
501,501,511,489,511
503,501,515,486,503
507,500,519,484,507
508,502,521,486,509
513,503,523,494,509
518,505,527,503,512
526,509,524,514,514
524,512,523,526,518
537,517,524,539,513
534,518,521,546,513
525,512,513,551,520
518,513,509,546,526
510,506,501,535,531
497,502,497,521,526
492,497,502,508,516
501,502,503,502,505
501,504,507,491,508
500,500,512,486,511
503,500,517,488,510
507,502,521,485,508
510,502,524,486,509
521,505,522,493,510
528,504,524,506,508
529,510,525,519,507
533,514,526,528,514
532,516,523,543,519
527,515,521,548,519
518,513,511,546,526
513,511,507,543,525
500,504,499,533,526
495,504,496,516,524
505,500,499,505,517
502,500,504,495,511
506,501,509,490,507
505,504,514,486,504
504,500,517,484,510
507,502,522,486,513
509,503,522,490,518
521,505,525,497,524
522,508,525,513,517
528,512,525,525,497
533,515,524,536,507
534,515,521,546,513
534,517,517,553,520
527,514,511,547,519
522,512,509,544,520
509,503,499,528,525
499,500,497,515,526
498,500,503,507,523
501,501,508,498,516
503,501,512,489,515
511,503,517,487,511
507,503,520,483,503
511,501,521,484,500
515,502,523,490,512
514,508,525,502,515
521,508,528,514,517
529,514,525,526,516
534,520,528,542,517
529,517,520,547,522
530,514,513,548,520
533,514,511,550,521
517,507,504,540,528
500,501,501,525,523
495,501,501,515,517
497,499,501,503,499
498,500,512,493,497
499,500,514,486,501
503,500,517,482,510
511,503,523,489,509
516,509,527,489,511
522,505,526,496,516
522,509,526,506,509
526,515,527,519,508
529,515,528,533,506
531,516,525,544,511
526,513,517,547,514
514,513,510,545,520
510,512,508,548,520
499,504,499,531,527
504,502,497,520,524
504,501,500,508,513
505,501,506,499,510
499,500,509,490,508
510,505,518,488,503
513,502,518,486,507
512,502,521,479,508
514,503,522,487,504
520,504,523,499,510
524,507,523,507,509
530,512,525,518,509
535,517,526,537,513
527,515,517,548,522
524,510,515,550,524
520,513,511,547,525
515,512,507,545,527
499,501,496,525,541
497,500,498,512,541
498,501,506,506,520
502,502,507,499,498
502,503,513,489,507
501,500,518,484,502
503,500,518,482,503
506,501,521,485,502
512,507,524,493,503
518,507,525,502,503
529,511,524,515,505
539,512,525,527,507
538,511,528,538,509
534,518,520,546,516
526,517,512,546,520
520,513,510,542,519
508,506,501,540,521
498,501,496,526,522
492,500,500,512,522
492,498,504,501,514
497,501,509,493,509
499,504,515,486,511
508,501,516,484,508
512,502,514,482,507
520,503,522,486,509
523,502,520,492,518
524,507,523,507,520
525,510,525,522,513
529,514,524,533,509
532,517,525,544,513
527,515,518,548,518
519,511,512,546,523
519,516,510,546,515
514,506,499,531,520
498,503,496,517,516
498,502,502,509,514
494,500,507,496,509
495,501,506,491,512
505,504,518,487,512
505,500,520,483,509
508,502,522,485,512
519,503,524,485,514
530,504,524,497,513
532,507,525,511,514
537,512,527,523,510
539,516,527,536,515
534,516,522,544,520
527,516,515,554,519
516,513,511,546,517
517,511,512,543,519
500,503,499,528,529
492,500,500,520,525
487,500,504,506,519
493,501,508,496,511
502,501,512,492,508
509,503,519,484,507
505,502,520,482,509
513,503,522,483,506
516,503,524,489,514
526,505,524,501,512
529,508,526,517,505
528,516,525,525,511
539,516,524,536,513
545,518,518,547,515
532,514,514,546,523
522,514,512,546,526
512,507,501,536,529
502,501,499,523,525
492,498,499,509,519
497,500,504,503,513
498,499,509,491,514
501,505,515,488,512
509,502,519,487,510
509,503,523,485,513
512,503,524,488,510
514,502,525,493,517
523,507,527,506,501
526,510,527,519,501
529,513,525,530,507
541,517,524,543,512
536,517,520,547,522
521,513,513,547,533
514,512,508,540,529
498,502,498,531,524
500,502,499,520,521
496,502,502,512,521
495,501,503,500,519
499,501,512,494,514
506,503,516,489,498
504,504,518,483,498
507,502,523,486,505
514,504,522,490,507
524,505,527,496,505
525,508,525,506,509
532,512,530,520,506
535,517,526,531,506
531,519,520,544,503
525,511,515,548,511
520,514,510,547,517
515,511,510,545,520
500,503,498,529,526
495,504,500,517,522
495,498,501,510,522
491,500,506,495,513
505,501,512,488,515
513,503,519,486,509
507,502,518,482,510
510,501,521,484,501
516,501,523,490,507
524,505,525,500,516
530,508,523,508,516
535,514,527,525,523
535,517,524,542,520
535,517,520,545,521
520,513,512,545,525
520,512,511,545,518
512,507,501,536,524
499,501,496,523,525
497,500,503,510,518
496,499,502,501,511
500,503,508,494,505
504,499,512,487,505
504,499,515,485,503
508,501,520,485,500
514,504,524,488,502
514,502,523,496,505
516,507,523,505,505
529,510,526,519,507
530,514,526,531,510
535,516,523,541,512
529,515,519,545,520
521,512,511,545,530
523,514,510,542,525
511,504,498,529,532
500,501,498,519,538
493,499,499,508,539
495,500,506,499,534
495,501,509,491,534
501,503,518,490,492
503,502,519,489,478
508,500,521,482,489
525,503,523,489,497
524,503,525,502,512
530,508,526,509,511
533,512,526,521,510
535,515,527,535,508
530,517,521,549,516
529,520,517,548,518
528,512,510,546,516
521,514,506,542,519
506,506,500,526,532
498,501,498,514,532
500,505,502,504,528
493,502,507,494,526
507,500,512,491,513
513,504,518,488,510
507,501,519,484,515
505,500,521,488,507
505,501,522,492,500
525,505,525,501,501
535,504,529,513,503
533,513,526,528,513
533,516,526,535,511
536,518,521,551,513
528,514,513,546,519
523,515,512,547,519
513,507,502,536,528
510,503,502,522,525
502,500,498,511,522
500,502,503,502,514
499,501,508,493,511
504,505,515,488,509
511,501,518,485,503
505,502,520,484,505
516,502,529,487,509
521,503,523,493,511
526,507,526,506,517
527,507,525,517,522
533,514,527,531,521
536,518,525,541,524
533,516,519,548,516
521,515,510,544,519
521,513,510,547,518
506,503,503,530,529
498,500,499,516,531
496,500,501,511,521
499,502,505,497,522
500,501,511,489,515
506,502,516,485,505
504,499,516,483,505
508,499,525,485,506
515,504,524,493,504
518,506,524,497,507
520,510,523,506,513
527,513,527,521,514
531,516,526,533,510
531,515,523,540,520
526,516,516,544,527
517,513,510,542,523
508,509,510,541,520
492,502,496,527,531
485,499,499,514,529
485,500,501,504,520
487,500,503,493,527
499,501,511,485,520
512,504,518,487,508
511,500,521,485,516
521,506,521,485,512
522,506,524,493,488
522,505,525,500,502
524,507,524,513,508
540,510,530,526,509
544,517,526,539,512
541,518,521,547,518
528,514,513,548,525
521,514,513,544,527
513,511,503,537,533
503,503,499,521,534
499,497,499,509,528
499,500,502,499,517
503,501,508,492,503
504,500,513,488,500
508,501,518,482,502
506,501,519,482,503
513,501,520,485,505
516,502,522,492,508
521,510,525,505,508
524,509,524,517,511
528,517,525,529,514
526,515,522,541,513
529,517,519,549,512
515,512,510,548,532
509,514,507,541,534
512,508,499,531,526
501,502,497,520,513
502,500,500,508,506
504,501,504,499,505
504,500,510,493,511
511,502,515,485,508
515,500,517,483,507
512,501,520,485,505
513,503,522,487,506
519,499,527,496,510
526,507,523,506,507
530,512,525,520,510
535,516,522,535,506
537,517,521,547,510
530,515,520,547,516
521,514,511,545,523
514,510,504,541,524
496,503,498,526,528
493,501,494,514,522
489,498,498,504,513
496,500,510,497,511
493,499,511,489,508
514,502,518,487,508
516,499,519,484,507
518,501,524,485,505
524,503,523,490,502
522,504,522,499,500
524,507,522,511,503
530,511,525,526,508
534,514,529,539,514
536,518,522,547,520
523,509,515,545,526
517,512,510,543,536
512,508,503,536,530
503,502,499,528,522
496,499,498,513,514
497,500,504,502,510
497,500,505,492,504
498,505,514,487,508
501,506,518,484,502
509,502,519,484,500
513,503,522,488,497
512,501,521,492,506
516,502,529,503,511
522,509,525,514,513
527,516,526,530,513
536,521,526,540,519
539,519,520,547,521
527,513,511,547,529
519,513,509,546,516
504,504,501,533,514
499,500,497,519,520
504,501,505,510,517
504,501,504,498,509
502,500,510,494,510
507,503,516,487,509
511,503,518,484,504
512,499,524,485,504
516,508,524,488,503
519,504,523,491,505
526,506,523,507,512
531,515,526,521,509
532,513,524,533,507
529,515,521,543,516
526,516,517,548,526
516,513,511,544,535
511,511,509,542,538
499,504,500,528,547
489,499,498,512,543
491,499,499,504,516
506,505,513,499,496
503,499,512,489,490
507,503,518,487,487
505,502,517,482,494
521,502,522,487,495
519,503,522,491,498
525,505,524,501,500
529,507,524,512,504
534,514,526,526,512
538,518,525,539,513
533,520,525,548,508
523,513,514,548,513
520,512,510,548,524
511,513,504,538,527
500,507,499,525,530
496,501,504,512,532
496,502,508,503,528
496,502,508,494,508
499,498,509,486,512
510,501,519,486,509
509,502,522,486,507
513,504,526,486,506
517,503,523,491,503
521,505,527,503,500
528,513,525,516,502
531,514,526,530,505
533,514,522,542,508
531,516,519,547,511
519,512,510,545,526
518,513,509,544,520
503,503,501,532,526
497,504,497,519,523
497,500,500,508,519
500,501,506,498,516
501,500,510,492,511
502,502,517,488,502
505,500,519,490,504
511,502,520,486,505
512,502,522,487,504
517,503,524,499,516
525,507,524,501,525
529,512,523,519,520
534,514,524,532,525
526,515,521,543,521
522,515,520,547,512
510,516,510,545,528
508,510,505,542,524
501,499,499,527,527
502,499,498,518,525
497,499,502,504,518
507,500,506,496,510
517,503,512,491,507
511,504,519,486,502
509,501,518,482,505
514,499,525,486,503
518,502,522,490,506
522,506,524,499,510
526,508,525,511,512
531,515,529,525,508
535,517,527,544,510
534,517,521,547,511
528,515,514,547,517
521,512,511,545,518
513,507,498,538,523
502,501,499,526,529
493,502,500,510,530
490,503,503,500,522
491,499,509,492,516
495,500,515,488,507
501,502,518,488,502
500,500,519,484,506
516,502,522,488,507
531,503,528,491,507
532,507,526,504,511
535,510,526,519,513
538,512,525,526,513
535,514,523,540,512
534,516,519,551,521
524,512,511,548,529
517,508,510,543,524
509,503,498,530,531
500,500,494,518,524
497,503,503,509,522
498,501,505,492,511
497,500,511,491,511
503,502,521,487,505
503,503,519,484,502
513,501,521,484,507
518,502,525,487,508
518,503,523,495,517
522,502,527,505,524
528,512,526,522,513
531,515,527,535,518
530,515,522,544,522
532,516,519,548,518
519,515,510,545,515
516,512,509,543,517
503,503,499,530,524
495,501,499,520,523
494,500,503,505,523
494,500,508,496,518
497,499,512,486,514
500,503,516,489,500
510,498,518,483,499
519,500,521,486,507
519,506,525,491,504
521,505,528,501,505
529,510,525,513,510
528,512,525,524,511
529,516,527,538,519
526,517,523,545,532
518,514,517,547,525
513,512,511,546,516
512,507,504,537,523
501,502,500,524,526
514,502,503,511,516
506,496,506,500,507
508,502,511,495,514
508,503,514,487,512
510,501,519,486,502
514,500,515,482,506
516,502,522,490,506
518,502,525,495,508
524,506,525,505,509
531,508,525,515,514
530,514,527,531,519
532,516,525,541,524
530,517,520,550,529
520,511,510,544,529
517,515,509,544,525
514,505,502,535,520
504,501,498,519,518
496,500,501,509,516
498,500,506,497,513
500,500,509,490,507
502,501,517,488,503
501,500,518,484,507
504,501,522,484,505
515,502,524,488,507
519,503,524,495,510
522,506,525,506,514
529,511,527,520,512
533,515,527,534,510
538,512,526,543,515
537,518,519,549,517
524,511,510,543,524
520,511,509,540,526
506,503,499,528,531
496,500,499,516,526
496,502,504,508,519
496,496,507,498,506
499,498,510,488,506
499,501,518,485,508
496,497,516,478,513
500,500,522,478,508
512,501,524,490,502
521,504,526,502,507
524,508,526,513,515
535,510,526,525,514
546,514,525,535,516
538,516,522,548,512
530,514,515,546,524
520,514,510,543,524
514,507,508,539,519
501,502,499,524,520
497,501,504,513,518
495,499,503,502,516
500,502,510,494,508
501,504,513,487,503
505,501,518,484,500
502,498,518,481,504
505,500,524,484,506
518,503,523,492,506
520,505,525,503,509
526,509,526,514,510
541,514,528,530,509
541,519,526,542,513
536,519,522,550,518
525,513,514,545,526
520,511,509,543,523
506,505,500,530,530
502,501,499,523,528
497,499,501,507,522
497,500,506,499,519
503,501,512,490,513
507,503,517,485,513
505,502,520,484,511
510,503,522,485,510
512,502,523,486,520
516,502,523,495,517
519,506,524,504,520
527,508,529,518,519
532,520,534,536,499
531,517,524,545,516
528,516,519,547,518
518,512,512,544,525
515,516,509,543,518
509,504,498,531,516
501,502,497,515,517
502,500,498,505,515
500,500,507,498,509
500,499,513,487,508
505,501,518,486,503
502,501,518,484,508
516,503,527,487,502
516,502,525,491,501
524,504,526,499,504
528,508,520,510,504
530,515,527,524,513
535,516,527,538,516
532,519,521,545,519
521,514,514,549,522
514,512,507,548,519
504,506,504,537,524
495,503,500,525,519
498,501,500,513,519
497,500,504,500,516
502,503,509,493,508
503,501,514,484,507
515,505,521,484,501
512,499,518,484,505
514,501,522,485,507
514,502,524,496,513
521,507,527,505,514
529,511,528,517,511
533,513,523,530,504
532,516,525,541,516
528,517,519,544,518
527,513,511,543,523
521,512,510,543,520
506,504,500,533,528
498,497,500,517,528
496,499,500,508,525
497,499,503,497,524
499,501,509,490,523
503,501,516,485,516
509,502,519,484,507
508,500,525,483,497
515,503,523,487,491
521,503,523,494,498
522,505,524,507,507
526,512,528,521,507
530,515,525,531,507
533,517,521,541,515
535,519,518,548,520
522,514,509,541,528
520,512,509,541,529
508,504,499,527,532
496,503,498,514,516
494,499,502,510,501
499,499,507,500,505
498,499,511,488,506
507,504,520,487,503
507,501,519,488,501
519,502,523,485,504
515,502,524,489,506
520,504,524,496,507
519,504,525,510,513
526,512,525,524,516
530,516,525,534,519
530,518,522,546,519
534,510,516,545,517
524,516,511,545,520
512,507,505,539,520
496,500,497,526,527
494,500,500,515,519
492,497,502,500,512
489,499,508,492,513
504,503,513,486,505
515,505,521,484,506
512,502,521,484,510
511,502,523,484,506
512,502,520,491,518
524,508,528,501,527
536,510,526,512,525
531,513,526,526,518
534,516,525,540,501
531,518,522,546,514
526,514,515,545,526
532,513,512,543,532
507,504,500,528,535
500,501,498,516,530
503,503,503,508,519
499,500,507,497,507
502,503,511,491,500
505,502,516,486,504
501,500,520,483,502
504,501,522,484,497
510,501,525,487,496
513,503,525,494,506
520,507,525,504,509
530,512,527,518,506
544,518,529,533,513
542,518,524,542,517
534,520,519,546,518
520,511,509,541,525
519,511,508,541,520
504,502,499,526,527
495,500,503,515,526
495,501,505,503,518
497,501,502,493,510
499,500,512,487,505
502,506,517,484,500
502,499,519,482,507
504,500,521,483,506
513,502,524,488,497
526,506,526,497,497
529,509,527,514,501
528,511,526,521,507
534,514,527,534,513
535,513,519,546,524
534,516,516,544,534
524,512,510,541,532
513,509,506,535,534
499,504,498,519,530
497,502,502,511,521
497,500,503,499,514
497,501,510,495,508
500,501,514,489,506
506,504,523,484,504
505,501,521,481,517
506,503,524,482,515
520,503,525,488,520
524,507,527,500,519
528,510,526,514,503
533,514,526,527,500
533,514,522,539,511
531,519,523,543,513
526,512,511,541,527
522,516,511,543,512
513,505,501,530,523
495,500,499,518,527
498,507,503,508,518
506,502,505,497,508
501,500,509,488,505
507,500,514,484,502
510,497,522,480,503
511,500,519,478,505
513,502,523,485,501
515,502,522,494,500
523,506,521,508,507
528,513,528,520,511
532,515,527,532,511
535,516,524,542,515
529,517,519,545,512
522,513,511,545,517
518,512,510,546,522
503,502,503,526,529
496,501,500,518,524
493,499,503,504,518
498,502,508,496,510
494,499,511,487,505
503,502,517,485,507
501,500,519,482,507
511,502,522,484,510
517,503,525,488,503
519,507,526,498,505
522,507,525,513,508
525,514,526,523,509
528,515,526,536,512
529,517,523,546,515
526,515,516,545,518
526,512,510,543,523
518,508,505,538,525
503,502,498,522,526
502,500,499,512,523
503,501,507,501,516
501,499,509,493,508
505,502,515,489,503
511,502,521,489,499
505,499,522,481,505
511,501,523,486,504
512,498,524,491,510
520,505,525,499,518
523,513,525,511,514
529,515,526,527,518
539,518,526,543,519
532,518,521,546,522
518,513,515,541,532
511,511,510,542,538
497,503,500,530,537
491,498,497,515,527
483,499,501,507,519
501,502,505,498,509
515,500,511,491,505
508,500,521,488,502
508,502,521,485,500
508,502,522,484,500
513,508,526,489,501
515,503,526,494,508
517,509,524,503,513
524,513,529,517,512
539,516,527,531,509
540,516,523,541,515
533,518,520,546,522
519,511,511,541,531
519,510,514,541,535
502,503,500,526,531
498,501,499,515,519
497,501,504,505,512
500,505,509,495,517
500,501,512,491,508
503,497,521,485,500
503,499,521,482,504
505,502,523,487,506
512,504,527,488,503
517,504,526,497,509
520,506,526,509,513
528,511,526,523,505
539,516,526,536,506
536,518,523,544,509
530,516,516,543,518
516,513,510,542,522
514,515,506,538,519
507,503,500,525,518
498,501,501,513,511
500,501,503,502,514
500,502,513,494,512
498,500,514,489,515
503,503,519,485,515
505,501,522,488,509
506,503,523,486,505
509,506,524,491,514
518,505,525,502,513
532,509,525,513,514
529,514,527,525,527
529,519,530,539,511
527,523,523,546,519
519,515,509,545,532
519,515,512,544,533
503,504,501,532,518
501,502,498,517,518
503,502,501,513,508
497,501,512,499,512
496,499,509,489,507
508,502,517,490,498
517,503,521,487,501
511,500,520,481,506
516,503,524,486,503
517,503,524,492,511
522,508,525,504,522
527,514,530,517,513
533,517,527,535,505
532,517,523,543,506
533,518,520,548,513
514,512,510,544,523
513,512,509,537,519
498,503,499,525,534
489,501,498,515,535
487,500,502,504,527
490,501,507,494,519
504,506,511,487,511
513,502,517,486,500
523,501,520,482,493
525,503,522,487,490
525,503,525,489,498
531,505,526,499,501
528,507,523,508,507
524,512,526,523,506
524,514,524,538,507
522,517,522,544,520
525,516,517,545,529
519,511,508,542,536
519,508,505,534,537
508,504,499,529,533
509,504,500,512,520
508,501,505,503,510
505,499,507,494,506
505,502,512,490,508
514,503,521,487,507
510,501,523,482,512
514,504,523,486,506
517,503,524,495,508
521,505,525,501,510
527,509,525,515,508
532,514,525,527,506
536,516,524,540,511
533,514,524,548,515
523,514,513,548,525
519,511,505,543,524
505,504,505,532,531
496,502,500,521,531
494,500,505,512,504
494,498,503,498,511
493,499,509,489,515
498,500,517,491,507
503,502,521,488,506
505,498,519,482,505
515,502,522,485,502
516,502,522,494,505
528,506,523,506,506
531,511,526,518,507
533,515,527,531,516
536,519,526,540,518
537,517,519,552,519
520,512,510,544,528
519,511,508,539,535
500,502,498,525,537
494,503,497,512,527
495,500,501,502,506
496,499,508,497,502
499,501,511,489,503
507,503,516,487,503
510,501,519,483,501
509,501,522,485,502
518,504,525,489,497
525,506,525,499,509
526,509,526,510,511
529,512,526,522,515
539,515,526,535,516
536,517,520,544,514
539,516,516,547,515
532,512,510,545,525
519,511,503,541,526
503,500,503,524,528
499,502,500,512,527
499,501,503,502,521
503,502,508,497,515
499,503,512,486,508
515,505,519,487,500
513,504,519,484,499
518,502,522,488,494
519,503,524,497,501
523,505,525,503,505
522,505,528,512,516
527,513,527,527,523
525,515,524,537,521
526,514,517,544,517
522,517,512,545,517
514,514,508,543,517
516,508,504,535,532
507,500,497,518,543
503,503,502,507,532
500,500,507,497,522
495,499,509,490,516
502,501,515,489,518
502,498,523,487,503
515,500,520,481,513
518,503,522,486,507
527,504,524,497,499
542,509,527,508,498
541,513,527,519,502
542,518,529,532,495
539,516,522,543,504
535,517,519,549,510
526,513,511,545,519
520,513,510,543,521
505,503,499,529,527
497,499,499,515,527
497,503,504,505,523
499,501,505,495,511
502,502,512,494,506
513,503,519,488,501
510,502,518,486,494
511,501,521,480,504
516,503,523,487,500
520,504,523,493,513
524,504,529,506,515
529,512,527,521,514
534,520,530,533,512
532,517,522,542,516
527,515,516,544,521
517,512,509,542,527
509,507,504,534,525
498,503,494,524,533
494,500,499,514,525
493,500,503,502,513
492,498,507,492,513
495,500,511,487,519
512,505,521,486,511
518,502,520,485,506
517,504,522,488,503
519,504,528,492,501
524,505,526,501,509
525,510,525,512,514
529,515,526,526,519
534,518,526,539,507
530,519,520,548,505
522,515,513,544,520
517,513,509,543,520
506,506,501,532,524
497,502,497,520,529
495,500,499,508,520
494,503,506,499,516
500,502,512,491,507
503,502,512,485,503
510,501,519,484,504
506,499,517,480,509
510,504,522,485,508
513,505,524,498,509
517,508,524,507,508
523,514,526,518,510
520,515,525,530,517
520,518,521,541,515
521,517,517,543,515
512,513,509,542,521
519,514,509,543,521
507,505,500,528,529
498,501,497,516,528
500,502,500,505,523
514,503,502,496,511
515,504,511,489,506
508,504,517,485,504
509,504,519,482,505
513,503,515,482,504
519,504,522,487,506
519,505,525,495,507
520,507,523,507,510
533,513,524,521,506
538,517,525,536,510
533,518,520,544,515
525,516,516,549,515
510,512,508,542,525
519,516,507,539,528
505,504,498,524,534
490,501,498,506,538
496,502,506,502,521
511,503,507,495,500
511,504,517,488,503
517,505,517,487,508
515,502,518,481,511
517,504,521,484,509
517,506,521,487,511
531,507,523,501,498
534,511,529,513,501
535,516,526,530,507
537,519,526,541,514
536,519,521,548,516
525,515,512,544,525
521,514,508,544,532
509,507,500,532,534
500,504,499,520,530
498,502,498,508,525
495,501,503,498,518
506,504,510,490,513
507,506,516,489,488
512,505,519,488,490
509,498,523,481,502
513,503,521,483,504
515,503,523,495,515
520,507,523,502,521
528,512,527,521,522
532,516,526,529,520
533,516,521,540,518
529,517,517,548,512
519,512,511,543,522
519,513,508,543,523
503,508,499,529,528
496,505,498,514,528
498,501,500,504,510
500,504,509,498,494
502,500,509,488,499
505,502,518,489,500
508,500,514,482,506
505,496,522,483,509
515,503,524,489,504
519,505,525,498,508
519,509,523,506,506
529,513,526,523,502
531,517,525,534,508
533,519,521,543,513
527,513,518,549,516
514,511,509,542,527
513,509,507,539,523
497,502,498,525,526
489,501,504,515,519
491,500,506,502,517
495,500,508,492,509
500,499,512,486,508
499,502,518,485,512
505,503,519,483,515
528,503,526,484,504
523,504,523,492,507
521,507,524,505,507
521,510,524,515,508
528,517,532,527,509
527,518,525,535,516
528,517,520,545,517
524,516,515,546,522
516,511,507,541,528
499,501,493,529,534
498,500,496,521,526
508,502,501,509,523
505,500,504,499,514
502,501,510,494,512
501,501,514,483,512
500,503,519,484,490
508,499,516,481,494
509,502,521,486,500
507,504,523,490,515
527,510,527,507,505
536,513,527,519,502
548,518,531,532,507
545,514,528,542,514
543,524,520,548,516
528,513,510,542,523
518,514,509,543,526
515,505,501,533,530
515,503,500,516,529
503,504,500,506,517
508,502,508,497,510
504,502,511,488,507
510,505,519,488,508
510,504,520,485,503
512,501,520,486,508
518,503,522,491,512
521,509,524,498,516
519,510,522,506,515
535,514,527,525,511
531,515,526,538,517
530,515,519,545,508
523,515,515,546,522
517,512,510,542,528
513,512,507,539,512
497,503,497,526,520
496,502,498,512,519
499,502,503,503,517
497,501,507,492,510
495,499,510,483,507
501,504,517,486,499
503,503,520,484,504
515,503,522,486,507
514,505,525,490,504
521,507,528,500,508
520,507,524,513,511
531,518,526,526,511
536,518,523,534,516
536,522,522,546,513
526,517,513,546,520
515,511,507,543,523
502,505,498,536,524
497,502,495,519,523
492,501,500,510,519
497,500,504,504,512
499,500,509,491,503
503,503,514,487,502
518,505,520,486,490
514,502,519,482,509
518,505,523,487,508
520,506,525,495,509
527,508,525,507,509
526,511,525,519,509
530,516,529,532,510
531,516,522,545,515
524,518,519,548,519
516,514,511,545,529
524,514,512,543,528
508,506,501,530,528
497,502,497,516,532
497,502,501,504,522
494,505,505,496,513
495,497,514,488,506
502,503,517,485,500
505,502,519,487,501
502,502,519,483,508
510,504,527,487,510
525,507,524,497,511
527,508,529,508,515
529,515,525,521,517
537,515,525,533,497
534,516,520,543,509
526,518,517,547,515
513,509,510,539,522
510,510,505,538,526
502,507,498,525,526
499,503,500,514,515
494,502,498,502,511
496,501,507,490,507
500,500,514,485,511
520,504,519,486,504
509,504,519,483,509
503,498,516,484,509
508,500,521,486,509
528,506,526,507,499
522,511,526,514,504
525,513,526,527,509
533,515,524,539,511
534,518,520,547,513
533,517,516,546,520
517,510,506,541,529
506,507,502,533,534
509,503,499,521,525
511,501,505,509,517
506,500,503,500,505
504,502,512,492,503
507,502,515,486,507
510,505,520,484,515
507,499,522,478,519
514,503,524,486,500
515,509,524,495,499
520,507,523,504,512
527,513,531,517,503
532,515,525,531,511
537,517,522,541,514
534,518,518,547,520
521,516,509,545,524
515,511,511,542,526
499,503,498,530,529
491,499,496,515,524
492,498,501,506,511
502,502,506,499,501
498,498,509,489,504
508,503,517,485,503
514,504,523,484,506
515,502,521,481,510
514,505,524,489,501
515,503,522,496,510
520,509,523,507,516
528,514,527,518,522
530,512,526,539,518
531,517,522,544,522
527,517,518,548,519
515,508,508,540,526
517,511,508,540,532
496,502,497,523,534
499,500,499,512,530
503,499,503,503,510
498,500,508,496,502
499,501,513,488,506
508,503,519,487,506
504,502,520,483,513
506,503,521,483,515
511,507,522,489,513
524,507,527,501,511
531,511,526,513,508
533,514,529,525,509
541,516,525,538,514
536,514,519,549,505
525,514,514,547,515
511,509,507,541,524
500,506,501,534,528
491,503,500,522,526
492,502,500,510,520
496,502,504,499,514
501,499,508,491,507
500,501,515,486,501
511,502,522,488,501
520,499,518,482,505
523,503,524,486,508
523,505,525,494,512
519,506,530,506,515
524,511,527,518,513
529,516,528,532,516
526,515,524,538,523
516,516,518,546,525
519,511,506,543,533
527,514,509,543,530
505,502,498,531,515
502,500,500,515,508
516,501,500,502,512
514,503,509,496,511
507,504,509,486,505
507,496,518,483,500
511,502,520,484,502
510,500,519,482,504
515,499,527,487,504
518,504,523,494,515
523,508,524,507,513
528,512,526,522,511
533,516,522,533,507
535,515,521,544,510
528,519,517,550,505
515,510,507,542,520
511,511,506,543,518
503,504,498,527,523
501,503,500,514,524
504,501,503,503,524
513,501,508,494,521
509,501,510,488,516
510,503,519,485,502
507,499,517,483,485
512,501,520,486,491
508,503,523,492,497
515,505,523,502,511
517,508,523,511,523
532,514,525,525,517
537,516,524,538,520
532,520,523,544,517
523,515,514,546,516
510,510,507,541,511
504,504,504,533,521
500,502,499,525,522
501,502,503,509,518
497,494,508,499,513
497,496,511,490,508
503,501,514,486,507
507,502,519,484,505
506,500,516,478,515
512,504,523,486,506
518,504,528,494,501
528,507,525,508,510
529,513,531,517,518
535,515,526,529,523
532,517,523,541,527
528,519,519,545,527
518,512,510,541,525
514,511,507,540,527
499,503,498,527,535
490,498,495,513,530
486,499,500,504,514
504,502,505,496,510
504,501,512,490,504
507,501,517,486,500
511,501,521,485,505
509,501,519,482,508
515,506,522,485,501
518,505,523,497,504
523,508,529,509,506
529,512,525,525,501
531,519,530,536,506
528,520,521,544,508
524,515,517,547,513
515,511,508,541,523
513,511,502,538,525
500,502,498,524,527
492,497,502,510,522
495,499,502,501,517
498,501,507,493,512
498,501,511,489,509
504,504,519,483,510
499,502,520,482,515
512,502,521,483,514
523,506,528,488,519
529,507,525,505,503
527,509,523,512,505
532,516,525,527,506
535,514,525,539,509
529,516,521,546,514
523,514,513,550,521
513,509,507,539,530
503,504,500,531,539
495,503,498,520,536
498,505,500,508,529
496,499,501,497,513
494,501,509,496,476
500,501,516,490,483
504,504,526,487,489
503,500,519,479,501
508,504,521,482,512
517,503,523,491,514
536,507,524,503,509
538,513,527,519,510
534,514,524,530,508
531,515,522,542,508
528,517,517,550,516
517,514,511,545,533
507,510,506,540,535
493,504,502,527,536
495,501,500,515,535
494,500,501,505,526
496,500,505,495,512
503,499,509,489,506
523,502,515,484,498
525,504,521,481,497
514,497,523,481,515
512,501,521,487,512
511,503,522,496,506
526,507,525,508,501
533,515,525,520,510
531,515,529,534,507
527,516,518,548,514
523,515,517,547,510
513,510,512,543,514
510,509,505,539,518
506,502,499,527,522
505,500,499,513,523
506,502,504,501,521
498,501,505,493,519
500,499,512,486,512
502,504,519,485,511
503,501,520,481,505
504,499,519,481,492
514,502,523,487,505
522,507,526,501,513
533,509,525,510,518
536,516,526,526,507
536,515,524,538,495
533,516,520,546,495
525,516,513,547,503
516,509,507,543,509
510,505,499,529,506
508,501,498,523,488
503,500,500,511,501
502,502,505,500,510
497,501,510,492,507
508,505,519,491,490
516,506,524,490,491
509,502,521,485,496
517,503,522,485,482
518,504,524,494,490
524,507,525,506,501
527,514,531,520,505
533,519,528,533,496
534,519,528,549,518
533,519,521,548,531
524,516,511,544,533
519,508,504,540,508
505,502,496,526,555
497,499,498,517,543
496,501,507,505,518
499,500,516,496,486
499,500,522,486,509
508,508,527,486,519
508,503,515,481,523
498,500,500,476,541
518,504,519,487,503
523,506,526,497,516
521,507,524,504,545
532,516,530,525,534
536,519,530,543,504
532,517,522,551,479
525,521,520,556,461
520,510,507,544,459
519,509,504,541,451
502,504,494,523,507
495,500,494,507,567
494,501,498,496,592
502,504,508,490,549
503,502,513,486,525
509,503,517,484,507
512,502,519,481,516
511,501,524,483,499
522,505,532,494,476
524,506,529,503,484
528,511,529,514,497
535,518,532,532,515
534,516,519,548,525
536,515,525,546,513
523,515,531,543,518
516,508,521,540,534
509,505,502,534,518
498,497,477,504,512
499,501,490,485,521
501,502,531,492,513
501,497,542,494,498
504,502,535,487,501
502,504,504,481,511
507,498,491,481,500
514,501,514,491,523
516,502,513,493,538
522,509,511,503,524
528,511,518,522,521
533,517,526,538,513
534,517,522,545,522
530,519,519,551,532
519,514,509,546,537
514,512,504,547,540
504,506,500,532,536
500,503,495,521,527
497,500,496,509,513
494,498,502,498,517
490,497,513,494,510
498,501,518,490,515
498,504,522,488,527
497,505,523,477,541
503,503,531,488,535
512,503,536,496,512
524,508,539,508,501
538,512,533,523,454
543,513,509,530,468
539,516,494,544,485
537,519,504,551,488
515,517,510,547,517
515,511,517,547,505
508,501,511,536,488
503,498,527,529,488
504,499,531,519,526
507,497,483,481,502
513,498,493,479,481
523,506,521,488,486
515,502,511,479,501
508,496,513,479,488
516,500,519,488,511
517,509,525,500,524
520,511,531,510,489
529,516,533,524,517
526,520,535,536,548
520,521,538,543,549
513,520,529,544,544
512,514,522,547,532
504,505,502,551,589
500,503,491,524,541
498,498,480,511,497
508,498,498,501,426
530,502,509,502,376
527,500,509,491,416
519,501,516,487,461
515,498,516,482,451
513,496,515,485,463
514,500,517,492,525
515,508,524,502,599
525,510,525,517,581
521,511,522,528,613
524,516,523,540,618
519,512,521,546,553
516,512,512,546,533
506,508,506,540,539
494,504,502,534,552
486,501,497,519,545
493,506,500,506,567
507,504,507,501,560
500,501,514,495,502
506,501,521,493,477
514,499,527,491,465
527,497,543,491,426
536,504,545,505,394
548,508,522,515,342
564,513,514,519,326
576,516,498,529,325
571,518,520,546,390
563,525,515,544,463
535,521,499,533,583
500,514,505,527,669
498,508,505,523,682
481,501,499,517,656
471,501,497,517,589
472,500,505,501,614
480,496,515,498,568
487,501,522,486,549
500,501,545,486,485
517,501,527,486,445
502,495,529,473,500
512,498,522,485,479
529,504,485,493,494
527,507,505,511,500
529,514,519,535,518
518,512,528,543,517
515,516,529,549,541
510,508,507,547,554
516,507,510,539,532
507,504,505,534,490
519,505,511,531,453
516,503,527,525,469
526,502,502,518,410
525,499,462,476,402
507,496,476,475,502
516,504,505,483,479
508,506,517,477,503
513,500,509,480,503
519,498,508,491,489
518,507,529,507,555
535,519,546,527,545
532,520,542,537,536
529,522,540,550,618
520,523,531,553,653
498,510,503,537,544
502,507,491,538,500
495,502,472,524,530
490,502,488,511,523
481,498,506,500,529
499,497,496,489,528
505,499,510,483,544
504,502,522,490,564
492,499,525,492,551
484,500,529,498,516
497,503,519,501,456
510,506,514,490,480
514,502,518,492,490
535,514,521,506,507
532,512,525,529,520
537,516,527,547,530
518,515,522,546,539
510,510,511,544,518
524,510,509,544,479
513,501,491,525,480
504,503,497,524,492
501,506,503,517,555
510,505,513,506,544
512,503,519,497,519
503,500,517,479,489
509,500,528,472,471
516,501,533,478,479
511,500,537,494,470
517,504,535,508,501
518,506,511,494,534
523,513,508,514,521
526,519,524,545,522
519,523,522,561,500
517,517,521,557,500
516,514,527,553,508
522,508,514,543,466
501,504,508,521,556
511,503,528,510,528
523,501,532,499,445
517,496,519,487,439
505,504,485,474,429
517,503,506,475,369
508,500,515,471,458
514,506,531,486,464
523,497,517,509,526
515,499,528,499,639
518,502,493,506,590
530,508,505,522,544
532,514,513,538,544
523,516,519,554,549
514,509,506,551,555
516,509,503,546,534
500,504,496,533,556
483,498,493,518,564
502,502,500,514,518
506,506,510,505,495
505,502,514,491,501
505,502,517,486,484
511,507,521,488,501
497,504,513,482,569
505,508,539,498,546
515,509,552,514,517
517,508,543,519,497
517,508,532,522,493
525,510,515,529,483
525,509,489,542,482
516,508,481,543,506
521,507,479,538,515
522,510,511,528,545
509,510,512,511,597
508,510,514,513,549
499,504,507,505,541
508,503,510,499,481
493,501,513,502,480
506,505,514,492,449
511,506,511,476,521
507,499,512,475,554
504,499,517,479,528
512,503,521,492,526
532,505,518,511,494
537,511,519,525,472
530,513,523,539,462
527,515,522,541,549
527,516,517,546,524
515,512,513,550,534
504,510,508,536,514
500,503,508,531,501
504,503,503,519,503
502,502,509,502,524
496,503,525,489,482
509,501,535,487,435
502,502,540,477,522
504,500,529,476,480
510,500,497,483,469
507,503,520,498,517
506,508,530,530,548
521,509,530,531,518
528,510,538,533,491
521,515,541,542,528
520,513,526,543,534
533,517,498,529,539
530,508,489,522,534
522,506,498,525,532
508,503,493,510,528
503,501,492,491,536
508,503,507,485,536
508,502,512,495,487
498,500,514,513,472
503,499,521,499,476
496,499,517,490,522
494,501,527,489,567
495,501,524,495,572
510,507,522,512,521
550,515,528,530,477
554,521,532,541,491
538,519,526,547,552
524,518,520,547,589
531,513,511,545,545
530,513,501,545,483
512,502,494,530,462
507,500,495,519,499
483,496,496,501,540
478,492,502,488,540
494,497,506,488,493
495,497,512,487,463
493,498,531,479,459
518,501,521,484,479
544,506,518,489,538
536,510,533,502,551
528,508,530,511,521
533,512,524,524,508
543,516,524,541,501
532,518,519,553,485
525,515,513,550,511
517,514,508,553,517
517,507,502,542,501
512,502,496,528,493
500,502,500,513,483
474,498,503,499,505
493,500,506,487,492
487,496,509,479,536
506,502,516,482,499
508,498,518,480,499
507,501,521,481,498
527,505,525,492,525
532,508,524,503,542
537,512,535,516,537
547,522,559,541,511
543,515,545,549,485
542,512,534,555,492
514,508,478,533,555
514,511,484,534,521
503,508,510,536,517
491,502,502,518,544
480,499,502,511,491
486,495,489,499,496
497,496,500,495,550
501,502,521,488,519
490,498,526,481,521
496,502,534,481,552
511,504,513,482,536
525,501,501,490,515
544,510,518,510,501
542,512,526,528,487
540,518,530,535,501
532,516,523,550,499
528,517,521,550,506
522,511,490,549,499
512,509,487,543,515
507,506,480,527,523
514,505,478,517,523
511,501,474,499,520
498,500,473,475,514
507,500,513,469,524
512,501,535,476,547
512,496,544,485,522
517,496,525,483,546
517,499,518,497,510
527,503,519,503,471
536,511,528,529,483
537,513,539,549,495
535,516,542,560,519
537,516,530,566,508
527,520,505,531,502
522,517,519,523,469
509,509,504,510,534
476,503,506,518,586
474,497,493,513,539
491,501,504,507,516
498,502,516,503,496
503,498,507,488,523
518,504,514,488,528
513,498,523,493,529
508,500,519,493,503
517,499,527,496,485
520,505,523,488,484
525,514,527,505,483
533,514,531,527,496
532,515,527,545,510
525,519,519,545,526
507,517,506,543,560
503,511,502,548,498
503,506,501,536,515
494,503,504,519,546
496,503,504,509,529
495,504,509,500,526
488,499,508,484,523
499,498,510,479,507
513,501,518,487,496
517,503,522,486,513
522,502,524,484,495
523,506,527,499,492
530,510,529,514,472
533,520,532,528,469
530,518,530,540,492
530,515,518,543,459
522,513,506,544,512
519,510,507,545,531
503,509,505,539,551
492,505,498,529,523
484,498,495,513,547
477,495,502,500,547
485,500,505,487,531
495,499,509,486,525
505,500,515,482,514
513,503,520,483,509
513,500,519,479,519
514,504,522,488,509
520,505,524,498,502
527,504,530,512,517
533,515,526,532,524
534,520,527,544,510
533,519,521,549,511
532,521,529,550,529
523,514,521,546,524
499,506,512,537,529
490,500,483,520,495
492,499,486,510,462
479,497,502,498,506
482,498,505,491,485
489,502,511,485,499
502,500,514,482,481
523,504,517,478,536
532,503,517,480,523
535,503,520,489,507
532,506,523,499,530
545,511,526,513,523
543,519,528,528,520
539,517,529,545,507
545,522,531,556,506
534,518,522,554,500
517,510,512,543,531
496,503,495,529,564
488,500,486,516,534
491,502,501,508,539
510,500,504,497,507
517,500,508,489,508
521,504,516,489,497
513,501,518,482,508
513,501,522,479,513
511,500,525,479,512
519,505,529,496,502
527,506,525,512,492
534,513,521,535,498
536,515,518,546,503
535,516,520,551,543
538,515,521,554,509
526,511,519,532,539
513,511,517,530,523
510,505,493,526,530
498,504,479,508,532
499,505,492,495,526
499,500,493,488,520
490,495,491,482,516
502,506,527,484,495
511,505,527,497,494
510,497,524,500,489
514,501,526,489,485
508,498,518,480,514
517,507,527,501,526
523,511,525,517,532
534,516,536,532,499
533,519,527,544,473
519,514,517,538,492
512,512,516,550,516
494,503,501,548,538
491,499,498,527,519
509,499,499,512,504
504,496,499,501,523
499,499,496,487,536
505,498,503,481,515
516,502,524,480,491
513,506,527,482,491
503,500,521,487,471
505,506,522,495,534
516,514,533,515,532
516,512,528,518,514
522,513,529,533,503
529,515,535,545,491
538,522,535,554,476
517,516,520,549,510
502,508,489,538,545
496,503,480,525,518
506,501,490,518,528
506,503,498,506,531
509,502,511,499,508
506,502,514,494,473
504,500,518,487,508
495,501,521,483,518
505,499,518,485,507
514,497,520,485,526
523,506,524,498,501
533,508,526,508,505
540,514,528,522,517
535,517,526,528,531
535,521,522,543,517
536,518,518,554,500
524,516,514,554,503
517,514,513,556,453
483,508,506,530,534
464,498,498,505,575
471,499,501,499,549
483,501,508,491,559
508,499,509,484,509
513,505,515,484,489
514,506,520,484,522
526,500,520,483,526
526,502,523,486,480
536,506,526,500,429
540,510,527,514,437
532,512,525,523,520
531,519,529,540,543
534,515,518,547,527
533,515,513,552,477
533,510,509,546,488
515,505,501,535,512
493,505,498,524,534
486,500,496,506,533
483,496,500,493,535
494,502,510,492,521
496,500,517,482,510
497,500,520,483,503
498,503,523,482,513
504,504,523,483,515
514,506,525,494,533
528,506,522,500,526
526,507,529,516,523
537,516,527,530,511
535,515,523,544,508
544,522,523,547,509
542,517,513,548,516
530,511,507,543,523
515,504,501,530,539
504,501,503,524,535
505,503,517,520,529
508,502,514,505,523
505,504,510,489,525
502,500,503,471,492
514,504,511,480,469
510,501,522,478,496
507,505,521,482,499
513,507,529,496,516
516,508,531,506,522
532,515,542,523,503
538,511,537,531,511
544,517,516,540,521
535,522,509,542,532
524,519,492,543,530
506,505,481,534,546
494,496,481,518,532
489,499,501,511,541
500,504,516,513,520
502,503,513,502,496
502,502,517,489,496
507,502,516,487,485
508,501,511,487,487
509,505,518,485,508
514,506,526,499,512
510,506,532,509,532
511,505,528,520,528
534,514,530,533,500
544,516,535,538,461
543,514,533,536,474
533,517,526,537,498
526,512,495,537,491
508,502,482,528,545
498,500,481,514,550
490,498,496,502,532
492,496,508,496,515
496,503,504,487,514
501,504,512,486,516
510,503,518,504,512
508,501,522,489,534
511,500,519,482,516
513,502,528,491,513
515,507,526,507,522
512,511,527,520,518
516,511,523,529,511
519,517,525,542,497
508,517,522,550,504
504,515,515,550,503
504,510,508,543,527
526,506,502,537,460
509,498,494,519,509
507,496,496,506,523
496,498,500,494,541
505,498,505,483,542
507,499,514,480,527
511,504,525,483,496
496,502,522,478,525
496,499,520,482,552
514,508,528,494,552
520,510,527,506,545
514,509,524,523,505
533,516,527,536,485
551,518,524,544,494
548,518,520,551,495
531,513,512,548,512
516,511,508,545,529
500,505,503,531,544
487,502,501,514,541
488,502,504,505,501
485,499,507,494,493
502,498,507,484,493
522,503,517,485,493
539,501,520,483,509
518,498,520,480,506
512,499,521,487,495
512,504,529,501,487
529,510,530,514,488
543,514,526,525,497
540,517,525,537,509
535,517,518,548,510
522,515,515,548,513
509,514,508,546,519
516,510,506,540,533
499,505,500,525,547
492,501,501,517,528
504,502,507,503,523
515,502,509,492,507
526,504,515,486,496
529,502,520,485,472
522,501,521,488,464
521,498,518,488,486
524,506,526,490,506
528,505,525,501,513
522,510,525,513,542
534,516,527,531,509
538,523,526,542,514
531,519,522,544,544
524,516,518,545,536
524,511,507,542,523
517,507,501,533,520
500,502,499,523,527
494,500,506,507,520
497,499,504,497,521
501,504,513,494,500
502,499,515,484,501
508,505,521,483,508
504,503,521,482,521
510,501,518,487,502
519,504,528,495,504
522,507,527,506,509
528,514,527,521,500
531,515,528,535,504
530,518,524,544,508
529,515,518,548,509
520,513,513,547,519
513,509,507,541,522
502,504,501,529,524
496,501,497,514,524
497,504,507,505,524
501,503,508,496,516
500,500,516,489,518
504,501,524,483,525
505,502,528,485,520
506,500,526,484,520
510,499,515,489,513
509,502,518,500,498
519,507,523,513,496
527,512,524,525,514
527,517,525,536,515
526,516,521,549,496
518,518,513,548,517
522,509,507,543,505
512,508,507,536,510
498,507,503,525,529
503,502,497,514,523
500,501,502,503,517
495,501,507,493,511
500,503,512,486,509
505,503,520,486,511
507,502,522,488,515
506,499,521,485,515
513,501,523,492,518
520,506,525,504,502
526,510,524,516,499
529,515,527,530,507
529,517,524,543,512
521,516,524,549,514
512,513,512,547,522
509,511,508,545,523
499,502,493,530,528
495,501,495,518,527
510,501,500,508,518
514,502,503,499,509
512,501,510,492,509
510,501,515,487,504
511,502,520,486,503
511,500,521,484,505
510,500,521,485,507
511,503,524,493,510
520,508,524,505,508
531,513,527,520,507
535,517,527,536,508
532,516,522,544,514
531,518,518,551,518
524,517,513,546,526
511,513,506,539,533
500,504,499,527,538
492,502,501,514,534
485,501,503,504,524
480,501,508,497,510
476,498,510,488,504
481,501,518,489,508
473,500,520,481,513
488,498,518,479,515
517,502,522,486,510
535,504,524,499,503
537,504,522,508,501
524,506,521,521,503
520,512,524,536,505
510,513,520,546,506
490,517,516,549,510
478,513,510,544,528
486,505,502,536,542
505,504,500,523,548
546,505,500,515,527
556,502,504,499,510
535,499,507,490,519
514,500,512,483,525
503,501,518,484,489
493,499,521,484,486
486,497,520,484,505
485,498,521,489,509
494,501,522,500,501
525,509,527,520,499
550,513,526,532,501
567,518,523,546,509
571,520,520,552,513
553,518,513,550,524
533,509,509,544,522
523,506,498,534,527
516,504,498,520,527
509,503,502,507,518
505,508,508,497,507
503,508,512,487,504
502,502,515,479,501
515,504,524,478,505
511,503,523,478,500
513,503,523,486,504
529,502,523,496,510
532,507,523,509,508
527,511,524,518,509
531,515,522,532,513
532,517,521,543,516
537,519,517,548,518
535,519,511,547,521
521,512,506,540,525
507,505,498,522,524
506,500,495,506,524
504,501,501,494,518
506,501,507,486,511
504,502,514,485,507
507,502,517,479,498
513,503,522,482,504
512,501,525,480,509
516,504,524,485,510
520,504,523,493,510
523,505,528,514,514
529,517,529,531,515
532,516,528,544,518
531,517,520,550,525
531,517,515,553,512
519,511,504,547,515
508,506,500,538,525
499,503,499,527,531
490,499,499,511,525
492,501,506,498,518
496,499,508,487,512
498,500,514,490,508
504,503,522,485,505
507,502,522,483,503
508,500,524,482,510
513,507,525,493,511
518,506,525,504,509
522,505,526,514,509
528,517,526,530,512
532,516,523,540,517
531,518,519,544,521
528,516,510,543,525
514,509,508,538,527
503,503,496,528,532
497,502,496,515,528
497,501,502,504,524
495,501,507,498,517
498,502,513,493,510
503,501,516,487,505
509,504,522,491,503
511,503,524,485,502
509,503,527,490,510
517,502,526,498,512
519,506,522,510,516
528,509,527,526,512
531,514,526,537,515
536,516,521,545,521
527,515,517,547,526
519,511,511,548,524
512,508,504,543,531
499,501,497,532,532
497,501,500,519,526
494,502,505,509,518
502,502,510,499,512
496,500,513,487,510
503,503,523,479,503
509,502,527,475,504
509,500,522,475,509
512,505,523,484,508
519,505,527,498,512
521,505,524,507,514
528,509,524,522,513
534,514,524,533,516
531,515,519,547,516
528,515,514,545,522
520,512,506,539,524
511,509,501,537,529
499,503,497,520,529
499,501,500,513,523
495,502,503,502,516
498,502,510,494,513
502,501,514,490,506
508,503,522,486,506
511,503,524,486,508
509,502,525,486,513
513,504,527,494,518
521,508,528,500,518
522,508,526,510,505
529,512,524,518,516
530,514,519,530,519
526,515,515,536,523
519,509,508,536,525
513,511,505,535,527
499,503,496,524,535
496,502,497,516,533
500,501,500,508,530
501,503,507,501,515
509,502,513,498,493
507,500,524,495,493
509,507,525,494,495
508,501,525,490,504
506,496,528,488,516
513,503,527,495,524
512,504,523,499,524
528,511,528,521,497
535,515,525,532,500
528,514,520,541,508
521,516,516,549,512
513,517,510,544,523
505,510,501,535,526
507,504,498,527,522
523,503,497,518,518
510,502,502,512,515
505,502,509,498,514
498,501,512,493,506
503,502,519,483,506
505,505,524,479,502
505,503,523,476,499
528,507,529,486,502
539,510,531,502,503
536,509,527,512,509
534,511,524,518,522
539,515,523,531,517
535,516,519,539,524
529,516,515,548,519
518,511,507,543,525
508,506,502,538,531
498,502,501,525,530
502,501,502,516,526
503,500,506,505,519
502,504,511,495,512
504,500,515,487,505
512,503,521,487,500
507,501,522,483,500
506,498,519,484,505
509,504,523,489,509
516,505,525,500,512
534,509,525,513,510
540,515,525,528,512
540,519,526,546,519
535,515,519,549,518
527,513,510,548,526
517,513,505,543,533
502,503,500,530,537
495,506,498,520,534
498,502,502,511,529
504,502,506,497,515
504,506,511,491,510
511,503,519,485,503
506,503,522,482,505
509,502,523,482,499
510,502,524,482,508
515,503,525,493,514
520,506,526,506,511
528,512,527,517,510
534,515,525,531,516
536,517,522,543,524
529,516,516,547,522
521,510,514,547,527
513,508,503,539,515
505,504,497,531,524
502,501,499,519,528
496,500,504,509,520
496,499,508,501,506
498,501,513,491,501
507,502,521,489,499
508,503,524,486,502
505,500,522,482,504
510,504,523,485,506
517,505,525,496,506
521,505,523,509,506
531,511,525,528,510
532,514,523,535,511
537,516,518,544,514
529,519,519,548,518
520,512,507,548,521
510,509,507,539,529
500,501,497,524,528
494,502,499,512,524
491,503,504,501,518
492,500,511,494,514
493,501,516,493,510
501,504,520,484,501
506,503,524,484,507
505,499,522,481,510
515,502,525,492,518
529,508,529,499,511
533,510,524,512,513
533,515,526,527,510
537,516,522,539,514
532,516,516,547,513
522,514,506,546,518
519,514,507,543,529
510,505,497,533,536
498,496,499,518,525
501,506,500,508,519
503,502,508,498,510
500,501,511,490,511
499,498,517,484,506
500,502,523,482,507
498,499,522,480,498
490,497,522,482,500
502,500,525,494,508
511,506,526,506,510
524,513,526,518,508
536,518,524,536,508
530,516,521,543,509
530,518,519,550,510
546,517,512,550,513
539,514,507,543,516
517,504,496,530,525
503,497,499,516,523
495,504,503,505,518
498,503,510,496,513
505,503,511,488,514
506,508,523,487,509
508,502,524,484,505
507,503,527,486,512
508,503,526,487,509
521,508,526,497,498
538,507,524,508,501
542,517,529,521,511
542,516,520,533,519
537,514,515,542,525
532,517,513,546,530
522,513,507,544,523
515,508,495,541,528
497,504,497,526,518
499,502,500,515,498
491,500,506,502,503
491,501,511,492,511
489,503,517,485,499
494,506,522,485,500
503,503,526,483,496
509,499,523,483,498
508,502,529,489,505
515,506,526,501,511
530,508,521,515,506
537,512,524,526,509
530,515,521,538,513
540,518,517,545,513
537,518,512,546,520
523,516,507,543,523
508,505,496,531,529
505,502,496,521,525
507,505,500,511,520
500,500,507,502,512
501,501,512,494,505
499,502,517,486,505
503,504,524,482,499
505,503,527,483,501
511,502,523,485,511
522,504,524,492,508
531,508,525,504,511
538,512,525,516,512
536,515,523,529,514
533,516,519,540,520
530,518,516,546,526
521,518,507,544,525
512,510,502,540,521
501,505,498,531,530
500,502,497,522,524
501,500,500,505,516
497,502,508,496,511
502,500,513,487,512
505,507,521,486,501
510,504,526,489,502
505,501,524,484,506
511,501,524,488,508
522,505,524,498,508
524,509,526,509,515
527,511,519,521,514
530,518,520,533,516
528,515,515,541,521
526,516,511,547,513
519,513,506,546,517
510,507,500,536,528
498,503,495,526,527
496,501,497,513,520
495,500,502,504,515
497,501,508,495,505
499,504,515,488,505
510,503,523,488,502
506,502,523,484,503
507,500,522,485,510
513,504,525,494,509
518,503,525,501,510
523,508,523,513,510
529,512,523,525,516
532,516,521,537,519
529,513,516,545,524
524,514,508,545,526
515,511,504,543,526
505,506,496,533,532
498,501,496,521,529
496,501,500,506,522
496,501,505,500,517
497,501,510,492,507
501,500,517,486,498
506,502,521,486,498
510,502,524,484,500
507,501,522,485,506
511,503,529,494,510
514,506,524,505,515
516,509,524,516,512
524,516,524,531,512
531,517,519,543,515
530,519,516,551,514
513,514,507,547,518
526,512,506,542,516
511,505,496,531,525
498,502,496,519,520
498,500,501,507,515
504,502,509,497,514
502,501,513,489,509
504,504,521,487,510
512,505,525,483,510
510,504,526,485,510
512,505,525,487,518
517,508,527,495,527
521,507,524,506,529
527,512,524,522,499
532,516,522,535,508
528,515,517,544,517
524,516,513,549,518
517,516,507,547,518
508,508,500,541,514
501,503,495,530,513
503,500,497,513,511
508,502,504,504,506
500,501,514,494,504
500,501,516,489,502
502,504,520,486,496
503,498,527,487,495
502,500,522,484,497
510,503,526,492,504
524,505,525,501,506
532,509,523,512,511
532,512,522,526,511
531,515,520,534,513
528,516,516,546,515
518,514,510,548,518
510,512,504,548,522
496,503,496,534,533
492,499,494,520,534
498,499,503,509,524
498,502,505,498,517
517,502,512,492,504
519,502,517,488,496
514,503,522,485,496
515,507,525,485,506
513,500,522,484,509
520,502,524,495,510
520,504,523,503,512
528,511,525,517,513
534,516,525,532,508
533,516,521,541,515
530,516,514,547,516
520,514,505,549,522
507,509,506,541,524
498,504,497,528,526
494,502,498,516,524
494,502,502,507,519
492,501,508,497,513
488,499,512,485,507
511,503,521,486,504
511,503,526,483,503
513,503,525,486,505
516,504,524,487,503
524,505,526,499,511
528,506,527,507,510
540,511,523,522,509
539,516,523,534,509
535,517,517,544,519
528,517,513,550,521
523,513,507,546,523
522,509,502,539,530
505,502,495,524,534
499,502,499,518,524
499,501,503,506,516
500,498,511,498,506
501,499,518,489,500
507,502,521,489,492
510,502,524,484,499
509,499,522,482,509
518,503,525,490,511
517,503,523,499,513
521,509,521,511,517
528,516,527,525,514
537,518,522,540,518
530,516,514,545,519
523,514,509,551,521
514,517,505,545,517
499,503,495,533,523
493,503,497,524,526
489,499,498,510,519
499,500,504,501,514
506,502,512,493,512
504,500,516,487,510
507,505,521,486,510
508,501,523,482,516
511,499,521,482,518
521,505,521,495,510
531,507,524,509,500
533,510,523,516,495
535,516,523,532,501
533,516,518,542,506
528,517,515,550,511
520,514,508,548,521
515,511,503,543,525
504,505,496,532,528
496,500,495,517,523
495,500,501,504,516
499,501,508,500,510
498,500,513,491,503
503,501,519,488,502
511,503,525,486,502
509,501,524,485,502
512,501,526,488,509
512,505,525,498,510
519,506,521,507,512
527,511,525,521,511
529,515,523,538,514
528,516,521,546,526
532,517,520,548,515
524,514,508,545,520
512,504,500,538,522
502,503,499,529,525
496,502,509,517,523
496,500,512,505,521
498,500,517,497,508
497,499,506,488,505
503,503,507,486,502
507,503,521,491,502
506,501,520,484,501
513,502,521,494,505
519,505,526,502,514
523,508,528,512,513
527,513,531,526,513
529,515,529,538,514
528,517,525,546,518
528,519,513,548,519
519,514,500,546,519
507,504,485,535,528
501,503,493,524,528
504,501,501,513,518
501,501,503,502,511
498,500,507,493,506
502,502,517,488,507
500,502,523,484,501
505,503,526,486,506
499,499,522,484,504
509,502,526,493,508
513,506,518,501,510
528,510,524,516,512
538,515,522,530,514
540,515,514,541,516
537,518,513,549,520
522,515,506,547,528
520,512,505,542,532
506,506,497,529,529
497,500,495,520,526
492,499,500,507,516
503,502,508,497,508
503,501,512,489,506
510,504,521,486,504
510,501,523,484,504
510,505,524,485,508
513,503,528,487,513
523,507,532,497,513
523,507,528,506,517
527,512,527,520,514
530,514,518,529,517
526,513,509,541,521
519,510,509,545,523
511,513,506,545,522
502,510,501,537,533
498,502,496,522,537
511,502,503,514,529
504,501,506,503,529
499,501,509,495,514
499,501,510,487,501
503,503,521,484,494
499,500,523,485,488
500,501,524,481,507
518,501,523,486,503
536,508,527,502,502
528,509,525,511,507
529,514,525,525,509
545,514,522,540,505
535,518,516,545,513
524,514,512,548,518
518,513,503,548,521
500,504,496,534,526
500,499,494,520,529
497,499,500,510,526
490,499,508,500,519
495,500,511,488,507
511,502,515,486,502
519,506,525,486,501
511,501,523,484,499
520,504,524,485,506
532,503,522,493,505
537,508,524,510,510
536,511,524,517,507
538,515,526,530,506
539,517,520,542,510
535,519,519,549,512
527,515,509,544,522
520,512,504,543,523
504,503,492,529,524
501,502,497,520,528
498,505,502,507,527
499,500,508,501,516
501,498,513,488,512
504,497,520,483,506
509,504,524,484,507
510,502,524,482,509
507,501,524,489,510
511,505,525,497,511
513,504,522,506,513
522,509,524,520,508
527,516,524,535,511
535,516,517,544,516
532,517,514,546,520
535,514,511,546,516
519,510,508,542,524
503,505,501,526,522
498,498,504,513,519
500,499,497,502,518
499,500,501,494,515
500,504,513,489,511
510,503,521,486,505
515,503,524,488,509
509,501,523,483,513
515,501,525,489,518
519,504,527,506,508
520,507,523,513,505
529,513,524,528,507
530,516,522,540,514
526,514,513,550,522
520,515,510,547,523
516,514,507,546,521
506,505,497,537,530
508,500,499,522,529
504,502,501,512,522
503,502,505,501,514
505,502,512,495,512
501,501,516,485,504
508,505,523,485,497
508,507,523,486,500
507,499,524,485,508
511,507,525,492,508
518,506,526,506,512
521,510,524,515,512
530,515,524,530,515
527,515,519,540,522
522,517,515,546,524
532,516,508,545,526
526,511,502,540,529
507,504,493,528,537
495,502,494,515,536
492,500,502,505,523
497,501,512,499,503
500,496,510,491,498
505,502,521,487,501
509,504,524,485,497
510,503,526,485,498
511,501,525,490,508
514,503,529,495,513
525,511,527,509,513
530,513,530,526,509
531,516,531,536,512
530,514,517,543,516
529,519,518,553,518
523,513,504,547,524
511,508,495,542,529
498,502,492,527,527
494,497,500,514,521
495,500,503,504,518
497,500,509,495,517
497,499,514,488,512
497,501,520,483,513
509,504,525,483,509
506,503,524,482,507
511,503,526,490,510
513,505,525,501,503
518,507,522,510,502
523,513,527,524,507
542,517,530,538,503
537,517,525,546,508
529,516,522,551,519
516,511,514,547,527
504,503,483,535,535
501,502,493,524,522
501,502,508,516,501
500,506,511,502,501
498,502,523,494,503
495,502,501,486,498
504,504,516,484,511
504,501,520,483,513
504,501,521,482,506
516,503,521,492,498
525,504,521,503,499
539,509,521,519,503
536,514,521,530,500
532,519,517,541,508
526,520,517,549,514
519,517,511,548,519
512,512,502,543,523
494,502,492,531,524
508,501,495,524,518
499,500,499,504,513
498,501,509,497,515
506,501,513,489,530
516,502,519,485,524
514,502,523,484,518
513,501,523,488,509
513,502,525,487,500
520,505,525,496,506
525,510,524,507,511
531,515,524,520,508
534,515,522,533,508
524,516,516,542,515
527,518,512,547,517
516,516,508,544,520
508,510,502,545,526
496,502,499,527,528
493,501,499,516,524
497,500,502,506,516
505,502,508,496,510
500,499,512,490,510
501,503,523,484,503
502,504,523,489,506
503,500,523,482,506
515,504,526,489,511
532,508,525,498,508
531,508,524,511,512
538,513,525,525,512
541,515,521,537,512
536,515,514,544,517
528,513,508,546,516
518,512,504,543,523
510,505,499,530,532
499,502,498,527,530
497,499,501,511,525
498,499,496,499,521
491,498,509,490,518
496,500,519,487,511
502,502,522,485,502
501,502,525,487,498
503,501,524,488,498
511,501,520,492,507
518,510,524,501,515
536,511,524,514,514
540,510,520,529,513
538,518,520,545,511
532,518,514,553,507
524,516,511,548,511
516,512,502,544,516
505,504,496,532,532
499,500,495,519,526
494,500,503,508,517
493,499,506,499,510
494,499,513,489,509
506,499,524,487,504
511,503,525,486,508
511,504,523,481,502
510,500,525,486,509
515,502,521,498,513
519,503,526,505,518
527,511,529,519,519
526,515,525,533,526
532,517,522,542,525
536,517,508,548,517
522,514,500,546,519
509,511,499,542,524
504,504,494,527,520
508,501,496,518,518
500,500,501,508,512
499,498,509,497,507
502,500,514,489,504
504,503,522,486,499
509,507,525,486,504
511,502,524,484,503
515,504,526,491,512
521,506,525,498,512
525,509,525,512,514
529,514,524,526,504
532,516,521,537,503
531,516,514,544,508
524,516,510,547,515
517,512,504,544,520
504,505,497,536,531
499,503,499,524,528
502,503,501,514,523
498,502,506,503,517
498,505,514,494,511
501,500,517,487,508
505,504,525,485,505
509,503,526,485,508
505,502,526,482,508
512,502,526,491,507
521,503,528,505,509
527,508,523,515,510
525,513,522,529,515
528,512,521,544,513
533,518,515,547,514
528,514,508,547,519
515,513,504,544,522
504,505,495,532,530
504,501,492,520,524
497,500,500,511,519
496,503,507,498,513
501,501,517,491,509
514,503,518,492,505
522,503,525,485,508
514,501,526,484,509
515,502,523,490,516
522,504,524,494,510
528,507,525,507,511
534,512,523,519,506
533,516,522,533,505
537,517,517,543,519
531,521,515,547,519
520,516,506,544,523
513,510,501,541,523
503,504,496,529,527
489,499,499,515,522
487,500,502,504,516
492,500,509,497,511
494,501,512,492,508
501,506,522,486,496
504,502,524,484,497
511,503,526,485,501
528,503,527,489,500
531,504,530,499,502
527,508,529,515,505
532,514,531,525,518
536,516,528,537,521
530,518,510,545,525
527,518,504,547,528
518,514,506,549,534
508,507,495,536,540
499,501,491,521,534
494,506,497,511,518
499,501,508,501,507
507,501,514,494,504
506,502,515,486,491
509,503,522,489,493
506,500,523,483,498
507,501,520,488,507
511,501,526,492,510
515,504,524,503,509
522,509,522,513,509
522,513,522,528,513
528,516,519,540,513
531,518,515,547,514
518,514,507,550,524
523,514,504,544,523
515,508,495,531,528
507,504,496,521,528
504,501,505,510,513
502,500,506,499,504
505,499,510,493,502
503,501,518,486,503
506,502,527,485,501
504,501,525,484,505
511,502,526,488,510
512,504,525,494,515
522,510,523,505,514
525,512,526,518,511
537,515,521,531,510
533,516,516,541,512
522,518,512,546,513
515,513,504,545,517
515,511,502,542,527
499,505,497,529,540
490,501,497,516,530
491,501,503,508,526
492,501,506,498,519
511,502,515,489,505
521,505,523,488,494
515,506,523,484,496
513,506,524,483,500
515,504,527,488,509
518,505,525,498,510
522,507,523,509,516
526,511,522,523,502
540,514,519,534,508
534,516,514,544,510
526,511,510,547,513
524,513,504,544,515
508,506,497,536,523
498,501,494,524,525
501,501,499,514,522
503,502,506,504,515
502,502,512,495,507
501,500,517,485,505
507,502,523,484,503
509,504,526,490,506
508,499,525,486,512
516,504,526,492,514
519,508,528,502,512
524,509,524,516,518
529,516,524,530,506
528,515,519,540,505
525,516,512,545,505
519,515,507,546,513
512,513,508,545,524
499,505,497,531,532
494,502,496,524,528
498,497,505,508,522
496,499,506,496,514
501,500,512,488,507
504,506,521,486,508
514,504,525,479,508
512,503,522,486,511
509,501,525,484,519
513,505,527,493,516
518,506,521,502,506
527,513,524,521,508
531,517,526,535,512
529,516,518,544,515
522,517,513,548,517
518,515,506,546,522
518,513,503,543,523
499,503,495,527,525
490,501,497,517,521
489,500,502,506,512
494,501,510,497,510
515,501,513,489,503
518,504,523,487,504
514,503,525,486,503
513,502,526,482,505
513,502,525,487,503
519,505,527,499,510
521,507,523,505,513
527,512,524,524,510
529,513,520,535,508
529,516,517,548,514
530,516,511,548,520
520,512,505,547,522
516,505,498,535,516
510,503,494,521,520
506,501,498,513,516
501,503,504,502,510
498,500,511,494,512
501,501,518,487,504
506,504,527,488,491
506,502,526,486,492
508,504,525,485,497
509,506,525,492,509
508,504,525,502,526
516,510,524,516,531
529,517,529,529,520
536,517,524,538,517
530,520,523,547,524
523,515,511,545,528
525,514,502,543,532
508,504,489,530,537
496,504,491,518,524
493,501,499,510,520
511,506,505,499,512
511,502,513,494,508
507,500,519,486,505
510,502,524,488,503
507,501,524,483,507
503,501,524,485,509
508,498,527,492,508
515,507,522,510,515
520,509,524,519,513
525,514,522,531,516
536,515,516,541,519
540,520,515,549,520
543,512,507,545,521
528,507,500,541,522
514,504,495,528,526
500,499,495,515,523
500,499,503,506,517
502,499,506,496,510
501,499,513,491,507
509,504,522,490,502
509,500,525,486,500
512,506,525,486,505
517,501,525,488,509
519,505,524,500,512
524,509,525,508,508
530,512,523,521,516
534,515,521,536,522
528,514,513,543,520
530,514,508,544,526
517,512,505,544,520
510,508,498,541,524
497,502,495,524,526
495,501,503,511,523
495,500,504,500,519
494,501,510,492,512
499,500,517,489,503
505,502,523,487,492
509,506,525,486,496
508,502,525,487,502
514,502,526,496,497
521,507,528,504,504
526,509,525,516,509
532,513,522,527,507
535,514,519,540,513
534,517,514,546,517
518,514,508,546,522
515,510,505,544,524
504,504,496,533,530
496,502,498,518,524
494,500,501,510,512
492,499,505,500,509
496,499,510,491,507
497,502,517,488,504
503,502,524,487,499
505,502,527,484,500
502,502,527,487,513
500,503,526,492,511
512,504,524,505,508
519,514,525,518,504
523,514,522,531,510
523,516,517,541,515
532,517,513,547,516
536,514,506,545,518
534,510,501,545,521
512,503,494,527,531
503,499,495,515,529
500,501,503,505,522
502,503,513,497,509
508,504,514,490,507
511,501,523,487,504
512,505,527,485,501
511,501,528,485,504
519,502,527,490,514
524,505,521,497,510
529,508,524,514,513
532,512,526,523,509
534,515,524,536,509
530,515,517,544,518
528,516,512,550,520
513,513,509,546,523
503,505,495,537,530
491,500,494,524,530
495,499,503,512,522
496,500,504,502,512
493,499,509,493,507
501,500,517,491,506
509,506,525,487,502
512,504,525,482,505
512,506,525,486,510
518,504,525,491,512
534,508,529,502,507
537,508,523,513,509
539,513,522,527,514
538,516,520,540,516
535,518,516,547,521
527,515,510,549,523
523,514,506,547,523
509,504,495,533,523
496,501,496,522,526
492,499,498,507,526
502,503,506,498,515
505,502,514,493,521
505,502,518,484,520
510,503,524,488,511
507,501,525,482,512
509,502,526,485,513
512,502,523,487,510
518,507,525,506,505
523,510,526,519,513
533,514,522,532,505
537,515,516,540,512
529,517,513,547,517
529,515,507,546,523
521,511,503,541,522
507,505,496,529,531
495,500,496,514,530
493,500,501,505,523
494,502,510,498,509
494,501,515,492,501
502,502,522,489,498
504,502,521,482,499
510,502,526,485,503
514,503,528,489,515
518,504,526,497,513
519,505,523,508,508
526,515,528,522,506
531,514,518,535,509
528,515,515,544,511
525,516,512,547,520
515,511,504,544,520
508,506,502,539,526
506,502,495,526,519
504,502,499,512,517
496,499,502,501,503
500,500,510,494,499
502,501,515,487,499
508,501,523,487,496
510,502,524,483,498
508,502,525,486,496
515,501,527,490,499
522,504,529,503,502
523,508,524,514,507
529,514,524,529,512
529,515,524,542,515
526,517,515,549,518
518,515,507,548,521
514,513,505,547,526
500,507,496,534,535
502,501,496,521,531
503,502,499,509,520
500,500,505,499,512
504,500,514,494,510
503,500,517,488,502
505,502,523,486,505
508,501,524,485,504
516,500,521,486,503
520,505,526,495,512
522,506,522,508,511
528,512,523,519,509
528,514,521,531,514
540,515,515,539,517
533,518,513,548,515
525,516,508,549,521
518,510,505,548,528
504,504,495,531,532
496,500,494,514,527
497,501,502,506,519
498,501,509,499,511
500,499,513,490,506
507,502,520,482,504
509,502,522,484,502
511,502,524,484,505
515,502,525,485,510
515,504,523,498,511
520,508,523,509,512
525,511,522,523,513
530,515,520,535,514
534,516,514,543,517
528,516,510,548,521
515,512,504,544,523
510,509,498,541,527
499,504,496,527,527
491,501,494,516,518
488,499,501,504,516
495,500,509,494,506
496,500,519,488,508
497,503,526,484,505
500,502,528,483,507
524,505,528,489,505
525,504,519,494,511
520,504,517,499,517
527,510,522,514,521
534,515,522,526,524
538,514,517,536,521
533,516,513,545,513
526,515,507,547,507
518,513,504,544,516
508,506,495,534,529
496,501,494,520,529
491,501,503,510,528
492,500,504,495,521
493,500,512,493,520
501,499,517,486,512
507,502,524,486,507
500,500,524,483,502
508,500,524,484,509
512,501,529,493,508
519,505,523,504,517
529,512,524,518,506
537,518,525,534,509
535,518,518,549,508
529,518,514,547,511
524,513,504,547,516
520,511,504,547,518
504,503,497,529,526
508,501,500,517,514
501,504,502,507,505
500,500,508,496,507
499,500,517,490,504
504,502,521,487,506
507,500,523,485,503
520,502,526,486,498
520,505,525,488,502
523,503,527,499,508
531,506,523,508,510
529,511,522,522,513
529,514,520,538,521
530,517,516,543,530
524,517,511,546,524
513,514,505,546,524
504,508,500,539,523
490,501,495,525,524
490,500,496,511,517
496,500,507,502,516
498,501,510,494,508
497,501,516,489,502
518,504,524,487,499
519,502,525,485,506
519,503,526,487,510
521,502,524,495,511
517,509,527,503,512
520,506,523,510,512
526,513,521,530,514
531,517,520,536,513
530,518,515,547,511
522,514,508,547,514
527,512,504,545,517
511,505,502,534,526
503,500,494,522,521
501,501,502,509,513
497,499,505,496,516
496,496,515,492,509
496,499,517,488,507
505,502,524,485,505
515,502,525,484,500
510,500,526,486,504
507,502,525,493,507
519,506,524,503,509
527,513,526,519,511
538,516,526,532,511
531,515,518,541,516
536,517,513,548,519
532,516,504,546,521
522,511,503,538,525
505,503,495,529,527
498,500,495,516,527
501,501,498,506,519
499,504,509,498,512
499,500,514,488,513
504,502,523,490,502
507,503,526,486,496
508,497,531,485,504
515,500,526,487,505
516,505,527,498,511
524,507,525,507,512
530,514,529,523,515
532,520,527,536,519
528,515,516,543,524
526,517,511,547,525
520,511,505,542,522
514,510,502,545,522
499,504,497,527,524
496,502,500,514,524
495,501,502,502,519
497,501,511,493,510
498,499,516,486,507
505,502,523,486,504
507,501,525,483,508
507,502,526,485,509
512,500,525,489,510
520,504,529,502,503
524,508,525,513,510
530,511,522,525,510
528,515,520,540,516
527,517,512,548,516
528,515,512,546,519
518,511,505,545,523
501,500,491,535,529
495,502,496,526,527
498,502,498,508,514
497,501,505,497,511
502,501,513,493,509
511,500,518,486,503
513,503,523,485,501
510,501,525,483,506
512,502,525,488,510
515,502,524,492,510
522,505,524,506,509
526,511,526,519,510
532,515,524,531,513
532,515,517,540,518
532,517,513,546,523
522,515,507,546,530
517,511,503,545,533
500,507,496,529,533
493,500,497,517,526
496,498,503,507,511
497,498,507,497,500
497,498,511,487,498
500,502,521,487,502
505,500,526,483,505
512,503,526,484,508
506,501,526,488,506
511,506,525,497,506
521,508,525,508,512
525,512,523,520,511
533,511,524,539,514
537,517,515,547,521
533,516,510,546,523
521,511,504,544,520
512,509,501,541,520
500,503,495,530,522
494,501,497,514,521
493,500,501,501,516
505,500,509,495,513
505,499,513,486,508
521,504,523,487,504
512,503,526,483,502
517,502,525,485,507
519,502,525,491,505
523,504,525,500,507
525,509,525,518,511
531,514,525,526,506
538,518,523,540,511
534,516,515,545,514
533,517,513,549,517
524,516,510,546,519
506,505,493,538,527
494,497,495,521,530
498,500,499,505,521
500,499,506,499,516
503,500,512,493,511
498,498,515,485,507
510,504,524,486,500
514,501,525,483,499
514,505,527,487,506
511,502,525,493,511
515,509,526,505,523
520,512,525,517,522
524,515,523,531,524
527,517,520,543,530
525,518,514,547,525
523,510,507,549,508
520,510,505,545,505
500,502,494,532,519
493,499,493,518,519
497,500,501,507,521
500,503,507,498,510
500,499,513,494,504
518,504,521,489,501
519,504,525,491,504
512,502,525,486,505
515,500,528,488,509
520,505,525,498,514
526,505,519,509,508
535,513,524,525,505
537,517,521,537,510
534,516,516,546,517
530,517,510,549,516
520,513,505,546,526
515,509,502,543,526
502,502,495,529,528
496,500,497,515,523
496,499,503,508,517
497,500,508,496,514
499,498,513,487,508
506,503,520,490,505
508,504,524,485,503
509,502,524,486,507
514,501,528,490,510
519,505,525,498,517
522,507,522,513,513
528,516,520,523,512
528,513,518,538,510
529,520,513,547,516
522,516,509,548,523
512,512,503,546,527
499,500,495,535,532
490,504,495,523,533
487,499,500,507,523
495,501,504,499,511
504,500,510,491,506
506,501,518,488,508
507,501,522,486,503
509,501,524,483,506
509,501,525,485,516
512,502,525,492,515
519,506,524,508,517
530,510,524,518,510
537,514,522,531,506
537,516,518,543,510
532,518,511,554,511
523,514,511,548,522
518,509,506,547,529
505,503,496,532,529
499,499,495,518,524
500,498,498,505,522
497,501,508,502,517
495,496,513,489,516
503,503,521,486,517
504,500,521,483,504
504,501,524,484,502
514,503,525,488,496
524,504,525,497,503
526,508,523,507,507
533,510,523,521,509
533,514,521,534,510
531,515,513,542,512
528,516,511,548,517
516,513,504,546,522
514,507,499,541,524
500,503,494,525,534
496,500,497,513,526
496,499,505,505,515
502,501,510,493,504
500,500,515,491,505
504,500,520,487,499
508,502,525,486,501
509,500,523,484,505
515,503,527,491,510
519,505,523,502,504
525,507,523,509,503
528,513,523,527,511
529,517,524,540,521
522,512,515,546,533
512,514,509,545,543
504,512,505,544,559
498,505,496,533,554
497,502,495,524,526
489,500,501,513,514
500,500,506,505,503
514,501,512,495,493
508,498,515,486,484
513,502,523,485,490
516,500,523,485,496
520,502,525,491,496
520,503,525,495,499
525,506,524,505,503
530,511,525,519,505
537,516,524,532,509
539,516,521,543,512
534,516,514,549,517
527,515,507,548,520
518,511,509,545,521
504,503,495,530,525
495,499,495,519,520
497,499,500,509,515
497,499,508,500,510
499,498,512,486,505
505,497,525,487,500
509,502,525,484,504
509,502,523,489,502
518,503,528,490,506
516,503,526,497,508
522,505,524,506,513
528,511,525,523,512
536,516,524,537,514
533,515,518,545,518
532,517,513,550,520
517,513,505,546,522
510,509,502,543,525
498,501,496,528,529
489,500,498,514,525
494,500,502,504,516
503,501,510,496,511
504,499,515,489,507
508,501,522,486,502
508,498,526,486,502
510,500,524,484,502
508,503,527,491,509
519,505,525,501,509
523,511,523,511,511
526,511,523,526,520
529,516,521,538,517
528,515,514,546,516
515,511,507,547,519
500,511,504,545,529
494,502,498,535,535
480,501,495,524,545
478,498,499,513,541
506,502,504,496,526
520,504,512,492,512
520,502,517,486,506
526,503,523,486,501
521,502,524,486,514
518,505,525,488,499
520,502,524,494,491
528,506,525,505,498
533,510,524,514,503
540,514,520,531,504
540,516,522,542,511
536,519,515,549,515
526,515,506,548,516
521,512,503,545,521
507,504,494,534,526
498,500,494,520,523
500,499,498,508,516
497,500,506,498,507
502,500,512,492,508
505,502,519,489,500
509,505,524,486,500
509,501,524,485,503
514,503,527,489,505
516,503,525,496,510
522,506,523,507,511
528,510,519,525,510
533,514,521,535,509
534,515,515,543,521
529,517,512,550,521
522,515,507,546,526
515,512,502,545,527
501,502,495,526,530
494,497,499,516,528
492,500,502,505,517
493,500,509,495,509
498,499,514,489,504
509,502,520,486,500
508,502,525,482,504
512,501,524,484,503
512,504,527,490,510
516,504,524,500,510
521,509,523,511,512
526,512,522,525,512
528,516,520,537,514
524,516,514,545,517
525,514,508,547,523
517,508,506,544,522
500,505,497,535,529
490,502,496,524,529
486,498,503,511,522
487,499,505,501,518
494,501,516,492,514
500,503,517,486,510
510,505,524,486,508
518,500,523,483,506
528,502,525,486,503
533,506,527,496,514
532,507,529,506,513
529,510,524,516,510
531,513,521,527,512
532,516,517,539,513
536,517,513,548,518
527,515,508,544,527
518,507,507,544,531
501,503,494,532,540
498,503,499,520,531
503,501,501,508,520
502,506,509,501,514
502,501,513,491,509
504,500,518,491,492
508,501,527,487,488
511,504,524,486,488
512,501,525,488,498
519,505,524,497,505
521,508,524,508,509
526,511,523,522,509
533,515,518,536,507
534,516,515,543,513
529,518,512,551,516
519,514,505,546,520
511,511,502,543,523
496,502,499,528,529
495,500,496,512,526
493,500,502,505,517
494,501,513,497,511
495,498,513,488,509
510,504,523,487,505
512,502,523,484,505
509,506,526,486,506
510,501,524,490,510
518,505,525,499,513
519,507,522,510,514
529,513,521,524,514
535,515,519,536,514
531,519,518,545,519
528,516,510,549,521
523,513,504,545,524
513,510,497,536,531
501,502,494,522,528
501,501,499,512,525
493,498,503,500,518
496,499,510,492,513
502,499,517,490,510
503,502,522,485,509
507,502,522,487,507
507,502,525,486,511
508,501,524,492,502
515,504,523,503,506
518,508,522,513,512
522,513,522,530,512
532,516,514,540,513
538,517,514,544,515
531,515,507,548,520
519,513,504,544,526
506,505,495,532,535
502,505,495,519,522
502,501,501,510,518
503,502,508,499,514
502,500,512,491,514
507,501,520,485,505
513,502,525,484,504
510,502,526,485,511
515,502,525,486,510
516,499,524,494,513
522,507,525,507,514
528,514,526,522,512
533,515,522,532,507
532,518,521,542,512
529,517,513,549,513
522,513,505,546,517
516,510,500,543,523
503,504,496,527,533
495,500,497,514,524
499,500,504,506,518
497,500,509,496,508
525,511,522,526,512
526,515,520,539,516
524,516,514,545,517
521,516,510,550,516
514,517,505,547,525
505,507,499,539,534
506,504,495,525,536
506,503,499,514,525
498,501,505,501,521
497,499,509,489,518
499,500,519,485,507
502,501,522,486,491
509,504,526,486,494
508,502,524,484,495
513,504,527,492,504
523,505,524,502,508
530,512,525,518,512
537,516,524,529,510
533,516,518,543,514
526,514,510,545,519
522,515,507,550,513
513,513,501,547,513
498,503,495,533,529
491,500,496,520,523
484,499,500,508,523
496,499,506,498,515
499,499,511,489,512
510,502,519,485,506
522,504,524,483,503
517,502,525,483,501
516,502,524,483,499
521,504,525,497,507
524,506,525,506,512
528,511,524,521,510
530,514,521,535,507
528,516,516,544,513
522,515,511,549,516
514,512,505,547,524
511,512,504,545,531
492,502,499,528,532
496,500,496,516,528
490,497,502,506,516
499,502,509,494,509
507,504,511,487,506
502,502,519,483,508
510,504,524,486,507
512,503,525,481,512
517,504,527,489,517
523,508,530,500,515
531,510,523,515,507
533,513,525,527,508
539,517,522,540,516
528,515,513,546,520
525,514,506,553,515
517,516,506,546,522
509,507,499,540,524
503,504,497,523,530
500,501,499,512,526
497,503,504,502,522
498,497,516,494,512
500,501,516,486,510
504,501,527,487,501
506,502,525,488,503
512,502,525,487,499
515,504,526,495,502
518,508,530,505,504
523,510,525,518,507
530,514,522,533,504
528,515,519,542,507
526,514,512,546,515
524,512,507,547,516
523,513,503,545,517
506,504,495,532,526
496,502,495,520,520
492,500,500,509,520
494,501,505,493,511
498,501,513,490,511
499,500,516,486,504
516,504,523,485,501
519,502,525,487,501
517,503,525,487,505
520,503,523,495,509
526,508,523,509,511
529,512,523,520,510
533,516,522,535,511
532,517,517,547,520
527,516,510,548,520
518,513,505,544,521
510,512,504,544,521
499,505,496,530,529
491,500,495,515,522
493,501,504,504,518
496,501,509,497,512
505,502,513,486,510
515,502,521,485,512
516,502,525,483,511
512,505,524,483,507
514,503,525,489,503
524,506,525,505,507
522,507,523,510,515
530,514,524,527,506
533,515,521,539,505
529,518,516,547,515
526,516,511,550,520
521,515,507,548,523
511,508,500,539,524
498,502,493,523,524
498,502,500,513,524
495,501,503,502,515
491,499,512,493,507
492,501,517,487,506
495,502,522,488,499
496,501,524,484,503
505,503,527,487,500
513,502,524,490,505
526,508,526,503,515
539,509,522,514,512
537,514,521,534,509
537,517,522,546,508
532,519,518,550,512
525,515,511,549,517
517,513,505,545,526
510,504,494,531,530
502,506,496,518,532
495,500,500,509,522
496,499,506,497,515
501,500,513,492,508
503,499,518,487,502
509,502,524,485,505
506,500,524,483,507
514,503,526,488,510
520,503,524,495,510
523,507,525,506,511
534,513,525,521,510
536,515,523,534,510
535,517,519,546,516
529,517,513,550,518
519,512,508,548,520
511,509,502,544,512
494,503,496,530,524
486,501,499,515,522
489,501,502,505,516
502,503,505,496,509
512,503,516,488,505
509,502,520,488,504
512,508,525,485,498
516,502,524,485,500
517,504,527,490,506
518,505,525,499,507
523,507,523,511,509
525,512,522,525,510
529,519,521,539,512
525,515,514,545,517
522,514,509,549,519
523,514,503,546,520
524,510,500,540,524
507,503,499,525,527
504,502,500,512,525
503,502,507,501,515
504,504,510,493,512
504,503,517,487,507
506,503,521,484,503
510,504,525,485,503
511,502,525,483,509
513,503,525,491,508
523,507,525,505,514
527,510,523,515,510
532,513,521,529,507
526,514,518,541,511
526,514,512,547,515
518,512,506,549,514
512,511,504,548,524
502,505,495,534,531
490,501,491,521,527
502,502,499,507,520
504,502,506,494,516
504,502,514,491,511
506,500,518,484,506
507,502,523,483,506
512,501,524,485,504
515,504,527,487,512
517,504,521,493,510
523,509,524,506,511
530,512,523,520,505
532,515,521,532,510
530,515,515,543,512
526,515,510,549,516
522,516,506,548,525
517,513,507,544,533
502,506,492,533,535
492,503,498,514,532
490,500,501,506,513
488,500,508,496,503
486,498,514,486,503
492,501,520,489,502
500,503,525,484,500
499,501,523,483,504
515,503,525,490,507
537,506,525,499,507
538,508,523,504,510
537,512,522,523,509
539,516,524,542,515
533,515,515,546,520
525,515,509,548,519
521,513,504,546,524
513,511,498,538,523
506,503,495,526,524
498,507,500,515,516
496,501,504,504,514
498,500,511,494,511
502,500,515,485,503
505,502,525,485,506
507,502,523,482,508
510,506,526,485,506
514,503,524,488,511
519,506,525,504,521
524,510,524,512,519
531,514,525,532,517
531,516,518,541,514
527,515,512,547,518
522,514,507,548,521
513,515,502,545,521
497,503,495,534,528
493,502,496,522,525
498,503,497,510,522
499,500,505,498,512
501,500,512,487,509
499,499,517,483,507
501,501,523,484,502
503,501,528,484,491
510,502,524,487,497
517,504,524,495,503
520,509,524,505,507
528,512,524,521,504
549,520,523,535,502
542,516,517,545,509
528,515,510,549,515
528,513,506,548,518
517,511,503,543,525
504,501,494,528,531
501,501,499,517,523
501,501,502,510,519
500,502,512,497,515
500,501,512,488,506
503,502,524,485,502
509,502,524,485,497
506,501,524,485,503
511,503,524,491,508
514,508,525,498,509
518,511,527,511,513
523,514,523,525,507
525,519,526,540,506
521,517,516,553,515
523,516,511,552,518
523,516,509,549,517
520,509,501,542,519
503,503,500,526,525
503,501,498,513,520
500,501,505,502,514
498,500,512,492,507
500,500,515,487,506
503,500,520,483,508
506,502,525,485,509
504,502,524,480,506
524,505,525,491,504
530,509,526,504,509
527,510,522,518,503
531,512,521,529,504
530,515,519,542,509
526,515,509,550,517
521,511,508,550,526
515,513,503,547,529
500,503,496,536,535
501,502,495,522,524
496,505,500,508,520
501,503,508,498,516
503,501,514,488,513
504,500,516,486,506
504,503,525,484,504
513,503,524,482,501
513,507,527,486,506
517,504,524,493,516
522,509,525,507,514
524,512,522,524,518
532,517,525,535,518
530,516,517,545,510
529,515,512,550,511
516,513,506,548,520
515,512,505,543,523
506,502,494,532,522
504,505,494,515,515
502,500,501,503,515
499,498,509,494,518
500,502,519,488,517
505,501,521,483,512
510,502,522,483,506
507,501,526,482,505
511,502,525,490,505
519,504,525,499,506
520,507,522,510,510
528,516,524,526,508
530,515,521,538,506
539,516,516,548,505
534,516,510,549,516
521,512,503,546,518
512,509,496,541,517
499,502,496,527,515
498,501,498,513,512
497,501,504,503,513
498,501,511,494,512
502,501,516,487,506
504,497,519,482,506
509,502,524,484,504
509,500,526,485,509
512,503,526,491,512
521,507,526,504,516
523,509,525,516,520
525,513,522,528,522
529,518,524,541,521
525,520,517,550,514
522,514,510,551,502
516,512,505,548,501
507,510,497,538,508
504,501,495,523,507
500,500,501,507,509
504,501,505,500,510
501,500,511,489,509
502,500,518,486,508
504,502,522,482,506
505,503,522,480,500
506,500,525,484,518
505,500,524,494,523
517,507,525,506,518
537,512,525,521,516
537,516,524,536,521
536,518,520,548,529
524,517,513,551,532
521,515,510,551,532
517,510,508,546,518
500,503,501,534,524
498,501,502,516,477
501,499,504,509,455
511,501,506,501,457
512,498,518,490,449
517,507,522,486,450
522,509,540,489,454
520,505,540,489,495
514,506,537,491,560
514,505,527,496,556
515,507,517,509,541
524,509,508,519,489
534,513,512,533,496
536,515,508,544,511
523,517,508,553,515
519,515,505,549,518
509,515,497,542,549
493,506,494,523,565
491,499,494,511,549
496,496,507,502,522
508,500,511,499,513
500,498,514,486,520
505,504,515,483,527
510,504,535,485,527
511,505,533,487,532
513,504,539,489,538
515,506,537,502,532
522,508,512,516,515
530,511,504,527,518
532,513,511,539,517
532,517,512,548,522
526,514,502,555,528
517,513,499,546,508
507,502,489,532,507
501,501,492,521,514
499,500,495,509,503
500,499,502,503,495
506,501,511,493,495
503,502,515,489,497
507,503,523,483,500
516,505,526,483,503
513,508,529,485,504
514,502,521,493,505
521,505,518,505,508
528,512,521,521,505
531,515,523,533,506
532,516,518,543,510
528,515,509,552,516
522,512,504,545,522
515,512,504,544,526
500,505,498,531,534
493,500,494,517,536
492,500,503,509,521
497,501,511,498,512
502,502,518,490,506
507,503,522,487,496
515,503,525,484,495
515,501,519,482,502
514,499,528,485,507
516,503,524,494,510
521,507,523,511,505
528,511,527,525,509
531,515,524,539,517
529,515,518,542,523
525,516,514,548,529
518,514,501,543,534
512,513,493,546,535
500,503,490,535,543
492,500,498,529,538
486,501,519,518,538
489,501,534,507,517
492,501,539,484,503
504,503,547,475,483
516,506,545,479,461
519,503,502,480,470
528,504,507,490,459
536,506,516,502,474
531,506,522,513,499
529,511,525,526,526
536,515,526,543,516
536,517,520,549,501
529,514,502,549,503
518,513,500,541,537
503,503,488,535,548
490,499,489,522,545
489,497,494,507,506
500,500,503,499,502
506,500,510,490,505
506,500,515,484,481
516,504,525,484,487
516,504,525,483,506
508,503,526,486,512
508,505,525,490,526
507,508,526,504,562
511,515,529,523,557
522,517,528,538,526
520,519,520,550,530
521,517,512,552,520
530,519,511,559,502
524,513,505,549,496
509,502,495,533,502
507,505,496,521,463
504,497,498,505,445
502,498,504,494,443
495,500,512,489,440
498,505,522,486,454
498,504,525,484,515
510,506,526,479,536
511,499,521,484,519
527,505,524,497,541
535,511,526,514,528
540,510,524,527,492
545,513,516,536,521
538,513,511,543,503
534,512,507,546,494
519,514,507,546,561
514,514,504,541,561
505,507,499,527,539
499,502,499,513,516
499,504,534,505,490
496,504,553,498,494
495,504,551,488,524
498,503,549,484,552
508,506,511,487,517
512,503,493,486,513
512,503,512,496,502
520,503,508,506,484
537,510,512,517,465
549,522,520,533,424
558,518,517,543,358
559,515,508,546,359
548,522,515,552,434
523,514,519,550,518
501,503,508,533,536
490,498,500,521,598
497,505,499,506,569
496,498,481,486,552
506,498,500,492,497
499,498,524,486,531
492,496,526,480,546
500,511,543,494,570
515,511,538,492,575
520,509,499,462,539
526,508,503,491,516
540,507,492,520,514
545,506,484,527,495
533,510,509,543,481
526,516,525,558,532
522,510,513,550,577
510,506,517,550,551
494,500,488,543,498
505,501,507,527,474
497,497,506,502,489
488,504,511,495,532
487,499,509,488,528
491,502,521,480,576
497,503,514,474,568
501,501,515,480,551
512,502,519,483,513
519,505,522,487,503
518,503,520,504,498
526,506,526,522,495
530,517,525,543,499
529,517,518,542,508
532,518,516,538,517
526,516,508,540,492
515,512,506,535,498
505,506,507,529,498
501,506,509,535,486
503,507,513,514,513
499,507,519,504,573
488,501,504,491,582
490,501,506,489,531
492,503,522,491,504
509,505,524,490,465
514,503,523,487,437
520,508,529,507,436
529,508,525,521,428
519,508,515,521,527
529,516,521,537,538
530,518,518,536,550
531,518,513,533,543
522,514,506,524,585
513,512,495,524,561
498,498,488,531,572
495,501,500,517,542
496,500,526,510,517
492,504,530,507,521
498,508,550,505,480
515,509,537,498,463
510,509,506,488,496
497,505,525,487,561
486,496,524,496,597
503,501,519,501,519
526,505,503,491,508
542,508,510,515,508
556,513,508,535,491
544,516,508,549,496
531,509,497,544,490
521,508,503,541,507
503,501,499,534,511
496,499,484,513,544
491,505,505,501,538
484,503,524,495,520
464,495,530,497,540
471,500,542,494,532
494,506,520,479,542
504,502,522,485,502
526,499,497,500,472
529,505,512,508,452
523,505,526,527,430
530,514,523,538,447
532,518,513,551,503
517,513,501,555,509
526,516,495,546,499
508,504,485,529,549
498,500,489,522,539
508,503,499,527,529
526,507,510,513,550
513,504,507,505,541
505,499,511,500,524
502,497,516,492,488
508,495,519,491,525
506,503,533,488,536
510,503,539,497,487
513,499,518,495,466
522,505,527,496,485
534,509,535,509,507
528,514,526,526,517
516,513,519,546,571
512,513,506,556,586
514,518,498,542,576
518,517,501,544,555
504,516,501,553,530
509,511,499,529,503
484,495,495,510,508
498,497,505,501,498
516,498,518,485,456
511,497,528,486,473
522,503,535,486,468
514,501,529,482,484
509,502,534,489,499
521,502,536,496,495
536,505,526,501,501
535,513,519,517,501
541,514,507,528,527
539,513,499,535,589
528,516,514,549,554
519,513,502,554,489
517,515,498,548,500
509,502,459,525,513
501,498,483,509,513
495,498,503,504,512
494,498,518,495,512
494,500,524,473,540
489,498,525,477,549
493,500,541,487,535
504,501,529,504,502
511,504,534,499,515
527,501,530,506,463
529,508,529,520,484
536,519,530,534,454
526,517,514,541,511
528,521,502,550,520
529,514,489,546,544
526,509,479,544,527
525,508,489,547,547
500,501,519,557,542
489,500,522,540,520
487,498,511,508,511
497,498,513,497,486
524,499,492,476,465
524,504,528,471,493
515,502,534,476,498
506,499,537,476,540
511,501,539,487,524
527,504,537,502,478
533,510,527,517,495
529,515,514,530,534
520,516,523,546,523
519,517,511,553,532
523,519,500,553,531
514,512,470,534,524
508,505,462,522,522
507,505,483,517,524
499,501,495,515,524
