CH1,CH2,CH3,CH4,CH5
523,515,512,524,506
517,512,510,521,508
505,504,503,510,517
496,500,501,506,516
496,501,505,506,515
494,502,505,503,513
498,498,509,503,514
505,501,514,504,516
507,499,518,504,513
509,504,516,509,513
512,505,521,510,514
515,506,521,514,516
519,508,522,514,514
521,512,522,522,513
521,515,521,524,517
530,517,520,526,517
523,516,515,524,515
514,512,510,521,519
515,510,510,519,515
508,509,503,512,519
500,505,500,507,522
502,502,505,505,515
502,501,512,506,513
501,498,514,504,513
506,498,513,506,511
507,501,518,507,512
512,502,518,514,513
515,504,520,512,514
518,504,522,518,515
519,508,521,518,516
523,513,524,524,519
527,514,519,523,516
526,517,519,528,514
518,513,513,524,519
513,512,510,522,517
517,510,508,521,511
505,507,502,511,512
502,500,500,504,515
495,499,504,504,515
498,500,509,505,516
497,498,512,504,514
516,499,513,504,511
518,501,518,509,512
520,503,521,511,509
516,504,520,512,503
518,509,520,515,507
521,508,521,519,507
525,513,520,525,502
524,516,521,527,504
521,514,515,525,512
527,517,513,523,512
521,515,511,521,511
504,504,502,512,518
492,501,501,509,522
491,500,504,505,520
496,498,505,503,517
495,498,509,504,517
497,502,515,506,521
506,500,517,505,528
516,502,520,507,525
517,504,521,510,522
522,505,522,513,515
521,507,522,518,512
526,510,521,520,499
538,515,521,525,494
538,518,522,528,498
533,511,517,523,504
524,513,509,520,509
518,511,508,522,512
505,503,500,515,525
507,499,505,507,524
505,499,502,500,521
504,502,506,502,518
503,498,510,502,519
509,500,515,503,516
507,499,515,506,513
508,502,518,509,516
522,506,522,512,506
523,507,522,515,505
527,508,523,520,506
527,514,522,526,508
531,518,522,526,508
530,516,519,526,508
528,516,516,524,513
518,514,511,520,519
515,509,508,516,523
500,502,501,506,534
493,497,501,504,532
496,497,503,503,526
498,500,509,504,520
506,500,511,504,508
505,499,513,503,510
506,501,517,506,509
502,497,518,508,511
507,503,520,512,508
514,506,522,522,511
520,507,517,520,515
524,513,523,526,516
540,520,524,530,506
538,517,517,526,502
528,512,511,525,506
517,511,508,518,509
504,505,502,513,514
500,501,501,508,517
495,498,502,500,519
491,497,506,502,516
500,499,509,504,518
507,503,512,505,519
520,501,515,505,514
517,501,518,504,515
515,508,519,509,515
518,507,521,516,516
522,508,526,518,516
523,511,520,528,513
530,520,522,527,511
527,517,520,528,510
523,514,515,524,515
516,516,511,521,515
512,511,509,522,514
504,501,500,510,522
501,507,503,506,524
500,500,503,499,518
498,499,508,503,517
504,500,513,508,521
515,501,511,505,516
509,499,516,507,517
508,507,520,510,516
513,504,520,511,519
519,507,523,513,514
521,511,523,519,518
524,512,521,524,512
535,516,521,531,504
535,517,515,531,506
532,516,516,527,501
525,515,512,523,495
517,509,509,516,497
504,500,498,507,509
500,501,507,505,510
499,499,508,502,512
502,500,511,504,524
505,498,516,503,524
503,500,509,505,508
503,500,512,508,509
502,503,516,510,520
511,505,521,513,522
514,507,521,515,522
516,511,520,519,515
525,513,521,524,507
544,519,524,530,507
540,518,517,532,504
533,515,513,525,508
522,514,516,523,505
513,509,502,514,516
502,500,501,505,519
500,500,503,506,516
500,501,505,503,519
499,496,511,502,518
500,498,512,504,515
506,500,515,506,508
508,504,519,510,500
511,502,519,511,498
508,504,520,514,502
515,507,521,517,502
519,510,521,522,501
527,517,525,529,493
527,518,517,530,499
524,517,519,525,518
520,517,513,523,525
519,514,514,521,517
509,505,502,511,523
500,499,499,504,534
506,500,502,506,533
499,500,507,503,529
500,499,510,504,520
503,501,513,505,513
512,501,517,511,509
510,506,520,510,514
516,505,521,514,516
520,506,527,514,519
521,509,529,517,521
528,514,532,523,525
531,517,532,527,515
530,517,522,529,506
522,513,501,523,501
515,514,503,521,501
511,510,505,519,503
502,503,500,509,498
499,495,504,506,513
497,500,503,504,534
500,502,508,505,517
506,498,510,508,502
506,502,512,505,500
512,501,519,508,503
520,502,517,509,501
517,503,518,512,504
520,506,520,518,516
523,509,515,517,511
528,514,523,523,508
527,517,521,526,510
526,516,521,531,514
520,514,518,521,519
523,515,523,522,520
507,507,519,516,526
499,501,516,509,520
494,498,500,511,514
497,499,498,510,505
501,497,496,502,509
503,500,506,498,508
507,500,508,495,515
507,503,516,510,521
510,503,517,520,517
517,506,515,522,520
522,511,514,517,537
526,515,514,509,511
532,522,514,499,507
526,516,515,491,511
519,519,515,493,513
519,512,506,509,508
512,512,504,543,491
506,507,517,544,489
498,503,506,521,493
500,503,509,516,500
504,502,511,510,502
504,500,509,508,495
505,500,513,504,518
502,502,512,505,523
507,504,519,508,528
519,501,517,514,499
519,504,516,516,497
530,508,526,524,517
527,514,534,525,543
531,514,535,533,540
529,523,539,532,534
519,514,537,526,527
518,513,543,519,514
518,513,539,517,509
499,503,519,512,511
494,498,479,516,505
500,500,490,521,531
498,503,494,522,534
496,501,493,503,522
500,501,498,499,529
504,501,523,513,508
512,505,523,513,482
520,511,532,518,457
523,508,524,520,478
532,509,501,520,466
538,511,506,512,477
536,515,522,519,501
529,514,529,532,508
534,518,538,536,490
535,519,541,532,478
520,510,518,520,506
505,507,498,512,512
506,497,485,503,479
492,493,490,480,513
486,497,505,480,557
496,499,506,494,545
502,498,501,497,508
511,498,509,503,515
518,500,515,511,528
526,502,513,510,522
528,504,515,516,505
529,516,520,513,518
529,521,518,521,535
525,522,517,523,534
514,522,520,515,529
515,516,520,529,533
512,510,509,538,551
497,501,500,507,570
495,504,502,504,532
507,499,504,505,508
508,503,508,523,521
506,503,505,517,528
511,501,507,515,516
516,497,507,512,485
521,500,516,510,478
515,503,516,512,509
522,509,523,515,500
520,508,524,516,477
527,512,530,522,489
527,518,526,528,523
522,514,519,525,489
528,519,518,529,490
528,512,512,526,488
524,516,509,520,489
507,505,500,512,526
490,498,501,505,539
486,500,510,508,558
487,501,512,508,565
494,499,515,506,549
499,501,518,505,540
507,505,520,509,517
520,504,521,514,447
529,508,525,520,443
536,508,524,523,408
536,513,525,526,413
526,513,530,526,479
524,515,531,525,536
531,514,523,522,524
532,513,506,520,508
527,514,499,522,499
519,512,509,512,561
512,510,514,512,589
500,501,501,508,593
491,506,508,497,591
485,502,510,501,583
489,496,508,498,525
502,495,509,507,497
514,502,522,510,538
522,506,524,515,545
516,504,516,514,523
522,509,519,511,504
531,509,515,521,500
532,515,517,526,493
539,515,521,522,487
540,519,513,522,516
534,517,507,525,523
526,521,519,527,519
511,512,542,522,518
501,507,550,519,500
498,508,548,524,436
507,505,542,521,462
497,495,452,478,495
496,495,480,496,484
507,496,500,517,452
511,501,511,507,476
511,503,509,514,490
526,506,516,518,495
537,507,518,520,459
546,514,514,526,432
560,523,519,527,444
543,516,505,520,493
534,520,513,532,511
522,520,518,535,543
522,508,514,519,575
502,503,504,517,545
495,499,496,519,490
487,499,503,514,499
483,498,498,506,531
500,498,495,501,479
497,498,505,485,498
505,499,533,497,522
501,506,549,512,563
501,508,541,516,576
511,513,537,524,543
521,513,517,522,527
519,511,498,518,518
516,512,508,525,569
531,513,512,526,523
530,514,517,505,526
527,512,519,507,527
518,505,511,512,515
507,501,493,510,549
498,497,491,500,532
499,500,505,505,520
506,500,510,513,522
499,499,522,503,511
492,496,517,496,515
502,499,503,494,511
523,507,511,508,501
527,506,517,503,517
520,506,499,526,539
516,508,521,530,540
516,519,548,525,522
510,519,551,526,504
509,510,510,521,516
523,517,503,521,509
525,521,549,540,533
519,512,560,547,547
519,505,543,539,531
503,499,521,509,523
500,495,448,468,520
497,496,511,489,515
502,493,497,488,448
498,493,489,504,461
509,504,516,523,466
517,505,519,526,474
526,514,528,530,489
515,510,527,528,552
534,514,525,514,503
528,520,526,522,509
516,519,522,525,511
530,511,505,529,482
513,514,505,532,547
507,514,508,535,524
506,510,501,530,434
495,509,507,518,411
501,505,510,499,463
492,498,508,495,480
503,495,500,503,427
521,494,491,492,543
514,493,513,504,552
519,499,518,514,589
507,500,515,512,644
515,507,522,506,595
517,508,523,513,553
525,508,516,516,498
546,515,521,530,486
550,519,520,530,470
532,516,513,527,480
508,513,513,522,467
504,506,503,518,503
516,507,515,519,524
511,501,512,506,492
510,494,512,507,462
509,500,515,497,465
485,501,512,500,548
489,507,514,514,519
501,507,525,512,457
504,502,515,512,394
507,498,516,516,439
519,508,517,519,512
537,513,525,529,518
551,515,523,530,547
531,514,519,524,609
513,505,498,517,551
525,510,498,514,471
529,511,498,523,496
515,507,499,515,552
521,503,495,506,546
501,498,497,503,532
492,497,525,506,528
497,505,538,509,522
494,510,549,514,515
480,503,508,505,580
478,506,540,508,583
492,503,512,513,530
499,504,512,514,513
491,503,519,505,552
501,504,521,518,555
528,515,515,528,526
554,516,517,534,472
543,513,511,531,467
517,507,497,528,517
504,507,489,509,602
496,505,490,491,548
509,505,517,502,485
521,508,526,510,466
530,503,534,509,475
530,500,539,492,500
522,491,539,509,501
520,501,519,513,532
514,504,503,505,548
479,504,472,520,602
494,511,495,531,524
522,514,507,541,446
528,515,498,514,460
533,521,521,520,470
524,524,550,529,498
494,518,556,545,550
511,518,532,559,553
507,503,501,535,522
504,496,475,520,500
510,501,483,502,505
516,498,497,485,510
519,499,505,492,522
510,500,508,498,551
500,499,511,503,544
502,501,520,507,529
512,505,510,508,507
508,508,527,514,515
523,509,540,515,491
535,512,538,525,488
515,510,527,531,555
522,515,479,520,533
522,519,488,531,548
531,515,505,524,456
543,523,526,535,364
522,509,522,523,368
479,498,508,510,422
487,495,493,502,507
510,496,502,502,534
499,495,498,495,610
489,495,499,502,576
493,494,502,506,546
507,506,528,511,510
511,510,535,526,519
515,512,530,518,555
511,508,522,518,534
529,514,520,527,470
544,513,525,537,481
538,512,514,526,439
520,507,504,513,517
509,513,514,520,548
507,509,521,515,535
504,505,516,512,569
481,497,492,511,582
482,500,513,529,551
495,502,523,517,497
499,503,514,500,449
512,505,523,518,480
505,501,511,507,509
509,502,508,501,566
518,501,514,509,571
526,503,515,516,571
526,502,519,516,547
530,509,514,515,514
540,522,517,516,500
547,518,508,518,460
520,510,508,524,495
499,511,505,523,536
495,510,508,521,502
502,502,506,513,530
498,506,508,501,520
497,501,507,504,505
487,500,515,528,550
486,504,517,516,588
476,500,512,501,559
517,500,514,509,456
538,501,512,506,427
538,501,515,511,487
546,508,510,518,506
534,510,505,518,533
538,514,519,528,497
537,513,529,530,473
530,511,535,526,493
510,509,502,521,521
501,507,474,518,510
484,505,500,513,527
476,503,507,507,525
461,498,509,513,525
453,498,510,513,533
460,495,510,511,546
468,498,516,508,500
474,497,514,505,508
489,497,511,501,523
492,499,522,509,539
568,514,534,528,522
603,518,546,521,494
580,523,540,532,496
562,520,519,523,491
548,516,510,511,498
540,514,505,505,506
533,512,490,506,509
528,514,506,534,545
507,506,514,543,548
503,507,520,535,537
507,502,505,507,525
500,495,498,481,532
510,507,527,501,500
513,509,526,504,511
514,500,499,496,527
516,504,488,512,525
517,508,519,528,523
520,507,529,533,527
521,506,517,527,523
528,510,516,523,497
531,514,505,515,504
532,513,498,509,513
525,512,502,528,523
525,512,525,529,483
524,515,530,523,459
513,508,520,516,458
492,506,508,513,518
484,502,496,502,582
480,505,513,510,603
486,499,514,502,546
495,499,514,507,515
498,496,514,503,488
512,497,514,502,452
517,496,514,507,490
523,505,515,513,482
518,511,516,518,463
530,514,516,521,485
538,517,516,522,541
525,518,514,522,563
517,514,508,526,576
513,518,515,519,571
498,508,503,511,558
504,504,515,517,530
505,502,516,511,535
509,500,501,510,490
508,496,504,509,482
515,498,511,509,472
512,496,514,506,478
512,500,518,506,511
518,502,519,513,465
522,504,523,521,447
521,511,527,522,467
511,518,525,514,514
517,519,526,519,539
533,518,520,522,533
528,511,509,549,527
534,515,504,519,468
543,514,505,517,494
518,504,497,505,580
504,503,504,500,556
503,497,499,493,562
495,490,489,484,535
489,491,515,513,499
505,508,520,523,488
500,507,528,519,515
498,500,521,527,540
511,501,533,524,506
527,509,539,524,500
522,507,531,522,530
536,508,494,519,506
534,512,503,507,523
539,517,515,516,507
531,514,513,521,488
514,511,512,530,519
502,510,509,516,552
490,508,504,499,555
479,503,516,505,530
485,504,515,508,490
488,501,513,502,490
488,500,509,507,519
504,500,546,495,512
515,501,551,508,515
518,500,529,515,508
517,500,482,513,502
519,507,505,531,499
528,511,517,531,503
534,514,527,521,510
538,516,509,514,515
535,519,524,519,524
523,513,497,517,530
517,514,501,514,523
499,507,509,512,530
487,502,497,506,530
480,498,502,505,542
488,500,511,509,524
515,506,520,517,508
515,503,523,505,520
515,500,519,506,522
504,499,524,509,514
512,499,537,522,485
518,504,530,525,512
520,506,523,524,539
528,511,510,504,522
530,514,516,523,519
531,514,511,529,493
530,518,514,533,499
528,513,505,524,516
524,512,505,522,502
513,503,495,513,502
492,498,494,505,499
486,501,507,509,492
494,501,513,500,501
481,497,510,497,556
490,499,519,502,527
485,496,519,504,518
496,501,524,516,504
516,501,526,522,492
507,506,521,526,495
496,505,518,521,486
538,514,520,521,482
555,518,520,526,556
565,522,521,528,506
561,522,520,525,498
524,515,510,515,525
509,509,500,506,529
507,498,495,503,509
503,500,501,503,511
503,498,505,501,502
512,503,512,502,496
512,502,517,506,511
514,503,521,516,523
509,502,521,516,527
518,506,522,507,517
519,504,518,511,515
512,506,519,516,527
517,504,519,521,512
532,517,526,529,481
532,515,520,530,438
526,517,517,529,465
512,512,510,525,516
509,515,512,520,532
511,505,501,514,519
502,498,497,500,550
503,495,505,502,541
501,500,509,510,529
499,499,510,507,543
494,501,519,506,588
497,499,527,501,574
505,501,522,504,527
501,505,520,504,501
524,505,514,528,497
536,508,496,530,507
546,509,491,513,503
547,515,528,520,497
545,518,537,521,490
534,515,518,528,496
526,516,509,525,489
524,515,494,522,493
502,508,496,516,515
498,501,508,505,498
495,496,530,508,493
486,500,544,517,514
498,503,525,512,493
501,501,499,496,521
488,499,513,508,555
513,507,516,504,482
519,509,524,509,494
532,512,506,509,509
529,507,501,515,534
525,507,511,527,528
531,516,528,527,511
539,521,520,527,501
526,515,515,520,532
513,510,511,532,542
513,508,501,504,524
500,503,484,503,519
497,503,493,493,509
493,499,521,497,510
493,500,542,508,517
497,499,542,503,532
507,501,528,501,531
510,501,481,506,518
514,507,517,523,505
514,511,515,519,506
516,510,521,513,500
513,516,523,518,509
521,515,520,521,533
533,520,524,524,504
534,519,517,531,488
527,511,504,530,505
515,509,500,521,533
506,500,493,513,524
494,498,496,504,528
499,501,504,509,531
497,500,507,504,533
501,501,511,506,530
503,505,516,507,512
501,503,517,508,523
510,500,517,509,503
520,499,517,513,504
523,505,521,517,530
510,511,520,524,528
520,518,528,527,532
527,520,527,533,491
537,518,518,529,477
536,513,506,527,459
533,511,508,526,464
517,510,509,521,536
501,504,500,511,523
495,498,496,499,511
499,501,504,502,529
499,500,509,503,526
500,502,515,504,540
498,506,521,509,553
494,507,526,512,573
506,510,530,517,537
518,506,527,526,487
517,497,519,513,450
529,501,510,512,479
528,506,511,514,519
546,516,519,526,501
541,514,513,525,506
526,513,510,521,516
515,511,506,519,552
505,506,501,511,521
498,500,488,504,471
507,500,493,503,442
506,500,499,508,512
496,499,501,510,576
503,500,520,514,544
509,501,526,508,522
510,499,519,497,509
509,501,523,503,505
513,504,528,511,523
525,512,532,522,527
519,514,523,525,525
520,518,528,529,516
525,518,524,531,468
520,513,513,525,471
525,512,510,525,450
527,510,504,518,486
511,500,499,500,513
504,499,504,491,529
506,500,504,497,526
504,492,497,490,527
509,499,499,496,512
511,500,521,520,498
504,500,530,513,501
504,501,533,517,511
510,503,507,516,513
517,504,518,512,517
518,506,531,518,522
522,515,539,525,520
521,515,535,529,520
525,521,517,541,537
527,522,503,528,535
522,518,503,523,520
511,512,511,530,528
493,501,498,505,533
497,499,494,487,531
502,503,505,503,538
503,501,507,501,528
497,495,502,502,523
514,500,517,509,477
516,495,515,510,472
518,501,529,518,486
518,505,517,519,499
528,508,540,524,500
524,509,526,501,516
523,515,544,515,506
525,514,497,510,503
525,517,499,527,504
523,515,508,532,496
528,516,509,520,469
520,510,506,513,465
508,503,501,514,482
494,499,500,512,566
484,497,500,495,599
489,498,507,502,548
502,502,514,515,493
513,500,513,503,480
512,497,516,507,493
513,504,521,510,495
519,503,520,515,456
524,512,524,522,499
528,510,512,518,523
532,513,507,520,523
527,515,506,529,516
528,518,509,527,530
513,515,515,515,534
508,512,527,516,526
497,505,516,516,557
491,508,502,505,565
489,497,498,507,559
483,501,514,511,576
495,504,522,512,539
500,504,520,508,493
501,499,518,504,485
520,500,517,501,474
529,504,521,509,511
526,506,523,512,526
525,505,524,518,507
533,512,523,533,500
535,516,522,529,495
528,520,523,535,518
522,518,519,533,539
514,512,512,528,552
514,511,511,523,537
511,505,504,514,478
504,500,502,500,534
494,497,499,492,547
502,494,502,494,512
514,499,510,504,449
521,505,515,505,450
519,500,518,506,476
513,499,520,516,512
511,499,522,523,507
523,505,520,525,492
525,507,509,511,492
532,514,516,514,508
529,519,524,520,548
517,514,519,529,547
513,514,518,524,549
512,514,510,512,536
497,506,504,513,505
495,500,503,508,493
489,501,508,507,502
489,499,506,503,511
498,497,509,503,503
494,496,513,505,495
495,499,517,508,502
502,499,517,507,508
504,496,522,507,513
520,504,519,512,521
531,509,520,518,510
548,514,522,523,510
551,516,520,522,506
547,520,521,527,498
541,516,519,529,503
528,515,512,523,511
522,514,511,521,514
509,504,501,511,526
504,502,505,505,529
502,501,503,505,520
502,498,507,503,512
506,500,514,507,508
505,502,518,510,516
504,500,517,511,526
502,505,521,507,520
511,506,522,509,536
519,511,522,511,517
530,513,522,512,512
532,514,522,517,510
538,511,526,530,473
526,513,505,532,486
531,519,525,528,498
529,514,511,522,509
530,509,502,519,496
510,503,495,505,504
492,500,493,500,543
495,499,506,507,544
497,500,514,500,522
497,503,520,504,530
503,504,527,509,524
501,502,524,514,536
503,503,510,512,521
509,505,521,507,509
524,507,527,513,497
527,509,530,521,503
526,511,525,526,495
533,518,511,522,486
529,518,511,538,510
523,518,512,534,511
519,517,510,523,502
512,509,504,518,512
502,503,501,508,529
497,500,502,493,534
495,500,501,491,537
493,504,508,499,535
487,495,517,507,549
487,498,517,513,526
500,503,514,504,527
507,502,517,506,532
506,500,517,499,512
505,510,520,508,534
514,512,522,517,539
513,515,522,525,538
510,513,516,527,513
501,515,516,527,487
504,511,511,525,454
520,516,512,529,474
514,508,502,516,502
515,504,501,508,516
502,501,504,508,525
500,499,510,512,511
505,503,509,504,515
500,496,518,502,518
488,499,518,505,522
499,501,518,505,516
499,502,518,510,520
498,503,516,517,525
489,501,516,516,518
504,510,520,524,498
522,515,523,536,476
543,519,521,532,482
543,518,515,524,493
528,511,509,521,510
502,508,505,518,525
478,504,501,505,532
472,498,500,502,525
463,495,502,504,521
445,495,506,499,528
471,495,510,506,504
487,502,521,512,480
471,498,518,506,509
469,498,517,508,503
494,502,521,515,504
504,502,520,513,521
538,512,524,519,511
557,517,522,523,517
571,519,521,531,507
573,522,520,536,503
550,518,515,517,495
549,517,512,517,502
552,521,511,517,503
530,509,509,510,533
527,505,505,507,523
528,502,506,504,517
526,502,511,504,516
548,502,513,503,510
553,505,519,508,508
542,503,519,508,509
539,505,520,511,512
540,507,521,515,516
540,508,522,521,511
540,513,523,526,508
548,516,523,528,501
545,517,522,531,498
539,518,515,529,505
532,516,512,523,510
528,513,514,520,510
514,505,502,509,519
508,502,501,506,518
506,501,506,508,517
501,498,508,504,516
504,499,513,504,517
506,500,515,510,517
509,499,515,508,514
511,506,519,508,511
514,503,520,505,505
520,503,519,508,512
521,508,520,514,510
525,515,520,517,512
528,512,520,519,512
532,518,523,512,509
528,519,518,513,515
518,512,509,509,525
513,511,510,518,518
499,503,503,513,519
494,500,501,507,516
493,499,503,503,514
490,496,508,505,517
489,498,511,504,514
509,502,516,513,510
503,495,519,504,513
507,500,519,508,514
510,505,522,521,512
512,510,524,524,508
519,509,521,527,509
526,514,523,525,506
530,516,525,529,505
529,516,520,528,507
521,514,513,522,512
513,511,509,519,516
507,508,506,521,515
500,502,503,507,520
495,501,504,508,517
492,496,509,500,521
498,500,513,500,515
501,499,508,504,510
501,501,517,507,510
503,496,521,505,512
502,501,519,508,514
512,505,523,515,513
506,505,523,520,509
512,507,519,515,510
513,512,519,523,507
510,513,519,528,514
514,516,516,530,515
516,513,514,522,512
509,512,506,521,516
519,505,501,515,522
509,504,500,506,515
494,496,503,501,521
481,497,504,498,523
486,497,508,499,527
502,499,514,506,519
500,503,515,504,501
496,499,516,504,510
499,504,521,508,517
517,509,520,512,516
517,507,519,512,513
529,513,523,523,509
547,519,525,527,500
528,517,520,528,504
522,517,516,527,507
523,510,507,521,516
520,515,513,521,518
513,507,503,511,523
507,500,502,506,522
506,500,510,504,520
502,499,507,502,517
494,498,511,500,516
503,503,518,506,513
508,500,516,503,514
498,505,518,504,523
500,504,522,511,527
501,506,522,512,533
515,509,522,519,510
555,514,523,527,495
565,518,523,526,500
546,518,520,529,507
533,515,514,523,508
517,509,508,518,510
516,507,505,515,510
522,506,503,514,523
509,506,505,502,536
490,500,506,492,539
494,499,507,499,531
498,499,514,503,506
500,501,519,507,502
496,501,518,509,510
496,503,520,511,504
516,507,524,514,535
540,511,521,520,513
537,509,521,521,500
541,514,521,521,498
539,515,516,528,498
536,516,513,531,501
532,514,506,521,505
524,513,508,520,500
511,504,502,512,518
503,504,500,504,519
500,500,503,505,522
501,499,510,501,515
501,498,509,501,511
506,500,516,504,513
513,500,519,507,509
508,500,519,505,510
514,503,526,511,510
517,510,523,516,513
520,508,521,519,518
524,512,518,524,506
531,517,522,527,511
526,515,516,529,509
526,518,518,527,512
518,514,512,521,514
515,513,511,515,513
508,505,496,500,518
499,500,499,495,523
496,499,505,499,521
499,500,509,503,517
499,499,511,500,513
503,500,516,505,512
505,499,521,507,512
508,497,519,514,511
512,505,523,517,511
517,508,526,516,513
520,508,520,518,515
525,513,520,518,508
528,516,521,524,511
527,516,517,525,513
521,513,513,522,513
515,511,509,523,518
514,509,507,516,519
500,502,504,507,521
497,499,502,503,519
493,498,505,502,519
494,498,510,502,517
497,499,514,504,516
502,505,518,508,510
504,499,524,508,514
508,502,521,510,511
522,504,521,511,513
522,507,521,512,516
525,510,523,518,512
528,517,522,523,508
531,517,520,531,509
526,513,517,528,510
521,511,513,525,515
517,511,508,521,515
504,505,507,515,524
497,501,502,510,526
496,500,503,503,521
499,499,508,502,519
501,499,510,503,520
501,500,515,505,513
504,500,518,498,515
508,501,517,497,511
514,505,522,504,518
517,504,526,506,511
521,507,520,511,512
528,514,523,519,510
528,515,520,520,509
531,516,518,522,506
528,518,516,532,508
519,514,511,524,514
514,512,510,523,515
506,504,503,508,524
500,500,498,505,524
496,499,504,499,525
498,499,509,497,519
495,502,513,499,518
502,502,518,505,514
507,500,520,504,517
505,502,521,507,512
506,504,521,512,512
508,504,521,517,512
523,508,521,523,513
530,510,518,525,510
529,517,523,530,510
526,516,517,527,510
527,516,513,525,513
508,509,508,519,518
497,506,506,520,517
479,500,504,510,524
483,500,506,509,521
485,497,507,510,519
492,499,509,506,514
502,502,512,504,514
533,503,519,507,510
544,501,524,506,509
533,506,523,508,515
526,506,525,509,517
526,508,524,512,522
527,510,522,517,521
546,518,523,527,520
544,518,523,526,518
531,516,515,527,517
524,512,508,519,515
516,509,506,518,508
506,504,502,511,521
498,501,500,509,513
514,501,505,505,502
511,498,509,502,502
513,498,511,506,505
514,501,517,508,506
516,501,518,508,517
513,499,518,501,522
516,505,521,510,518
521,505,521,520,495
526,508,522,518,505
529,514,522,523,509
539,515,520,525,505
535,516,517,526,504
531,517,514,525,501
522,516,508,520,509
521,511,507,519,512
505,503,501,511,523
504,501,502,506,523
500,501,505,502,520
503,498,508,501,519
499,497,512,502,518
501,500,518,510,519
503,501,520,506,517
506,501,524,507,511
512,506,527,511,506
518,506,522,516,507
531,508,521,522,511
534,513,521,522,507
531,515,519,526,503
523,516,516,527,510
516,513,512,524,512
508,511,511,520,516
506,510,505,517,517
492,502,501,507,522
493,499,502,506,520
498,496,508,502,518
504,505,512,505,516
511,499,514,503,512
509,500,518,506,512
511,501,523,507,515
522,505,523,510,513
521,505,525,514,516
524,508,523,517,513
528,510,520,517,514
529,515,522,525,511
531,516,519,525,507
530,518,516,526,506
523,512,508,521,513
515,511,508,519,514
504,504,501,511,521
499,503,500,508,523
496,500,505,508,520
495,498,506,504,522
497,498,515,504,515
501,500,519,505,512
505,500,520,504,510
507,500,518,507,512
521,507,522,512,510
519,504,525,515,512
519,506,520,515,515
523,512,521,522,510
529,515,521,525,512
529,515,517,525,511
523,516,514,524,517
520,512,508,518,516
516,512,508,518,515
502,503,500,508,521
491,499,501,504,521
489,493,505,503,520
489,496,509,501,515
491,497,511,502,514
497,500,516,506,512
501,502,518,506,519
526,504,520,509,509
530,506,523,512,507
525,507,523,518,514
527,509,523,524,511
533,513,521,523,507
532,516,520,525,511
527,513,521,526,512
529,516,514,524,512
522,510,506,518,519
512,508,505,515,521
505,505,506,509,524
502,502,505,506,521
498,500,507,503,518
493,498,511,507,515
494,499,510,504,513
499,500,512,505,509
503,499,518,506,513
505,502,520,511,513
509,504,521,511,514
533,509,523,521,510
545,511,522,521,509
538,514,522,523,507
534,517,520,526,510
530,519,517,528,511
520,515,510,525,517
514,513,509,519,517
502,505,501,510,525
495,505,502,508,521
489,504,505,506,520
490,499,508,505,518
491,500,512,505,518
500,499,516,504,507
515,500,518,506,509
512,500,519,511,514
519,505,523,512,514
525,506,523,516,514
522,504,520,517,512
528,511,520,522,509
530,515,521,526,508
529,514,515,526,509
532,516,515,530,510
517,510,507,520,518
506,510,506,517,517
492,502,500,511,525
486,500,503,505,523
488,502,504,503,526
512,496,512,503,512
516,501,516,506,509
518,501,519,512,505
517,501,518,508,508
517,500,519,507,509
515,504,522,516,512
518,506,522,515,517
531,509,520,517,512
533,515,522,523,514
532,519,522,525,512
529,518,518,527,519
523,516,513,526,517
514,514,505,520,516
508,508,503,517,512
502,507,501,512,521
497,499,503,505,518
500,499,507,506,519
507,499,509,502,510
508,500,514,505,518
508,506,519,507,513
503,498,518,506,517
509,502,522,515,519
515,506,522,512,518
523,509,523,517,505
520,509,518,517,509
522,513,518,526,509
528,516,519,527,500
533,517,515,529,494
524,514,509,524,509
518,514,506,521,506
511,504,499,516,516
488,499,499,507,524
485,499,504,505,520
483,500,508,505,515
492,498,511,504,511
487,499,515,504,513
494,500,519,508,513
513,502,520,508,515
531,505,524,513,508
526,505,523,515,511
522,508,522,521,513
528,511,522,523,510
538,519,525,526,510
537,515,518,525,510
534,518,515,528,510
526,513,510,521,516
519,517,508,520,514
509,503,500,512,521
505,501,502,507,521
494,502,505,504,518
495,499,509,504,517
500,501,515,505,516
501,501,518,506,511
509,502,521,508,513
520,501,520,508,513
525,504,523,512,512
526,506,526,516,509
525,509,521,517,513
531,512,521,522,514
534,517,517,528,509
531,519,518,529,511
524,516,514,526,512
512,512,507,520,517
505,511,504,517,519
492,504,501,511,521
493,502,504,506,519
494,497,507,505,517
494,498,512,508,516
501,500,514,510,514
503,503,518,506,512
525,500,518,506,512
525,505,521,510,511
525,507,522,514,515
525,510,524,519,511
522,512,522,522,510
528,514,521,525,510
531,515,519,526,510
529,516,515,530,511
521,515,511,525,516
520,513,509,519,517
518,506,502,512,521
503,502,501,508,522
499,502,506,506,521
494,499,508,502,519
495,501,512,506,519
497,499,516,505,511
499,500,521,509,512
514,501,519,509,514
516,504,523,511,513
520,506,526,515,513
533,509,521,518,514
528,514,522,523,511
530,517,521,525,508
528,517,517,526,510
530,518,515,527,513
520,517,508,522,517
517,515,510,520,516
504,506,501,511,523
499,504,502,506,522
501,500,505,503,521
499,499,508,504,514
502,499,511,504,514
504,501,517,507,510
509,501,521,507,509
508,500,518,506,514
514,502,524,511,511
516,505,525,515,511
520,509,518,515,512
525,514,522,522,510
528,516,519,526,513
528,516,516,527,510
521,515,512,523,513
523,511,505,517,514
514,510,504,515,514
504,503,499,505,521
497,500,501,504,520
497,495,509,504,519
502,500,513,503,517
502,500,515,504,516
504,502,517,509,512
505,501,519,507,514
508,502,525,511,516
514,506,523,514,513
520,513,523,518,511
519,511,520,520,512
526,514,520,522,513
526,520,518,526,515
524,519,515,527,512
517,515,509,521,514
507,509,509,516,518
496,503,498,511,528
493,500,498,503,518
507,501,505,508,516
500,500,507,504,513
512,501,512,505,508
510,504,516,505,504
512,503,523,507,510
509,497,522,507,513
509,502,521,509,511
514,504,523,518,510
522,508,521,519,506
528,513,522,523,499
527,518,520,525,498
525,517,517,527,510
527,518,515,522,510
529,514,507,518,524
519,513,506,522,518
502,506,499,511,520
496,500,498,504,520
497,501,506,504,523
499,499,509,500,518
499,499,512,503,516
502,503,516,507,513
502,505,520,509,507
502,498,521,509,510
508,500,526,510,516
525,509,523,513,520
529,510,520,517,514
529,514,520,522,513
531,517,518,528,512
527,519,513,525,511
522,520,511,526,508
513,512,505,522,511
511,510,505,521,516
499,503,500,507,517
507,503,503,506,509
496,500,505,504,509
498,500,511,509,504
507,499,515,506,504
516,506,522,509,505
514,499,519,505,510
510,502,519,508,510
513,500,521,512,512
524,508,522,518,510
523,512,520,518,509
531,516,523,526,511
533,516,519,535,516
526,515,511,529,512
526,516,509,518,512
535,514,506,521,516
515,507,502,513,523
501,501,503,507,523
500,499,504,503,519
495,498,505,504,518
497,502,512,505,503
498,499,516,506,507
502,501,520,508,510
506,500,519,506,513
518,502,521,514,512
521,504,520,513,513
523,511,521,518,506
528,515,521,523,508
530,517,521,526,510
540,517,520,525,511
535,517,513,525,512
526,511,506,521,516
517,511,506,520,521
505,503,505,510,519
497,501,500,505,520
496,497,505,503,518
493,501,511,505,516
495,499,514,505,514
500,501,521,505,508
513,500,520,504,510
516,502,522,507,512
522,503,523,512,509
527,505,522,515,511
528,509,521,519,511
529,513,521,523,510
531,517,516,526,510
528,517,516,527,512
526,517,512,524,511
519,512,506,520,519
513,509,505,516,517
507,504,501,510,521
497,501,502,505,523
496,499,507,509,520
499,499,512,503,514
503,497,514,504,513
508,503,520,507,513
507,503,519,506,512
510,503,522,510,512
518,504,523,516,509
521,508,521,516,508
523,511,521,520,510
528,514,522,526,511
526,517,519,526,510
522,516,514,527,513
516,514,511,522,513
509,510,506,519,518
503,505,500,513,524
495,503,499,506,522
494,500,504,504,517
504,500,508,503,516
499,500,507,503,515
505,503,519,507,511
510,501,520,507,510
508,503,519,507,512
514,503,522,510,512
512,505,522,512,515
522,513,525,517,516
533,513,525,526,514
532,516,521,524,515
532,515,516,526,518
527,517,513,527,518
520,517,509,524,513
515,510,511,521,509
500,503,501,513,517
496,501,501,509,516
492,497,504,506,509
493,498,510,504,508
494,497,512,501,512
503,500,517,506,510
509,499,520,508,510
504,500,515,504,512
513,504,522,511,514
529,508,522,515,508
527,510,520,517,509
530,514,521,523,512
529,516,520,526,509
526,519,516,526,511
531,518,514,526,518
519,514,509,521,524
513,513,505,518,526
495,504,501,507,528
495,500,502,502,529
495,499,507,506,527
491,499,511,505,521
507,498,513,500,511
508,501,518,505,507
512,500,519,505,512
514,501,520,507,513
514,507,522,513,509
516,504,524,516,494
531,510,520,521,502
542,514,521,526,503
541,517,519,528,500
534,516,514,526,506
526,514,509,522,509
514,508,504,518,515
499,505,501,512,519
497,501,499,507,516
497,501,505,510,516
492,498,510,504,512
488,499,511,502,511
499,498,515,505,517
523,502,520,507,506
530,503,523,512,505
525,506,525,513,506
525,507,525,515,512
526,506,527,520,511
529,511,524,522,508
532,517,521,526,507
532,519,518,528,510
528,516,513,526,510
521,513,507,523,519
520,513,507,521,518
502,504,499,510,522
495,499,501,506,520
491,498,503,504,518
490,499,509,503,516
492,500,517,505,514
499,501,518,505,510
507,501,519,510,508
514,499,519,507,512
515,509,524,514,511
526,507,523,516,513
532,509,521,519,511
536,513,520,522,516
537,516,519,523,511
533,518,517,526,513
531,516,511,520,515
519,514,507,518,519
514,510,505,516,520
504,505,500,513,522
499,503,502,504,516
496,499,506,501,516
496,500,509,502,515
494,499,514,502,517
506,502,520,507,511
514,502,519,501,510
509,502,520,509,513
511,507,523,512,511
520,510,524,517,509
522,511,521,519,510
526,517,521,523,510
527,517,518,525,510
525,518,513,524,510
521,515,509,521,513
513,511,505,517,514
504,505,500,513,520
494,501,500,506,523
497,500,504,504,522
500,498,510,502,517
507,497,516,501,513
506,501,518,505,513
511,501,519,506,508
509,500,519,506,516
515,502,515,508,512
518,505,520,516,511
523,509,522,516,510
529,513,522,522,508
529,515,520,524,512
529,518,519,523,511
529,517,514,524,516
522,515,509,524,518
516,513,506,518,521
506,503,499,508,523
500,499,497,504,524
498,503,506,505,519
495,498,510,505,514
487,497,512,498,514
487,498,518,505,511
486,501,521,507,513
487,498,518,508,518
488,506,523,512,518
502,507,523,515,520
523,509,521,518,517
548,515,522,526,500
563,521,522,529,501
553,520,517,530,510
543,516,510,521,512
526,515,507,516,526
522,513,507,519,522
510,504,504,508,529
502,502,502,505,523
500,496,506,505,514
501,505,511,503,516
501,499,519,503,518
507,506,521,507,515
513,500,525,508,519
515,501,516,508,520
518,507,523,513,513
527,508,523,517,505
524,510,521,522,495
531,516,521,530,498
532,517,518,526,503
530,518,516,528,505
522,520,511,526,511
516,511,507,519,515
507,505,500,512,518
497,503,501,508,521
500,500,503,502,517
504,498,508,505,515
503,500,513,504,512
500,500,515,504,511
507,503,523,508,510
507,501,522,507,508
509,502,522,511,510
513,507,519,514,512
521,509,522,518,510
523,512,524,524,509
527,517,522,525,509
529,516,517,529,514
526,516,514,526,513
522,513,507,518,517
516,510,505,517,523
502,504,500,509,527
500,501,501,505,522
498,500,504,507,514
498,500,512,506,517
499,501,513,499,512
502,499,517,506,509
512,501,522,509,510
506,499,518,509,513
507,503,521,511,514
513,507,522,516,514
519,510,521,516,509
523,513,521,523,506
521,516,519,526,505
531,519,516,527,506
534,517,512,525,508
532,512,506,520,510
523,511,505,518,515
510,502,500,508,520
502,502,503,506,521
505,501,509,504,515
504,497,510,504,513
503,501,516,506,510
510,501,518,506,506
510,498,519,507,511
509,500,520,509,513
510,503,521,513,509
526,508,522,517,509
524,512,520,525,511
527,515,521,525,510
533,519,519,527,511
526,517,515,526,510
521,513,513,522,515
522,511,505,521,515
510,504,500,508,521
503,503,502,508,521
498,503,506,505,520
493,499,502,503,518
494,499,512,502,512
497,499,516,506,512
505,501,515,508,510
506,498,518,506,516
504,502,520,509,520
518,506,523,515,513
519,508,523,518,510
524,513,523,523,510
537,515,520,525,508
530,517,513,526,511
536,517,517,526,512
524,514,509,526,517
518,511,507,521,519
502,504,504,513,523
496,503,502,508,522
500,500,504,504,518
498,499,508,504,514
500,500,514,505,515
505,502,518,505,509
512,502,520,512,510
518,501,518,507,511
525,504,522,511,509
522,506,520,514,512
523,509,520,517,513
526,514,522,524,515
523,517,519,526,515
528,518,516,522,519
527,519,513,527,512
527,511,507,520,514
523,511,505,517,518
507,505,502,508,522
497,501,501,505,521
496,501,505,503,520
498,500,510,504,517
499,498,513,504,513
507,502,520,507,511
517,503,521,511,511
521,501,519,507,512
520,502,522,512,510
524,506,521,515,512
529,509,520,518,513
530,518,522,526,511
535,516,519,526,509
531,518,516,527,513
526,514,510,523,515
517,510,506,519,519
509,506,503,514,524
501,502,500,508,529
499,496,503,503,519
499,496,510,501,512
499,501,513,504,516
502,499,516,504,511
507,501,518,512,511
508,502,519,506,514
514,502,521,512,517
516,509,522,512,516
522,512,523,518,520
529,513,523,524,513
530,513,521,526,508
528,515,517,526,510
527,518,516,530,517
517,513,508,521,520
512,511,510,519,519
503,504,502,510,518
496,500,503,505,520
495,499,504,504,517
497,501,510,504,516
503,501,515,503,512
506,502,516,504,501
508,506,522,509,501
509,500,520,507,505
514,502,523,514,507
519,507,523,514,509
523,511,524,518,510
526,513,522,523,507
531,520,520,526,506
530,519,520,527,511
526,515,511,524,510
518,512,509,519,516
512,510,505,517,515
504,506,501,510,521
498,501,501,504,518
497,498,505,503,516
503,500,512,503,517
502,499,516,508,514
503,501,518,507,511
506,502,521,509,513
507,501,520,512,514
514,503,520,512,512
518,505,521,512,507
519,506,519,518,509
528,509,521,523,509
531,516,518,526,510
526,519,514,525,514
522,514,511,529,512
518,512,507,522,520
510,506,502,516,524
500,502,501,506,524
501,500,503,505,517
498,499,507,503,517
503,501,512,505,515
507,498,515,507,506
507,500,523,509,507
507,503,519,508,515
509,502,523,511,516
509,508,522,512,516
514,504,525,517,515
521,513,525,521,513
520,515,520,524,514
528,518,517,531,514
540,519,514,526,504
537,518,511,524,512
523,507,504,519,517
509,506,501,512,522
503,501,501,510,520
497,499,504,503,517
498,500,509,503,511
499,500,517,504,514
503,496,520,506,509
504,504,520,502,509
516,501,519,507,512
522,505,524,512,511
525,507,524,514,511
523,510,522,519,512
526,514,522,523,508
531,520,521,527,508
530,517,516,526,510
526,517,512,526,510
518,511,506,520,513
512,510,507,522,516
501,508,501,509,522
493,497,506,503,521
494,502,504,502,518
494,499,510,505,518
493,497,520,503,520
501,502,520,505,518
510,501,520,506,514
503,500,518,508,512
513,506,523,513,508
521,508,521,519,510
520,510,521,518,520
533,514,521,524,511
529,518,521,526,517
530,518,516,526,513
527,517,512,524,516
529,513,509,519,517
513,510,501,512,520
504,503,501,507,524
506,503,503,505,522
502,498,506,503,518
504,500,512,503,512
500,498,512,500,508
505,502,518,509,508
505,500,517,507,503
508,504,522,512,507
516,506,520,517,507
521,508,520,517,503
522,512,521,525,509
532,516,520,524,509
540,518,516,530,509
532,517,514,527,510
530,513,510,524,513
522,508,506,519,515
506,503,500,511,522
501,500,502,505,519
499,498,502,504,513
498,501,510,505,512
499,497,512,499,510
502,499,517,507,505
504,501,520,507,507
506,501,519,507,512
510,504,523,512,510
519,507,523,516,511
525,507,521,518,514
524,513,523,520,510
530,517,520,526,508
536,518,517,525,508
526,517,508,523,506
515,511,508,519,513
508,508,502,516,520
496,501,499,506,525
490,500,503,503,533
485,500,505,503,526
494,501,510,508,522
492,498,510,503,521
499,500,518,506,514
510,506,523,511,510
511,503,521,510,513
511,504,525,512,511
518,508,523,521,505
519,506,523,519,507
536,514,521,525,509
540,516,524,528,507
534,517,515,526,509
526,513,509,521,515
536,516,507,520,516
524,508,502,514,520
513,505,503,509,524
514,502,504,507,518
507,505,508,503,521
504,500,511,505,514
509,502,516,510,511
511,502,519,506,514
510,499,523,506,513
512,502,521,509,510
518,503,526,513,504
518,507,520,515,511
525,511,520,524,510
530,514,521,525,510
533,518,519,527,515
530,519,512,528,510
527,514,511,522,514
519,511,508,518,513
506,503,500,513,515
498,500,501,506,516
502,500,508,504,515
502,498,504,502,514
501,500,513,504,513
503,502,516,506,510
507,502,522,507,509
506,500,519,506,512
511,504,522,510,509
517,505,521,514,509
522,513,522,519,512
527,513,521,522,507
528,515,519,522,509
527,516,515,525,510
524,516,513,527,513
519,512,509,523,517
513,508,505,516,519
503,503,504,509,521
497,501,501,504,518
502,500,506,504,520
499,499,511,502,513
499,498,515,506,514
504,500,520,507,510
508,500,522,507,510
508,501,520,510,514
515,505,522,512,512
523,508,523,517,511
522,513,525,520,511
527,514,521,524,508
530,516,520,527,510
522,517,516,527,513
518,513,510,520,518
513,511,507,518,515
506,506,503,513,522
497,503,500,507,522
492,499,504,506,518
485,497,506,503,517
496,502,511,504,517
507,500,517,504,517
506,501,519,506,510
507,497,520,507,512
520,502,521,509,512
520,504,523,514,511
523,506,521,515,511
526,515,521,521,510
526,516,521,525,511
527,514,517,526,508
521,517,517,526,511
515,512,508,523,515
505,510,506,517,518
498,505,506,511,524
505,500,501,506,520
506,499,506,506,520
509,500,508,504,514
509,498,518,506,512
508,502,517,508,512
509,501,519,506,516
510,501,522,505,517
510,500,521,510,515
526,507,527,516,514
528,509,520,517,512
530,512,520,523,509
533,520,522,528,510
531,515,519,526,510
528,516,514,530,512
520,512,513,521,515
513,507,505,517,518
504,503,501,509,522
498,500,503,504,518
503,500,507,503,520
499,498,509,502,512
500,501,517,505,514
506,501,518,509,509
510,498,522,509,511
510,503,520,509,514
515,507,522,512,510
519,507,522,516,510
523,510,522,520,510
530,515,522,523,512
529,516,519,527,508
529,518,515,529,509
523,515,512,524,512
516,512,507,520,518
506,506,502,513,522
502,503,501,508,521
498,499,503,504,518
495,499,507,503,517
498,498,508,505,512
499,499,515,505,512
504,501,519,507,510
509,500,520,508,512
507,502,521,510,516
519,506,522,514,514
523,509,523,517,514
524,512,522,521,510
528,515,521,525,508
528,517,519,526,515
524,517,517,528,513
515,514,510,524,519
506,510,505,519,524
494,504,502,509,524
491,501,502,507,523
493,502,505,501,519
501,505,508,504,515
507,501,508,504,518
510,505,519,507,520
517,502,521,512,523
509,500,519,508,526
506,503,522,510,528
506,505,521,514,534
515,508,522,519,521
525,515,524,525,513
538,517,519,526,502
540,519,517,529,496
534,518,513,528,493
530,512,510,523,498
518,508,504,517,502
509,505,501,512,508
505,500,501,507,510
500,499,505,504,515
504,499,510,502,508
508,502,514,506,512
509,501,517,508,508
520,503,520,508,505
513,503,518,508,506
516,501,524,512,508
519,506,520,515,510
524,510,519,519,512
535,515,521,525,511
535,518,519,529,507
530,517,516,528,508
526,515,511,524,516
520,513,507,519,517
509,505,501,511,521
503,503,502,509,522
497,499,502,505,519
493,498,507,508,518
496,498,513,503,515
497,499,514,500,511
501,503,520,508,512
500,499,523,507,514
516,501,518,505,513
524,505,522,513,512
525,508,522,517,516
527,512,521,520,513
528,516,521,525,511
527,516,517,526,511
524,517,518,526,512
516,514,510,522,513
510,509,506,518,517
496,506,502,512,524
500,501,501,510,521
498,499,502,503,520
492,499,507,502,520
501,499,511,502,514
516,500,515,505,508
518,504,522,509,509
511,501,519,506,513
509,503,521,513,511
515,506,522,515,510
520,509,519,517,510
522,515,526,522,508
526,517,521,528,509
524,517,517,526,505
526,517,514,526,507
529,515,512,523,520
520,510,506,517,524
508,503,499,514,522
499,502,501,504,522
497,499,506,503,521
500,500,512,504,516
501,500,517,504,514
504,503,518,505,510
504,502,522,510,512
508,504,519,507,513
513,503,522,512,511
519,503,523,518,508
525,509,520,521,509
529,511,525,521,509
531,518,516,528,509
528,517,519,526,508
529,516,513,528,511
516,513,508,519,516
510,505,501,512,523
503,503,502,508,521
494,501,503,501,516
497,500,507,503,515
499,501,512,504,515
499,499,517,507,513
502,500,520,507,510
507,501,525,507,512
505,502,522,506,512
508,504,522,513,513
515,508,523,518,514
516,515,523,522,515
516,511,520,524,516
523,517,521,525,517
525,518,516,530,522
516,513,509,521,529
506,508,505,516,531
502,506,500,509,531
506,503,502,509,529
506,502,507,512,518
504,500,508,505,513
514,500,514,504,505
512,501,517,506,502
512,501,520,510,507
512,500,518,510,505
518,506,524,509,503
528,507,521,516,502
526,509,522,521,507
529,515,522,524,509
533,517,516,526,502
530,517,516,525,504
527,519,513,525,507
526,514,506,525,512
514,509,502,516,515
503,503,502,511,521
499,500,502,509,519
500,501,503,503,516
505,500,511,506,513
501,498,512,505,516
505,501,517,508,515
508,504,519,507,512
507,499,520,506,512
512,503,521,514,511
519,508,522,518,511
521,510,521,524,513
526,513,518,526,508
534,518,520,527,511
527,517,515,527,510
522,511,512,524,511
514,512,506,520,514
509,507,502,514,520
501,506,500,509,524
496,501,503,505,517
495,499,505,502,519
493,500,514,502,515
493,495,513,504,513
497,503,520,508,514
499,502,519,506,513
505,502,520,508,509
509,503,521,513,513
522,508,524,518,511
526,512,524,522,513
530,515,521,521,514
529,515,519,525,512
526,519,515,526,513
522,514,509,522,517
524,510,500,519,517
524,505,501,513,522
510,501,500,505,523
504,501,504,503,519
499,500,508,503,515
500,503,511,503,512
502,500,520,505,509
503,501,518,508,509
500,502,519,508,512
504,503,520,512,516
511,505,521,514,514
523,508,520,517,512
535,514,522,524,503
536,517,521,529,502
535,516,516,527,507
537,516,512,524,516
530,514,510,524,516
518,514,506,519,519
509,507,501,504,520
501,501,502,505,518
496,498,506,505,515
501,498,510,505,513
506,499,512,503,510
511,502,519,507,512
510,501,520,508,510
509,499,518,507,512
515,503,523,514,512
519,506,522,518,515
522,509,520,520,513
527,512,521,522,513
527,516,520,527,513
528,517,516,529,517
520,514,511,524,514
517,508,510,519,511
508,504,504,512,516
499,500,499,508,520
498,500,503,504,519
491,498,506,503,515
493,498,511,504,511
494,498,515,505,510
500,500,520,509,510
514,502,520,509,507
510,496,520,508,511
514,503,520,512,510
528,509,522,518,510
527,511,520,523,509
527,517,521,526,510
521,518,517,526,511
529,520,517,530,516
518,515,512,522,514
511,513,509,522,517
498,505,500,509,522
496,500,500,508,521
510,501,507,510,519
519,500,509,504,515
512,502,512,502,513
510,501,517,507,511
516,501,522,508,507
512,504,519,507,511
515,502,521,512,512
520,510,522,516,511
523,508,521,518,509
528,512,521,521,513
531,517,520,529,512
526,516,517,525,508
528,517,514,528,506
521,513,511,522,512
512,508,503,515,515
498,503,500,506,519
502,501,503,507,519
494,504,505,504,510
496,498,510,504,507
499,500,513,505,507
500,501,518,507,510
504,501,520,509,513
506,501,519,507,514
517,505,526,512,515
525,509,525,516,517
523,511,520,524,515
525,514,522,523,512
529,516,522,527,509
527,514,520,526,513
526,515,509,522,512
513,511,508,518,516
513,506,501,512,520
505,504,505,508,519
500,501,503,504,522
497,500,506,503,520
502,499,510,501,518
509,500,516,505,511
508,501,519,506,508
506,500,521,508,513
506,501,519,508,520
519,507,522,514,518
522,512,523,518,517
522,511,520,521,510
529,516,521,525,508
529,516,517,527,506
531,517,515,530,505
526,515,510,523,511
515,510,510,519,514
507,503,497,510,518
499,503,501,506,520
497,501,508,503,516
493,497,507,498,517
494,498,512,507,520
511,500,517,502,510
512,499,520,507,505
513,502,520,510,508
513,504,519,514,506
518,503,525,516,508
520,507,519,516,510
524,510,524,522,508
526,516,520,526,507
526,516,515,525,509
523,516,513,525,511
519,513,511,521,516
513,510,504,517,519
500,507,501,510,522
499,499,501,505,522
493,498,506,504,520
491,498,511,503,515
485,498,513,506,518
479,498,519,507,512
487,498,519,510,511
501,498,518,506,511
507,503,522,510,518
510,505,521,517,523
533,509,520,517,515
561,519,523,527,506
555,520,521,527,493
540,519,516,527,503
533,516,512,524,509
524,512,508,520,514
515,506,501,513,519
507,499,504,506,520
498,503,502,506,519
497,501,510,505,513
496,498,510,505,512
497,502,513,503,506
499,503,517,506,501
501,500,519,507,502
507,499,518,507,512
513,504,522,511,512
515,509,524,518,508
527,510,520,522,505
541,516,521,527,503
538,515,518,528,502
531,513,512,530,506
532,515,511,521,526
521,511,507,516,526
514,505,501,509,528
504,503,501,505,526
500,500,503,504,524
497,499,508,503,517
497,498,512,504,515
500,498,516,505,511
504,501,520,508,509
506,502,519,507,511
504,505,521,509,509
526,508,522,514,509
528,509,520,517,510
530,514,522,524,510
528,515,519,526,507
529,511,516,525,508
534,517,513,526,511
523,513,509,521,515
515,509,503,515,524
502,502,499,506,522
499,500,501,506,519
500,499,504,503,516
502,500,509,500,514
503,499,514,508,512
506,501,521,512,508
509,502,522,508,514
511,502,520,507,517
512,504,522,510,518
519,507,526,515,518
521,508,521,518,520
522,515,521,522,517
529,516,519,526,517
527,517,516,530,514
522,515,510,527,517
514,512,508,520,519
504,507,500,510,523
497,501,499,505,519
494,503,502,503,511
503,501,507,505,505
504,500,511,503,508
507,499,510,504,508
506,501,518,506,509
509,501,521,512,504
509,500,520,508,505
517,505,524,511,504
522,512,522,518,503
522,512,521,521,507
528,515,520,528,506
529,513,518,524,506
529,519,516,527,509
520,513,509,517,511
514,510,506,518,515
503,504,500,510,524
496,503,501,508,521
494,504,506,506,518
499,500,509,502,515
496,499,513,501,512
500,500,516,504,509
499,501,520,506,511
512,502,520,506,512
518,503,525,510,513
520,507,523,515,516
522,511,519,515,517
530,514,522,524,512
530,517,525,526,508
526,517,515,526,512
522,518,514,524,512
514,513,508,516,513
506,507,505,516,517
497,499,504,509,519
495,499,500,508,517
491,498,504,503,514
488,498,509,502,512
508,499,512,503,507
516,501,518,506,506
510,503,522,510,509
519,502,520,504,519
519,504,522,512,512
522,507,522,514,508
526,511,520,520,506
528,512,519,523,507
532,521,520,527,509
525,516,515,523,511
521,517,514,523,515
521,513,509,519,512
507,506,502,512,520
493,501,501,506,526
491,499,502,503,521
490,497,505,502,522
499,501,512,503,516
501,500,515,503,511
497,499,520,510,511
504,501,519,505,514
516,501,518,506,517
518,507,525,512,512
507,507,524,518,515
502,511,523,524,518
533,517,521,526,508
540,518,519,526,513
526,516,514,527,507
520,513,508,522,509
535,516,507,521,514
535,506,501,511,520
518,504,503,506,523
510,501,504,503,514
504,499,511,502,507
503,498,512,503,510
514,501,517,506,508
515,502,521,508,508
515,502,520,509,506
515,503,521,511,510
519,507,523,513,517
526,510,521,519,520
525,514,522,523,514
530,516,520,526,515
529,517,515,525,514
529,518,514,525,510
525,514,508,520,511
515,511,505,516,520
506,503,501,512,525
497,500,501,509,524
497,499,503,505,519
495,498,509,505,507
497,498,513,504,506
505,501,518,507,506
506,502,521,508,506
509,498,523,507,507
513,505,521,512,507
521,508,524,513,512
526,509,522,520,508
532,515,522,525,510
531,517,519,525,508
526,518,516,527,512
522,516,511,528,516
519,515,509,524,518
506,511,503,515,525
499,504,502,508,518
498,500,503,505,513
497,497,505,504,510
498,499,510,506,517
501,499,515,509,514
504,503,520,508,512
507,502,519,509,512
507,502,519,509,516
516,508,520,512,511
521,508,522,519,512
524,511,521,522,509
527,516,520,526,509
531,517,516,531,509
528,516,513,526,510
521,515,513,523,515
511,513,508,519,521
500,508,499,510,523
499,500,499,505,522
494,500,505,505,520
494,498,512,503,518
502,498,513,504,513
510,505,519,508,507
515,502,521,509,508
506,503,521,510,513
510,502,521,510,513
517,505,517,516,508
520,508,524,518,511
522,511,521,523,507
529,516,517,528,506
529,517,517,529,505
522,515,511,529,506
522,515,510,527,511
520,510,504,516,516
501,503,499,507,523
499,501,501,504,521
498,503,505,502,519
498,500,508,501,516
497,498,511,502,514
501,503,518,506,511
502,501,522,508,510
504,501,519,507,508
521,504,521,511,508
519,506,521,512,511
520,512,520,520,515
530,513,521,524,515
535,518,520,528,514
531,517,516,528,511
525,515,511,520,513
527,514,509,522,511
515,508,502,517,521
506,503,503,507,523
502,501,504,509,521
499,502,507,505,520
499,498,510,504,516
501,498,513,504,513
505,501,518,507,508
508,500,520,508,511
510,501,518,508,510
516,504,520,512,512
523,510,526,518,509
523,510,520,522,508
528,515,520,525,511
524,515,516,527,508
522,516,514,526,509
514,517,509,522,513
507,511,507,519,519
501,504,500,511,521
494,500,498,506,522
497,498,502,505,520
496,497,507,503,520
497,501,512,502,518
504,501,517,507,512
503,503,522,510,509
514,502,519,514,507
516,504,518,513,503
517,505,521,514,508
527,507,519,516,508
528,512,521,522,507
527,516,520,528,518
532,518,517,527,512
534,518,514,527,512
518,512,508,516,517
519,510,506,516,523
520,505,500,510,523
514,501,501,506,521
508,500,505,504,521
501,502,511,502,520
502,499,512,500,514
505,499,521,506,507
509,502,521,509,509
516,503,516,508,508
519,504,521,510,512
522,508,523,521,514
530,510,521,520,511
534,514,521,525,507
540,518,519,528,505
537,519,515,527,509
524,515,509,525,511
522,515,510,520,518
507,506,502,514,520
501,503,499,508,519
502,502,502,504,522
499,504,506,504,517
499,500,510,504,517
502,502,518,505,519
508,505,518,506,522
508,503,520,508,516
510,501,522,509,512
516,505,523,514,514
520,508,521,518,514
526,511,520,522,509
530,518,518,524,507
535,515,517,526,511
529,517,515,525,510
522,513,509,517,514
517,512,508,520,516
506,506,499,511,514
497,501,500,505,517
496,499,503,505,514
496,501,506,503,512
496,497,513,504,510
498,498,515,506,509
498,497,523,509,510
508,503,522,508,511
513,503,522,513,511
509,505,521,513,515
509,508,521,518,518
529,518,521,523,511
533,517,520,522,509
529,519,518,527,512
522,517,514,525,512
530,515,510,519,518
520,510,506,519,518
507,504,501,510,522
507,501,503,510,523
502,500,510,503,518
504,498,513,503,512
505,499,513,502,511
508,501,518,506,510
512,502,521,507,507
512,501,520,508,512
516,505,522,512,512
518,506,522,515,512
521,506,524,517,511
528,516,523,525,508
528,512,523,527,508
523,518,515,526,511
519,517,515,523,513
515,512,509,521,515
504,510,502,514,516
495,503,503,513,522
501,503,504,505,520
500,501,508,503,522
499,500,512,504,515
505,498,515,503,511
512,501,519,503,508
516,502,520,506,506
515,500,520,507,509
518,503,520,512,519
526,508,521,521,517
526,511,521,519,508
530,515,522,525,516
530,517,519,526,514
528,521,515,526,508
524,518,510,523,515
521,513,508,520,513
509,504,501,511,524
505,502,501,507,521
499,501,506,504,517
498,500,509,504,517
498,502,514,504,513
506,501,519,505,509
505,501,523,507,507
509,502,521,508,511
512,502,521,510,509
515,508,521,514,513
522,507,520,517,513
524,514,523,523,512
523,515,520,524,507
521,515,516,526,509
519,516,513,526,505
523,514,510,523,510
528,508,505,518,513
511,501,499,510,520
501,497,501,505,521
505,502,507,506,518
504,504,511,504,515
502,504,514,503,513
506,502,522,506,508
502,502,524,507,508
505,501,519,503,513
516,504,520,510,511
514,507,522,515,505
518,508,522,518,515
525,513,520,522,513
532,516,520,527,511
539,518,515,530,511
534,518,512,525,509
523,514,509,524,513
508,505,501,511,518
500,502,500,507,516
497,501,502,509,518
498,500,507,506,516
499,500,511,505,515
502,500,516,510,508
503,503,519,508,504
503,498,522,507,507
516,500,515,507,512
521,506,522,513,512
524,508,526,519,514
529,511,524,520,517
531,514,520,524,517
531,516,521,525,514
525,516,514,525,507
528,514,510,521,506
526,513,508,520,513
512,504,501,510,522
502,500,504,506,519
497,501,504,504,517
495,498,506,501,514
497,498,511,502,514
500,500,518,507,510
504,502,523,513,509
509,504,523,510,511
510,504,525,510,512
519,507,524,517,512
514,508,521,512,515
518,512,519,525,510
529,518,522,527,509
526,517,516,525,507
527,518,514,527,509
516,513,509,518,517
523,511,506,516,516
504,503,500,508,521
493,500,500,503,521
493,499,506,504,520
492,498,509,504,521
491,500,512,502,511
490,500,517,504,507
505,504,522,508,510
517,504,523,510,510
520,504,523,513,509
522,509,526,515,510
532,511,522,520,514
533,517,521,524,509
533,517,520,527,509
530,517,515,530,510
527,517,514,526,513
518,513,509,522,513
509,506,502,514,517
501,502,501,505,520
495,499,502,503,522
496,498,506,502,518
497,499,510,503,515
502,499,516,507,514
506,501,518,507,510
506,503,520,508,509
508,502,519,508,512
512,507,521,513,514
520,509,523,519,514
532,511,520,518,511
533,516,521,525,510
533,516,519,528,509
530,518,515,529,511
522,514,510,524,514
518,512,507,520,513
507,503,500,511,525
499,501,501,507,525
495,500,505,505,522
492,498,509,504,520
494,499,512,505,518
504,500,517,508,513
501,503,519,507,513
503,501,520,506,514
508,501,519,509,515
510,505,521,512,511
530,510,522,518,512
534,515,524,523,506
536,520,525,528,501
531,517,512,531,505
525,519,515,526,516
514,512,507,519,522
507,508,505,516,514
494,502,499,508,518
499,500,501,504,524
501,501,507,503,523
497,500,511,504,522
507,499,518,504,516
509,502,518,502,517
506,504,520,508,517
506,506,521,508,514
509,506,521,511,518
524,507,523,516,521
531,507,517,514,511
531,513,519,525,520
536,517,521,526,520
537,518,516,527,520
532,517,512,527,514
518,514,509,519,522
500,507,501,513,519
504,504,501,508,515
496,500,504,507,503
499,500,506,504,503
498,499,512,504,510
510,501,516,505,511
522,501,522,507,506
518,499,526,509,504
514,502,519,509,505
523,504,521,513,508
523,508,523,517,507
525,515,527,524,509
528,515,522,525,511
533,517,519,527,500
530,516,516,524,497
522,514,512,523,505
516,513,509,522,516
504,506,502,506,521
500,503,502,505,521
496,501,505,504,539
489,498,507,501,544
494,499,513,504,539
495,500,517,505,522
512,502,521,506,519
516,503,520,511,514
515,502,520,509,497
520,507,520,516,487
528,509,524,518,487
535,513,521,523,489
534,516,521,526,493
531,516,515,525,500
529,517,513,524,509
522,515,511,522,515
517,510,505,518,523
503,506,502,508,525
500,499,499,507,530
498,501,504,503,518
501,503,510,504,514
501,499,507,505,516
503,501,517,505,509
502,497,520,507,515
503,498,520,507,520
507,503,522,511,518
514,506,522,515,514
518,510,522,520,515
518,515,520,521,508
539,518,520,526,501
539,518,511,531,509
528,518,511,524,512
521,516,511,523,516
511,510,504,520,521
503,503,502,509,522
499,501,504,506,519
502,504,507,506,518
507,501,512,505,515
508,501,514,506,515
508,502,520,506,513
508,502,523,508,510
511,503,519,510,510
516,508,522,513,511
520,508,526,518,512
525,512,524,526,511
529,521,528,527,515
525,518,521,528,517
525,518,512,527,519
519,515,509,522,521
518,514,511,520,522
503,504,498,515,529
494,501,495,508,526
497,500,505,505,519
497,502,507,505,515
500,499,508,505,513
504,498,515,506,507
508,501,519,505,507
508,501,520,509,505
512,503,520,511,510
520,505,521,513,509
521,509,522,518,521
523,510,521,522,517
526,514,520,525,522
525,515,515,524,526
528,517,515,527,523
517,513,509,521,521
515,510,506,519,509
507,503,499,509,515
495,498,500,503,520
497,499,503,504,504
503,498,511,506,487
504,501,518,508,497
508,500,518,507,513
507,503,518,506,509
508,501,520,506,502
518,503,520,512,508
518,505,523,518,521
521,510,521,520,521
522,512,520,523,526
524,514,520,528,533
525,517,516,524,531
526,516,513,522,529
523,514,510,521,530
516,504,499,515,532
510,500,499,505,524
504,500,502,505,505
504,497,506,502,504
504,497,510,502,502
506,497,513,502,494
506,503,517,505,507
504,500,518,506,516
508,495,520,507,519
515,503,520,512,522
520,504,525,519,523
525,511,523,521,515
528,514,521,523,511
527,517,519,527,512
524,521,516,526,511
520,516,513,530,518
512,511,507,521,518
501,505,500,510,535
497,503,503,511,536
494,500,505,506,503
502,502,508,504,469
514,498,511,501,467
517,501,515,506,488
509,500,519,507,498
513,502,524,516,483
508,500,522,512,510
511,508,525,522,525
518,509,523,520,509
530,511,515,523,484
536,518,517,523,485
534,514,512,520,487
534,514,510,522,487
527,511,507,517,508
518,505,512,515,515
505,500,507,509,521
499,498,505,502,535
496,498,510,502,541
508,499,506,504,525
513,501,514,503,506
514,505,525,508,508
516,505,531,515,502
516,508,529,517,504
516,506,517,520,507
520,506,514,517,503
520,509,514,523,502
524,511,510,514,517
525,515,515,522,530
528,518,517,531,521
519,517,510,527,510
521,511,503,514,481
517,507,504,506,479
512,503,497,506,497
503,500,499,504,499
510,500,504,506,474
508,500,507,503,489
505,502,518,505,493
512,501,523,505,498
507,499,518,501,512
510,498,518,505,547
511,501,518,503,563
517,505,514,510,560
517,511,519,515,547
521,513,519,529,535
524,517,520,532,530
525,516,516,527,543
522,517,522,525,530
522,516,522,522,514
506,508,513,513,516
504,507,508,509,505
504,502,479,507,487
492,497,489,498,545
493,499,502,501,564
493,499,521,507,547
507,499,523,510,516
513,505,524,510,511
522,505,523,514,487
530,509,524,519,481
529,510,520,525,471
535,515,522,525,471
540,517,520,526,504
525,513,514,525,549
520,516,517,528,555
520,515,512,523,549
506,505,503,516,570
494,505,500,508,557
506,504,515,508,508
512,499,537,509,449
513,501,544,512,448
505,499,541,513,461
504,497,527,506,463
513,498,484,508,462
518,502,504,512,486
511,503,513,524,506
526,513,521,523,480
526,513,520,521,535
531,515,520,528,535
524,513,513,530,507
525,519,518,534,465
519,516,511,530,481
508,514,499,518,544
499,506,490,501,623
495,506,492,495,612
498,500,491,488,582
495,495,495,483,534
506,496,517,488,513
499,493,532,499,510
517,501,552,536,483
527,503,556,537,479
521,498,543,541,480
526,500,519,534,477
536,499,499,508,435
530,508,503,521,450
548,518,513,537,444
554,521,512,543,454
545,523,514,537,502
516,516,507,512,621
487,516,506,504,620
480,501,495,497,552
484,498,497,499,521
493,502,504,502,473
500,501,502,498,455
491,500,511,494,491
497,503,533,507,495
494,502,532,509,584
502,499,531,513,569
517,502,522,508,524
534,504,504,520,523
532,510,517,523,534
529,521,523,527,541
522,520,522,532,544
504,514,516,522,539
526,514,513,524,493
525,515,508,522,484
520,511,502,516,500
512,505,489,503,525
515,499,486,498,506
518,498,498,501,502
524,498,503,504,521
508,496,504,505,539
494,501,507,510,531
483,509,530,524,524
481,506,531,515,492
493,497,519,510,476
511,504,522,522,473
517,506,517,513,524
532,512,522,535,545
545,519,525,551,504
552,521,525,527,490
542,520,512,509,523
532,513,503,504,514
523,508,500,511,532
512,504,500,513,481
477,497,500,496,495
469,498,531,496,537
486,502,540,500,491
490,504,540,497,496
497,503,520,497,491
489,501,481,508,557
513,510,539,531,536
529,509,567,532,505
547,509,544,524,475
542,506,527,528,455
549,510,541,528,449
537,510,526,533,504
525,512,496,542,510
531,513,474,520,474
529,513,477,501,503
517,509,495,503,537
504,502,494,510,564
490,499,496,512,550
500,499,504,507,544
483,498,504,508,584
491,502,510,515,536
500,506,520,516,494
512,510,525,522,474
509,505,526,515,475
527,505,518,519,500
522,506,511,509,536
520,514,525,509,553
527,514,513,517,540
530,515,507,526,543
527,522,513,526,520
524,514,515,531,509
528,511,514,520,474
511,502,508,499,504
497,496,497,506,510
491,496,500,510,527
497,498,501,502,536
513,503,516,510,519
510,508,524,510,526
492,504,521,510,540
492,504,522,506,533
511,508,526,524,502
516,504,521,512,462
532,511,515,517,481
536,514,514,523,470
526,512,502,525,513
534,511,517,538,515
532,510,516,513,516
511,510,507,529,529
505,510,504,522,533
499,501,507,513,528
497,502,513,515,501
491,499,509,505,497
489,499,511,491,483
511,502,518,512,492
498,504,522,510,566
499,507,528,518,571
506,507,537,523,532
510,506,525,510,515
522,510,522,508,505
508,504,525,503,516
521,508,532,511,455
545,517,534,524,421
550,525,535,543,484
528,509,471,515,553
521,509,514,536,524
518,507,517,545,516
512,504,481,539,527
500,499,474,505,486
495,497,482,492,492
496,493,504,483,512
498,494,515,498,488
488,501,516,508,544
500,506,519,508,535
503,503,532,511,535
506,504,523,510,522
513,503,516,512,476
523,507,517,524,428
527,513,524,538,473
508,512,522,536,533
512,516,519,529,575
488,513,511,517,595
526,519,505,515,518
537,509,498,526,491
534,504,502,505,501
510,494,504,494,520
488,493,511,497,532
504,497,516,500,533
499,502,516,505,520
500,506,514,505,521
506,501,520,513,514
503,505,522,518,540
529,511,523,522,503
527,514,519,530,462
522,517,518,528,456
515,522,518,531,499
525,520,522,524,549
504,516,513,521,594
522,515,512,526,577
517,509,508,528,510
523,509,500,511,519
525,506,505,499,518
512,499,510,510,479
508,499,511,497,502
513,499,514,496,525
513,504,516,503,546
526,506,517,512,533
527,500,514,527,536
521,499,497,514,502
524,512,530,535,469
520,510,532,520,484
525,516,534,527,485
536,516,527,526,492
534,513,508,519,490
522,512,504,523,519
504,512,515,527,526
505,509,515,512,502
506,504,512,509,496
501,500,498,507,491
493,497,495,501,529
503,502,508,503,538
516,502,517,500,511
515,505,520,506,469
511,502,520,514,476
516,504,508,515,483
520,512,520,509,494
498,504,549,520,561
516,513,549,533,561
529,519,522,528,537
527,517,500,525,507
535,519,491,526,482
517,514,510,531,520
512,514,507,512,525
496,503,498,507,584
497,502,492,520,530
500,499,496,509,526
490,498,516,509,509
499,494,527,516,499
516,500,532,518,475
515,500,532,523,494
510,504,502,527,524
504,507,517,520,536
503,512,515,503,546
509,514,519,512,513
517,510,515,516,525
543,516,519,531,506
527,513,525,540,502
524,511,523,548,492
521,510,521,548,502
513,505,487,500,525
509,499,488,483,493
501,497,495,494,503
502,501,500,501,486
499,503,517,507,516
501,499,517,506,492
506,503,520,508,526
494,501,518,505,582
496,507,520,506,583
502,505,525,508,566
507,513,530,517,564
515,515,533,525,508
534,518,533,535,401
538,521,509,526,414
538,519,510,527,409
511,512,504,521,476
509,510,502,515,555
514,508,496,509,545
514,504,500,501,561
517,503,501,502,528
512,499,504,503,505
506,496,512,508,520
494,497,519,520,517
491,498,521,506,525
490,500,519,506,497
492,504,522,511,475
494,507,526,524,484
488,515,527,532,509
499,514,525,521,530
486,509,517,519,604
491,520,511,514,536
541,521,511,512,506
534,512,507,516,552
532,510,509,519,573
525,501,492,498,556
519,499,495,495,544
525,499,508,503,531
513,500,516,506,507
504,502,513,515,508
515,503,513,515,472
508,495,509,511,476
510,500,522,522,462
523,501,522,524,459
551,507,520,509,466
545,513,521,511,495
530,513,520,519,543
544,521,524,528,535
544,522,519,531,494
536,519,518,530,513
527,516,514,525,527
515,508,505,512,525
501,495,485,498,523
500,498,496,499,523
507,503,508,504,523
503,500,516,504,516
508,500,519,512,511
516,501,523,516,504
517,504,518,505,497
520,508,522,497,502
516,507,526,516,514
522,507,537,521,517
524,512,514,515,520
523,515,492,508,530
524,511,503,492,506
524,517,519,540,479
522,515,501,538,495
522,516,497,521,521
500,506,500,517,566
490,500,518,513,562
493,504,546,512,565
500,508,559,514,543
492,501,552,525,508
489,493,484,512,472
507,496,479,488,469
500,500,503,515,511
504,503,531,528,522
514,506,530,538,494
524,513,533,524,500
529,509,521,517,478
533,514,517,513,502
531,520,517,519,508
523,518,510,532,494
507,514,519,533,554
500,513,515,529,557
519,507,514,527,476
514,499,491,495,504
502,497,500,495,497
505,497,504,495,465
509,496,494,497,499
511,500,509,503,513
513,502,519,508,528
504,501,518,509,551
507,506,520,511,543
518,509,522,517,535
523,510,524,519,507
521,509,522,523,499
523,513,525,531,521
521,513,515,523,521
518,514,501,521,526
511,512,504,520,529
512,507,502,516,524
494,502,500,510,517
482,500,506,512,513
474,498,509,517,533
483,502,519,510,535
489,507,522,518,534
496,502,517,498,533
495,502,519,503,540
503,502,519,505,520
522,504,521,510,493
526,503,514,516,476
531,506,517,528,469
539,512,515,525,469
537,514,516,528,463
547,516,512,527,468
545,516,509,523,497
520,511,506,516,551
493,508,504,509,555
488,500,503,505,570
495,501,510,507,549
488,497,509,510,528
510,501,515,513,512
507,502,503,504,529
504,497,519,519,514
499,496,514,507,503
493,501,518,505,509
491,501,517,509,502
505,507,519,513,482
493,509,521,528,475
478,518,527,538,551
518,527,528,535,565
532,527,515,528,582
512,515,496,517,544
571,513,488,502,454
565,507,490,503,457
537,498,496,500,479
511,497,516,502,496
501,494,518,503,508
491,494,518,502,510
501,501,516,511,503
511,506,531,522,486
512,504,527,522,508
524,501,521,520,530
548,503,523,524,511
546,510,521,525,506
556,526,523,505,509
550,522,522,527,499
542,519,520,529,493
536,517,518,529,492
532,516,523,526,513
514,510,522,519,557
494,503,516,518,542
498,503,504,505,524
494,495,479,496,517
498,497,496,486,521
499,503,513,494,519
507,505,539,500,516
512,505,536,507,515
512,502,537,505,517
517,503,486,504,519
520,512,518,513,516
525,514,521,518,515
526,510,515,508,511
530,516,522,519,510
523,514,508,534,507
523,515,490,541,509
523,517,493,532,507
504,508,480,513,530
490,500,484,508,531
490,499,518,514,515
497,500,528,516,491
510,501,522,518,470
513,500,521,508,488
502,499,528,516,540
510,503,534,519,513
516,504,533,526,510
517,503,506,491,528
511,506,514,507,522
517,514,519,518,510
525,519,522,528,501
525,516,519,530,506
521,519,518,526,510
518,515,512,520,533
510,514,505,516,541
508,504,496,506,530
497,503,499,503,531
493,496,500,504,515
494,498,500,502,531
495,502,504,501,556
504,501,508,512,550
515,501,510,499,520
510,501,513,507,494
515,504,529,506,474
505,505,536,518,484
517,507,529,532,489
529,513,524,516,493
535,519,523,517,483
536,518,520,529,504
530,518,518,523,552
517,512,510,515,551
514,504,503,509,525
497,497,497,507,500
500,502,506,506,498
500,499,508,503,506
494,498,510,501,549
501,502,517,504,546
504,503,521,508,525
498,503,522,511,490
502,506,526,520,463
498,504,524,520,462
495,506,523,520,490
497,505,518,517,497
513,510,517,523,494
536,516,518,528,493
550,516,513,532,499
549,512,508,525,491
556,513,506,514,475
529,506,501,510,512
510,503,504,504,517
501,505,503,505,523
491,499,506,504,522
490,498,509,505,516
496,495,515,513,505
504,500,520,525,507
508,503,525,535,538
524,507,525,507,513
522,501,509,501,506
526,504,519,503,486
517,510,517,509,506
535,517,515,516,502
549,516,515,527,485
534,514,512,525,526
523,514,513,521,551
527,513,514,520,532
513,506,514,513,527
499,501,509,506,526
492,498,514,510,532
501,501,503,498,525
500,502,504,500,530
507,505,518,512,523
512,504,519,508,527
513,502,520,510,507
516,503,521,509,509
521,504,521,519,508
523,505,518,518,506
528,510,518,526,501
525,517,522,529,508
527,517,512,526,515
532,518,514,517,508
525,515,503,518,515
514,509,488,512,524
490,502,505,510,536
485,501,514,508,538
477,497,508,515,541
489,501,507,511,532
488,495,509,508,525
501,501,507,504,519
518,504,512,485,516
526,504,528,471,527
519,514,538,504,543
514,515,556,536,528
524,517,553,536,510
530,512,547,536,486
523,510,499,514,462
526,513,486,523,495
522,516,505,532,522
522,511,507,523,529
510,503,501,505,521
505,501,498,514,497
509,496,501,507,457
499,498,505,509,464
505,501,514,510,510
497,504,521,508,544
503,503,523,509,524
501,499,519,509,502
509,501,518,510,541
527,505,516,516,511
531,510,520,519,506
525,513,520,524,523
526,518,522,524,515
526,515,514,526,496
530,516,513,527,492
521,514,508,522,520
510,514,510,523,528
508,506,503,512,529
502,499,501,508,524
502,497,509,510,523
499,503,511,504,530
499,499,513,502,501
506,503,519,505,517
510,506,525,510,533
514,505,520,512,534
494,503,522,512,542
496,506,524,520,532
491,508,523,525,500
478,509,518,523,485
495,513,518,530,483
501,513,515,527,494
497,512,510,525,480
502,506,501,520,484
536,509,500,503,491
532,505,501,509,511
526,504,508,517,533
520,504,516,510,528
518,503,517,512,496
525,500,511,517,498
537,501,509,494,511
538,504,510,493,512
536,502,518,509,518
539,507,523,518,501
526,501,522,531,531
539,511,523,508,504
538,515,523,520,490
538,516,520,523,494
528,514,515,519,522
532,515,511,524,525
527,512,512,512,507
508,504,507,520,518
497,499,503,514,535
494,496,502,508,542
497,495,507,497,522
503,498,510,499,511
501,498,513,501,518
498,500,522,509,517
490,499,522,521,520
501,504,524,505,506
511,508,522,504,515
517,508,527,510,513
519,516,538,520,503
535,521,536,527,493
537,524,528,528,501
542,518,498,526,511
531,509,470,517,518
518,508,490,513,513
509,501,492,512,511
504,496,516,507,522
504,500,532,513,517
502,499,513,512,518
500,501,518,511,518
504,503,502,497,520
508,505,519,509,522
504,503,522,511,516
515,504,522,507,509
519,506,526,514,513
523,510,526,520,526
528,516,523,525,531
526,517,532,535,526
529,518,554,537,503
518,515,546,540,496
507,510,521,515,512
486,504,469,501,533
482,502,472,504,530
486,501,491,506,528
490,496,503,504,510
508,498,504,509,510
525,504,516,509,518
515,501,519,501,528
507,503,523,513,538
492,499,518,510,530
516,506,518,509,500
519,506,521,513,495
515,507,520,514,497
516,514,524,524,482
526,518,519,530,475
534,518,510,531,487
540,518,506,528,500
542,518,505,516,509
517,507,502,508,558
495,499,501,501,581
490,495,500,500,540
485,494,504,501,521
478,497,512,506,507
474,499,514,505,503
465,497,516,511,509
475,499,518,507,509
478,503,523,510,517
475,502,517,513,513
521,513,525,524,515
535,513,518,523,497
507,510,519,530,499
525,514,512,529,513
528,520,514,522,499
524,523,518,526,530
525,518,514,522,542
514,508,509,509,550
523,504,505,512,525
509,491,498,496,471
493,492,505,499,490
486,496,507,503,514
490,498,513,503,504
505,501,518,507,485
525,499,520,523,490
550,507,523,514,507
544,507,521,500,486
541,506,518,521,483
541,516,523,522,503
555,521,522,527,503
559,520,518,526,509
538,517,514,527,518
538,512,515,531,505
522,507,502,524,500
515,507,500,521,517
521,505,501,510,515
516,501,496,494,511
518,498,508,486,513
516,497,514,496,505
511,496,519,513,508
510,499,524,522,529
516,502,518,495,516
524,505,521,508,508
518,507,522,521,506
525,515,521,519,511
540,519,522,519,514
542,521,522,528,518
531,522,515,524,515
519,516,493,510,524
517,514,499,511,519
508,505,490,503,514
501,500,495,498,519
503,501,511,509,516
497,503,516,517,513
500,501,522,512,509
504,498,512,506,504
506,501,522,503,505
506,502,528,511,513
507,503,531,513,509
508,503,524,513,522
519,506,514,515,527
527,512,517,523,509
526,516,527,538,510
528,516,527,535,507
522,517,516,529,502
513,508,517,529,510
517,513,513,526,517
511,503,502,508,521
496,495,511,507,523
491,502,515,509,528
496,501,511,507,511
496,501,518,503,512
501,500,526,502,508
506,502,519,498,516
505,500,511,499,513
510,503,512,502,518
515,508,524,505,529
517,507,521,526,535
523,515,522,542,527
520,515,525,535,511
522,517,518,532,509
524,518,512,524,506
512,512,507,522,525
502,505,500,516,520
496,498,497,508,515
495,500,502,510,529
492,498,505,518,531
496,500,511,505,521
498,498,513,507,518
494,494,517,506,497
502,498,519,519,496
513,501,517,512,492
506,500,521,522,516
518,507,523,509,500
513,511,520,512,511
523,516,518,521,512
530,520,517,528,518
531,512,512,526,499
530,516,505,526,496
522,512,505,519,507
502,504,507,510,509
488,501,504,509,518
489,500,507,502,530
487,502,511,503,527
491,500,513,503,512
490,499,511,506,504
498,507,522,512,502
479,501,524,511,504
500,504,522,512,506
493,504,522,516,524
497,504,518,519,538
490,507,518,522,538
500,511,514,523,504
541,517,517,529,484
558,519,516,531,479
542,514,509,528,487
531,513,509,519,507
537,506,501,508,516
546,505,504,507,534
543,503,507,504,527
527,500,514,504,511
523,504,515,505,507
518,502,520,510,488
514,502,522,517,497
516,504,521,509,511
518,506,522,511,514
516,509,521,514,511
523,509,521,516,522
530,512,520,521,506
541,515,518,526,501
535,514,516,527,509
524,514,513,519,514
513,512,513,519,526
494,508,507,516,534
484,502,501,505,530
482,501,504,505,518
490,497,510,508,508
505,501,514,505,507
502,498,514,507,505
506,503,522,507,511
504,503,522,510,514
498,502,525,511,506
508,505,521,512,514
519,509,524,516,513
521,511,522,522,516
531,517,523,525,513
544,518,520,523,512
551,518,513,529,507
540,517,511,525,507
529,516,508,517,507
508,505,501,511,523
497,501,499,508,525
499,499,505,507,529
507,504,508,500,511
509,502,515,500,504
513,500,514,504,509
517,496,519,504,508
517,501,519,506,509
521,504,521,512,508
526,508,520,513,509
528,510,522,517,509
528,513,522,524,508
532,516,524,529,511
531,516,520,528,510
530,517,515,527,517
522,514,508,526,511
518,512,507,516,511
502,505,505,509,518
489,500,502,505,523
494,499,502,500,523
498,498,507,503,517
500,498,510,507,516
500,499,515,513,514
506,507,520,510,514
507,500,526,516,516
513,505,522,511,518
515,507,522,516,509
518,508,522,519,507
525,513,522,522,510
527,514,521,524,505
528,517,516,517,513
526,518,511,525,514
517,513,510,520,517
508,508,505,517,522
497,502,500,507,528
494,498,502,505,523
491,498,506,503,517
494,499,511,508,515
503,498,515,504,513
501,502,517,504,512
506,498,517,507,510
507,501,521,509,511
511,503,523,520,516
519,507,522,517,509
521,509,523,537,516
530,515,521,515,507
527,518,522,528,515
527,517,516,523,517
520,515,512,522,518
514,517,511,520,521
502,506,503,511,532
501,503,503,507,530
496,501,506,502,521
493,497,507,500,522
495,499,513,502,520
496,498,514,503,517
503,501,520,505,513
508,502,519,504,508
511,502,521,508,505
519,504,523,515,510
521,508,522,517,513
529,514,524,523,510
533,517,523,525,506
531,518,519,530,506
526,515,513,525,505
515,512,511,528,516
513,514,510,521,522
495,502,501,505,525
491,500,501,502,522
494,504,504,504,517
493,499,510,505,521
493,497,514,509,524
506,499,518,502,517
507,502,521,510,513
507,501,521,508,514
513,503,521,509,506
517,503,522,515,506
521,505,516,521,509
534,514,522,523,510
531,515,519,525,505
523,516,518,527,512
515,514,511,527,514
513,514,510,519,524
513,511,507,515,530
511,507,504,509,534
500,498,508,506,532
491,498,506,504,520
492,498,510,504,503
491,496,513,502,503
495,498,517,504,508
519,502,521,507,509
524,502,521,509,513
521,504,522,512,513
533,508,519,521,509
532,509,521,521,506
533,517,520,523,507
520,514,518,525,509
530,515,514,529,504
531,513,512,524,504
523,513,510,521,522
517,506,503,511,527
505,503,505,505,531
506,502,506,503,529
499,499,507,507,518
501,498,511,499,508
504,499,516,506,511
505,503,520,512,507
505,503,523,509,511
519,503,523,510,515
541,506,522,515,508
541,509,523,518,507
541,513,524,522,508
532,515,521,524,510
535,515,517,525,512
533,517,516,526,511
521,513,510,520,515
518,512,508,519,516
501,502,506,510,522
502,503,503,505,520
500,502,508,503,516
500,500,513,500,518
501,502,514,501,512
504,500,517,506,511
506,502,520,507,510
508,501,520,506,515
507,504,521,509,517
515,505,523,514,515
521,508,522,521,511
521,513,521,523,512
525,517,519,527,510
520,515,515,526,511
520,511,515,525,513
523,513,511,524,515
518,508,505,517,519
505,502,502,506,524
497,500,503,506,521
496,495,509,503,519
500,498,510,502,513
500,498,515,501,516
504,500,521,514,512
508,504,524,511,514
510,506,524,511,516
513,503,521,512,517
521,508,521,523,517
522,509,520,521,511
527,515,523,524,507
531,519,520,526,503
527,515,511,517,509
522,514,512,513,511
516,511,508,511,514
505,504,501,508,521
499,502,503,509,521
495,499,506,508,522
494,501,512,504,524
495,499,513,503,523
501,499,515,501,520
506,502,519,504,514
510,501,520,507,510
516,503,525,510,505
519,506,522,513,507
520,507,521,515,509
529,511,521,524,508
529,517,519,522,508
529,516,518,526,512
525,519,519,525,511
521,514,511,520,519
514,510,509,519,516
503,502,499,507,525
494,500,500,501,525
496,500,509,502,523
498,499,509,501,514
498,498,513,501,513
500,502,516,501,513
512,499,519,505,506
511,498,520,507,507
512,501,524,514,507
515,506,522,515,510
525,510,521,519,506
521,511,520,521,505
524,516,521,525,512
518,511,518,522,518
515,517,511,521,519
506,514,509,519,523
496,509,507,515,524
497,497,506,507,528
506,504,504,504,526
509,500,507,501,512
496,496,511,501,513
481,495,513,500,515
493,498,518,507,519
485,499,520,505,525
491,503,523,507,524
513,510,524,512,516
525,509,523,515,516
561,514,523,520,511
549,515,522,524,505
542,517,518,524,506
539,516,513,525,504
517,513,508,521,494
513,514,507,518,502
527,507,501,513,512
512,505,500,504,513
502,499,504,502,522
505,499,511,501,518
519,501,513,505,512
517,498,516,502,510
528,501,519,505,509
529,505,523,509,512
522,503,522,512,510
522,506,523,519,510
522,509,523,519,513
526,512,521,523,508
528,515,522,525,508
526,516,518,526,512
528,515,512,525,509
534,515,510,523,513
532,512,507,519,514
516,506,500,509,517
506,501,501,508,521
501,500,506,499,523
498,499,509,501,519
501,499,513,500,517
506,495,515,500,514
509,501,522,506,517
508,502,526,506,521
512,504,521,511,516
514,509,523,515,515
518,509,522,520,509
521,513,521,524,505
533,517,520,528,502
536,517,511,529,506
532,516,512,527,510
523,513,508,524,517
513,509,503,518,522
501,503,500,512,522
501,500,502,510,519
497,499,509,510,516
501,498,511,510,510
501,498,513,508,510
503,499,517,510,509
508,499,522,512,510
510,504,526,511,510
514,505,522,509,510
523,508,521,510,509
524,511,524,518,514
524,518,521,512,516
526,519,519,517,520
523,517,509,519,524
524,515,509,518,522
518,512,507,517,515
503,504,498,507,513
497,499,498,502,514
495,497,504,505,517
499,497,508,503,516
497,499,513,504,514
500,499,519,512,510
504,501,522,516,508
509,503,521,515,505
511,506,523,513,509
515,505,524,515,510
521,509,521,516,512
527,511,521,514,510
530,517,521,519,511
530,513,518,525,511
525,515,512,523,513
519,513,509,520,516
516,511,508,518,516
505,504,502,507,526
497,500,498,505,524
494,498,504,502,522
496,501,509,501,517
500,497,513,504,517
502,502,518,506,515
509,505,522,508,510
508,503,522,507,508
513,504,516,511,511
517,507,522,515,516
517,509,521,518,515
524,515,521,523,517
529,520,522,526,515
524,516,514,525,516
519,514,510,520,517
521,515,510,520,516
515,511,505,517,516
500,502,500,506,522
496,499,502,505,521
502,497,507,507,516
498,497,516,504,516
505,497,518,501,512
514,499,520,505,513
511,503,523,509,513
512,502,522,509,512
514,504,526,512,513
515,508,520,521,513
517,509,521,519,511
518,513,519,522,509
517,515,518,526,514
509,512,509,520,519
511,514,513,523,525
507,512,505,525,528
492,504,499,509,534
504,503,502,508,532
512,499,509,504,526
519,504,511,503,510
522,499,511,502,502
512,497,515,502,506
516,500,518,505,508
519,505,522,506,504
520,507,524,510,503
518,506,524,513,511
521,508,521,517,506
526,513,521,521,506
528,515,519,524,505
526,517,516,525,509
528,515,514,525,515
526,513,507,521,510
528,516,507,522,511
510,504,500,511,519
492,498,500,505,521
487,497,506,504,522
480,497,511,502,518
491,499,515,502,514
503,501,520,504,512
504,502,523,507,519
515,505,524,509,512
536,508,525,511,507
542,508,524,516,508
536,511,522,520,509
535,516,520,522,507
535,516,518,526,507
533,521,514,527,512
528,515,505,525,511
521,514,508,521,515
519,509,504,518,518
502,503,501,509,520
497,503,503,505,519
495,499,507,502,520
496,498,513,506,514
498,496,517,503,511
494,499,520,503,507
506,501,523,507,510
511,504,522,506,511
517,504,526,512,513
522,508,524,523,514
532,514,525,522,511
533,514,518,523,510
533,516,515,526,511
527,516,512,526,516
519,515,507,523,515
517,514,506,520,520
508,506,499,513,529
497,503,501,507,526
496,503,506,504,520
495,498,508,502,513
497,497,512,500,509
500,497,517,504,505
506,499,521,506,503
508,503,526,509,509
507,505,524,512,511
515,510,524,515,511
521,507,521,519,511
526,512,519,521,502
528,514,521,527,505
529,512,516,526,509
525,516,509,521,517
523,513,506,521,513
515,512,506,518,514
502,505,500,508,518
497,500,502,504,520
494,498,504,501,517
499,498,511,502,514
494,499,514,503,511
501,500,519,505,514
505,502,522,506,510
509,503,523,508,512
511,504,524,511,509
516,509,524,514,510
522,510,522,517,513
525,512,519,522,511
529,518,517,530,509
528,515,513,525,511
522,517,508,525,513
519,514,507,525,516
511,510,504,515,520
501,504,502,508,525
492,505,505,506,519
484,497,507,503,514
487,497,512,505,512
488,498,516,504,511
493,499,524,505,511
504,502,525,508,514
523,504,525,507,513
535,508,525,512,509
531,506,519,517,508
527,513,522,520,512
532,515,519,523,509
535,517,517,523,510
529,512,513,526,515
524,515,508,524,515
517,514,508,521,519
507,505,500,513,524
500,501,501,508,523
499,501,506,506,518
498,499,509,506,517
498,499,514,504,509
502,498,518,504,513
503,499,521,508,511
503,501,523,509,510
506,502,525,512,507
503,506,522,514,511
497,506,521,516,513
504,514,524,523,512
507,512,520,527,513
514,512,511,526,516
506,511,506,526,520
518,513,508,521,523
560,517,506,520,514
542,507,498,511,520
513,501,501,506,522
506,502,507,503,520
513,503,512,506,511
512,501,522,506,508
513,502,522,508,507
511,503,525,508,505
516,504,524,509,505
521,505,525,515,506
524,506,522,514,507
523,507,522,518,510
524,513,518,522,512
525,519,518,528,511
514,515,510,526,510
511,515,507,525,514
512,513,505,521,518
509,510,505,513,522
500,504,500,508,523
511,502,504,506,523
519,500,509,504,517
514,500,514,503,513
510,499,517,504,512
511,499,520,504,512
514,501,523,502,511
514,502,524,509,512
518,507,528,513,511
523,508,524,522,511
524,510,519,520,509
529,513,517,524,512
533,518,514,528,516
526,518,508,524,513
521,516,505,523,519
516,512,503,521,519
504,505,497,511,524
498,501,499,507,520
494,501,505,504,519
493,497,510,504,518
499,499,515,503,516
495,501,520,503,512
507,501,523,507,508
511,502,525,507,507
509,507,525,510,509
516,505,523,513,511
521,509,521,517,514
523,510,520,521,511
533,516,518,527,513
532,513,513,528,517
520,516,507,527,512
523,516,505,525,513
513,517,505,521,514
505,506,500,512,518
493,502,502,505,519
501,500,507,504,517
509,499,512,504,509
501,501,520,501,510
508,499,520,504,508
506,501,524,508,506
506,502,525,508,508
512,506,526,513,510
515,506,523,516,508
516,507,519,519,510
521,511,517,525,510
539,518,516,528,508
527,516,509,523,510
519,515,504,523,514
512,513,505,521,515
508,508,500,520,520
503,504,501,508,524
504,502,508,505,522
505,498,512,503,519
514,500,515,503,517
509,499,513,506,511
509,498,521,504,512
515,501,525,508,509
514,503,525,509,506
515,501,524,513,507
525,507,521,517,511
526,513,520,520,512
528,514,517,524,509
529,517,515,526,514
525,519,510,527,514
516,513,505,524,514
514,512,504,519,515
502,504,497,512,521
505,500,499,504,521
498,502,507,507,520
497,498,511,504,520
496,499,516,507,515
502,502,520,504,513
508,501,525,507,510
509,501,524,508,515
514,501,525,513,512
516,508,523,514,514
517,506,525,518,515
516,512,520,523,517
520,513,517,526,513
530,517,518,528,508
522,516,509,526,511
514,513,505,522,517
515,515,504,521,517
514,505,498,507,523
510,501,500,507,519
512,501,507,505,516
512,500,513,504,517
504,500,516,504,513
506,500,520,504,516
521,505,526,508,509
521,503,526,509,510
521,505,525,511,508
527,508,520,519,509
527,510,522,520,512
528,513,521,522,512
528,517,517,528,514
527,516,510,526,514
524,516,508,526,517
516,515,502,523,520
512,506,507,518,522
508,503,500,507,522
504,501,503,506,514
498,499,509,504,519
498,499,515,505,513
493,498,519,504,512
492,497,519,503,513
498,498,523,507,515
498,500,523,508,512
504,502,522,510,517
508,506,521,516,519
530,515,523,521,516
531,520,521,529,514
529,519,517,523,514
532,517,509,528,513
533,516,507,524,511
532,512,504,524,505
515,505,493,514,514
508,501,499,505,516
499,500,504,504,519
500,504,511,503,514
501,499,518,504,512
503,499,520,504,512
507,505,524,506,509
518,504,525,508,509
516,505,527,509,509
519,507,523,517,511
522,509,521,519,512
526,513,519,523,508
528,518,518,527,510
523,517,511,525,510
522,514,510,525,515
517,514,505,525,517
506,514,504,518,518
490,505,499,510,525
492,502,503,507,524
488,498,506,504,519
490,502,516,502,515
497,499,516,501,518
515,500,521,501,510
519,502,525,507,508
520,502,529,509,509
519,504,525,510,510
524,507,519,514,511
527,512,524,518,514
530,513,518,525,512
532,517,520,527,509
528,516,509,525,510
519,515,509,524,514
511,513,504,521,516
502,512,500,516,520
500,503,499,509,527
495,501,504,510,520
492,499,509,503,516
495,498,515,503,514
507,497,519,503,513
520,499,523,504,510
522,502,525,507,507
513,502,525,507,512
518,505,527,510,509
531,509,523,520,512
536,511,520,519,511
535,512,517,523,514
531,517,514,527,518
523,516,509,525,513
515,516,508,524,516
503,512,503,522,516
495,505,498,514,522
485,501,500,508,525
477,497,505,503,524
479,498,510,502,523
505,504,517,504,517
521,502,524,504,508
527,501,523,506,501
521,501,526,506,502
518,505,525,510,505
524,506,524,513,507
533,508,520,517,507
535,512,524,528,509
542,518,517,530,506
542,518,511,527,509
530,518,508,526,512
525,513,503,518,513
520,514,500,524,515
508,505,498,511,521
502,503,500,507,521
501,500,507,504,523
500,500,514,508,518
503,498,516,503,515
504,498,521,504,511
508,499,528,506,512
510,503,524,508,512
517,505,526,513,511
517,505,523,516,507
522,509,519,519,510
526,514,518,523,512
529,518,514,530,512
526,516,510,528,515
519,513,505,525,517
515,513,504,521,519
508,508,507,519,521
497,503,498,509,526
491,499,502,505,519
501,498,507,503,516
502,499,517,506,512
500,498,519,504,510
504,497,521,505,510
507,501,525,507,508
511,501,525,511,508
514,502,523,512,513
518,508,522,517,510
524,511,520,525,510
530,512,517,525,509
530,517,514,528,514
527,517,505,525,511
526,516,506,525,515
516,513,503,521,516
504,504,495,517,522
499,501,499,507,523
496,500,505,505,520
494,498,510,502,518
499,498,516,504,515
501,498,521,508,511
507,499,523,501,509
506,500,525,503,509
509,503,525,509,512
513,504,523,515,514
515,506,516,517,516
520,513,520,521,517
525,516,515,525,511
538,516,510,526,508
531,515,505,526,507
523,515,502,522,508
514,513,502,520,511
505,503,496,513,520
497,500,500,510,519
493,498,506,503,515
489,498,512,504,516
495,501,517,502,511
512,498,521,507,508
506,500,527,505,510
511,501,524,507,512
530,505,526,512,511
526,505,522,515,511
522,510,521,518,516
529,512,516,522,512
534,517,515,525,513
534,516,510,528,510
520,514,504,527,517
519,513,503,520,515
517,511,501,517,515
501,503,504,511,522
494,502,506,506,523
493,500,509,503,521
505,500,516,505,516
509,500,520,504,513
509,500,524,506,514
504,505,526,507,513
524,502,525,509,505
526,501,528,512,507
524,508,523,518,508
525,508,519,520,505
530,513,516,528,503
530,516,515,526,505
530,514,506,527,510
522,515,504,524,514
514,514,503,522,515
503,507,496,517,519
494,501,498,508,521
495,502,509,505,516
494,503,511,503,512
504,498,519,503,509
511,498,523,505,510
513,498,524,502,509
514,500,526,510,505
515,502,525,512,506
517,502,524,513,509
518,508,520,516,512
519,513,519,523,514
521,517,517,528,510
520,517,510,527,511
511,515,506,525,515
504,513,502,521,518
513,510,498,519,519
515,503,494,510,522
509,501,500,507,524
501,500,509,505,520
498,498,515,504,517
506,498,518,504,514
509,502,524,505,516
512,504,527,507,516
511,505,528,509,512
518,508,526,511,509
523,509,525,516,512
526,509,524,519,511
529,513,516,521,507
530,520,518,526,510
530,516,508,528,511
535,516,504,525,515
528,512,501,521,511
514,509,499,515,514
507,501,495,508,519
499,500,503,505,519
499,498,510,507,516
502,499,517,504,513
502,501,522,504,511
501,500,525,505,510
511,502,528,508,511
510,503,530,509,511
513,505,530,513,512
515,508,524,517,510
520,509,519,519,510
522,514,519,523,511
521,516,513,527,515
527,515,505,524,512
518,515,503,522,515
525,514,503,520,516
508,505,497,512,524
496,503,503,506,523
507,500,505,503,518
506,498,510,503,515
502,498,518,505,513
507,498,521,504,513
506,496,527,503,511
509,501,526,506,511
512,507,527,509,511
515,508,523,511,512
521,507,521,517,509
525,513,523,523,510
529,515,516,526,514
530,518,512,526,515
523,514,505,525,511
516,513,503,521,517
510,513,502,520,516
496,504,497,510,520
500,500,500,501,516
494,498,506,503,514
492,498,512,507,511
504,497,520,501,508
508,499,527,503,507
508,498,531,505,506
512,502,525,507,506
515,505,527,511,508
519,507,525,515,507
522,513,522,520,511
527,513,517,522,509
532,518,516,528,512
527,512,510,527,511
523,518,503,524,519
518,513,507,522,517
507,510,501,517,519
495,503,499,512,522
489,500,503,506,522
483,497,509,504,517
487,501,515,503,514
485,497,523,505,514
495,499,525,505,515
523,502,527,506,506
517,502,526,508,508
516,503,525,512,513
531,510,525,518,516
528,511,525,522,519
528,509,520,522,512
531,518,514,528,513
523,515,506,525,515
518,515,501,523,515
525,514,502,522,513
510,506,496,512,522
512,501,497,506,521
504,500,506,510,515
500,499,512,504,510
500,503,518,504,508
503,499,522,505,504
507,498,524,505,507
509,500,526,508,506
512,506,527,510,506
520,506,525,514,512
523,507,521,517,511
529,518,521,524,509
532,516,517,528,506
530,518,508,526,507
530,516,506,527,511
517,513,501,524,518
513,512,501,520,514
500,503,497,510,520
495,499,500,507,519
492,497,507,504,517
491,497,515,504,514
501,497,520,510,512
501,499,522,507,511
501,499,526,506,510
500,500,525,509,510
502,503,522,510,511
528,507,524,516,508
522,509,521,521,513
521,513,518,524,509
532,516,514,528,505
532,518,505,531,510
532,514,503,524,519
524,513,501,522,518
517,513,499,516,522
510,505,499,513,524
495,505,504,506,524
492,500,510,503,522
492,500,516,504,513
504,497,524,503,505
505,498,520,504,508
508,499,526,507,509
519,502,527,509,512
525,503,524,511,521
538,508,523,513,517
533,511,519,521,508
527,516,516,524,508
527,517,512,527,510
522,518,506,526,510
518,518,503,524,514
513,514,503,522,516
495,510,497,514,524
513,503,500,509,523
505,502,505,509,519
504,503,512,503,517
507,502,518,503,514
510,500,522,504,508
510,499,524,504,510
513,501,526,503,513
516,505,528,510,513
520,508,523,512,513
527,509,522,518,515
527,512,518,522,512
532,517,517,526,514
529,516,510,527,512
527,519,509,525,511
520,514,502,523,512
515,512,500,520,515
503,503,498,513,520
497,499,495,504,519
500,499,506,502,519
497,499,514,503,512
500,500,518,506,511
500,500,525,505,511
502,500,525,506,513
506,501,525,508,510
510,502,521,512,510
508,504,522,514,512
509,508,519,519,513
516,515,519,523,515
521,518,518,527,513
516,518,509,528,516
507,515,504,523,523
505,515,507,522,526
526,511,499,516,520
525,506,503,510,519
508,501,506,506,519
511,500,506,505,512
515,499,516,503,505
510,498,519,502,503
508,501,523,503,501
510,500,526,505,507
515,503,526,509,508
521,505,525,512,509
525,505,527,516,508
527,510,518,518,507
529,516,520,524,508
534,517,509,528,506
531,519,508,526,510
520,514,502,522,512
518,513,498,522,509
506,505,500,512,517
497,501,499,508,518
498,505,506,506,517
500,500,512,504,517
500,499,517,504,512
503,500,523,504,514
507,500,525,504,517
508,503,527,512,511
516,504,528,513,510
516,506,525,517,512
518,508,520,521,514
526,511,519,522,511
534,517,517,526,509
532,517,510,528,511
528,516,506,527,513
519,515,501,521,515
519,512,501,519,514
503,504,500,510,521
499,500,500,506,524
496,499,506,499,518
498,499,513,504,516
499,498,519,506,512
508,501,525,505,511
506,501,526,507,512
510,504,527,509,511
515,504,526,512,513
518,506,524,518,515
522,511,523,521,519
525,514,520,519,525
515,520,515,526,522
506,517,511,529,524
498,511,503,523,522
494,509,503,521,519
487,506,500,516,526
478,496,502,510,525
523,500,500,509,513
531,500,509,504,502
517,497,514,504,501
520,500,519,503,500
520,506,525,506,501
519,502,527,508,502
517,501,525,508,505
529,505,529,512,506
531,507,523,517,506
529,508,517,517,504
532,515,517,529,507
534,516,511,529,509
533,516,506,527,505
521,514,503,523,516
516,512,504,525,515
509,508,500,514,520
505,503,500,509,520
503,501,505,503,518
501,499,511,502,513
500,498,516,505,514
504,499,522,506,507
505,500,523,504,509
508,500,525,506,508
513,502,524,509,509
520,505,523,513,512
522,508,521,518,514
526,513,519,522,507
530,518,521,526,509
533,516,510,526,509
524,515,506,525,512
520,513,502,521,512
517,514,503,524,516
503,506,498,511,523
497,501,504,507,523
496,499,507,504,519
496,500,513,503,515
499,498,518,506,511
504,500,522,505,510
504,500,529,506,513
511,504,527,510,517
511,506,529,513,516
512,505,523,514,517
514,511,522,518,520
514,511,516,522,518
517,514,517,526,518
507,514,507,524,519
507,513,503,522,529
501,512,502,520,523
503,510,500,516,523
499,502,503,508,527
495,499,501,504,511
488,497,509,501,505
512,499,516,504,499
543,502,522,507,498
528,500,522,507,501
524,502,527,512,501
524,504,526,513,503
524,505,524,513,506
533,512,523,518,508
535,510,520,522,505
536,514,517,525,508
536,517,513,529,509
537,518,509,528,511
526,514,501,523,515
523,513,503,523,512
507,504,496,513,524
506,502,499,509,520
504,502,503,507,519
502,500,511,503,516
502,500,518,504,513
504,501,524,505,511
502,501,528,506,512
505,496,530,508,512
512,504,526,511,511
515,505,524,515,513
516,505,526,518,514
519,512,518,521,511
534,516,516,527,510
546,516,509,525,509
529,516,506,524,513
522,513,501,521,513
520,512,506,519,514
505,505,496,514,523
497,502,501,506,524
497,501,506,508,520
496,501,515,504,518
498,499,519,503,516
502,502,524,505,514
511,500,522,506,514
510,502,525,508,513
514,503,525,511,513
512,505,524,514,514
513,508,519,519,518
518,512,519,523,512
516,515,514,525,512
513,518,512,527,515
511,514,505,524,518
513,517,504,523,513
511,510,504,518,516
494,500,497,507,521
495,496,505,502,519
511,496,506,502,517
523,500,514,502,512
519,500,520,503,509
517,501,528,505,510
520,503,526,508,511
516,502,525,509,511
521,504,524,513,508
525,508,524,517,509
527,511,521,524,511
531,514,521,525,509
534,514,512,526,509
535,519,510,527,511
524,513,501,523,516
518,516,503,522,514
509,505,497,513,524
501,503,501,508,521
499,500,508,504,519
499,498,510,503,517
498,497,516,503,513
501,500,525,505,512
507,500,524,506,511
508,503,528,508,510
511,506,527,512,513
519,504,526,515,512
520,508,521,517,512
526,514,519,522,510
529,516,517,526,509
531,516,512,524,514
524,515,507,525,517
518,512,502,521,516
516,511,502,515,516
500,504,497,509,521
499,499,501,506,524
497,498,506,504,522
501,499,513,501,516
500,498,517,504,513
504,500,526,506,510
507,500,520,505,509
509,497,525,508,507
511,503,524,511,510
515,505,521,514,509
520,508,519,518,513
523,511,517,523,512
528,520,517,528,513
529,517,510,526,512
526,515,505,524,516
519,515,503,522,516
514,508,500,518,519
502,504,499,513,523
497,501,503,507,521
498,500,509,503,520
505,499,516,502,515
505,500,519,503,512
509,501,524,506,512
506,505,525,508,513
509,506,525,510,512
517,505,525,514,513
516,507,523,518,514
516,510,520,519,508
523,519,518,526,509
522,515,512,525,510
525,519,510,526,516
524,514,503,522,516
521,513,503,520,516
513,505,495,508,524
509,502,498,507,518
504,501,505,506,516
496,500,509,503,513
499,499,518,506,513
502,500,521,506,512
500,500,526,505,515
501,503,526,509,517
498,502,524,509,519
502,504,526,510,519
514,511,521,517,516
519,515,522,523,519
528,521,522,527,520
535,519,515,529,513
539,516,506,523,506
535,516,504,522,507
525,512,501,519,508
511,506,498,511,514
502,500,499,503,515
501,498,505,502,513
500,498,512,502,511
507,498,519,508,509
509,501,522,506,504
507,499,524,509,506
508,502,525,509,504
513,504,524,511,506
517,506,522,515,507
519,508,519,520,510
520,512,519,524,509
526,520,517,527,507
530,516,509,527,515
523,513,504,526,513
512,513,502,521,515
503,510,499,515,519
510,502,497,510,520
521,500,503,506,519
515,500,511,504,520
507,500,517,505,517
506,497,524,505,516
507,499,523,508,514
508,498,527,508,512
508,504,529,510,510
514,505,524,513,509
519,506,522,517,510
524,510,519,520,507
530,516,519,526,507
529,514,515,527,507
534,518,510,531,513
533,512,503,522,517
517,513,502,521,517
503,504,497,513,519
495,501,499,509,520
493,497,505,504,518
493,497,507,502,515
494,497,515,502,514
510,500,521,504,511
518,500,523,506,512
514,502,524,508,512
529,516,519,525,508
531,516,515,522,511
523,517,511,527,516
512,511,505,521,517
501,509,505,517,518
491,503,500,509,524
490,501,502,509,524
488,499,506,505,523
489,499,511,504,518
506,500,516,503,516
517,501,520,506,507
524,502,522,507,504
525,501,520,502,508
526,505,521,515,506
521,509,524,519,511
527,509,522,516,510
530,513,518,524,513
534,518,518,527,511
530,518,513,527,513
525,518,510,525,520
516,513,506,520,522
506,508,501,515,517
506,505,501,509,519
501,502,503,506,522
497,500,506,502,517
506,500,512,502,508
505,499,516,503,509
510,503,522,508,509
511,502,522,507,514
511,505,519,511,509
519,507,524,514,510
524,508,521,517,508
529,515,524,522,507
530,515,522,524,505
531,518,516,526,508
528,521,512,525,511
526,517,508,524,516
516,513,504,522,520
505,505,499,516,526
499,501,503,507,525
498,501,506,506,523
497,502,508,505,519
497,500,517,503,511
499,502,518,505,508
502,500,520,506,507
501,503,519,505,513
507,504,522,510,511
513,503,526,515,512
527,508,520,518,507
534,513,523,525,506
528,516,518,526,506
530,517,514,529,508
527,517,510,527,506
518,514,505,522,514
507,511,503,518,516
494,503,500,510,522
491,500,500,505,525
492,500,506,504,521
494,500,510,503,515
496,498,515,502,515
503,501,520,510,511
520,502,522,512,510
518,500,521,509,513
521,505,524,514,513
527,506,522,516,510
529,511,521,520,508
531,514,519,523,509
534,514,522,527,512
532,519,511,527,512
527,516,508,525,517
518,511,504,516,517
511,509,500,513,521
500,502,499,508,521
494,501,503,506,517
493,504,508,505,516
500,500,514,504,517
498,499,517,503,513
501,501,520,506,510
510,502,520,508,510
511,500,521,507,510
519,505,521,508,514
519,508,524,518,512
520,511,521,524,512
533,521,524,524,510
537,519,513,532,510
531,519,516,526,511
525,517,511,524,515
516,515,506,521,518
502,506,502,513,522
493,503,504,507,521
489,498,504,505,519
491,496,509,504,519
490,498,514,503,519
487,500,524,506,520
515,503,522,508,515
520,502,519,509,510
522,506,523,511,508
522,507,523,514,516
520,508,521,517,517
528,514,523,524,513
539,519,522,529,506
539,517,516,527,507
530,517,512,525,511
522,515,508,522,514
514,513,506,519,517
506,504,501,512,519
495,500,505,507,516
493,500,507,507,509
492,500,512,505,511
500,500,515,505,509
503,502,521,507,512
501,502,523,508,514
511,501,522,507,516
514,504,524,513,513
533,510,522,517,512
538,510,522,519,508
535,513,519,523,505
529,515,518,528,507
531,518,512,527,507
527,516,510,525,511
518,512,506,519,517
510,507,502,512,520
507,502,500,507,522
503,501,508,505,521
501,500,507,503,527
500,500,512,502,520
505,499,516,503,512
508,500,520,506,509
512,500,516,506,506
511,500,517,506,511
516,504,521,510,513
523,512,523,517,502
522,511,520,521,503
530,517,521,527,508
519,517,512,530,509
518,518,515,530,513
511,514,509,528,513
506,510,505,519,515
496,502,500,511,518
492,499,498,503,522
502,501,504,504,522
516,502,510,505,516
513,501,515,505,512
513,502,519,507,509
513,503,521,507,509
512,501,521,509,511
514,501,522,511,510
519,504,520,512,510
524,510,520,521,513
528,513,521,522,508
530,516,519,526,507
530,518,516,526,513
524,517,510,524,513
526,514,508,524,514
514,511,508,520,511
504,503,499,511,513
499,499,501,508,516
494,499,504,504,505
498,499,511,509,499
502,500,515,503,498
506,502,519,507,503
508,503,519,510,506
512,502,521,508,507
518,505,520,514,511
522,512,523,517,511
519,507,519,520,527
522,513,518,522,519
530,515,519,531,513
532,520,516,527,512
525,515,509,524,518
518,512,506,523,517
510,509,502,516,524
497,503,500,509,526
494,503,501,504,522
494,497,506,503,520
497,498,513,504,517
507,500,516,504,519
513,502,521,510,514
511,502,523,509,518
509,502,521,509,520
515,505,522,513,514
522,507,521,518,510
524,509,518,520,511
527,514,518,526,513
529,517,517,524,515
529,520,516,531,511
521,515,510,527,511
514,511,507,519,516
501,506,503,513,523
494,501,495,507,523
499,501,505,504,517
505,499,507,503,515
503,499,511,503,515
506,498,514,504,513
505,501,517,507,512
504,500,520,503,513
519,505,526,511,509
521,508,531,515,510
526,511,527,520,512
531,514,522,527,510
532,516,516,526,509
529,511,506,525,512
526,517,512,527,513
522,515,509,525,515
513,509,502,519,519
503,503,498,508,521
500,504,499,504,521
498,499,509,505,520
499,500,516,502,522
501,499,521,510,521
503,500,527,510,513
506,504,526,508,512
503,501,509,509,520
506,503,516,511,517
508,500,521,514,513
504,508,521,519,513
508,512,517,522,514
518,517,517,527,514
523,520,514,528,513
515,514,506,526,510
519,511,505,519,509
512,509,499,514,520
519,504,500,508,518
522,504,505,507,516
506,501,510,505,512
505,501,514,503,518
504,500,516,503,517
505,497,522,505,514
503,501,517,508,515
501,500,517,502,522
502,504,521,512,522
526,510,519,519,513
543,517,524,523,500
545,518,521,526,497
544,519,517,530,500
537,521,515,526,507
532,515,507,523,516
520,510,501,523,516
507,503,496,511,505
499,503,497,506,489
493,497,501,505,500
488,498,508,503,499
502,500,513,511,497
509,505,520,507,499
508,502,521,506,506
514,501,521,507,511
528,501,521,513,518
532,507,523,513,524
526,509,523,516,520
534,514,525,522,515
541,519,526,532,492
539,519,506,529,498
536,516,508,527,502
530,516,509,529,509
518,511,507,522,516
502,505,499,510,565
488,503,505,508,586
489,504,510,505,547
495,504,534,507,505
502,502,540,508,472
511,506,546,508,462
515,504,545,511,466
513,505,520,509,474
515,506,491,512,505
519,504,501,518,529
524,507,511,520,535
527,510,520,520,552
526,514,521,525,549
527,518,515,526,526
525,511,516,525,513
522,512,516,520,505
514,507,506,516,514
504,502,501,507,507
498,497,498,503,497
496,502,502,503,504
495,499,512,500,518
495,500,514,501,525
502,501,519,506,523
512,503,520,505,529
503,500,519,504,522
512,506,526,509,505
527,507,530,527,493
528,506,526,530,495
527,511,513,533,506
530,517,502,533,514
526,518,506,532,516
519,519,522,515,526
508,513,526,511,534
497,508,522,505,541
489,504,520,508,546
482,499,498,501,548
489,501,486,500,542
491,505,508,508,521
502,504,514,509,492
512,496,507,504,478
520,496,512,506,484
522,499,520,514,488
528,503,523,520,481
526,507,524,523,467
538,513,521,530,447
533,522,518,531,478
528,522,510,521,486
526,531,500,506,530
527,525,498,499,528
520,521,506,503,535
505,512,506,501,534
497,508,511,517,531
492,507,509,513,526
491,503,488,509,506
498,508,509,512,497
506,511,524,510,501
503,510,518,509,538
499,508,516,508,541
508,516,524,514,530
515,519,531,520,519
522,525,545,533,517
530,530,538,535,525
526,526,530,536,540
523,524,507,526,542
517,519,478,505,560
512,520,484,516,547
502,510,483,507,521
507,512,509,511,479
502,506,523,513,489
499,508,515,511,514
504,509,512,510,510
517,505,507,505,485
513,504,510,504,527
506,505,515,510,480
525,507,522,507,447
536,515,522,519,434
534,519,530,525,471
535,522,529,531,496
529,523,524,528,511
528,521,518,524,526
527,516,505,525,515
516,515,502,523,516
519,520,508,521,514
502,507,493,508,537
496,505,497,505,558
496,508,510,507,546
498,507,526,503,533
495,504,530,505,515
500,509,535,509,489
505,508,533,523,486
501,506,504,522,499
504,503,529,527,506
520,510,532,529,502
529,512,521,516,474
537,517,530,517,507
526,517,505,524,568
522,516,502,521,545
532,521,505,523,518
521,514,505,522,494
519,513,505,521,468
524,509,502,508,464
521,505,515,503,455
509,502,523,500,498
500,506,538,493,563
507,507,537,494,546
501,506,523,494,560
502,504,482,510,529
506,499,496,523,463
515,504,502,520,456
519,509,502,525,500
516,509,507,516,543
525,517,518,515,544
527,519,522,522,519
523,514,515,525,507
522,517,515,527,494
515,513,512,532,479
501,506,508,524,504
494,503,508,517,525
495,503,512,508,525
519,508,520,506,567
513,502,508,501,570
501,501,516,502,564
507,503,529,498,541
505,497,531,516,488
512,503,537,514,506
509,509,535,523,504
537,511,506,527,490
529,517,485,507,529
529,515,489,517,537
539,520,503,522,503
537,526,512,525,498
526,522,520,524,518
530,515,511,521,455
516,504,499,513,456
507,493,496,508,493
513,501,512,511,516
503,500,517,503,545
498,493,504,496,518
501,499,524,502,497
507,503,522,509,525
514,503,518,507,510
518,508,536,510,503
508,511,557,525,518
503,513,561,528,544
498,519,562,532,553
530,522,529,533,546
525,519,491,526,539
518,518,501,531,506
518,513,522,538,499
527,510,514,529,524
534,503,518,500,490
532,497,488,489,454
512,495,470,496,522
501,494,512,501,487
501,495,521,501,502
513,499,521,502,534
512,500,520,518,498
514,504,526,526,494
512,502,504,517,470
502,505,505,511,479
515,514,505,517,478
534,520,509,520,531
545,522,508,522,549
541,517,509,521,536
535,518,511,533,537
511,513,510,534,548
505,507,487,530,518
494,497,483,513,505
488,493,486,489,505
489,493,510,492,547
502,503,525,499,543
511,504,518,505,512
513,503,514,513,490
503,507,524,525,495
500,511,537,521,525
496,508,526,512,565
507,513,515,503,560
525,516,513,515,556
521,516,528,527,512
533,515,518,539,480
527,514,521,528,467
516,516,511,517,476
509,506,507,521,476
499,505,502,513,534
493,501,509,509,573
497,498,497,501,537
502,499,509,507,485
505,498,510,512,467
509,496,518,506,454
507,495,515,512,475
521,501,537,518,473
532,503,542,516,502
540,506,528,512,531
534,512,508,509,511
548,518,509,509,531
536,517,514,512,533
525,515,516,521,497
515,520,546,524,529
512,523,546,529,575
504,515,537,518,567
480,502,499,518,562
481,499,467,529,499
507,500,500,518,449
502,498,502,504,521
479,495,502,498,628
466,494,506,500,574
494,499,512,521,448
515,510,536,521,443
517,509,546,524,482
530,506,535,527,520
552,511,523,526,443
553,510,494,516,442
546,509,499,520,448
540,513,504,534,468
537,515,504,534,462
515,509,500,523,505
498,507,498,512,551
496,503,499,508,542
495,501,501,506,514
511,496,509,496,519
496,496,492,483,608
495,494,502,493,567
504,502,519,509,533
508,502,526,518,527
504,504,551,516,532
508,506,549,517,528
496,506,538,513,534
512,508,511,510,514
554,514,486,516,514
584,518,506,528,470
552,516,516,533,491
537,514,509,529,498
500,506,491,513,583
501,496,477,504,505
501,498,503,512,475
487,498,502,514,487
486,497,503,511,505
503,499,523,510,504
508,500,529,512,509
499,498,520,506,539
512,504,524,514,520
500,508,525,518,556
502,505,516,520,546
509,511,522,525,533
502,520,528,526,558
499,520,525,515,596
495,516,518,527,533
493,518,519,537,544
500,512,515,522,475
520,507,512,519,462
512,500,510,512,468
513,495,493,504,478
503,498,495,492,531
510,504,520,509,529
519,506,541,531,516
515,506,556,530,484
510,497,537,497,480
511,489,527,510,465
537,501,478,484,504
546,511,501,508,524
552,510,498,513,534
538,508,506,527,518
541,518,524,536,504
534,514,512,538,460
524,510,516,514,477
506,512,522,515,503
515,511,497,528,516
529,515,506,525,483
523,509,520,516,474
504,505,528,515,467
477,496,515,504,561
488,498,495,488,591
516,495,493,500,510
510,501,517,505,513
500,495,531,521,520
518,503,530,514,530
538,510,529,519,520
529,508,509,522,478
529,515,515,534,447
528,518,513,529,462
522,524,522,535,498
519,524,525,532,515
501,519,518,525,618
478,505,503,523,612
477,496,486,517,545
483,491,492,503,498
498,491,493,482,486
511,497,507,490,484
522,501,521,514,490
520,501,518,514,482
528,504,518,498,501
520,503,523,507,515
513,506,526,516,529
516,511,522,518,563
519,518,524,523,524
528,518,521,540,515
515,512,515,529,553
519,510,506,518,551
525,512,500,533,542
536,514,500,524,522
526,502,492,516,466
513,496,496,517,469
489,495,496,506,492
478,496,501,500,531
493,503,529,501,517
507,507,530,513,523
491,504,523,505,572
489,500,530,503,546
515,502,525,510,532
518,505,518,509,541
515,509,513,521,517
513,513,509,530,507
515,516,512,534,504
519,520,524,533,529
514,512,511,527,532
534,508,505,523,471
530,504,495,511,492
510,497,491,505,502
494,499,502,507,482
491,500,511,503,526
480,499,518,507,541
484,496,537,511,502
494,504,540,514,505
523,505,533,519,505
536,500,496,513,514
532,501,501,516,503
530,504,515,523,479
540,513,515,525,479
538,511,513,509,488
530,514,513,521,502
518,514,511,528,514
516,519,522,534,506
497,505,505,525,502
462,493,493,519,547
481,500,495,500,531
481,502,496,499,538
493,502,506,501,523
496,505,521,499,524
508,505,538,504,500
526,502,527,509,523
532,500,525,504,504
534,506,541,509,487
536,508,568,520,478
531,510,545,529,479
524,511,467,511,513
510,515,500,518,552
511,518,504,516,588
524,521,510,537,526
517,509,507,570,502
519,507,505,529,501
498,498,498,509,541
498,500,486,483,560
505,501,500,494,546
508,500,510,499,537
509,498,508,501,493
519,502,520,501,485
520,506,524,503,481
522,505,529,507,462
519,504,526,510,493
524,510,511,520,492
506,501,511,532,551
528,510,513,529,495
545,518,513,533,470
544,516,509,535,472
531,515,518,532,497
518,519,516,536,554
504,511,515,519,573
484,505,509,509,546
490,503,508,509,503
506,498,498,505,469
512,494,503,498,487
497,493,510,499,512
495,496,515,505,501
509,502,523,515,513
510,506,524,518,546
514,510,523,511,567
499,506,517,519,586
511,511,518,528,530
526,513,517,521,504
541,514,519,526,483
533,516,513,522,494
528,513,509,521,484
526,512,506,521,456
522,505,497,510,451
506,508,505,509,542
507,504,508,509,530
498,505,515,507,560
502,506,519,501,557
494,504,522,501,565
503,502,522,507,557
505,497,515,504,534
511,504,526,516,490
516,507,526,513,478
517,512,527,518,493
499,512,525,524,507
500,510,501,530,522
512,516,525,538,514
516,523,526,533,513
519,515,520,532,491
508,509,490,527,496
491,497,486,507,522
512,496,491,491,509
524,500,497,492,516
510,497,504,508,514
522,497,506,494,496
535,502,514,499,480
527,500,520,505,504
514,500,519,508,520
513,502,519,520,508
524,506,516,522,506
524,511,522,526,536
531,518,528,533,505
534,518,517,526,495
526,517,506,510,523
509,520,511,521,522
518,516,503,524,496
511,506,499,524,498
499,504,499,517,551
488,497,499,490,575
492,500,504,490,535
490,499,517,493,533
507,502,520,493,516
519,502,522,506,504
510,499,531,526,514
514,505,555,526,502
522,508,557,524,505
529,506,534,518,491
529,504,479,505,510
543,514,510,529,505
551,516,520,538,488
544,517,505,532,481
526,508,488,521,501
504,509,483,503,512
495,503,491,516,541
490,499,490,512,528
492,498,495,508,519
500,502,513,512,521
492,498,512,509,532
495,502,523,509,544
493,502,529,501,558
500,500,542,503,531
516,506,533,519,477
526,509,528,534,455
523,509,513,533,458
524,513,518,538,522
520,513,493,511,533
521,517,511,516,543
513,519,525,520,569
510,516,516,518,549
507,513,510,520,526
496,501,503,505,516
488,497,498,500,543
492,499,507,504,540
487,497,509,500,523
492,497,517,502,532
480,497,517,501,509
492,499,523,508,468
499,501,524,510,479
518,506,525,512,503
544,509,522,512,482
561,511,519,522,491
546,511,513,512,529
544,515,519,526,531
535,515,511,518,527
534,519,511,523,501
529,514,510,524,493
506,501,500,509,493
510,501,500,505,520
507,502,506,508,521
495,500,512,513,509
506,500,517,508,488
499,500,520,523,504
521,503,519,497,459
515,501,523,511,446
518,499,518,510,474
514,501,517,512,551
525,510,521,508,532
523,514,524,523,508
524,517,526,536,526
501,514,519,535,560
508,519,513,525,539
511,516,509,515,505
513,513,509,517,510
507,508,511,517,490
507,506,517,514,472
504,501,519,500,517
511,499,516,503,529
520,498,493,492,509
523,499,505,487,504
512,496,495,498,517
515,502,520,513,513
521,505,525,529,507
517,510,524,531,501
520,507,514,522,519
525,512,513,513,511
535,514,516,523,492
534,520,518,524,508
546,517,512,522,522
532,512,505,523,521
527,508,506,518,509
518,506,499,514,507
505,500,501,510,516
502,499,507,510,507
497,498,518,516,509
498,497,516,511,524
504,499,514,508,528
515,503,517,500,515
517,501,510,493,517
516,509,519,495,516
523,511,512,499,521
527,510,515,507,521
531,512,518,508,516
530,515,522,517,501
529,517,525,536,490
527,517,517,550,495
518,511,517,530,522
503,506,511,517,538
492,503,516,510,551
498,503,520,502,548
487,498,506,501,548
495,499,511,499,530
505,500,527,510,491
510,495,527,510,489
514,498,510,509,514
513,499,499,500,518
511,504,510,516,510
512,512,522,528,498
515,514,525,526,472
520,515,529,533,459
519,516,519,529,531
510,515,514,524,518
517,514,505,517,546
521,516,528,519,550
507,504,524,520,555
494,501,524,506,573
491,496,496,496,545
494,498,472,502,518
499,505,510,514,540
498,509,520,515,544
497,501,520,513,523
504,499,517,512,506
519,501,514,505,518
536,503,512,512,474
534,506,510,515,474
536,513,513,527,487
530,515,513,526,527
522,516,514,530,527
534,519,517,533,463
522,510,507,530,477
517,510,506,517,458
509,502,503,507,472
498,499,505,498,525
493,496,507,501,520
488,497,502,504,549
498,500,513,502,550
506,505,524,512,530
497,502,523,511,518
498,506,527,515,523
507,506,531,521,503
518,513,527,526,503
515,512,522,515,501
533,512,517,521,510
540,515,515,525,492
539,517,514,527,483
538,517,508,521,460
526,512,503,519,463
498,501,501,514,531
489,501,504,513,560
495,499,502,492,517
504,499,506,502,511
501,498,513,509,519
489,496,515,508,515
508,499,520,515,530
514,502,518,506,536
522,501,518,492,503
525,507,524,508,504
529,509,524,515,505
531,511,521,520,509
535,513,521,522,492
529,515,502,524,490
529,518,513,530,509
528,514,509,523,517
528,508,506,518,515
516,500,497,506,504
490,499,501,503,518
495,499,505,509,521
497,496,511,522,531
500,499,511,489,520
505,503,515,494,506
505,501,521,502,504
500,499,521,517,504
508,501,530,513,496
514,504,533,508,512
522,509,538,516,496
527,520,535,522,537
525,517,507,522,550
514,515,503,526,544
516,518,509,527,524
521,516,502,519,501
523,511,501,511,516
508,504,497,505,532
507,504,500,502,513
500,500,503,509,495
500,498,510,516,495
498,494,496,508,506
506,498,516,507,506
504,502,542,506,516
509,508,533,498,518
509,505,534,507,488
508,508,518,519,522
513,508,510,521,524
526,513,512,525,511
540,516,507,529,492
541,517,513,519,482
529,514,518,513,463
515,516,510,514,507
504,506,497,498,552
493,502,492,495,583
488,500,505,523,559
490,499,508,518,541
492,495,508,498,526
511,497,511,502,516
501,498,518,509,532
508,502,523,505,509
514,503,525,512,491
518,508,530,521,502
512,509,529,527,528
515,518,530,528,542
512,517,526,531,557
521,515,519,529,516
534,514,512,528,495
539,511,505,518,491
532,511,502,516,497
500,504,500,510,554
496,501,502,502,551
483,497,505,498,558
501,499,512,502,518
506,496,509,499,490
512,499,518,517,468
518,503,526,515,460
519,503,525,517,495
511,501,528,511,542
504,504,525,523,496
509,508,522,517,524
518,515,526,520,532
521,515,521,528,523
523,514,517,530,494
532,516,511,522,477
524,512,504,516,495
516,509,501,514,485
510,501,499,508,459
506,499,505,508,460
490,494,504,505,546
497,493,508,504,547
506,497,513,498,502
503,497,518,508,491
509,499,519,505,477
526,504,520,505,474
512,502,520,510,518
513,507,523,515,556
523,512,523,523,531
522,515,520,527,528
535,514,516,529,507
528,513,511,532,495
529,517,517,535,503
531,515,510,529,509
520,508,498,505,521
503,499,499,494,523
490,496,503,497,518
487,498,508,504,511
489,499,514,501,504
498,502,518,505,495
509,501,525,513,532
515,503,523,510,545
525,502,524,506,511
530,503,519,504,502
531,505,520,515,496
533,517,522,521,508
531,515,520,529,525
530,517,516,523,525
523,522,516,529,518
521,515,511,526,510
527,510,505,517,493
513,501,497,505,511
502,500,499,504,516
504,496,505,502,520
502,496,515,507,514
499,496,508,503,508
512,500,513,499,500
516,502,517,514,495
516,504,527,512,514
519,503,523,508,518
519,505,528,511,521
518,506,526,515,520
523,510,521,526,521
524,515,510,527,523
528,517,498,526,513
532,523,514,529,488
526,515,508,529,495
520,510,500,518,520
504,504,503,513,528
498,501,495,507,529
495,499,500,501,512
493,498,506,499,524
488,495,507,497,522
493,498,508,510,516
496,493,517,503,499
504,504,528,506,500
505,505,532,511,505
524,506,533,517,486
520,507,525,521,514
532,518,529,524,511
546,520,527,529,502
540,516,511,523,516
525,516,506,527,527
519,508,504,518,535
504,503,506,521,531
496,503,503,511,542
492,502,507,506,540
489,499,510,505,542
490,498,512,497,528
497,495,514,497,503
506,497,520,508,487
507,499,517,505,500
508,501,521,511,499
507,505,524,515,500
509,507,523,519,507
524,518,526,527,492
522,514,519,528,498
528,516,512,529,485
534,515,511,519,507
524,515,508,523,514
521,512,505,520,514
505,503,499,512,526
497,498,505,508,528
487,499,507,513,530
500,505,513,503,517
497,497,512,496,521
514,500,518,501,530
525,499,516,503,501
515,498,517,506,514
514,500,519,504,520
524,503,521,517,497
523,509,519,517,503
530,509,524,521,505
534,516,515,521,521
538,515,513,523,508
530,515,513,532,501
528,511,504,522,502
520,515,502,513,512
501,509,503,505,525
482,498,499,500,527
471,496,504,504,511
478,497,510,507,506
491,499,519,506,525
496,500,521,507,546
496,501,526,510,528
515,505,527,505,509
551,510,525,512,486
534,506,518,511,482
543,511,521,518,483
547,512,518,521,495
549,517,515,531,493
552,518,515,528,499
542,510,513,525,497
526,511,507,521,506
511,505,494,511,514
502,503,499,509,513
497,500,507,505,517
491,496,507,503,523
495,496,512,504,513
503,498,516,504,512
525,500,522,508,509
516,498,524,507,511
512,496,525,510,513
515,501,515,517,513
515,505,520,515,510
522,510,522,522,505
521,511,518,527,506
535,519,521,528,506
534,519,516,527,507
521,510,509,522,515
526,510,506,519,511
519,506,500,513,522
509,501,499,508,526
503,500,502,505,529
500,497,506,505,525
499,496,516,506,519
510,498,524,505,501
513,499,520,507,499
513,502,522,506,507
516,504,523,519,513
519,508,522,518,508
523,508,521,516,506
527,514,525,525,506
531,516,522,528,505
522,515,514,526,511
522,517,512,529,512
516,512,509,521,515
516,507,504,520,516
505,503,504,511,519
501,502,503,506,520
496,498,507,504,520
494,502,512,505,516
496,496,515,503,514
498,498,519,503,512
497,499,523,509,514
498,500,522,508,513
503,502,523,513,511
507,508,523,519,510
511,508,522,521,514
511,508,519,529,509
530,515,517,522,514
549,519,514,523,512
535,517,511,524,515
526,517,509,521,514
511,507,501,513,519
503,500,501,514,532
495,502,509,499,518
491,497,508,499,519
489,495,512,499,514
488,497,515,499,511
498,500,524,503,511
514,504,523,506,510
523,503,525,508,508
532,504,527,512,508
527,507,520,519,513
531,510,518,520,505
527,513,517,520,508
518,514,513,524,512
528,521,514,528,511
526,516,511,524,509
510,513,509,524,510
492,502,501,514,521
481,497,502,518,527
479,498,505,505,521
484,501,511,497,515
481,493,519,509,529
482,499,520,511,522
503,503,523,509,520
506,503,517,506,514
517,506,519,515,502
515,506,520,513,502
505,508,519,516,507
500,512,519,519,509
523,516,519,527,509
531,515,513,528,506
522,514,510,533,514
512,515,503,512,513
523,511,501,510,515
536,505,500,506,526
540,501,501,502,522
525,500,507,502,523
513,503,513,503,525
504,500,513,506,513
504,502,520,512,512
502,502,521,511,511
504,504,522,508,505
513,504,526,511,506
523,506,528,518,504
532,511,520,519,505
541,516,521,525,507
541,519,520,528,513
548,520,517,528,511
533,519,514,525,513
517,514,510,523,510
501,504,498,515,507
492,501,497,510,520
491,503,504,504,522
500,499,508,501,519
517,501,516,505,523
514,500,518,508,526
521,501,521,506,510
522,501,523,510,507
523,506,526,512,507
523,505,521,510,505
528,511,521,516,503
531,512,521,521,504
534,519,525,526,506
535,516,516,528,511
529,518,510,527,511
523,515,508,525,517
517,513,506,525,520
502,503,500,510,528
497,500,500,505,532
497,498,505,507,524
498,499,511,503,517
497,497,514,503,509
503,501,519,506,511
506,500,522,506,509
503,501,521,507,511
512,504,522,510,510
517,508,523,518,513
519,509,522,516,513
524,514,521,519,517
530,518,520,526,513
523,515,513,527,510
519,516,511,525,512
516,516,507,520,511
509,511,503,516,514
