CH1,CH2,CH3,CH4,CH5
515,505,517,503,505
520,507,524,510,502
522,506,522,517,500
529,510,526,526,496
531,510,527,531,501
525,508,522,535,506
519,505,517,531,504
515,503,513,532,510
503,499,503,520,520
497,498,497,509,513
497,499,497,508,516
501,503,501,505,523
503,506,503,502,519
502,508,507,501,521
508,511,514,504,515
509,507,513,501,515
513,507,516,501,518
521,506,520,504,511
519,507,519,510,502
526,510,525,519,504
528,511,527,531,494
528,508,527,530,490
524,507,522,535,493
517,503,516,531,502
512,506,513,530,510
498,498,500,517,523
493,499,496,509,532
497,503,499,508,526
501,506,501,505,518
502,506,504,503,516
506,511,510,503,518
509,511,513,501,516
518,509,515,500,517
516,507,516,501,512
518,507,519,507,507
522,510,523,516,509
522,511,525,522,506
525,510,527,530,498
526,510,524,534,494
520,506,519,533,496
516,506,515,532,505
510,501,507,525,515
502,499,500,516,520
504,506,500,512,532
500,504,499,507,529
499,505,500,503,521
501,508,506,504,521
507,509,510,504,510
510,508,512,502,513
513,509,515,502,517
515,507,517,503,515
517,509,525,509,509
521,508,522,517,503
527,512,528,527,490
528,509,527,534,485
525,507,522,533,489
522,505,522,531,497
516,505,513,531,516
504,498,503,521,523
498,497,497,513,525
497,501,500,510,530
497,504,500,505,533
499,506,503,504,530
503,509,507,502,527
506,509,512,502,521
509,508,515,500,525
512,508,516,501,523
516,506,518,507,519
523,508,522,511,513
526,507,523,518,503
534,510,527,527,495
532,511,526,531,495
528,507,523,534,497
519,504,516,530,497
519,503,513,528,503
501,497,499,517,517
491,497,497,512,520
494,503,501,510,520
497,506,503,506,519
500,506,504,506,519
504,509,509,502,521
505,509,512,500,516
510,507,514,501,515
514,508,518,501,517
515,505,518,505,513
522,507,522,512,512
526,506,523,520,501
531,509,526,528,496
530,507,524,532,495
525,508,519,532,491
521,508,516,532,499
513,502,509,526,508
502,498,500,515,522
498,499,497,509,532
499,504,501,506,541
497,506,502,507,531
499,509,507,504,522
507,511,511,504,511
511,510,513,501,508
512,507,516,501,507
509,506,516,501,514
514,504,519,507,500
522,507,522,518,493
529,508,525,523,494
533,506,525,532,489
530,508,524,534,498
524,503,517,532,495
520,504,515,530,504
506,496,502,517,523
497,497,497,511,529
498,501,500,510,526
499,505,500,505,526
503,506,501,502,521
499,507,506,500,522
506,511,513,502,520
507,509,516,500,519
508,504,515,501,518
518,507,518,504,524
520,507,521,510,513
525,507,524,519,500
530,511,527,528,499
533,509,527,533,500
527,507,522,534,497
521,505,516,536,503
519,504,514,529,504
504,497,500,517,518
497,497,495,508,521
497,501,498,508,527
500,505,503,506,522
505,507,505,504,516
511,509,507,503,518
507,507,512,501,508
508,506,513,499,501
513,507,516,501,507
518,507,520,506,502
517,506,520,511,515
524,507,525,521,508
530,509,527,529,499
526,509,524,534,505
527,506,520,533,503
517,503,512,528,509
511,504,511,530,517
501,500,502,519,523
497,500,499,510,531
498,501,499,505,529
502,508,504,504,524
501,510,505,502,523
507,508,509,503,520
512,507,513,502,520
514,507,513,498,518
517,505,516,498,511
524,507,522,507,511
520,507,523,514,507
526,510,527,525,500
527,509,527,531,492
525,508,524,533,502
519,504,519,532,501
514,502,516,531,500
505,497,504,526,509
499,497,502,513,523
499,499,502,507,529
504,505,506,505,531
509,507,509,502,526
506,505,503,498,527
512,509,505,503,517
517,508,510,502,517
515,508,514,505,508
512,506,517,505,505
517,507,522,511,503
524,509,523,521,493
533,510,527,528,494
534,509,531,533,494
527,506,523,531,491
524,506,517,532,500
513,502,512,528,508
492,501,498,516,526
493,500,500,514,531
495,503,500,508,530
500,506,502,506,526
506,507,505,503,522
511,510,508,501,509
514,510,512,501,505
514,508,512,499,509
514,507,516,500,509
519,507,517,506,501
513,506,520,512,500
520,510,530,522,502
524,510,527,524,504
527,510,526,533,504
524,506,519,533,495
522,509,516,531,505
514,504,511,528,509
497,497,497,515,523
500,500,500,507,534
501,503,501,505,532
502,506,502,507,527
507,508,505,501,526
508,509,509,502,517
515,510,513,501,515
508,509,513,498,513
515,506,519,502,509
518,507,521,507,507
519,507,524,515,503
524,510,528,525,496
528,511,529,536,490
524,509,519,533,494
522,509,521,534,502
515,505,515,532,505
506,499,503,521,513
498,497,496,511,522
500,501,498,509,528
499,504,499,505,526
502,505,501,501,523
507,507,507,503,520
517,511,513,500,516
513,507,516,498,513
513,508,513,502,514
513,505,515,501,521
514,504,519,507,511
521,508,525,519,500
525,509,527,525,497
525,507,525,529,497
525,507,522,534,494
519,505,518,532,502
515,505,516,530,509
501,498,503,518,517
496,499,497,510,524
498,502,499,510,530
501,505,501,505,525
501,505,502,501,523
505,508,511,501,524
510,512,512,501,514
509,507,510,499,515
516,511,516,505,520
517,510,517,504,518
518,504,519,509,512
529,509,526,521,504
533,510,526,529,493
533,507,522,529,489
527,509,522,534,495
517,506,515,531,501
510,502,510,527,510
499,499,502,518,522
495,499,495,511,520
499,502,498,507,521
501,507,502,509,528
498,505,505,500,525
506,507,509,505,517
508,509,512,501,513
511,509,514,500,512
514,507,518,503,508
518,506,519,507,501
521,508,519,512,494
529,510,524,524,488
530,512,528,533,489
525,507,522,534,498
522,506,521,533,503
518,503,514,529,506
506,498,504,520,520
498,499,501,515,534
492,501,502,507,534
495,503,500,506,532
504,509,505,507,523
506,508,503,499,522
510,512,513,503,516
514,514,513,502,511
515,507,514,501,506
516,507,516,507,509
521,507,520,508,504
523,506,522,516,491
526,509,525,525,489
530,510,526,532,492
523,507,521,532,500
520,506,519,532,510
513,504,514,529,515
503,497,500,517,521
500,498,498,512,528
500,501,499,507,522
502,504,500,505,527
504,507,503,501,532
501,509,505,498,528
511,510,514,504,515
514,509,514,502,507
515,506,513,500,509
516,510,518,504,504
518,508,522,513,508
519,511,524,519,512
527,512,528,529,496
526,507,524,532,492
528,507,522,534,493
520,503,515,530,501
516,503,511,530,507
503,499,502,518,521
495,500,499,511,526
494,504,498,508,526
500,506,504,505,531
503,509,506,504,519
507,508,508,500,516
507,508,512,498,516
510,505,515,504,514
514,507,518,505,513
517,507,520,507,508
522,507,522,515,496
525,509,525,523,492
531,512,529,530,494
525,509,523,530,499
524,508,522,534,501
516,504,513,529,498
512,499,505,521,511
502,498,499,513,521
499,501,499,508,526
499,503,501,503,526
504,507,503,505,528
509,510,506,501,520
513,510,511,501,510
508,507,511,498,511
507,507,517,499,510
513,506,518,503,513
518,507,521,509,516
524,508,523,518,503
530,510,527,526,498
533,511,528,533,497
527,507,523,534,500
523,506,521,532,504
516,504,514,531,505
505,497,502,520,518
500,500,499,514,532
497,500,498,507,533
500,505,501,504,534
503,507,504,502,527
504,507,506,499,517
508,508,511,507,509
513,510,511,500,509
514,507,516,502,507
519,506,518,504,506
521,505,516,508,504
524,511,525,520,501
527,508,530,525,494
527,508,526,533,496
524,507,524,536,499
518,504,517,528,501
511,502,510,527,500
499,500,501,518,514
499,500,502,514,520
497,502,502,508,518
501,505,505,506,519
502,505,499,500,528
507,508,507,499,528
510,508,513,501,518
509,506,512,498,520
517,510,521,503,515
520,506,524,506,511
523,506,527,513,509
527,508,530,521,500
529,511,525,529,498
523,506,516,536,493
523,508,520,536,492
515,503,514,530,499
512,499,505,524,505
504,497,499,516,518
499,500,499,510,530
498,502,498,505,527
509,505,504,502,527
507,507,505,506,519
509,508,510,503,515
517,508,510,501,510
515,510,515,505,514
521,511,516,500,516
523,505,523,505,507
524,509,521,517,505
526,509,527,524,501
526,511,530,533,500
521,508,522,532,497
520,506,519,532,497
514,504,514,527,499
502,497,506,518,518
498,504,498,515,529
494,506,498,507,528
496,504,500,504,530
500,507,504,504,522
501,507,506,501,519
506,511,516,499,522
506,508,514,500,520
516,510,518,502,512
518,504,515,502,514
521,508,521,511,512
526,510,529,521,495
529,509,526,526,486
531,509,526,531,491
532,510,523,533,491
527,505,516,529,497
517,506,516,528,506
507,499,503,516,522
493,498,497,509,542
491,501,495,508,530
496,503,501,505,516
505,509,506,501,526
502,508,508,500,518
506,508,513,499,510
509,508,516,502,512
516,509,518,502,513
516,506,519,505,505
519,506,521,512,507
526,507,524,520,504
532,511,531,530,499
528,508,523,531,500
532,508,523,532,503
523,504,514,529,508
513,505,509,527,519
503,498,499,517,528
492,498,497,508,530
494,503,502,508,527
501,511,505,507,519
501,507,506,501,518
506,510,510,503,512
507,507,513,500,511
507,507,515,500,506
511,505,517,502,510
517,506,520,513,505
528,509,522,519,502
532,509,526,524,499
538,510,527,529,502
531,507,522,532,503
527,508,522,534,506
518,504,515,529,512
500,495,501,519,519
491,499,500,515,530
492,500,499,509,531
496,504,502,506,534
500,506,504,502,521
506,507,507,502,508
508,506,511,499,509
509,507,513,500,509
511,506,515,504,507
517,506,518,508,506
518,505,520,508,502
529,509,525,519,498
533,510,528,528,499
535,509,527,532,499
527,507,521,532,497
523,504,518,533,506
515,503,516,527,505
501,500,501,521,521
489,497,499,512,524
488,501,499,508,524
490,506,503,506,527
489,504,504,502,524
490,505,507,501,519
496,509,514,503,522
499,506,514,498,523
516,505,514,498,516
532,509,520,506,507
534,507,519,510,505
534,510,527,521,507
533,510,529,531,497
529,509,524,531,498
527,509,521,535,505
522,506,517,530,507
516,502,509,525,504
505,497,499,515,518
501,497,497,513,516
502,503,501,509,523
500,506,504,505,537
503,509,505,501,535
508,511,514,501,525
512,507,510,498,521
512,508,515,499,521
515,507,517,500,508
520,506,519,506,501
527,505,524,512,492
527,507,522,522,483
529,510,527,531,493
525,506,524,534,503
521,505,518,531,508
513,501,510,526,513
502,499,503,519,528
489,498,499,511,529
501,505,500,511,529
499,504,500,501,525
509,506,503,503,516
513,509,509,501,516
514,511,513,500,514
516,508,516,499,521
512,507,516,496,518
511,507,514,503,516
514,505,521,509,505
518,507,524,519,502
525,510,527,527,499
531,508,525,532,492
533,508,522,535,487
528,505,522,532,494
522,504,513,529,494
507,501,501,518,529
490,497,496,509,539
491,502,499,507,528
498,505,501,509,528
501,506,504,502,527
505,507,506,500,511
512,511,512,500,513
516,506,511,497,505
516,510,516,500,506
513,508,518,504,500
513,505,520,510,499
518,507,525,520,497
519,507,523,527,495
518,507,523,532,496
521,506,521,533,496
516,504,514,530,501
509,502,509,525,512
503,499,499,518,519
489,496,496,511,522
485,502,500,505,532
489,505,505,504,532
489,505,503,499,533
492,508,509,498,533
500,508,512,500,535
514,507,509,500,531
534,509,515,504,519
536,507,515,511,495
538,507,520,523,486
538,509,525,529,472
529,508,526,533,483
524,507,520,530,512
522,507,521,523,521
513,503,514,522,524
506,497,505,514,533
499,498,500,505,547
497,501,499,502,539
506,504,504,501,512
509,508,508,497,515
495,507,508,494,517
480,506,510,489,514
478,506,506,492,510
478,505,508,495,503
495,504,509,500,494
510,513,515,515,484
513,511,520,522,496
524,513,525,528,491
526,512,526,533,491
533,507,521,532,502
528,506,518,527,504
527,506,516,526,505
528,500,497,519,519
521,500,504,519,524
518,502,507,518,527
516,505,509,510,521
510,510,515,505,513
505,507,514,498,511
502,506,507,503,513
492,507,509,506,514
492,505,513,505,514
505,512,518,513,513
505,509,522,518,506
530,515,527,525,505
565,518,528,532,492
550,512,525,534,494
539,507,520,535,496
524,502,509,529,503
514,502,508,527,520
502,497,504,513,529
499,499,504,511,511
500,504,508,509,507
499,506,504,503,511
502,506,490,498,510
513,508,496,497,524
512,506,509,497,539
516,505,511,495,524
518,509,507,501,511
517,510,523,515,510
535,513,531,526,494
536,513,531,535,482
537,510,530,538,491
532,506,525,534,497
535,509,520,530,515
541,507,516,533,515
530,504,504,527,526
508,497,487,510,535
485,497,493,501,537
486,502,497,504,518
510,509,507,497,523
505,512,513,497,530
503,512,518,494,539
503,510,525,493,532
503,509,521,499,507
509,511,507,503,489
496,506,504,502,483
499,511,506,512,494
511,516,507,519,497
531,515,506,533,493
534,510,506,537,492
525,506,501,534,492
521,499,492,522,505
534,496,477,513,501
522,498,476,507,505
502,503,493,505,501
494,508,505,515,503
498,514,509,511,510
493,513,516,507,524
498,515,519,507,518
497,511,515,501,522
497,504,521,497,516
508,504,524,503,519
513,502,520,528,509
527,510,514,541,501
534,518,518,542,486
514,516,511,546,484
498,517,504,561,477
491,512,502,560,508
484,508,479,551,509
455,499,472,539,524
485,496,465,533,527
489,496,465,528,522
489,503,479,526,519
495,505,499,507,524
501,506,506,494,533
519,514,517,486,524
554,521,514,492,509
508,516,507,481,519
464,516,500,488,497
441,517,508,505,486
427,519,509,519,493
450,512,503,521,497
459,499,480,514,516
457,496,477,506,541
547,501,491,518,503
599,497,491,518,496
556,495,494,523,515
533,501,500,520,529
527,507,516,537,526
521,508,512,529,520
497,501,508,508,524
493,505,507,504,530
515,517,499,515,515
510,509,521,527,517
510,505,523,523,505
524,506,521,538,482
518,511,532,552,470
529,516,528,558,471
511,510,532,553,489
513,508,531,555,511
490,505,530,558,511
487,504,523,556,520
542,503,513,548,524
572,508,511,552,505
527,511,512,544,534
498,506,505,531,515
531,514,510,525,485
531,511,481,532,471
518,508,495,537,482
508,506,494,531,518
524,508,501,537,504
547,513,517,555,491
572,515,530,548,521
562,516,530,551,526
570,513,537,542,528
586,506,518,541,517
543,507,543,550,531
527,508,537,556,526
531,518,528,563,528
520,504,501,551,545
520,497,493,541,525
517,505,508,559,505
524,504,499,540,511
526,509,503,527,510
511,509,496,529,515
510,508,497,538,493
509,507,497,550,493
507,508,506,568,524
511,502,502,577,503
530,504,519,587,500
541,505,516,598,508
546,510,527,599,483
539,508,526,596,471
519,510,522,599,471
500,508,516,590,505
487,505,508,588,518
477,505,501,578,530
468,507,499,564,540
483,510,489,546,543
499,499,498,544,535
509,497,486,549,526
523,500,501,573,511
529,498,515,568,504
530,504,546,580,479
514,494,533,587,491
490,493,517,618,490
491,498,510,617,486
500,508,475,607,495
527,527,523,598,498
531,524,534,604,494
547,524,532,613,495
536,518,513,599,510
508,504,486,564,515
491,498,498,534,525
486,504,483,531,525
488,504,477,532,522
474,504,475,538,537
469,507,462,553,523
451,515,508,566,535
452,500,505,569,519
476,505,512,587,499
463,507,506,594,501
453,507,494,629,481
515,516,518,666,489
536,513,492,637,508
484,503,496,614,523
477,492,489,586,532
528,499,505,586,540
526,503,540,586,522
499,499,545,568,499
469,501,559,525,491
464,496,581,523,503
504,497,533,572,497
493,489,515,593,506
503,500,546,619,514
518,515,563,643,520
557,517,548,640,510
623,527,551,666,477
597,522,558,666,471
570,510,535,650,462
532,503,526,618,478
496,495,509,582,509
489,499,498,602,523
500,509,503,621,521
466,505,495,609,531
429,498,485,595,572
423,492,467,572,542
378,483,450,535,552
377,481,452,529,556
431,497,469,529,534
429,500,474,565,536
440,507,496,598,521
503,518,514,601,489
500,511,502,599,486
479,501,495,574,526
490,503,500,574,519
551,519,528,605,481
639,523,528,620,453
672,521,520,616,467
634,515,508,612,452
595,512,503,614,461
555,511,492,600,460
506,493,456,575,492
477,487,444,563,527
423,483,449,582,575
389,482,450,609,591
423,487,462,607,604
496,493,464,599,549
529,508,502,623,541
525,523,527,625,523
551,533,558,614,505
588,538,551,610,486
604,534,529,599,490
603,522,496,612,470
590,509,501,629,472
576,498,488,625,465
583,499,470,611,475
561,497,493,588,500
524,492,481,594,523
498,490,474,590,532
494,500,475,605,523
492,503,480,601,521
473,515,552,615,521
483,508,554,652,515
470,497,552,683,539
478,493,510,653,523
519,492,489,632,518
582,499,467,602,503
530,496,465,596,501
511,515,494,577,499
503,521,515,572,502
476,519,518,557,522
457,501,501,625,513
453,493,479,625,488
467,496,507,597,488
443,493,507,589,527
497,502,514,619,527
546,506,492,576,521
550,521,511,600,518
477,524,510,613,532
432,515,495,613,509
398,505,472,561,510
403,492,455,511,533
466,508,479,529,517
544,526,528,584,472
588,521,535,599,482
605,511,522,578,493
632,513,536,579,494
607,516,545,577,495
570,520,553,593,500
551,526,561,630,478
530,519,529,628,501
494,503,504,618,524
462,493,492,582,551
492,496,496,569,543
505,492,498,574,535
475,496,525,570,525
436,495,525,531,523
459,510,527,523,516
459,510,532,526,517
425,502,521,530,522
398,507,531,576,523
289,492,519,609,499
145,474,491,630,523
113,484,521,677,528
195,486,507,667,541
436,507,535,678,510
639,528,558,695,478
723,531,552,699,486
745,509,507,634,500
618,494,500,654,502
538,492,507,663,509
525,514,517,637,507
514,516,518,626,521
510,508,513,574,530
468,501,510,493,548
499,510,520,475,545
504,516,547,540,518
509,511,542,526,497
508,506,519,576,501
598,514,484,605,495
655,512,440,601,485
577,504,416,624,483
463,501,426,646,476
415,493,435,636,480
363,492,464,613,511
330,478,504,593,549
428,501,556,556,552
606,526,583,513,536
631,523,562,443,552
625,523,553,492,547
619,527,559,533,522
615,519,574,553,513
587,510,566,564,480
576,503,559,559,455
549,499,568,561,482
596,514,586,565,464
627,511,577,603,466
586,509,567,666,457
579,516,560,714,448
581,517,540,685,479
566,515,545,659,472
504,506,541,599,495
481,499,513,536,485
425,493,535,574,507
422,495,537,582,538
452,506,545,576,515
521,501,525,531,524
561,515,545,501,491
621,534,572,471,487
590,522,563,481,526
566,514,529,504,503
549,503,507,498,519
529,499,521,507,534
523,510,538,478,535
517,517,553,445,516
508,507,548,457,501
501,501,538,559,501
484,501,548,599,515
546,494,514,589,538
558,503,513,550,546
505,510,547,559,542
482,500,529,582,536
477,495,532,556,534
506,513,508,557,517
522,526,483,504,502
519,518,496,469,507
473,495,482,487,503
411,471,473,525,528
410,494,522,546,514
394,502,565,605,485
425,517,575,638,496
479,523,573,650,511
508,504,549,558,539
502,502,543,503,545
586,520,555,546,512
540,510,537,597,516
478,499,532,639,508
432,495,545,660,485
420,496,535,625,488
461,491,538,540,508
460,498,543,466,518
534,512,559,483,509
543,520,581,466,492
523,515,585,458,498
523,521,600,477,522
553,518,587,489,518
505,510,571,595,507
530,511,561,638,484
455,506,550,615,481
432,511,562,598,489
439,515,562,559,479
427,511,548,443,509
406,488,485,393,556
403,494,469,401,582
461,497,478,431,561
537,500,488,454,538
590,515,508,471,511
563,519,534,510,484
505,520,541,536,504
546,519,482,527,494
548,509,464,519,520
513,501,476,513,546
519,499,493,525,519
532,502,530,547,476
475,503,575,554,462
423,486,556,502,514
410,486,566,514,541
399,492,588,518,548
493,500,582,489,539
688,519,561,511,501
690,535,562,553,475
618,539,569,552,483
602,529,574,521,503
597,520,570,449,502
586,523,585,409,501
561,515,592,447,509
552,508,609,556,486
494,497,585,531,495
467,501,566,530,486
465,507,565,533,482
500,505,544,506,509
546,506,542,475,508
527,512,525,491,502
528,493,506,529,476
499,486,515,487,501
471,485,508,509,501
503,501,507,519,503
564,524,528,547,493
546,527,539,582,496
529,517,528,544,546
550,524,507,506,521
552,527,497,474,468
524,521,509,435,470
486,512,521,466,529
468,514,524,454,558
446,502,517,457,575
469,508,527,520,554
511,521,552,623,504
488,508,545,647,490
488,497,527,616,469
454,504,530,579,447
511,518,544,604,454
505,512,521,515,488
548,510,513,510,476
580,500,518,457,496
555,506,517,407,505
534,515,513,406,517
534,507,497,397,532
569,511,531,453,525
535,509,544,411,569
529,509,558,391,566
514,511,560,428,535
487,516,565,458,520
449,527,579,443,509
433,513,547,506,466
420,505,529,526,432
447,509,549,513,458
481,500,546,473,479
606,514,525,449,471
636,521,506,461,547
559,514,485,487,550
465,497,464,484,575
438,477,460,465,565
443,489,511,504,537
529,514,535,505,507
475,505,541,497,532
499,499,526,453,557
506,497,507,465,527
509,504,512,504,512
550,528,535,532,489
588,542,571,566,443
577,529,563,602,437
538,511,515,512,471
552,490,502,474,515
557,482,512,486,529
524,498,536,518,534
486,498,545,521,551
439,488,531,503,569
429,494,528,463,531
442,493,505,447,518
498,513,513,482,508
526,521,528,484,511
583,529,544,487,509
606,519,552,487,507
526,503,549,489,515
507,500,547,484,504
473,502,547,482,481
452,513,560,493,486
461,509,554,474,492
428,509,542,483,515
449,515,552,503,528
522,508,540,499,502
554,516,533,508,465
561,521,538,560,471
499,508,520,597,518
425,497,509,542,588
434,501,520,526,559
527,517,534,492,532
458,505,540,427,538
394,482,501,391,543
483,489,500,475,482
524,495,498,501,462
650,524,537,481,432
687,540,543,479,439
623,532,549,466,477
516,518,540,526,507
445,503,529,521,537
483,509,514,471,538
528,511,503,413,533
602,516,515,461,531
630,518,523,424,531
588,513,523,458,530
542,509,524,496,528
507,497,523,478,542
492,499,521,471,525
492,501,506,441,513
516,507,515,407,480
582,510,504,435,476
566,508,474,510,476
560,509,479,521,459
525,508,479,475,510
554,520,516,446,509
548,512,527,457,516
520,516,538,491,508
535,512,521,498,503
489,503,527,547,498
465,502,506,558,530
455,488,493,565,521
476,495,507,523,470
409,501,543,538,481
426,500,544,511,488
437,502,528,491,476
419,497,520,440,566
586,517,516,434,623
678,535,544,474,559
595,510,537,487,528
565,511,548,506,513
557,503,534,523,494
553,519,554,547,474
553,528,575,562,458
547,521,545,533,475
520,512,520,505,491
489,495,487,492,497
443,494,477,490,509
420,505,491,520,484
459,510,496,490,493
474,507,501,442,536
503,506,528,442,553
601,511,531,480,495
554,492,537,482,498
515,496,530,551,483
520,505,538,564,472
549,512,559,542,476
524,512,592,487,490
517,507,596,461,523
491,495,574,441,544
454,495,573,566,537
412,504,556,531,556
391,499,528,447,570
355,487,524,406,601
502,514,508,426,548
553,521,490,431,532
594,515,509,436,515
564,514,479,423,497
506,512,499,488,460
525,518,514,515,431
462,508,515,505,432
434,501,520,441,468
517,519,555,441,483
583,526,605,527,509
547,507,571,515,551
482,496,537,512,522
427,495,522,510,537
477,496,516,509,538
510,501,500,499,546
521,512,500,494,569
559,514,502,484,557
624,514,505,464,541
604,504,507,481,564
531,507,516,468,529
452,507,519,499,523
413,506,505,526,483
423,525,536,550,440
481,510,512,517,446
608,505,497,525,426
683,507,520,503,430
618,508,530,480,477
569,503,537,485,500
552,518,548,511,520
592,527,527,546,518
578,519,519,576,501
547,505,510,554,481
537,506,487,517,504
537,505,492,516,513
518,510,509,500,519
515,513,537,498,536
510,511,529,461,539
477,497,507,412,561
433,484,511,414,563
425,488,509,404,538
416,494,505,465,536
460,501,497,501,537
588,522,495,478,505
608,520,531,499,495
520,502,542,479,514
455,499,529,505,501
406,495,522,554,483
413,494,530,571,474
393,480,488,561,511
545,494,481,541,491
572,511,472,541,486
603,520,455,512,483
561,509,453,461,498
559,506,458,399,508
561,520,489,416,509
552,521,514,439,517
519,530,567,470,545
500,540,562,438,544
506,519,532,424,528
500,515,546,445,500
518,515,588,613,461
530,519,600,702,432
510,510,588,650,468
581,504,584,586,489
587,513,589,522,520
503,502,564,457,563
462,487,554,460,599
447,494,533,454,581
466,492,519,460,553
495,504,502,444,503
510,505,460,450,457
496,498,448,444,458
460,496,435,423,528
486,511,469,489,529
493,520,494,589,474
465,513,540,613,489
542,524,574,587,494
648,546,619,556,454
646,524,602,505,489
571,503,561,442,555
531,490,552,458,552
505,490,541,449,553
478,485,515,463,569
427,483,501,464,582
369,477,503,505,568
358,489,497,504,544
348,488,473,488,528
425,497,471,541,446
510,511,479,552,419
696,527,504,521,409
672,523,527,477,418
654,528,574,472,426
610,528,605,513,469
585,517,562,520,534
569,511,538,503,530
556,506,546,525,506
537,503,554,521,497
485,493,528,479,519
411,475,497,466,538
350,479,494,467,566
319,474,479,486,547
312,486,486,501,563
419,506,490,483,573
465,510,507,483,555
630,521,515,443,527
641,528,534,473,525
608,517,522,507,514
588,508,506,493,485
592,514,500,494,470
583,513,508,506,464
569,514,500,477,469
578,524,543,531,457
551,525,563,561,498
494,510,554,580,518
506,505,528,517,506
525,512,522,494,499
459,495,478,460,557
434,500,469,476,539
466,495,460,475,503
440,492,452,486,517
409,490,472,501,497
495,509,491,503,462
597,524,486,497,495
615,523,500,504,510
629,511,487,461,497
572,512,509,478,497
587,522,505,457,491
569,525,541,525,495
572,524,542,552,513
555,512,507,497,534
544,505,521,476,553
552,516,572,466,511
535,514,569,497,513
522,501,538,560,518
498,498,513,586,535
485,501,536,604,510
481,495,545,524,533
477,505,552,500,554
481,506,547,444,527
471,503,509,434,543
472,494,474,465,518
499,505,507,555,494
528,508,527,580,485
532,500,551,577,486
573,517,590,549,486
528,502,569,449,540
500,493,545,468,544
508,505,542,529,513
504,501,526,515,520
499,501,521,466,505
524,517,512,448,487
517,522,525,457,495
508,515,520,471,491
506,502,515,489,504
479,513,539,541,490
439,505,531,510,474
415,485,512,472,488
420,484,522,476,513
452,497,543,507,549
524,517,557,503,563
571,520,530,534,520
571,521,509,549,510
547,517,515,561,516
590,511,492,561,511
578,516,494,548,515
510,493,486,475,547
485,490,497,478,533
432,488,480,483,530
378,480,474,495,539
321,480,488,479,561
418,496,512,486,512
515,518,525,445,477
530,518,522,439,480
480,512,518,470,482
467,528,537,491,450
497,531,544,470,453
464,514,542,522,498
558,496,544,517,516
637,504,572,576,440
746,522,586,607,418
641,511,559,573,491
594,506,529,530,522
557,494,494,474,551
520,496,502,476,583
434,490,502,445,593
364,493,497,475,541
349,495,484,485,547
392,495,475,448,541
481,499,465,461,546
549,521,476,487,515
610,531,480,563,469
604,527,495,556,438
565,505,508,559,425
559,507,502,494,454
568,505,531,508,491
637,521,540,535,528
607,529,574,514,521
550,515,555,530,545
542,510,539,531,526
539,501,523,505,529
519,498,531,475,553
505,503,523,478,571
524,510,525,484,516
523,510,522,486,517
511,505,541,498,499
514,513,547,502,511
531,514,531,529,460
534,512,513,536,475
520,512,505,505,525
506,507,475,472,523
506,498,452,475,509
520,501,473,503,518
509,503,484,500,530
536,502,488,497,506
525,502,514,510,500
502,502,541,512,517
512,509,511,494,523
499,508,503,510,517
503,502,524,495,537
502,508,534,489,509
519,512,534,499,506
516,519,513,497,496
514,513,477,495,490
528,522,498,497,504
539,515,504,494,494
531,495,513,534,472
535,509,526,553,497
528,502,547,565,480
536,508,581,584,468
540,518,606,542,482
519,517,609,435,501
527,511,550,401,540
515,514,540,507,526
471,511,530,535,534
457,494,516,535,499
437,484,518,555,530
442,489,529,511,565
484,500,531,512,539
487,503,535,509,520
444,497,524,481,527
427,497,464,490,542
438,494,463,498,550
463,489,443,490,527
540,517,487,491,497
660,529,505,478,454
590,508,500,485,458
531,507,529,505,492
480,512,537,509,526
397,492,521,535,558
454,483,512,512,543
630,500,528,511,522
600,514,544,543,530
546,517,538,505,504
519,519,543,499,495
499,519,558,489,500
505,520,562,443,512
496,515,555,448,573
522,508,541,467,570
532,514,539,472,539
547,508,533,498,486
531,508,538,576,421
491,514,543,599,407
453,494,521,579,455
465,496,532,572,478
501,507,520,532,495
510,499,511,478,545
538,499,506,475,534
568,507,495,476,516
539,511,488,476,503
501,505,492,489,511
499,503,516,535,519
454,509,510,536,538
422,507,503,516,544
427,499,488,465,540
484,499,489,491,515
494,505,504,524,494
600,517,520,568,477
591,529,519,565,483
565,524,496,523,494
593,518,488,526,472
563,507,491,546,503
550,493,500,544,522
545,487,493,507,550
538,501,519,467,573
522,509,538,432,551
530,508,536,430,543
522,513,539,449,537
527,511,520,443,528
529,510,518,477,504
514,509,515,511,492
516,503,498,490,482
509,502,471,488,501
519,503,461,463,528
553,506,487,530,506
552,513,510,553,508
528,499,519,555,514
540,506,554,566,484
522,506,546,581,498
499,504,545,556,503
475,484,507,499,523
494,503,513,461,541
502,502,515,486,537
518,518,535,565,513
526,519,529,559,483
520,517,532,494,493
524,517,534,431,481
505,505,533,399,490
494,506,536,419,519
510,509,527,445,534
529,512,511,533,519
526,518,498,542,508
530,511,494,553,496
531,508,495,545,508
530,505,499,544,498
526,511,531,558,520
511,497,523,522,517
506,497,520,513,521
513,512,541,496,519
493,505,531,478,538
460,501,537,487,538
429,493,510,485,536
450,512,523,504,522
458,519,536,508,508
501,512,529,506,509
630,526,546,522,463
615,531,542,532,431
553,516,556,499,463
486,507,553,504,514
429,498,554,518,538
421,497,545,502,538
411,493,528,526,539
503,503,519,553,519
680,518,505,539,488
597,521,491,531,489
546,510,511,518,507
530,502,524,516,507
522,495,514,482,543
521,492,530,472,558
533,497,529,489,535
543,509,523,505,513
521,509,527,501,526
504,511,533,492,508
477,504,524,470,496
447,510,528,469,520
456,518,538,520,507
460,512,544,544,517
480,505,534,579,508
522,507,532,561,515
564,518,537,572,503
500,498,502,523,515
426,479,479,457,533
465,482,473,444,529
491,487,476,450,522
469,509,495,479,521
545,518,520,505,499
598,520,512,513,498
555,517,501,512,504
511,510,517,507,516
556,504,504,524,516
573,513,514,498,499
540,509,518,509,467
572,519,530,531,492
586,523,530,548,468
557,516,515,533,453
528,517,526,526,469
526,505,523,514,487
503,502,514,486,528
523,505,510,502,520
529,511,533,530,519
507,514,522,519,541
482,500,506,480,542
488,500,511,494,536
522,520,537,510,541
523,514,533,489,515
527,507,524,499,492
530,512,493,508,484
538,519,506,524,490
537,513,503,538,531
529,497,480,530,520
524,497,523,512,498
514,499,532,505,502
512,502,536,511,499
498,503,534,520,521
496,509,550,517,528
498,505,548,508,518
494,501,541,498,525
506,507,526,494,532
502,509,536,501,536
508,508,540,503,530
509,506,532,494,513
517,509,527,487,506
514,499,510,464,512
521,495,537,481,507
539,502,525,492,483
542,508,536,503,483
527,507,532,524,498
524,510,511,543,490
524,513,480,537,491
521,524,494,540,497
503,504,488,538,514
494,496,485,531,518
496,501,494,492,520
499,503,509,487,511
494,503,520,493,530
505,505,522,488,524
511,510,539,505,521
519,495,533,516,524
522,484,519,520,524
522,487,516,520,518
528,498,526,519,511
525,501,536,530,509
540,513,536,526,491
544,541,549,526,501
537,542,552,531,512
512,509,536,543,509
505,505,531,544,525
491,496,536,525,534
493,496,509,501,533
496,500,506,501,522
501,506,507,499,516
510,515,514,504,498
517,514,514,504,491
512,509,527,507,498
513,517,535,507,525
523,508,530,504,524
526,506,537,512,502
515,509,541,526,500
534,518,547,526,487
535,522,546,532,492
532,518,531,538,511
525,514,526,537,511
518,512,528,544,543
512,506,511,533,561
505,508,503,522,549
505,502,503,516,537
502,504,502,512,498
510,507,507,510,477
513,509,508,502,522
517,508,514,506,512
509,510,517,508,514
509,508,524,514,521
513,506,526,518,513
517,503,529,524,509
528,512,533,535,496
531,510,537,551,499
533,509,534,546,531
540,510,529,548,543
529,516,523,546,558
518,515,520,546,552
502,503,507,541,517
496,497,493,527,505
505,502,514,525,474
510,506,518,520,462
511,509,519,517,483
514,510,522,518,509
517,507,502,514,498
518,503,491,520,487
514,505,511,525,504
518,512,524,521,519
515,506,529,530,515
525,509,533,540,507
537,510,535,542,484
538,511,536,550,488
546,511,535,552,480
532,505,524,549,501
512,508,514,563,526
506,500,508,572,530
503,501,506,551,526
505,503,504,536,529
504,506,504,529,526
508,506,509,524,521
515,508,514,520,512
517,509,518,522,519
514,500,514,523,518
524,487,517,529,502
528,483,522,540,505
538,488,529,549,497
534,477,522,554,496
525,484,517,558,510
517,520,503,577,501
536,549,528,548,482
534,517,510,544,492
516,498,471,530,518
504,492,489,533,529
500,492,497,537,539
497,492,510,534,546
506,502,519,543,532
509,511,534,541,529
515,505,523,534,522
517,510,515,504,521
520,507,517,512,515
528,505,518,518,510
527,507,514,525,509
531,514,532,548,501
536,527,540,556,491
537,513,527,566,497
533,501,525,571,496
529,506,511,562,511
525,508,502,550,528
509,505,500,544,550
504,504,498,530,550
497,508,501,526,538
497,510,512,518,503
498,509,523,519,479
504,511,522,521,508
512,513,537,514,500
512,509,530,509,530
512,512,522,519,571
512,504,506,523,586
523,511,533,550,558
527,513,556,558,518
533,515,551,548,479
533,505,532,539,456
535,507,517,538,487
521,506,495,536,540
517,503,507,550,526
504,493,498,543,503
505,495,498,540,479
511,499,493,535,494
511,502,495,518,529
514,504,502,511,532
515,508,505,507,532
515,506,510,510,517
517,507,520,517,504
538,507,521,520,473
532,507,527,528,473
530,509,528,532,496
538,514,536,544,505
531,510,534,546,513
529,507,530,543,514
526,507,526,541,522
521,503,519,538,510
502,498,509,528,526
496,497,503,524,518
499,497,498,519,487
506,506,500,519,458
516,504,503,518,469
519,505,509,520,450
520,508,515,519,478
512,507,517,513,519
516,508,522,517,497
510,501,519,514,525
519,505,526,524,564
532,507,528,532,565
541,509,532,539,552
541,507,530,539,537
536,505,521,529,535
525,501,513,520,510
518,500,516,524,494
506,497,507,519,503
498,495,505,518,513
495,498,502,506,517
504,502,504,509,510
511,504,510,510,503
514,507,512,507,525
516,507,513,501,542
517,504,515,496,538
518,502,520,500,518
515,501,520,503,509
512,501,524,511,520
536,504,523,521,509
547,511,534,529,486
536,507,535,534,488
525,507,532,536,498
510,499,523,531,506
505,496,513,527,519
499,498,506,518,535
495,492,502,510,524
496,491,508,518,520
503,504,520,519,517
500,510,498,512,527
503,499,513,500,515
512,501,519,484,509
517,501,517,482,515
519,500,527,486,512
520,501,533,498,503
525,491,523,512,485
533,493,526,512,487
539,497,551,525,501
536,499,556,538,514
520,490,550,547,514
515,510,528,517,549
507,509,473,509,549
504,514,500,515,524
511,504,509,514,485
511,503,520,507,495
508,500,524,511,522
499,492,522,504,527
494,498,520,502,527
492,510,532,502,556
500,528,529,499,540
513,512,527,487,496
518,510,534,490,484
538,513,554,500,453
545,512,550,510,473
546,512,542,523,488
538,510,544,527,506
523,504,541,522,534
522,507,544,516,543
508,505,534,513,536
502,496,527,511,524
495,498,524,508,518
495,500,531,497,517
498,502,535,491,533
512,503,527,481,523
512,514,521,466,540
515,515,519,481,553
529,511,531,494,551
543,500,544,497,538
545,499,545,502,532
540,501,562,511,500
536,505,569,530,507
514,505,551,528,491
498,521,557,531,475
495,521,556,515,498
499,503,551,501,504
485,493,538,490,509
485,490,531,498,535
500,496,531,504,504
517,512,544,510,469
523,509,539,499,465
529,508,541,498,480
524,507,542,495,510
520,507,543,503,524
521,506,548,489,523
527,504,547,493,494
525,504,544,500,486
528,510,544,506,490
540,507,539,506,470
533,507,550,515,492
518,503,551,517,509
517,502,557,518,502
507,498,544,512,524
494,496,535,509,563
496,498,533,504,543
500,503,534,498,538
500,505,535,494,541
510,506,537,495,533
516,507,540,494,523
517,505,542,496,522
520,506,545,494,488
524,503,546,498,471
525,504,545,499,481
519,504,553,506,490
537,512,556,517,505
539,512,553,523,513
538,508,547,524,510
536,504,546,520,508
523,505,539,517,517
506,502,525,509,530
490,495,519,500,525
489,499,525,500,508
495,503,521,493,528
498,506,525,490,533
497,504,527,489,532
502,503,530,490,520
509,507,532,488,509
517,509,537,491,506
519,509,538,494,502
522,507,541,498,510
526,508,545,505,524
530,511,547,513,515
523,509,544,518,514
518,509,542,519,513
513,505,534,515,513
513,505,531,513,516
502,498,519,498,524
498,498,513,491,528
497,500,513,485,547
502,507,520,487,547
499,506,519,482,534
504,504,521,480,532
507,505,524,478,516
507,504,526,478,500
516,506,530,486,483
527,509,536,488,500
526,507,535,491,493
531,505,535,497,478
538,509,542,511,472
535,508,537,511,474
527,505,531,506,490
528,504,530,503,492
517,500,520,497,525
512,499,512,487,529
510,501,511,481,542
509,504,512,479,546
506,507,512,472,547
499,506,517,469,543
495,508,527,473,523
501,507,527,477,502
508,506,530,473,494
508,503,528,477,515
527,509,534,493,496
540,510,535,499,480
527,509,532,501,505
527,508,544,494,512
530,509,545,487,508
527,505,542,468,511
517,503,526,486,513
496,496,482,488,522
498,499,500,486,516
492,501,503,471,529
486,501,504,470,548
503,505,509,470,519
515,511,515,467,515
523,510,519,466,517
529,507,519,463,502
534,504,520,467,498
534,504,524,468,506
518,504,524,472,516
511,507,528,488,515
522,511,536,494,509
527,509,536,497,502
525,506,531,496,494
523,501,522,493,501
517,502,513,496,497
501,498,509,484,513
494,496,498,475,517
500,501,501,476,488
502,504,506,474,495
502,506,508,472,492
513,507,511,470,482
513,507,514,467,512
514,508,517,466,535
515,506,521,462,543
515,509,521,466,541
522,508,525,473,519
526,508,524,480,505
532,508,529,488,489
531,509,525,486,502
530,509,524,501,519
525,504,516,492,519
526,501,509,489,493
509,496,503,475,515
497,498,499,474,523
490,501,502,471,534
492,509,506,477,536
498,506,507,473,534
507,510,511,471,526
508,508,511,464,528
508,508,522,466,524
513,506,521,468,516
516,504,522,475,510
522,507,525,484,502
532,509,529,494,479
533,509,532,499,478
529,507,524,500,489
526,508,520,496,498
516,503,514,495,525
504,500,504,484,536
494,496,499,478,530
493,500,499,474,535
494,504,502,472,539
498,505,502,469,536
501,509,509,468,537
505,509,511,468,521
506,506,514,470,518
514,507,519,466,514
515,505,516,468,522
517,505,520,480,517
527,510,526,486,511
530,510,527,492,500
535,507,524,496,494
529,508,521,502,491
520,503,516,495,498
512,503,512,495,525
495,498,501,486,529
498,499,497,483,523
499,501,499,477,509
500,506,500,472,513
508,506,503,472,517
510,506,506,468,516
513,508,511,469,517
513,507,513,469,520
514,506,513,470,518
520,506,518,474,517
526,506,521,482,505
534,509,524,491,497
532,507,522,494,499
529,505,522,498,495
523,505,518,498,500
514,506,511,498,503
507,500,507,490,520
496,501,498,485,540
493,501,498,482,549
497,502,500,483,541
506,508,504,481,515
505,507,504,474,504
517,507,508,471,499
503,502,506,463,541
518,508,512,473,526
523,506,514,471,517
526,508,522,480,514
529,506,519,486,501
530,507,520,493,501
515,505,520,499,498
512,505,521,506,480
524,506,519,507,487
516,504,512,503,489
506,497,499,493,500
506,498,495,486,508
505,501,495,483,520
501,504,497,479,533
498,507,502,478,552
503,505,502,473,546
512,510,509,479,534
507,507,509,476,516
499,502,509,476,509
513,504,512,480,497
523,506,518,489,494
523,508,521,495,501
527,510,523,503,493
530,508,521,508,489
526,507,518,511,495
519,504,514,504,499
516,503,509,505,498
507,502,496,493,512
498,498,493,486,519
492,501,494,483,543
494,506,497,480,542
501,506,505,479,534
510,509,508,478,531
509,509,507,478,530
509,507,508,478,518
513,505,511,479,515
515,509,512,482,513
520,509,517,490,506
527,510,521,498,496
528,509,522,507,490
526,506,522,506,490
525,505,515,512,485
521,504,511,508,488
518,503,510,504,493
500,499,495,493,543
495,502,492,490,541
495,503,494,486,536
499,506,498,484,536
501,507,500,481,532
511,509,504,485,521
518,510,508,482,515
517,507,507,482,505
514,503,511,484,501
513,508,517,492,504
517,508,517,495,505
527,513,520,507,502
530,510,522,512,508
524,508,517,513,513
524,506,514,513,521
515,504,513,510,523
503,498,498,499,520
500,499,492,495,512
499,502,494,493,513
499,504,499,486,517
502,506,498,487,516
506,506,497,481,518
507,508,505,485,513
510,509,510,484,516
510,509,512,486,515
512,506,513,487,516
515,505,515,491,513
523,506,518,499,499
528,510,521,509,515
532,508,519,514,497
536,506,514,514,484
529,502,507,512,492
523,502,504,513,501
506,498,494,500,522
492,496,491,493,534
495,502,494,498,516
502,505,495,490,508
502,508,498,487,507
499,509,503,487,521
503,510,507,490,538
505,507,508,486,529
507,505,509,484,525
514,506,517,489,515
522,506,515,497,504
526,511,518,505,496
529,508,520,511,493
529,504,515,513,494
529,506,514,518,495
524,502,508,514,501
518,500,502,511,505
503,496,493,500,525
497,499,494,492,530
498,502,493,490,524
496,506,496,493,526
498,508,500,487,528
503,508,504,487,529
506,508,508,487,530
502,504,505,484,518
512,505,510,488,506
518,506,514,495,499
522,504,515,497,495
524,508,520,510,496
536,510,522,522,489
532,508,519,521,497
524,506,514,519,504
520,503,510,516,507
507,499,500,507,520
503,500,496,502,531
497,501,495,496,533
501,504,499,492,531
499,505,498,489,536
501,507,503,489,512
510,509,506,489,510
509,506,505,487,509
509,506,510,487,509
513,506,511,492,510
516,506,516,500,504
523,508,520,511,483
529,515,522,521,491
530,509,521,520,494
528,508,517,522,502
523,505,512,521,500
519,501,504,514,511
513,497,496,506,526
505,498,492,500,543
500,503,492,493,548
500,506,497,493,539
505,508,499,491,522
501,510,501,488,514
503,509,507,491,518
509,511,509,488,527
512,507,509,487,536
514,506,513,492,525
514,507,520,501,508
520,508,519,513,488
519,508,518,521,457
527,509,521,527,467
527,505,516,524,480
519,502,507,521,497
511,504,502,516,501
500,496,496,504,517
500,499,493,499,524
497,503,495,498,522
499,506,497,496,514
504,506,498,492,509
508,508,503,491,507
512,506,508,489,508
514,506,507,490,507
526,507,512,492,513
526,507,518,497,522
526,505,514,499,516
525,506,517,511,506
530,509,519,520,512
523,508,518,524,509
514,507,516,526,504
514,505,510,522,512
509,501,501,514,524
499,499,494,505,527
498,500,493,500,521
502,504,491,495,513
506,505,497,495,514
505,507,501,492,519
502,510,502,489,529
500,509,511,493,523
506,509,512,494,523
506,504,509,494,519
519,505,514,501,514
527,506,516,512,508
532,509,520,519,498
530,507,520,521,490
527,505,515,528,495
521,505,513,524,505
512,509,507,521,509
504,498,497,511,515
498,498,492,509,520
498,502,494,499,533
498,505,495,497,529
504,505,497,494,511
507,506,500,491,520
511,507,505,497,518
511,508,507,495,507
515,509,512,496,512
515,511,513,499,505
525,505,515,504,506
531,508,518,510,503
537,507,519,522,501
537,507,518,523,505
534,506,517,528,497
519,502,507,520,506
502,500,503,520,503
487,496,494,508,514
493,499,491,503,528
496,506,491,499,525
497,506,496,497,526
504,508,500,494,523
503,508,503,495,510
512,511,511,495,505
509,506,508,492,512
514,507,510,495,508
517,505,513,500,503
522,506,516,506,511
532,509,521,516,510
531,509,521,524,496
530,508,519,526,497
524,507,514,527,497
519,503,507,522,499
512,501,501,517,513
497,496,492,507,525
496,502,494,504,529
494,504,494,498,529
501,506,498,496,525
506,509,499,496,514
509,510,504,496,517
511,508,509,492,521
512,509,510,494,529
514,506,509,496,518
518,504,512,502,499
523,506,514,512,490
532,509,520,519,485
532,508,522,526,508
529,510,514,528,509
521,505,512,526,507
521,507,504,521,504
509,497,494,510,521
504,499,496,503,526
501,501,492,499,535
497,503,497,497,538
494,505,497,495,524
501,508,503,492,520
509,511,508,496,511
511,509,508,495,502
512,507,508,499,500
522,506,511,503,485
526,507,514,508,492
531,510,518,518,494
531,510,520,521,497
522,507,518,525,514
525,511,518,530,503
521,506,510,525,507
515,503,505,523,513
501,499,495,511,522
498,500,492,506,526
498,503,492,500,527
500,504,493,497,528
503,508,498,496,528
500,509,503,495,524
506,510,506,495,518
508,505,506,497,513
511,506,509,495,499
517,507,513,503,511
522,509,515,507,514
527,510,520,518,506
532,509,518,523,499
529,509,518,528,496
525,508,515,532,492
515,505,506,524,507
509,501,503,517,517
500,499,493,509,530
496,501,492,504,531
496,503,492,500,524
504,505,494,497,520
507,507,498,495,520
511,508,502,494,521
513,506,501,493,518
508,508,507,496,518
515,510,512,500,516
518,508,515,505,503
519,507,516,512,491
526,511,520,522,491
531,510,520,529,486
526,508,519,528,498
522,507,510,526,497
516,503,505,524,499
504,499,496,514,515
498,498,492,508,527
500,503,494,507,528
499,504,493,499,526
502,505,495,494,528
506,509,501,495,526
515,511,503,495,517
509,508,506,494,518
508,506,508,494,510
513,505,510,498,510
518,507,514,504,508
526,510,518,516,500
530,509,518,522,493
529,511,520,528,499
523,508,514,529,498
521,506,513,527,513
518,505,508,524,518
506,499,495,510,528
503,503,493,506,534
496,503,493,500,529
501,507,496,502,524
493,508,498,497,518
501,508,502,496,520
512,509,506,499,514
512,508,507,494,512
520,507,509,496,512
528,506,510,499,507
524,507,515,509,506
531,511,521,519,500
529,511,520,524,499
527,509,519,530,508
516,507,516,530,503
509,504,508,526,506
507,501,502,520,506
499,499,493,513,516
497,499,491,504,519
493,502,493,501,523
497,507,498,500,527
501,506,498,495,524
509,511,506,498,524
511,509,507,494,522
511,508,508,500,520
515,507,510,498,514
522,505,510,502,505
522,506,514,510,505
527,509,521,522,480
530,509,522,528,486
525,508,517,529,494
523,509,515,532,504
516,504,508,526,509
500,499,497,515,520
497,498,494,512,523
498,503,493,506,525
499,504,494,501,519
500,508,496,498,513
509,508,501,496,513
511,512,507,497,520
506,509,507,494,543
513,509,511,496,533
514,510,511,499,518
520,506,513,511,493
526,509,522,516,497
529,512,523,525,496
528,511,521,531,502
525,508,518,532,505
520,503,510,528,497
516,505,506,526,513
504,498,496,514,526
499,498,491,507,521
499,500,491,503,522
504,507,498,502,524
502,506,497,498,524
505,506,500,495,518
511,513,505,498,515
514,509,508,497,511
512,506,511,498,513
514,506,515,501,515
519,508,518,510,524
523,509,520,517,515
530,511,523,526,510
530,506,518,528,500
534,507,515,531,494
526,503,509,527,493
516,503,506,527,510
500,498,494,511,531
493,498,491,505,531
498,504,494,503,529
501,506,496,501,514
504,507,498,499,509
513,509,503,499,505
513,507,505,495,511
518,505,508,501,511
520,507,511,499,508
519,511,513,504,501
522,506,515,511,510
533,509,521,523,512
536,511,523,528,515
536,507,521,531,511
529,505,514,528,492
517,504,509,523,514
495,500,501,520,522
478,498,494,510,526
490,501,494,506,524
498,503,494,506,515
499,505,497,502,511
501,507,503,498,514
507,511,508,501,515
512,510,509,496,520
513,505,507,494,524
515,504,509,496,520
522,510,516,509,505
524,509,518,515,491
530,511,521,524,482
530,509,520,532,485
525,507,518,533,491
519,503,510,529,501
518,504,508,528,505
508,499,497,518,513
494,497,489,507,524
496,504,494,505,534
500,507,497,503,529
499,506,499,500,525
506,509,508,498,524
513,510,508,499,520
514,509,509,498,517
515,507,510,498,515
519,503,512,501,512
520,505,514,508,510
523,508,519,518,494
526,510,523,529,489
527,506,518,530,488
525,508,518,533,496
518,504,510,528,505
509,503,504,523,518
500,498,496,513,528
495,501,493,506,533
497,502,494,503,530
501,506,497,503,517
499,506,499,499,521
506,512,504,503,522
513,510,508,499,517
512,508,510,498,517
513,505,510,498,514
518,506,514,508,504
522,508,517,512,504
525,509,520,521,499
529,510,522,533,493
526,507,518,530,491
524,507,516,532,492
516,505,511,528,504
511,499,500,518,526
494,498,494,511,541
496,501,494,505,536
499,502,494,502,521
504,506,497,500,507
509,510,499,499,509
509,509,505,499,512
509,506,506,495,524
514,510,510,498,526
519,506,514,498,514
518,505,514,505,505
520,507,518,514,504
523,510,522,527,505
525,511,526,530,506
524,507,516,531,508
516,505,511,528,516
517,507,509,527,516
507,499,497,517,518
504,499,492,508,535
496,502,497,504,546
497,506,497,501,544
505,509,500,499,539
508,509,503,500,506
511,509,506,496,499
510,506,505,495,496
516,506,510,500,493
517,506,516,503,504
519,506,516,509,516
524,509,519,517,511
532,512,529,528,500
526,507,519,530,493
527,506,517,531,501
525,504,511,527,500
513,503,506,525,504
502,498,493,513,522
496,501,492,506,530
499,503,495,505,523
497,504,497,502,520
498,506,499,498,525
504,508,504,500,520
509,508,507,498,515
513,507,513,501,511
516,506,511,500,511
521,506,516,507,502
525,507,517,512,498
528,507,520,518,498
536,513,523,529,500
529,507,520,531,502
525,505,515,530,506
519,503,510,527,516
511,500,501,520,522
502,499,495,510,529
498,500,494,507,532
497,501,494,502,533
500,504,498,503,528
503,508,502,499,526
508,508,506,502,502
513,511,509,500,510
513,506,508,497,513
520,504,511,501,507
522,506,515,507,505
525,508,518,519,505
536,509,522,524,505
536,510,522,531,490
532,507,517,534,492
521,505,513,531,498
505,504,509,528,507
494,495,497,516,515
496,498,493,511,529
496,500,494,507,537
499,505,497,509,528
499,507,500,502,533
505,508,500,496,537
507,513,506,497,534
512,509,510,496,523
514,506,510,500,503
518,506,512,504,484
523,505,515,508,486
525,508,519,519,482
528,510,524,527,482
529,509,525,531,480
523,506,517,532,497
521,505,513,531,509
518,509,509,529,506
504,497,496,514,531
497,497,492,507,537
498,502,495,504,535
496,505,497,502,530
500,506,499,499,530
508,509,504,499,525
515,509,507,498,523
516,506,508,496,523
518,506,516,499,523
518,506,515,503,513
515,506,517,513,500
522,509,521,523,496
519,508,528,530,489
515,507,520,533,492
518,505,517,532,498
521,508,512,531,499
512,502,505,523,517
500,497,495,512,530
496,497,491,504,532
501,503,495,505,521
503,507,499,504,518
506,508,501,505,510
509,508,504,497,513
509,507,507,498,516
507,508,509,497,515
513,504,512,506,515
519,507,516,507,509
522,511,517,515,504
527,508,522,524,491
529,509,522,529,492
525,506,519,532,498
522,506,515,532,503
519,504,510,528,509
512,501,497,517,517
499,498,493,510,528
497,501,494,505,530
496,501,492,499,524
500,505,498,500,520
503,508,506,498,525
511,511,510,500,515
515,511,509,500,512
513,507,511,498,518
521,505,514,501,510
521,505,516,507,503
527,507,518,515,496
532,511,524,526,498
530,507,521,530,495
528,508,520,535,502
522,509,511,528,510
518,508,507,526,510
504,498,497,514,524
494,497,492,506,525
495,502,498,504,525
499,505,498,503,527
503,505,499,497,520
509,508,505,496,517
512,510,508,498,518
513,506,509,496,519
516,505,513,501,498
519,505,514,505,500
519,507,516,512,503
523,511,521,521,497
526,509,524,529,492
527,508,523,530,496
521,506,518,529,498
513,504,510,528,510
506,503,506,524,515
496,500,498,515,527
494,505,493,508,523
496,503,496,504,521
500,503,497,501,524
505,506,501,500,518
507,514,504,500,522
510,510,509,498,525
510,508,510,497,523
512,505,511,499,520
517,508,517,507,512
522,507,518,515,490
528,508,522,522,496
533,509,521,529,495
528,509,520,535,498
524,504,513,529,506
517,505,514,526,524
506,499,502,515,529
498,497,493,510,521
496,500,493,505,523
499,505,497,504,519
501,507,499,501,524
508,509,502,497,526
510,509,506,499,518
508,508,507,498,510
509,508,510,499,504
511,509,512,502,501
523,507,517,510,501
530,509,520,517,497
531,509,522,526,489
531,510,523,532,496
523,508,520,532,508
516,506,515,532,518
507,505,512,530,518
493,497,498,516,526
495,500,494,511,523
499,503,495,506,516
503,504,496,501,519
504,506,498,500,517
504,508,504,497,516
506,511,508,498,513
509,506,508,497,515
512,506,510,501,506
522,507,515,504,505
523,507,517,511,508
528,509,521,519,503
531,512,524,529,496
527,508,519,526,496
522,506,515,530,506
519,505,517,529,511
514,506,509,526,512
507,500,497,516,524
502,501,494,506,527
499,505,493,503,527
496,510,498,503,541
496,508,500,499,524
501,509,507,501,515
509,510,507,500,512
514,506,507,496,514
513,505,511,499,517
518,511,513,506,519
520,508,518,514,514
528,511,523,525,486
532,512,524,530,486
523,508,518,529,499
520,506,514,530,506
517,504,511,529,509
506,499,501,520,523
499,502,496,513,518
498,502,496,509,527
497,503,496,503,525
498,506,499,500,522
502,507,500,498,524
508,510,507,503,519
507,508,508,501,516
511,509,510,500,511
514,507,514,504,499
525,507,518,508,496
523,507,518,516,495
531,510,523,526,497
531,510,522,530,496
528,510,522,535,494
521,505,513,532,498
513,504,509,530,500
501,498,497,521,515
496,498,493,510,525
499,502,494,504,537
500,506,494,503,538
502,509,501,504,534
506,510,504,501,525
511,511,508,502,513
513,508,510,498,507
511,507,512,500,509
517,507,515,505,509
521,507,517,511,508
524,508,521,518,508
526,510,524,531,499
528,508,522,532,496
524,508,518,534,498
515,507,510,528,510
509,503,506,526,521
500,499,497,514,533
494,497,492,507,531
496,502,495,504,521
500,506,497,502,519
502,506,499,499,520
506,509,503,498,507
509,509,506,500,504
508,509,512,500,518
511,508,514,500,514
515,504,516,506,511
520,507,519,511,502
524,513,520,522,499
530,508,522,529,491
529,508,519,531,495
523,507,517,532,503
514,508,511,530,509
505,500,502,518,533
499,499,496,512,539
504,501,495,505,537
497,503,494,503,522
499,505,498,501,519
499,508,508,500,519
506,514,507,502,510
508,509,510,499,517
512,508,512,500,511
519,506,512,501,511
521,506,516,508,497
528,508,519,517,489
529,509,522,524,490
532,509,522,530,493
530,508,522,535,493
521,506,515,532,503
515,503,509,528,509
504,498,502,518,524
500,499,495,512,530
500,502,495,506,533
500,504,496,502,530
505,508,500,500,531
500,507,504,498,525
503,508,508,498,509
506,506,512,497,505
511,507,509,497,506
518,506,512,502,499
518,505,516,508,504
524,509,522,522,515
528,512,522,526,504
528,507,521,533,498
530,508,521,535,501
521,504,512,530,497
517,502,507,526,506
505,499,502,515,527
502,501,495,506,533
500,503,495,501,534
504,504,497,500,528
503,510,498,498,516
510,511,505,499,517
501,509,510,499,518
505,509,513,505,511
508,507,513,502,503
514,507,517,506,496
520,504,514,511,493
525,508,524,521,494
527,510,524,531,493
523,507,520,533,495
522,507,518,534,499
515,504,512,529,505
510,501,504,523,516
499,498,496,511,524
495,500,497,511,529
506,504,496,504,520
506,506,503,504,509
504,508,502,498,520
508,508,506,498,516
508,509,512,499,535
508,508,513,498,533
515,504,513,501,508
522,506,517,512,507
526,509,520,517,503
529,509,522,525,496
532,509,523,531,494
533,507,521,532,500
524,505,517,528,502
518,504,510,529,505
506,497,499,517,517
499,498,494,512,529
496,501,494,505,530
495,503,495,502,529
500,506,500,504,529
501,508,502,498,521
507,509,505,500,514
509,507,509,499,519
514,508,514,500,520
517,507,515,503,518
520,505,515,509,505
525,512,520,522,496
527,509,520,525,491
531,508,522,532,497
529,506,516,534,495
521,504,512,532,505
514,504,513,528,508
502,498,498,515,526
497,498,493,507,535
499,502,496,505,521
502,505,498,503,516
504,507,504,501,523
506,508,504,498,526
510,509,508,497,526
513,508,514,499,516
512,510,513,502,507
524,507,515,506,497
525,507,516,512,494
525,507,520,521,498
530,511,525,530,494
524,510,522,538,498
522,507,517,532,498
517,503,509,526,498
507,500,503,524,501
496,498,496,514,518
494,501,497,509,526
495,504,496,503,531
500,507,500,504,535
504,507,501,497,534
507,508,505,502,521
507,508,509,498,516
511,507,512,501,508
515,506,514,502,509
517,506,517,508,508
518,508,520,515,504
525,511,525,525,497
525,510,524,529,489
525,509,522,535,487
524,505,513,532,491
515,504,511,533,501
505,500,501,520,526
496,496,493,509,551
500,501,495,506,542
498,503,497,504,527
501,506,501,502,520
503,508,506,497,516
507,509,510,500,513
515,509,510,498,514
513,508,511,498,514
517,506,514,501,512
520,506,516,507,507
527,510,524,518,505
529,510,524,526,499
528,512,522,537,493
526,509,519,534,495
520,505,513,529,505
515,504,509,526,511
502,499,498,515,523
494,499,493,507,525
499,502,497,504,530
501,508,500,502,525
502,508,500,499,524
505,509,505,498,530
506,509,507,496,530
507,507,509,498,510
514,507,512,500,512
515,507,517,504,513
519,509,519,512,509
525,510,522,521,500
535,511,524,528,498
532,508,520,531,495
530,507,518,531,499
525,506,513,529,506
519,503,506,524,513
505,502,496,513,525
497,497,494,511,526
494,506,495,505,519
501,506,499,501,517
498,504,500,498,517
499,509,508,501,514
506,513,510,500,519
507,508,512,499,521
509,506,513,499,522
515,508,517,505,515
520,506,518,511,503
527,510,523,523,499
526,508,523,532,496
525,507,523,532,500
524,511,515,532,504
518,504,510,528,502
506,498,499,519,499
498,495,493,514,511
496,501,494,506,520
500,504,497,503,525
502,506,504,500,515
503,509,503,498,520
507,511,508,499,519
514,512,508,497,514
512,508,515,499,515
518,506,514,501,516
522,506,521,507,506
523,509,520,521,500
529,512,526,529,491
528,508,522,532,493
528,510,522,533,502
523,505,513,530,506
515,505,511,530,514
504,501,501,518,525
496,499,493,509,527
496,502,493,505,521
500,504,497,501,535
502,508,501,499,529
505,509,504,496,529
507,510,508,498,512
510,509,511,499,501
514,507,512,498,502
515,504,512,503,500
521,505,515,509,503
529,511,523,520,510
527,513,526,530,503
524,509,524,534,503
522,507,517,536,486
518,504,512,529,498
512,502,507,524,510
502,499,502,514,531
497,500,495,507,536
498,502,497,501,527
503,507,500,502,536
501,509,502,501,525
500,510,507,500,513
503,510,510,497,519
507,508,512,499,535
514,506,514,502,517
522,509,518,508,509
523,508,519,516,493
527,509,522,525,489
529,510,523,530,493
526,507,519,533,496
522,508,518,534,501
520,506,514,529,509
504,500,503,519,522
491,499,495,512,532
495,501,495,508,527
497,503,496,504,507
500,505,500,504,518
504,509,507,500,518
508,510,510,501,516
513,509,510,498,520
510,508,512,499,518
511,506,512,501,513
517,507,517,509,510
524,511,523,519,510
526,510,524,525,510
529,510,523,536,504
531,509,520,535,499
523,503,514,530,499
516,506,509,527,501
504,497,498,517,512
493,498,495,509,520
496,502,496,507,516
495,505,498,503,521
500,508,501,500,520
504,509,504,498,521
508,509,507,501,513
511,508,510,498,513
519,511,513,501,510
515,508,517,505,514
513,507,517,510,512
520,507,520,521,504
526,508,524,528,495
525,507,520,531,487
528,508,520,536,488
519,504,513,531,503
510,505,507,525,519
502,500,499,514,532
496,500,495,507,539
497,504,499,506,532
498,508,501,503,531
498,507,502,501,525
503,511,509,502,516
505,510,512,500,513
509,508,511,498,507
513,506,514,500,503
518,504,516,506,499
526,507,518,513,501
533,508,524,523,491
537,510,524,531,496
535,506,520,531,503
532,508,518,533,506
524,505,512,529,509
510,500,502,520,522
500,499,496,512,523
497,500,495,507,518
497,506,496,505,509
504,509,499,501,518
507,508,503,499,517
509,510,509,500,514
509,509,510,498,516
508,508,512,499,510
512,506,514,500,514
517,506,517,507,504
522,507,520,516,498
529,510,526,526,495
529,508,523,534,495
529,508,525,533,505
522,506,517,530,519
519,504,512,528,518
506,499,500,518,527
501,498,494,510,526
501,500,495,505,510
497,503,497,503,521
503,507,502,501,525
505,509,505,497,529
511,511,508,497,522
508,507,512,500,505
511,510,512,499,507
519,506,517,504,506
519,509,519,511,502
525,509,522,520,498
531,509,526,526,501
528,507,521,531,494
523,505,519,534,498
515,504,515,532,509
513,503,511,531,515
503,499,500,516,526
501,498,494,508,525
503,505,494,503,523
506,511,499,502,522
503,508,502,500,522
507,510,507,500,520
505,508,513,495,518
506,506,510,497,515
508,506,514,504,518
510,511,517,507,519
519,505,520,516,504
527,513,523,521,494
536,510,528,531,485
528,507,518,530,483
523,506,516,533,517
516,505,512,528,527
505,500,503,520,525
497,499,498,514,526
494,501,496,508,528
495,504,499,505,523
504,507,501,503,514
506,509,504,501,512
511,512,509,503,509
512,509,510,500,515
514,508,512,499,515
515,506,513,500,513
521,507,518,508,503
524,509,521,519,499
530,511,524,527,498
530,509,523,531,492
528,510,522,535,498
520,505,515,531,506
514,504,511,528,513
503,498,496,517,520
498,499,494,509,528
498,505,496,507,534
500,506,499,504,528
503,510,502,501,523
505,508,504,500,520
510,511,510,501,514
510,508,510,499,513
511,508,513,497,512
512,507,516,504,512
522,506,518,507,510
526,508,522,520,501
531,511,526,527,507
528,507,519,532,498
524,506,520,535,502
520,505,515,534,497
512,502,510,526,511
499,498,499,515,530
497,500,496,510,532
495,501,495,504,529
501,507,500,502,511
504,507,502,500,513
509,509,507,500,508
509,508,509,499,509
510,507,511,497,511
513,511,512,504,514
519,507,518,506,517
523,509,518,513,512
528,509,522,521,508
534,514,527,531,503
528,508,522,531,496
525,507,520,535,495
515,509,512,530,506
505,500,505,523,521
499,498,496,513,527
495,501,497,509,524
501,507,499,506,530
499,512,502,502,530
502,509,503,501,519
509,508,505,497,513
508,509,511,499,514
510,510,515,501,515
515,504,514,501,513
521,506,518,508,508
525,506,518,514,505
533,510,524,525,496
534,509,527,532,488
520,507,521,535,493
513,504,516,532,503
510,504,513,530,507
500,499,504,517,523
496,500,497,512,526
500,501,497,507,526
504,504,498,503,522
508,508,498,500,518
507,507,505,498,522
515,511,509,501,519
515,507,509,497,515
511,504,510,497,512
512,504,515,500,502
517,506,521,513,497
522,510,523,523,495
525,509,524,526,495
529,510,525,534,499
524,508,520,534,507
517,505,517,529,514
515,505,513,529,515
504,499,499,518,525
497,497,498,506,529
497,500,495,505,523
501,506,499,504,519
500,507,499,500,520
507,509,505,499,518
510,509,508,500,524
514,510,510,498,523
514,507,514,499,516
515,509,518,505,509
520,507,520,513,504
525,508,522,521,497
530,510,526,531,494
527,506,519,532,495
524,508,520,534,503
516,505,512,529,511
510,502,506,523,526
502,500,495,513,532
498,500,496,508,515
498,504,497,505,525
503,509,501,501,523
503,508,503,500,516
509,510,509,500,515
514,510,511,501,517
515,508,512,498,521
518,505,512,499,516
528,507,522,506,506
528,509,521,516,494
531,508,520,522,492
532,511,525,532,494
521,508,521,533,498
517,506,517,534,496
517,504,513,532,504
504,500,501,517,523
496,497,494,508,532
494,502,496,506,528
494,505,498,503,527
498,507,506,502,524
503,510,506,502,523
506,516,509,501,521
509,509,511,497,522
510,507,510,497,513
511,505,513,501,494
519,505,515,507,498
525,512,522,519,501
531,509,524,526,499
532,507,521,529,510
529,508,525,533,506
522,505,514,530,505
520,501,510,526,512
505,503,497,514,525
500,498,495,507,532
498,502,497,504,538
497,504,498,500,533
495,504,500,497,520
496,507,506,501,505
506,509,509,501,509
508,508,512,500,511
512,507,518,501,503
517,507,516,506,506
522,508,520,514,503
527,509,523,521,497
530,510,525,528,500
529,507,521,530,500
522,506,520,534,498
515,504,514,531,503
512,503,508,525,508
501,497,499,512,521
497,501,497,508,533
498,504,497,504,535
501,506,500,502,534
504,507,502,502,523
508,509,508,502,500
508,508,510,500,509
510,509,513,499,519
511,507,515,500,521
516,508,518,505,511
521,505,519,514,503
532,511,527,522,499
532,509,524,530,498
530,508,521,536,503
525,506,516,532,499
523,507,513,532,495
505,498,502,519,511
495,499,500,510,520
492,501,497,506,522
502,504,499,504,528
504,507,502,501,531
503,506,502,498,526
507,509,508,501,520
509,507,510,498,511
512,506,510,498,512
516,505,515,501,508
521,505,518,508,503
527,509,523,518,503
532,510,525,529,497
532,509,525,533,497
528,513,521,535,500
521,505,515,529,508
515,503,509,526,506
499,497,499,516,517
492,500,497,509,524
496,501,496,505,516
496,503,499,503,522
498,507,505,501,535
505,509,507,501,530
508,516,511,501,521
509,508,511,498,525
513,506,514,498,517
520,506,519,508,502
522,506,524,513,505
529,510,524,521,492
530,511,525,529,498
527,509,523,532,511
528,509,522,538,503
523,506,516,531,511
516,505,510,526,514
503,499,499,515,522
493,498,497,508,517
488,501,496,506,522
497,508,500,504,528
502,508,504,505,527
506,514,507,501,521
506,509,508,499,519
511,507,512,499,519
514,507,515,501,518
519,507,518,506,513
523,507,521,515,498
526,512,525,522,500
529,511,526,531,499
528,508,523,533,502
524,505,517,533,503
520,505,514,531,512
512,501,504,523,520
502,500,499,517,522
498,502,498,510,526
496,504,497,510,520
496,505,500,501,522
504,511,505,499,528
509,510,509,501,520
509,509,511,499,519
511,505,513,499,521
515,505,515,502,518
522,508,519,509,510
527,510,523,518,494
530,509,524,529,482
530,509,523,532,495
525,509,522,538,493
518,507,518,533,498
518,504,513,528,505
503,498,500,521,517
498,497,496,510,527
496,501,496,504,536
498,503,498,502,527
501,505,502,501,526
507,508,504,501,526
508,507,511,504,521
509,508,513,499,521
514,508,515,501,517
521,507,518,504,510
526,506,522,516,506
530,508,525,518,501
537,511,528,531,498
532,507,523,533,499
530,508,521,536,503
519,504,514,529,512
507,503,509,526,515
492,499,500,517,514
491,498,496,512,519
493,499,496,506,523
502,505,499,507,504
502,505,502,503,526
507,508,507,499,526
512,509,511,503,522
513,508,513,498,517
516,507,515,502,512
520,507,519,507,510
523,507,520,514,503
526,508,522,522,492
532,511,526,531,491
526,506,525,531,495
522,508,518,536,502
516,505,514,530,510
510,503,504,523,517
501,499,498,514,524
499,500,497,506,526
497,502,496,505,523
503,506,498,501,527
504,506,505,497,525
510,509,508,497,517
508,507,509,498,516
513,507,514,499,515
517,506,515,503,516
524,509,520,511,511
528,509,521,519,508
533,509,523,525,492
537,510,525,532,487
531,507,521,534,486
523,506,517,533,493
512,504,513,530,511
492,497,500,518,535
491,495,495,509,531
494,501,497,507,534
495,505,499,505,529
500,508,503,501,529
507,509,509,498,528
510,509,508,498,524
514,507,510,498,513
511,506,513,500,513
515,505,517,505,506
518,505,518,511,506
521,507,522,518,503
528,511,527,528,500
523,506,523,532,496
523,508,522,539,498
524,507,517,533,511
516,503,510,527,511
500,497,498,513,524
497,497,493,506,529
493,504,496,505,527
498,506,500,502,522
506,508,503,499,524
513,510,509,501,516
514,510,510,498,517
516,507,511,497,510
517,506,512,500,498
520,507,517,506,509
522,504,519,513,504
523,508,524,523,496
526,509,525,531,492
528,510,524,535,497
525,508,519,534,501
519,505,512,528,511
511,502,505,522,520
501,499,498,514,527
499,502,497,507,528
501,503,497,504,522
501,506,500,501,526
501,509,504,498,531
508,511,510,501,526
511,509,512,500,515
512,509,513,500,515
516,507,516,504,517
521,506,519,508,508
525,507,520,515,499
528,509,524,524,499
531,510,525,532,494
529,508,525,535,493
520,505,516,531,508
517,505,512,527,519
502,498,500,516,532
497,499,496,511,537
494,504,498,508,531
495,506,501,505,527
496,505,501,500,525
502,508,503,499,518
514,508,510,497,506
510,508,510,498,500
515,507,512,499,501
515,506,515,503,506
515,506,518,511,521
527,511,524,520,510
532,511,525,528,498
531,508,524,536,493
528,509,522,534,502
519,505,515,532,504
513,504,509,528,512
502,497,498,513,527
498,498,493,508,518
496,502,497,505,524
504,504,499,501,524
501,506,500,498,531
507,510,507,502,527
510,512,509,500,526
512,508,513,500,527
516,509,516,504,506
519,506,517,506,502
522,506,519,511,505
526,508,523,521,497
527,509,526,530,497
528,507,522,534,494
527,506,519,533,495
519,504,513,527,506
511,501,507,523,519
496,498,497,514,528
495,499,496,510,535
496,507,499,505,537
498,506,500,504,534
502,510,502,498,516
508,508,508,501,507
507,509,511,500,508
512,507,512,500,500
518,507,514,502,509
523,506,519,508,509
524,506,520,513,506
527,508,523,524,489
538,510,524,531,487
528,510,521,531,494
524,506,520,531,502
513,507,511,529,504
500,499,502,519,518
498,499,499,510,526
498,503,497,506,532
500,505,498,501,531
500,505,501,501,534
506,508,507,499,533
512,510,510,499,516
511,509,511,502,509
515,508,519,499,511
513,507,516,504,512
520,508,520,512,499
524,509,522,518,499
529,511,526,530,501
532,508,523,530,506
525,506,519,531,506
517,505,514,529,500
514,502,510,526,507
501,498,499,516,521
494,497,494,508,523
493,501,496,508,526
495,505,500,503,524
501,506,502,499,521
506,510,507,500,515
509,511,511,499,517
510,508,512,498,523
521,507,514,498,518
525,505,517,504,520
530,506,518,514,493
530,507,522,520,495
532,511,527,531,491
526,506,522,531,491
522,508,520,534,496
514,506,515,532,498
516,504,511,525,506
502,499,500,516,525
498,500,497,509,524
496,502,497,504,528
495,505,499,501,529
505,507,507,499,517
508,509,508,500,505
510,508,510,498,503
511,507,513,498,505
513,506,514,500,527
518,507,519,508,534
518,507,520,513,528
525,510,524,522,519
528,511,526,528,504
522,507,524,530,495
521,507,517,533,499
517,506,515,531,506
506,500,503,520,520
498,498,497,511,527
496,501,497,507,529
497,504,498,502,528
500,506,502,502,529
507,511,505,499,522
509,510,510,500,520
511,509,513,498,514
512,508,513,500,510
515,506,514,499,517
519,506,519,509,508
523,508,522,518,506
528,511,527,526,505
527,509,524,530,504
524,508,521,534,505
518,505,518,536,500
512,503,511,528,512
501,498,501,516,535
496,498,495,507,530
496,500,495,504,521
500,508,500,504,522
502,507,504,501,523
511,510,507,501,521
515,510,511,501,514
517,509,512,500,508
523,508,514,500,509
520,507,516,505,511
520,506,519,512,505
521,507,521,518,499
530,509,524,529,496
526,507,522,532,495
520,510,522,535,503
512,506,515,531,508
508,503,510,528,515
498,499,499,516,530
496,501,497,509,534
495,504,501,504,529
503,508,503,504,526
506,508,504,500,517
503,507,508,503,521
503,507,509,498,506
510,505,512,500,487
518,507,516,503,503
523,507,517,508,497
528,508,521,516,494
533,509,522,528,489
534,510,529,531,488
524,506,523,530,498
521,507,521,533,517
514,505,512,528,516
503,498,503,521,522
496,499,502,513,525
494,500,501,510,522
496,503,497,504,524
499,505,500,502,523
507,508,509,499,522
505,513,509,500,523
509,509,516,498,520
511,506,511,499,518
517,507,516,504,513
522,507,520,511,503
525,508,522,518,498
528,508,525,527,498
529,513,523,533,508
521,509,522,533,504
520,504,517,534,508
517,503,515,528,506
502,498,500,520,508
495,497,495,510,525
495,502,498,507,530
498,506,501,506,524
500,507,504,501,524
504,508,506,500,524
509,509,509,499,523
513,507,511,498,514
521,505,511,498,513
519,505,515,504,513
519,504,517,512,503
531,510,522,522,496
532,510,525,530,493
532,508,525,534,504
529,508,521,536,503
524,503,514,531,516
518,504,510,527,520
501,498,499,516,522
496,500,498,511,519
499,505,498,507,523
496,508,500,504,520
499,508,503,501,520
509,509,507,502,516
508,513,509,499,516
510,507,512,500,512
512,505,514,502,507
517,504,515,506,508
520,507,519,518,520
522,510,524,525,509
526,510,526,533,499
522,505,519,533,498
526,508,519,536,484
524,505,513,530,502
509,500,503,518,529
507,500,497,512,530
505,502,495,505,536
502,504,497,503,534
501,505,498,500,532
497,505,501,498,527
502,509,509,501,519
508,507,510,498,517
506,508,515,502,501
509,506,515,503,510
516,506,519,509,512
517,508,519,517,507
520,507,524,527,500
523,508,525,534,485
517,505,521,535,491
511,503,516,536,502
511,503,511,534,506
493,501,499,518,523
496,501,497,512,527
518,506,499,508,523
513,507,500,505,514
505,507,501,503,523
506,507,504,499,523
510,509,509,496,520
513,508,511,499,525
520,507,515,499,511
516,506,517,503,516
524,509,520,512,512
528,509,523,519,505
524,509,523,530,510
520,507,521,534,494
525,509,522,535,488
517,504,513,529,501
509,503,509,527,510
490,498,500,514,543
489,498,494,505,540
494,501,496,506,526
501,505,500,506,512
500,507,501,503,520
507,508,508,498,520
522,512,510,500,517
521,511,513,497,518
516,508,514,500,520
521,512,516,504,515
521,507,520,513,505
527,511,525,527,492
527,509,525,529,493
524,509,524,532,499
517,507,520,531,499
510,503,513,530,501
506,499,497,522,512
505,498,494,513,518
495,499,494,506,530
496,504,497,503,533
510,508,498,501,533
514,507,503,500,526
516,511,510,502,519
515,509,511,499,523
513,508,511,499,521
513,504,514,499,512
516,505,514,509,505
521,508,521,522,503
528,510,524,530,495
528,514,523,533,498
529,510,521,534,497
522,506,516,536,494
511,503,515,527,503
496,501,500,522,512
476,497,495,507,519
470,499,496,505,525
472,504,505,506,529
473,503,504,506,531
480,508,509,507,528
494,509,510,507,528
521,510,511,508,509
520,506,513,498,495
510,504,513,496,501
530,508,523,495,509
550,514,524,503,496
544,511,522,509,499
541,508,521,521,496
543,511,523,533,499
550,514,514,527,501
538,506,512,524,502
512,499,500,514,518
503,504,496,512,527
505,504,500,510,532
508,507,503,517,524
508,510,504,507,526
513,511,509,504,520
515,508,510,501,514
512,506,511,498,515
517,505,514,499,515
522,506,517,506,511
526,511,522,515,505
533,509,530,523,495
535,508,527,531,484
531,508,525,530,493
524,506,521,527,493
510,502,514,527,515
505,499,508,526,520
498,499,499,519,525
498,501,498,513,528
495,503,498,508,538
496,504,498,506,533
504,508,505,507,526
508,510,511,513,521
509,508,511,504,516
510,506,511,503,514
515,509,512,505,509
516,504,518,509,507
516,505,518,516,512
521,509,524,527,512
529,511,527,535,505
533,510,522,538,509
520,507,520,540,534
511,503,513,533,527
509,498,500,518,504
506,501,494,511,501
504,500,494,507,508
497,503,495,501,518
502,506,502,501,516
504,510,504,501,523
508,510,509,503,522
509,506,508,501,511
513,506,510,501,507
515,506,515,505,508
519,507,519,514,505
527,507,520,517,495
532,512,526,531,486
533,509,521,536,481
527,509,521,540,476
515,504,514,535,493
509,506,507,528,506
498,497,496,512,522
497,500,494,506,520
496,509,496,503,539
492,507,498,498,548
496,505,499,494,529
503,509,505,498,517
508,509,509,499,516
512,507,508,497,517
521,507,514,497,504
523,508,515,505,493
529,507,518,517,487
532,509,522,528,486
533,510,521,531,486
530,510,518,532,508
524,509,515,531,524
513,504,508,523,525
517,504,502,526,521
505,501,495,525,510
502,504,500,519,524
503,507,503,499,525
500,508,499,482,528
488,504,494,477,528
486,508,496,489,515
483,508,503,491,513
484,507,505,500,514
501,506,508,501,506
503,512,515,519,503
510,508,518,520,508
548,512,520,523,497
560,515,524,537,486
552,513,526,550,485
541,510,522,549,493
531,502,514,546,498
521,499,514,536,516
506,500,514,527,533
494,500,513,522,538
486,504,519,523,539
484,500,490,515,537
477,499,478,511,522
486,504,503,516,507
500,504,513,512,510
512,504,517,511,515
516,503,520,512,512
494,505,510,507,514
466,503,509,515,506
425,500,509,526,507
381,493,495,533,511
370,493,489,537,514
386,490,478,541,515
431,492,478,548,523
475,491,468,536,533
545,504,473,523,519
625,513,476,510,515
652,521,488,499,524
597,522,506,490,523
558,516,515,493,521
550,518,524,497,515
541,516,525,495,521
541,513,527,499,518
546,513,535,509,506
554,516,535,519,494
556,516,535,528,485
556,515,536,535,496
559,512,531,533,499
544,505,525,529,497
538,504,523,525,513
531,502,518,528,505
512,496,504,525,510
510,500,501,520,520
518,505,504,519,512
508,507,507,506,506
498,507,508,506,490
485,507,513,508,504
478,505,516,512,526
470,506,519,517,545
463,503,518,508,556
501,510,523,515,531
522,507,523,524,501
554,511,528,534,484
549,513,530,543,480
544,512,524,548,484
537,506,524,544,483
515,503,528,547,506
513,499,518,540,513
506,499,511,531,525
490,497,484,527,541
491,504,488,516,556
494,507,489,496,533
495,506,498,501,513
496,509,511,506,509
515,511,504,505,511
539,510,514,508,511
536,504,515,520,521
538,506,519,530,511
551,511,528,544,521
563,521,538,559,482
542,512,518,558,473
528,521,532,551,500
525,514,525,552,500
520,512,508,550,493
494,506,482,532,520
490,500,474,525,518
493,504,479,527,505
491,507,485,532,508
471,505,495,537,508
476,503,481,538,516
463,505,478,532,512
446,508,483,536,516
450,518,500,541,511
484,517,505,540,500
510,517,492,537,488
491,503,493,547,492
551,508,501,560,470
541,506,503,548,486
494,496,502,547,524
497,503,495,552,527
555,511,520,556,519
561,509,521,559,525
525,504,516,560,527
508,502,534,570,530
494,500,530,560,533
485,499,521,554,529
515,503,543,548,527
529,504,535,537,519
507,503,533,542,509
493,505,528,537,506
501,503,530,537,493
505,500,528,541,498
504,506,530,553,519
514,505,519,553,522
503,503,495,555,523
428,498,502,576,521
394,488,487,575,503
365,488,486,557,520
369,488,479,546,531
417,490,481,542,548
477,506,495,544,541
599,527,524,564,503
644,528,533,579,481
595,520,525,581,494
546,516,511,558,513
510,519,507,547,516
452,513,502,561,512
386,507,492,573,509
364,496,494,595,495
411,502,500,577,518
485,503,500,563,526
552,507,517,563,516
629,521,529,564,492
664,529,535,574,491
561,504,511,552,530
525,491,509,551,536
504,495,532,553,525
556,510,551,552,524
590,516,560,563,518
524,515,570,589,515
480,513,566,592,499
439,502,557,595,503
373,487,538,557,505
333,471,528,537,524
369,479,525,545,524
532,503,537,546,500
591,522,561,575,482
624,522,561,603,492
616,523,554,586,493
634,523,546,554,502
613,518,531,548,485
561,504,508,559,465
533,498,497,535,486
518,496,483,532,497
507,507,486,529,502
540,510,493,553,492
546,510,479,598,510
551,518,511,597,531
525,514,517,565,558
547,515,523,593,535
527,506,510,584,523
506,500,504,592,518
509,491,487,592,509
541,506,495,612,489
533,511,496,637,491
489,503,492,625,520
437,488,488,607,543
454,485,500,558,528
471,481,489,568,523
472,479,483,548,528
503,489,496,549,524
495,490,483,576,534
505,494,476,587,528
554,525,504,591,486
508,536,508,585,496
456,520,496,576,483
447,505,485,560,477
481,511,480,520,486
486,494,470,473,516
471,488,494,549,527
562,501,526,587,519
641,514,536,612,504
592,508,531,617,510
585,512,534,591,514
532,511,507,586,530
490,502,497,625,525
470,502,484,586,531
442,517,483,532,500
388,504,444,513,533
423,492,425,496,536
437,485,434,430,541
399,499,462,427,544
490,522,505,544,513
543,517,506,576,517
578,512,490,550,511
618,526,518,580,479
581,527,548,602,463
490,517,579,668,487
397,499,574,770,488
354,492,539,698,530
402,486,499,600,546
430,491,506,573,557
447,497,516,515,569
563,521,541,510,536
497,508,525,505,537
388,491,492,517,556
382,495,496,545,547
347,487,499,555,549
389,490,498,545,548
578,519,509,540,509
635,514,506,537,489
640,511,517,547,493
558,506,526,547,505
466,507,529,561,500
408,507,528,581,500
403,503,519,588,509
409,495,509,564,530
490,507,509,536,532
632,508,497,518,516
596,503,490,491,525
614,519,500,515,515
538,508,496,535,522
536,513,513,555,515
570,528,548,577,486
602,520,528,581,497
611,516,500,535,512
517,501,501,566,497
468,504,516,583,479
439,503,522,588,480
393,495,524,593,495
414,500,518,546,519
553,503,496,514,533
626,523,498,553,506
572,515,500,597,507
430,488,493,588,532
372,486,494,560,542
415,508,522,547,526
490,519,529,501,521
535,509,510,500,544
615,526,511,483,524
584,515,494,526,516
562,514,482,532,504
517,518,494,539,493
517,514,501,520,462
544,506,508,517,474
585,521,535,504,492
552,511,540,588,506
552,512,519,575,497
575,514,511,565,487
498,496,525,577,504
490,496,524,555,515
446,493,491,521,525
456,508,489,521,501
468,501,476,500,514
470,500,464,474,542
480,501,471,480,538
408,516,507,504,544
416,498,506,504,528
398,494,510,537,516
358,490,516,560,531
495,504,507,566,497
658,521,535,583,454
694,531,556,552,449
616,527,525,489,474
548,519,498,457,471
523,507,502,499,502
623,521,538,556,494
644,519,551,517,494
564,505,540,525,513
553,504,538,522,517
590,505,539,503,501
539,502,535,513,524
497,499,519,536,539
488,502,515,590,530
486,499,520,567,514
489,502,514,541,510
503,507,511,530,521
541,518,531,545,499
502,500,516,532,508
500,513,534,579,519
547,522,536,557,510
541,519,566,619,491
525,520,584,653,480
514,510,539,588,479
490,499,519,527,518
492,499,525,512,525
499,502,518,471,530
480,494,516,453,550
480,499,518,495,549
478,498,536,536,530
491,503,553,540,509
482,510,559,537,504
523,516,546,544,494
542,515,529,503,501
525,513,516,463,520
493,507,517,429,533
473,508,505,421,539
509,517,521,494,501
534,515,554,581,471
532,523,574,636,482
546,512,538,594,501
550,509,538,547,505
532,519,551,488,521
495,502,500,453,544
458,487,479,453,557
429,484,464,437,574
380,480,463,429,585
334,485,474,450,558
331,498,488,467,547
335,509,502,483,542
433,524,536,500,521
608,535,582,555,478
705,520,559,536,472
689,516,559,513,481
649,516,552,530,499
610,509,562,566,505
577,518,580,623,494
558,528,571,617,497
503,502,529,557,524
475,492,489,504,525
449,501,478,537,498
424,489,475,570,516
422,492,487,566,540
430,502,514,539,528
456,524,560,533,517
447,507,563,501,519
481,503,550,433,527
466,486,532,434,536
505,489,520,454,532
602,524,544,474,490
621,516,539,460,481
587,517,545,485,482
507,517,552,539,504
448,509,543,635,512
478,499,521,640,509
538,496,509,576,501
576,494,507,546,509
476,472,492,476,531
445,483,530,443,541
417,498,558,466,532
454,513,576,488,538
554,522,567,443,548
605,511,546,405,533
632,519,549,407,503
650,522,532,428,498
621,521,516,483,492
569,527,524,540,491
517,524,530,545,497
472,515,543,587,494
421,509,532,580,493
444,499,518,554,484
473,490,529,542,477
546,503,524,492,488
523,499,517,405,522
532,514,531,402,534
540,512,512,447,551
586,512,508,438,548
569,525,541,532,518
526,522,543,631,501
521,518,510,549,488
521,516,490,543,449
500,494,497,496,478
519,501,509,513,483
526,512,506,463,511
541,524,553,532,534
507,502,527,527,590
516,491,499,502,544
525,502,522,549,487
473,496,512,525,529
502,500,499,500,526
523,498,508,502,528
491,498,548,576,527
477,493,557,562,546
493,511,587,529,532
500,513,567,472,544
450,502,550,450,532
435,497,531,426,513
401,507,537,497,499
348,502,527,541,508
461,513,538,569,493
507,510,541,571,495
537,505,537,532,508
572,528,543,488,497
667,537,561,486,496
619,512,529,491,502
593,495,494,507,502
565,493,489,535,518
537,501,529,539,535
540,503,536,547,528
533,504,494,462,505
522,513,490,437,489
503,520,511,451,483
480,520,540,423,496
473,512,559,462,522
520,499,574,558,481
576,516,578,551,484
511,498,553,478,527
454,491,542,458,522
448,515,569,501,497
473,501,557,470,538
483,485,534,533,573
468,488,495,499,576
406,474,472,451,577
374,482,470,444,568
479,505,494,465,530
512,516,506,498,514
557,522,549,551,490
619,518,544,532,483
588,524,559,523,488
571,519,557,549,488
581,513,562,543,487
512,506,561,496,517
449,501,545,479,532
422,504,544,513,507
446,515,566,538,488
584,534,592,563,469
535,528,570,507,503
477,501,543,476,527
606,511,541,492,495
603,508,528,490,516
535,500,515,476,512
498,505,526,481,508
460,509,531,496,530
425,497,508,444,557
421,493,506,459,594
501,507,518,514,570
515,505,506,457,539
541,502,487,427,495
448,496,457,423,515
437,513,474,569,507
503,520,505,682,442
552,518,496,635,430
542,512,493,591,479
605,518,517,541,484
629,500,476,411,491
604,517,501,387,505
539,520,536,407,506
510,510,534,456,540
551,525,554,482,538
564,508,526,495,519
532,503,526,495,554
528,498,508,459,550
527,500,511,462,530
525,504,528,464,560
512,507,557,475,544
515,505,556,503,500
539,518,567,533,501
537,513,564,598,544
556,522,543,506,515
531,518,535,526,465
525,507,525,528,458
502,488,504,467,506
501,487,502,452,490
513,503,530,529,466
489,518,546,537,503
468,502,486,482,557
508,510,463,463,546
523,514,479,495,514
526,510,495,495,491
500,498,505,485,506
506,507,530,467,487
489,506,567,496,501
517,507,573,476,502
513,501,564,459,530
541,516,568,502,533
546,525,572,568,501
532,513,569,623,504
533,506,568,596,509
514,504,546,525,522
507,502,528,463,518
498,502,516,435,541
485,496,510,472,535
461,494,503,461,534
448,506,517,456,510
443,508,529,520,477
453,509,531,515,470
522,518,531,515,469
515,505,524,490,478
489,506,537,486,493
431,506,539,532,523
396,502,525,537,523
424,496,501,466,517
428,501,512,445,550
555,499,506,393,552
595,510,521,381,516
519,503,532,468,545
525,512,551,562,542
606,524,560,546,531
596,521,539,522,538
555,519,536,510,571
526,507,516,497,574
543,512,509,458,553
557,516,523,515,519
534,497,511,554,472
563,508,513,581,445
556,506,534,616,456
520,505,539,622,475
471,490,508,523,517
488,485,499,475,519
495,510,540,508,504
453,511,543,441,519
486,500,513,425,542
544,504,502,445,560
491,498,510,495,547
486,492,506,463,529
440,487,488,419,536
445,494,486,436,526
408,480,433,442,532
423,498,421,469,504
418,503,433,478,488
422,493,446,509,513
571,503,475,519,491
683,519,536,542,448
675,529,584,567,441
650,547,593,602,473
627,538,570,565,477
594,531,576,556,467
562,515,539,493,474
509,494,484,426,504
447,482,480,409,522
399,486,490,413,563
388,510,513,477,562
398,510,508,518,572
568,506,444,495,553
671,516,448,434,506
628,518,482,456,512
570,518,479,431,529
563,531,530,507,497
544,520,557,496,517
512,500,557,487,561
518,504,575,505,533
555,516,592,499,493
551,526,611,519,477
528,518,588,528,477
562,505,526,567,455
527,493,503,545,473
500,502,521,533,512
487,499,536,515,531
479,500,552,542,524
502,507,570,554,518
477,497,542,494,538
473,488,507,443,553
517,503,531,468,539
519,500,548,494,533
535,507,577,524,500
528,507,577,525,487
533,518,582,512,500
525,515,584,534,495
524,508,565,535,504
520,502,526,505,524
475,496,510,506,525
455,491,498,509,522
404,488,494,500,502
354,489,497,471,545
369,504,510,478,557
537,524,534,549,527
572,518,545,532,520
582,516,532,494,519
557,516,528,501,487
564,516,545,563,448
551,503,540,574,465
583,507,535,558,457
550,518,537,523,472
466,505,533,488,519
377,489,520,489,524
280,489,523,513,522
255,478,493,502,552
366,493,510,559,529
577,513,516,546,509
676,518,513,494,515
632,523,517,389,524
501,496,491,415,537
445,491,464,402,536
476,503,461,401,553
509,512,496,445,530
615,524,534,450,486
675,521,535,466,482
625,504,507,451,513
588,506,518,449,500
569,520,535,498,485
584,533,551,553,467
583,531,553,549,475
587,531,525,523,478
588,509,501,564,481
514,480,447,502,530
441,469,399,466,546
400,489,400,491,537
411,476,390,522,539
479,491,455,529,537
477,492,496,540,517
530,509,544,543,514
545,513,561,533,488
615,529,611,538,451
577,522,615,552,491
535,510,597,519,502
543,501,556,463,524
549,509,570,514,512
525,499,553,554,510
502,496,536,530,533
486,500,515,513,542
469,496,485,510,545
467,496,494,518,531
488,502,498,500,517
537,509,492,475,513
530,508,490,457,517
509,504,493,446,523
512,498,493,417,543
511,518,508,460,521
521,514,509,472,504
531,516,522,441,494
525,528,568,530,485
534,535,598,600,497
517,523,591,593,499
504,506,548,547,533
541,500,541,515,506
516,503,541,515,504
519,506,525,492,524
522,506,510,511,517
503,505,513,527,530
485,496,519,507,540
489,503,520,478,530
441,502,511,464,519
397,485,506,522,540
412,502,509,595,500
514,527,528,595,469
626,530,513,532,470
596,512,500,508,485
553,500,471,403,505
535,505,482,411,514
532,504,522,487,514
529,497,535,567,491
449,484,510,581,497
415,490,514,619,525
415,489,499,572,549
356,470,487,518,565
446,492,480,429,529
545,542,495,401,478
336,516,470,415,549
270,498,456,434,554
454,514,469,494,493
521,496,485,532,476
556,489,507,516,543
695,504,528,456,529
650,513,585,537,495
652,520,580,540,459
662,521,550,504,454
611,515,567,506,501
615,527,593,502,468
605,517,588,558,466
576,514,580,586,481
543,513,573,551,498
517,500,535,528,549
489,496,518,524,550
472,501,511,483,532
464,506,495,428,527
428,485,477,448,525
393,471,473,445,550
424,496,508,481,533
486,513,543,537,519
560,515,561,554,521
595,506,527,494,528
642,519,527,510,494
587,516,531,515,484
565,512,529,512,511
549,519,540,555,503
537,512,533,535,486
526,505,528,549,487
506,504,516,514,512
488,493,494,556,516
530,505,508,576,508
547,507,512,549,496
523,504,522,506,530
514,503,506,427,549
493,505,501,416,530
484,507,504,430,522
496,507,520,448,500
512,510,532,484,496
495,500,524,478,489
490,510,499,462,543
481,513,463,491,534
451,510,446,527,525
475,510,430,573,501
508,517,459,602,489
603,507,467,592,476
615,498,490,554,497
508,492,494,537,528
459,483,490,544,544
485,495,506,497,562
504,510,520,436,529
509,509,487,432,529
517,516,485,475,520
536,528,479,530,496
549,515,468,475,511
529,524,518,478,525
533,523,558,465,504
501,502,528,459,544
444,486,551,502,552
423,478,580,524,533
456,493,594,520,520
527,502,583,512,494
587,514,570,525,495
565,504,572,538,518
487,490,549,532,533
465,493,531,536,526
436,501,527,533,504
413,501,513,505,493
419,496,518,495,502
434,500,529,548,514
515,520,550,557,495
526,519,550,522,502
482,499,539,497,499
572,511,547,463,469
640,529,560,490,433
601,523,565,501,435
551,525,555,479,460
487,509,527,502,541
482,502,522,557,572
464,505,536,582,557
434,491,501,522,584
353,486,489,483,571
399,500,500,478,533
496,511,511,481,527
660,519,515,488,510
696,521,525,493,500
606,523,534,521,458
571,517,536,534,456
563,514,529,520,484
565,525,536,543,477
537,494,519,540,478
537,500,535,560,503
567,514,532,554,524
585,518,518,499,503
536,508,499,480,522
511,499,498,480,527
510,497,506,539,512
505,494,502,513,496
502,497,503,478,476
539,510,499,456,476
499,505,491,428,533
468,502,468,420,586
505,522,487,436,551
520,508,489,464,535
505,505,494,531,521
541,520,541,600,505
526,509,553,577,502
514,501,530,540,507
524,505,509,507,508
504,500,518,492,523
517,505,485,493,522
555,514,473,496,508
565,519,465,552,494
553,512,452,602,480
528,495,456,600,492
494,482,448,622,506
483,498,467,541,513
507,510,492,431,510
496,513,512,384,535
521,515,471,466,510
500,498,451,515,525
495,512,493,550,492
504,509,498,471,514
493,495,497,424,549
529,503,545,456,547
552,507,565,528,526
510,503,578,526,542
517,507,580,527,523
518,507,567,542,526
506,505,557,557,507
491,501,551,519,495
478,506,559,538,493
466,506,560,517,499
444,499,542,475,499
463,501,536,514,511
470,523,563,612,526
428,511,535,498,554
500,514,533,452,514
640,509,538,484,500
582,507,534,459,504
540,506,535,491,469
524,507,537,512,485
558,520,561,539,511
600,531,568,562,493
523,505,530,528,534
506,490,492,498,526
477,495,479,503,513
411,481,467,494,524
405,483,476,478,574
412,491,473,462,560
473,510,501,502,521
596,528,519,496,498
543,526,530,490,531
509,513,533,501,524
526,512,535,501,507
529,503,532,501,538
507,505,539,530,531
498,509,529,527,505
505,512,531,531,492
529,516,532,529,503
588,518,538,529,488
562,508,529,530,491
554,508,518,525,475
542,495,507,535,502
515,491,495,530,524
435,488,478,534,526
430,505,494,590,495
445,521,507,593,468
398,500,470,528,503
459,519,488,470,486
507,526,525,470,494
546,505,512,489,513
660,521,528,489,478
644,524,546,495,482
571,511,536,492,490
553,504,511,476,518
561,511,505,513,524
572,509,493,551,484
567,512,513,537,484
550,516,527,592,509
513,489,473,520,528
519,493,485,480,502
503,498,490,453,545
496,509,506,446,541
497,508,516,521,526
500,508,534,571,509
514,515,526,520,508
516,509,528,505,516
524,508,532,489,531
507,503,533,466,535
513,504,526,477,517
530,505,526,490,511
528,508,517,514,520
541,509,515,519,487
541,524,522,522,479
526,507,508,537,486
518,499,507,533,518
501,492,500,501,545
481,484,502,472,546
479,494,523,478,539
506,508,516,491,528
508,515,518,493,528
513,518,524,494,507
517,515,527,500,495
517,513,521,494,503
520,509,539,524,513
527,506,560,560,504
519,499,547,564,503
533,509,536,527,507
531,516,556,522,511
537,517,541,539,497
521,504,528,531,504
514,498,520,535,512
505,494,507,529,515
491,492,509,507,521
495,506,504,526,496
498,511,507,532,495
506,511,503,503,505
512,511,496,489,525
514,517,511,512,508
514,509,511,508,530
517,504,510,493,531
517,502,514,485,518
524,504,516,526,482
516,501,504,542,483
526,508,532,558,493
542,519,541,548,477
535,520,543,527,481
526,515,530,522,512
508,508,526,520,530
488,500,521,519,526
466,496,508,490,532
433,490,497,499,544
443,493,502,498,547
447,494,483,485,549
493,511,511,500,537
510,517,525,483,542
492,509,518,488,546
567,518,525,499,519
595,519,532,509,506
545,508,537,512,503
547,510,535,525,477
556,513,539,535,467
532,509,535,547,471
517,512,529,540,485
520,507,517,527,493
502,505,516,530,513
481,496,505,522,539
491,500,504,511,530
483,500,499,501,532
520,500,499,498,512
505,503,499,495,510
529,516,508,499,508
528,510,516,505,508
533,507,521,510,510
554,515,520,497,509
549,509,524,506,499
543,511,532,524,500
539,514,544,534,497
538,513,537,534,485
527,511,531,538,493
521,510,529,545,508
522,506,524,540,511
519,505,520,534,526
525,501,506,520,532
506,498,506,512,525
500,492,502,507,519
496,495,512,516,523
492,501,517,502,527
496,501,504,493,524
505,504,494,490,528
497,503,488,483,538
541,519,516,500,509
541,520,524,507,492
532,510,523,521,504
530,507,534,548,496
537,510,542,575,482
536,495,531,567,492
536,495,524,549,483
533,484,512,543,483
512,468,499,527,504
493,467,495,534,529
488,481,478,531,528
501,506,489,524,519
500,509,495,513,528
504,515,479,496,539
512,525,525,500,526
514,515,534,508,520
516,509,513,518,523
522,512,523,536,524
526,501,527,540,499
531,504,523,543,488
534,519,534,551,489
536,523,542,559,496
532,520,532,564,499
520,515,529,566,502
520,511,523,568,512
509,499,505,554,522
500,497,493,541,536
496,497,483,527,542
499,507,490,524,537
499,515,501,522,537
507,521,510,521,520
515,520,508,521,504
515,511,501,533,508
514,507,517,527,510
517,512,543,538,499
529,526,564,546,490
533,520,561,554,484
531,515,534,562,504
529,512,517,563,495
534,514,521,574,484
523,508,518,572,482
513,506,517,564,525
497,499,505,549,547
495,499,500,541,536
496,503,505,539,535
503,507,503,533,526
511,510,505,532,527
512,511,510,533,524
516,512,513,532,515
513,509,514,530,531
516,510,518,533,518
522,508,523,540,505
529,510,525,547,507
530,512,529,556,502
534,512,533,566,498
530,508,526,571,493
527,511,524,573,504
524,507,519,562,496
510,500,507,552,519
497,499,498,544,528
501,501,497,540,535
503,503,498,530,529
502,503,498,529,525
500,507,498,528,514
510,508,509,532,501
514,508,510,530,504
515,509,514,533,504
517,507,516,535,519
524,508,521,541,512
533,510,523,548,508
540,514,526,561,501
539,513,529,565,493
535,512,527,567,515
523,505,517,558,516
517,500,509,553,516
506,495,501,543,515
501,496,491,534,523
506,501,493,530,532
510,501,494,526,523
508,503,496,523,537
506,506,503,524,535
515,509,510,530,513
510,506,510,527,513
508,504,510,523,515
512,505,516,529,512
526,506,520,536,504
540,509,535,544,501
540,509,533,555,480
537,509,533,556,496
533,506,520,557,512
525,502,499,553,509
524,503,507,553,503
511,497,498,546,521
505,500,495,539,515
502,499,489,526,505
511,505,490,524,492
515,504,490,523,499
521,508,500,523,517
517,503,500,515,530
508,499,501,512,515
515,501,512,513,524
524,501,526,523,506
520,503,519,522,511
521,505,527,540,513
532,509,532,567,495
521,504,523,572,482
542,504,512,554,473
532,508,507,556,464
520,504,503,549,475
507,495,482,527,524
503,503,482,528,555
504,501,483,526,545
505,505,488,511,531
494,494,501,494,560
504,502,534,517,548
517,500,532,517,529
522,500,529,519,519
525,505,539,526,515
529,500,535,534,507
530,503,522,541,507
537,506,500,546,503
537,503,494,542,499
528,511,509,546,508
526,516,530,543,505
518,514,526,536,524
502,500,519,519,543
492,501,512,521,540
487,511,513,523,546
489,506,503,515,537
493,512,505,509,533
503,510,505,509,547
515,508,507,513,552
541,508,512,509,504
551,512,519,518,475
542,506,517,517,493
537,502,517,518,493
526,510,530,537,487
524,515,537,551,470
531,507,528,549,472
530,505,516,547,486
520,505,519,546,501
523,505,519,538,496
512,498,502,521,497
509,498,500,517,494
500,498,499,516,519
489,505,506,514,556
497,510,517,511,544
502,513,513,509,526
506,506,516,507,519
511,506,519,512,518
514,503,518,505,505
516,506,522,511,522
522,508,528,521,515
535,513,533,531,507
534,509,534,538,493
528,506,530,541,496
521,506,529,543,509
518,504,526,535,514
515,501,513,529,527
502,496,503,521,534
500,496,503,517,539
502,496,506,512,520
508,503,510,511,497
504,507,506,505,493
511,508,517,513,463
518,509,520,509,457
513,512,517,504,477
510,506,522,503,527
518,508,530,506,546
525,509,536,514,548
530,509,544,526,529
530,509,515,528,537
534,505,527,533,539
533,503,531,542,535
522,497,524,532,533
512,489,509,515,526
496,489,502,511,509
504,497,506,520,498
502,499,509,526,498
513,513,520,530,502
511,510,526,527,496
512,507,528,522,501
505,503,524,509,506
506,509,523,492,526
515,509,527,494,517
523,506,533,503,522
527,508,537,517,517
529,509,543,530,509
534,506,541,540,490
533,507,536,541,469
526,515,531,538,481
523,504,519,538,472
509,504,517,533,498
507,501,512,521,514
517,506,509,508,507
514,506,498,500,510
495,503,494,485,556
494,507,507,481,552
501,507,525,475,559
505,507,542,482,552
512,501,552,490,525
521,503,572,509,520
517,497,559,513,522
516,496,543,518,517
527,500,523,523,493
528,511,523,510,486
525,506,529,517,501
521,499,539,515,526
515,495,502,502,522
506,500,521,500,517
505,512,510,498,523
508,496,496,487,525
502,497,512,482,527
503,509,500,485,525
521,527,520,503,514
524,518,531,508,518
517,507,542,503,519
514,507,548,504,510
516,511,544,508,497
524,512,529,518,510
530,509,525,524,501
538,511,536,537,452
530,508,544,545,469
518,504,533,539,491
528,505,527,533,481
511,495,516,517,501
506,498,514,513,503
499,500,511,504,499
493,506,512,499,508
488,506,514,494,531
496,507,517,492,547
505,505,519,495,540
514,513,527,499,524
514,516,532,499,543
519,508,531,501,533
526,507,533,511,519
534,509,538,515,485
546,510,538,525,440
543,508,537,527,448
529,508,537,528,456
514,506,526,527,474
526,506,529,527,488
510,500,517,515,549
500,500,509,507,588
497,502,508,502,561
492,505,509,505,576
489,505,513,503,551
484,506,521,507,545
498,507,522,512,503
514,509,527,515,477
517,505,524,504,491
528,506,527,497,503
530,506,527,486,509
546,511,535,491,494
541,508,528,496,517
534,506,527,511,512
531,507,530,520,507
511,502,525,518,515
498,500,518,513,520
493,501,509,506,522
502,502,512,510,511
498,502,508,505,510
506,510,514,507,501
505,505,511,498,501
512,508,512,482,514
514,506,523,473,518
519,507,521,477,511
517,504,519,483,496
522,507,525,496,503
519,509,530,501,516
518,511,534,510,532
525,510,537,519,525
531,509,533,522,518
529,506,526,519,522
522,501,519,512,525
519,498,509,500,519
505,499,505,497,521
491,500,503,494,518
501,503,504,492,503
506,505,506,490,487
508,505,513,488,496
507,508,515,490,491
517,511,519,487,494
514,509,521,485,513
513,505,521,487,538
521,506,525,491,514
527,508,527,499,504
533,509,529,508,502
525,506,527,513,489
527,507,530,517,476
522,504,521,513,484
519,505,516,507,512
509,502,509,496,531
494,499,500,484,547
494,501,497,477,543
503,505,505,496,537
512,509,512,494,537
516,508,515,482,524
519,508,517,479,501
509,505,515,482,500
503,504,516,482,491
504,503,517,489,492
520,506,522,494,497
534,512,530,505,494
538,516,533,512,498
527,507,527,504,531
516,507,526,516,546
508,505,520,510,522
507,504,517,504,511
501,499,503,490,511
496,499,499,482,533
498,500,500,477,543
498,506,504,481,545
489,507,505,476,536
507,509,510,475,520
512,510,516,476,524
505,506,523,474,519
517,504,518,475,509
522,506,524,486,500
524,508,526,488,506
527,509,532,494,493
536,516,527,504,469
536,508,514,496,471
526,506,506,496,498
514,505,499,500,512
503,499,490,492,525
498,497,509,484,530
498,501,524,484,529
497,502,517,481,526
500,502,509,476,521
501,512,512,477,522
508,510,522,486,518
511,508,522,482,515
511,508,521,482,518
514,506,526,480,521
520,504,528,481,497
524,509,533,480,495
523,509,531,492,488
522,506,521,496,498
520,507,519,500,507
519,501,518,505,508
519,504,517,504,510
508,498,507,491,523
501,499,504,485,525
497,501,503,479,524
500,505,505,478,524
500,506,508,473,520
505,506,508,476,511
515,509,515,474,521
520,506,515,472,511
516,506,518,474,507
514,505,519,478,506
520,504,524,485,507
526,509,530,498,512
527,511,533,503,520
524,508,529,505,520
520,507,525,506,504
521,505,519,505,500
511,501,513,500,509
500,495,500,487,506
500,498,499,480,523
497,504,503,477,543
499,507,504,478,535
501,506,505,475,528
514,510,515,475,506
517,509,515,477,488
515,506,514,474,493
516,505,516,473,515
517,505,520,481,505
522,507,524,495,495
529,509,529,496,480
531,509,534,502,476
521,505,524,504,512
515,506,527,504,531
513,505,519,503,524
505,499,507,495,517
499,497,501,484,504
503,501,499,482,510
502,503,500,480,517
506,505,502,478,510
509,506,506,476,505
519,508,513,482,507
514,505,513,476,502
511,507,517,478,509
507,506,520,477,520
505,505,521,484,520
514,507,524,492,513
522,505,523,500,481
527,508,530,511,461
521,508,527,514,457
506,503,518,508,492
515,504,510,499,541
518,500,503,492,547
508,500,500,486,537
502,501,498,482,536
506,504,501,482,522
507,506,505,485,518
503,509,507,479,534
491,509,513,479,540
486,505,513,478,510
486,504,515,481,498
505,506,519,485,505
511,504,519,485,525
511,507,523,494,514
529,512,527,510,493
513,507,524,510,506
487,502,519,511,505
500,501,514,516,486
506,501,512,517,506
516,495,499,501,532
557,506,500,495,543
547,510,498,479,524
528,508,504,473,494
522,509,505,477,496
528,512,511,483,506
522,509,514,478,519
521,510,524,478,520
515,506,522,480,530
522,508,524,484,531
522,506,515,493,543
525,508,517,501,510
536,510,525,511,483
532,506,520,512,481
540,508,521,519,466
535,505,513,512,480
528,501,505,505,493
515,498,497,493,507
508,502,497,490,521
509,505,498,488,523
502,504,500,481,525
498,504,504,488,525
502,509,508,486,524
506,508,510,482,516
511,508,510,481,508
514,505,514,483,511
524,507,517,491,511
525,506,518,500,509
523,507,520,509,506
527,509,522,518,496
527,509,525,520,482
522,505,517,517,484
521,507,512,515,495
512,500,502,503,517
506,498,494,495,529
495,500,488,490,536
502,506,493,487,531
499,508,495,482,528
491,511,488,481,523
502,508,490,481,513
510,506,503,477,508
506,507,503,488,513
506,505,513,496,516
511,507,532,498,515
519,509,536,509,504
525,510,540,525,493
532,512,539,533,492
526,509,536,532,499
518,503,523,523,504
509,503,499,513,512
498,496,493,493,522
498,498,497,495,522
502,501,492,493,511
499,504,486,491,515
500,506,497,487,520
505,508,505,489,516
508,509,508,490,519
508,508,509,488,519
513,505,509,488,518
512,505,513,493,512
521,505,515,499,488
530,512,521,511,493
523,510,525,519,509
526,507,519,522,500
530,509,514,522,491
517,501,506,517,495
514,501,505,513,509
499,497,494,504,536
493,504,491,501,547
493,503,493,494,541
499,505,497,493,539
507,508,501,494,510
513,509,506,495,497
514,509,509,493,509
516,507,509,494,506
511,504,510,493,513
517,507,516,501,533
519,507,518,512,513
532,508,521,518,480
539,512,525,528,488
529,510,521,528,504
520,504,511,523,505
518,503,505,521,511
512,495,498,510,498
503,495,489,509,508
497,499,489,500,514
502,501,492,499,501
506,505,496,498,497
509,506,502,498,507
510,507,505,497,520
510,509,506,497,533
511,506,509,494,528
517,504,509,496,519
519,506,516,504,514
521,508,518,515,524
529,511,523,525,506
533,508,520,528,502
533,509,519,531,488
520,502,507,528,481
508,502,504,522,502
500,498,496,513,523
499,496,489,505,533
505,501,491,502,526
499,503,494,501,522
498,505,498,500,520
501,511,502,501,514
512,508,506,502,509
516,506,507,497,509
520,505,511,498,507
523,505,512,503,503
529,505,514,510,508
522,509,519,521,503
525,509,521,528,486
525,506,516,530,489
521,510,514,536,492
513,505,512,532,498
505,502,504,523,523
495,498,494,513,528
489,497,496,503,531
494,502,493,503,529
501,505,495,501,523
503,507,503,501,525
508,513,503,502,523
514,508,507,499,526
516,509,507,498,526
519,506,509,500,511
522,507,513,506,507
521,507,516,514,499
521,512,519,523,492
519,510,525,531,491
521,508,516,532,500
522,506,512,529,510
515,504,508,525,514
501,499,498,516,527
496,500,491,510,525
494,500,492,506,509
493,502,491,502,519
500,507,496,501,530
505,508,500,499,531
512,510,505,503,515
513,508,506,499,505
518,507,506,499,500
517,505,513,500,516
520,507,514,509,506
522,508,517,519,488
528,509,519,524,485
531,512,519,531,500
527,509,518,533,505
522,506,510,529,505
519,505,506,529,513
505,499,494,514,525
504,499,490,505,529
499,501,493,503,526
499,505,497,503,519
496,505,500,498,523
499,509,504,498,530
505,511,506,497,531
510,508,509,493,527
515,507,509,494,517
519,506,511,503,499
522,508,514,511,488
529,510,518,516,482
530,508,517,524,487
529,508,521,527,502
527,509,517,531,502
520,506,508,528,509
509,506,502,522,518
506,500,497,513,543
505,500,491,504,551
499,503,494,502,546
497,507,496,499,526
487,506,498,495,503
500,509,503,497,511
507,511,508,502,511
509,509,508,495,520
513,508,508,493,533
513,504,511,501,517
521,505,513,509,507
532,511,520,520,497
534,508,520,524,485
531,509,518,533,479
520,504,510,525,485
514,510,506,522,495
510,501,500,516,502
505,501,493,508,512
505,504,493,506,519
501,505,494,502,525
502,507,497,499,534
500,509,501,497,537
506,511,505,496,528
507,509,506,494,503
514,509,508,497,474
516,506,511,499,493
520,509,516,507,501
524,510,519,513,514
525,507,517,517,500
528,506,518,524,487
526,508,519,529,496
518,507,517,528,502
513,505,513,529,507
498,498,499,512,517
495,498,487,505,523
497,500,485,500,529
503,506,493,498,533
504,507,497,496,528
508,512,500,495,522
510,509,505,495,514
511,508,506,492,510
511,510,508,494,508
513,507,509,498,511
519,507,514,504,513
524,509,517,513,506
530,511,522,527,501
530,508,519,525,505
527,507,516,527,499
514,505,511,524,509
510,506,508,522,518
498,499,496,510,529
493,499,491,503,521
497,503,494,500,523
500,508,501,498,523
503,508,501,497,523
509,509,505,496,518
513,510,508,494,519
515,508,509,491,514
516,507,511,496,511
519,509,516,505,506
523,509,519,508,505
528,510,522,517,497
530,509,521,523,496
528,507,521,527,504
522,505,515,525,511
515,507,512,527,510
507,500,501,517,522
498,499,496,508,534
496,503,495,503,528
493,504,497,499,517
502,507,499,497,515
505,507,500,492,520
509,510,506,494,512
509,508,509,493,513
507,508,512,493,516
511,506,515,494,514
520,506,516,503,502
528,507,522,513,490
531,510,522,520,484
533,510,522,528,489
531,512,518,529,505
520,506,516,525,517
513,504,508,523,504
495,498,499,510,528
492,499,498,504,546
491,501,495,499,536
499,506,498,497,525
499,510,494,493,506
507,506,498,493,492
511,512,503,493,499
510,507,507,492,500
508,507,517,494,520
517,505,517,499,517
524,506,518,505,503
527,510,522,513,494
529,508,523,520,489
523,508,521,528,502
527,509,520,530,506
521,506,513,524,519
514,502,507,522,520
501,497,495,508,527
497,499,494,503,531
497,502,499,500,524
502,506,498,499,526
503,508,501,493,532
510,509,505,490,534
513,508,507,493,513
518,508,509,492,504
516,510,510,494,509
518,506,517,499,502
518,507,517,506,508
514,509,522,517,503
522,509,524,525,504
526,510,523,530,512
523,507,519,526,514
511,504,511,522,514
505,498,502,515,514
501,497,495,509,517
499,499,494,502,516
504,504,496,501,507
505,506,499,498,518
509,507,503,493,522
506,512,505,494,518
505,509,508,495,515
510,507,511,495,512
518,505,513,497,508
519,505,516,503,501
524,508,517,511,499
529,508,521,519,499
531,510,524,527,499
525,508,521,531,495
521,504,514,529,493
517,502,509,526,493
507,496,497,515,505
497,496,492,505,521
496,505,494,506,527
496,505,501,498,540
500,506,499,494,530
504,507,502,492,515
513,510,508,494,519
513,508,509,493,525
512,506,511,491,524
514,504,512,497,514
523,507,513,506,491
532,508,520,515,489
532,508,523,523,488
536,508,523,526,491
527,508,519,529,499
518,503,513,527,502
513,503,508,525,498
502,498,498,513,508
498,499,494,507,519
498,502,496,503,525
499,507,499,500,534
500,508,501,497,534
499,509,505,496,523
504,508,508,496,507
513,510,509,494,516
515,506,513,496,513
517,507,517,504,510
521,508,519,509,507
528,509,522,518,501
529,508,523,525,495
531,511,521,531,500
526,507,518,529,503
518,505,512,526,511
510,501,504,519,519
499,498,496,509,530
501,503,494,505,527
500,504,496,502,526
501,507,500,500,525
504,509,503,496,523
508,510,507,495,523
510,508,509,494,519
513,507,511,492,513
513,503,513,496,510
519,506,517,506,505
519,506,519,510,508
524,508,521,518,510
534,510,525,528,493
532,509,523,530,487
526,506,515,528,493
520,503,511,532,491
506,501,500,517,531
501,498,495,507,529
503,503,496,502,527
505,504,499,498,523
506,506,502,498,515
505,509,501,494,516
505,509,507,496,531
501,508,511,495,524
507,506,511,494,514
513,506,515,500,511
522,506,518,507,490
527,512,521,515,490
529,509,524,523,496
532,509,523,528,503
525,508,519,529,517
522,504,514,526,527
514,503,514,524,515
504,499,497,515,522
499,498,495,506,524
503,502,496,503,511
506,504,497,500,507
501,505,501,497,519
506,510,506,501,522
508,509,510,497,517
513,509,513,496,518
516,508,514,495,527
518,506,516,499,520
524,506,516,506,507
524,509,521,516,498
528,510,524,529,459
522,506,519,529,488
522,507,519,532,503
515,504,512,527,503
509,502,507,521,506
501,500,497,512,516
500,501,496,507,522
502,505,499,505,522
507,509,502,502,522
508,509,504,499,514
510,511,509,498,520
509,510,511,495,522
509,508,511,495,529
511,505,513,498,521
513,506,518,504,499
520,505,517,511,496
525,507,521,519,494
530,510,524,529,497
524,508,520,531,495
521,505,515,529,505
520,503,511,524,511
506,498,500,516,525
499,498,496,510,527
500,498,495,503,526
499,502,495,499,518
500,504,498,497,515
502,506,503,496,517
508,510,508,497,518
512,508,508,497,521
512,507,511,496,517
513,505,514,499,519
518,505,516,508,505
529,509,524,517,504
533,510,523,524,492
526,507,522,527,492
526,510,521,533,498
516,509,514,528,502
515,506,510,526,501
514,500,502,514,523
506,499,494,505,533
504,501,494,501,534
503,505,500,499,539
503,506,501,496,535
505,510,506,500,510
501,509,510,500,490
502,508,513,497,499
502,507,515,497,504
514,505,516,503,501
517,505,518,510,496
525,509,523,520,491
527,511,524,526,497
524,509,522,530,500
520,509,519,531,501
514,504,512,527,507
512,501,505,522,510
502,498,496,516,528
496,501,498,509,535
499,505,499,503,537
500,507,500,501,530
500,508,502,498,517
505,511,507,499,516
507,510,508,495,516
507,507,511,498,509
510,506,513,499,504
515,507,518,505,510
517,507,518,511,510
522,508,523,520,499
529,511,526,531,494
526,509,522,532,503
523,505,513,529,501
517,503,509,525,513
506,499,501,517,536
494,499,496,512,511
497,502,500,506,514
499,504,496,503,520
501,505,500,501,518
505,507,501,497,499
510,507,506,498,494
514,507,510,496,499
504,506,511,497,526
512,506,517,498,532
519,507,516,507,516
526,510,521,515,510
528,510,524,522,509
525,509,521,525,508
523,508,521,530,511
516,504,514,530,499
516,505,511,529,492
505,499,500,517,514
503,499,496,509,518
502,503,497,506,524
502,506,499,504,521
501,507,501,499,522
505,511,505,499,521
507,508,506,498,513
508,507,510,497,512
513,508,513,498,511
516,507,516,503,506
518,505,518,509,507
523,509,526,518,494
527,510,525,526,489
533,511,522,530,486
526,507,518,532,491
515,504,512,527,513
512,503,509,525,517
499,498,496,514,526
495,498,495,505,525
496,500,494,501,527
500,506,501,504,528
502,509,504,500,530
507,511,508,499,527
507,509,510,497,530
507,507,512,498,529
510,506,512,498,521
516,508,518,504,505
521,504,517,515,484
532,510,522,523,466
535,511,525,529,487
534,510,523,532,490
526,507,517,530,500
523,504,510,525,510
510,499,501,519,518
500,496,494,510,524
498,500,494,505,527
498,504,498,503,529
496,507,504,502,521
500,509,504,501,516
507,510,509,501,516
516,513,511,499,519
516,509,514,500,516
516,510,514,501,511
522,507,517,508,504
525,508,520,515,499
525,508,523,523,497
524,513,524,531,499
523,509,522,535,491
518,504,513,528,499
513,504,510,528,509
503,499,500,518,522
497,499,495,510,530
494,501,495,503,534
500,507,496,502,517
497,505,499,498,520
503,509,505,500,519
509,508,508,497,511
512,506,511,495,514
513,506,514,497,511
517,504,513,502,508
522,506,516,507,505
525,508,521,516,502
526,509,521,526,502
526,508,521,530,496
522,507,519,533,500
514,504,512,531,504
509,502,512,526,501
496,498,497,515,514
498,501,493,508,519
499,503,495,506,520
501,505,499,503,520
499,506,501,499,523
507,510,507,504,520
507,510,510,499,520
505,509,510,497,528
510,508,514,499,536
517,507,515,506,530
526,508,519,510,517
540,513,519,521,490
544,512,525,529,474
532,507,520,532,473
525,507,518,533,473
507,505,510,532,488
496,503,503,527,527
493,498,496,513,522
496,501,496,511,527
497,501,494,501,524
499,506,501,499,530
504,509,505,499,526
510,511,508,501,516
510,509,510,499,514
513,508,513,499,516
515,506,515,502,512
517,507,519,509,516
522,509,525,514,515
526,509,522,523,503
533,509,526,530,498
528,507,519,532,497
523,506,517,531,495
520,505,511,529,501
502,497,499,519,533
495,498,495,511,532
494,502,496,507,519
497,501,497,504,519
500,506,500,500,520
503,508,503,501,508
512,510,509,501,513
509,508,509,498,520
513,507,512,499,511
514,506,514,503,502
518,506,518,510,499
525,507,520,519,494
528,510,525,527,496
527,508,522,531,501
527,507,521,538,496
523,505,514,531,502
520,504,510,527,508
508,498,499,516,518
502,499,497,506,529
499,503,496,505,536
497,504,499,502,534
497,507,501,501,536
500,508,506,500,527
505,507,509,500,517
508,506,513,499,510
515,505,514,498,510
515,505,515,504,513
518,506,519,516,518
526,509,524,523,506
528,509,524,527,506
530,507,526,529,504
530,508,519,533,494
520,504,511,530,514
507,499,504,524,531
501,498,498,517,516
496,501,500,512,511
494,503,498,503,527
497,507,506,502,521
499,508,504,501,513
512,511,510,502,507
509,508,511,503,509
513,508,512,498,512
515,506,514,499,510
523,507,519,506,499
526,508,520,515,495
528,507,522,523,494
530,510,525,532,501
528,509,522,533,503
523,505,516,531,503
517,504,511,528,510
508,499,499,519,524
500,499,496,510,528
502,502,500,506,525
498,504,498,503,523
500,506,504,499,522
503,507,504,500,520
506,508,509,499,517
513,511,507,496,516
516,507,517,497,512
518,507,517,504,507
523,508,520,509,506
526,509,523,518,503
531,509,525,525,502
532,508,522,527,501
532,507,519,530,501
527,507,521,531,507
515,504,513,526,504
502,497,498,515,520
498,497,498,509,524
496,502,497,507,536
496,507,501,501,555
497,506,501,499,532
505,509,507,502,512
506,509,510,500,516
509,508,512,499,500
517,507,513,503,492
518,506,516,506,500
523,506,518,513,499
528,510,522,521,490
530,510,524,532,486
527,509,521,533,495
522,507,519,531,503
515,503,511,526,519
512,501,504,521,519
503,496,495,511,525
504,500,494,506,515
507,506,496,503,520
502,505,499,500,531
505,507,503,505,515
509,510,508,500,515
510,512,511,497,522
515,508,515,498,514
519,507,517,500,512
519,506,520,508,502
517,511,520,516,498
523,509,524,525,492
526,509,525,534,483
524,506,521,535,480
517,503,517,532,497
513,508,511,528,508
501,499,501,518,538
490,498,496,510,558
494,503,498,509,537
496,504,498,505,534
498,505,500,503,514
498,506,502,497,509
506,510,509,498,519
508,508,511,498,529
512,511,512,499,518
518,506,518,500,502
520,506,518,509,498
525,510,523,519,496
526,508,522,527,490
528,510,525,533,495
529,508,520,534,499
520,504,514,530,509
518,503,514,527,515
503,498,502,517,521
499,499,497,508,516
505,503,498,509,513
504,506,501,507,519
502,507,502,501,524
509,513,509,502,519
511,511,511,503,515
511,508,512,499,513
513,507,514,500,510
518,507,517,506,506
523,507,518,512,505
531,513,521,521,501
531,512,526,530,503
526,508,521,531,502
523,511,518,536,500
520,507,513,531,501
515,503,511,525,507
507,502,498,516,520
500,501,497,508,522
500,503,497,509,520
505,507,502,503,514
501,507,503,500,524
505,509,507,499,522
511,508,511,499,514
511,506,511,497,508
513,505,513,500,509
518,506,517,506,508
523,507,523,513,510
525,509,523,523,513
529,510,529,533,502
529,509,522,534,495
525,506,517,531,500
521,506,513,528,516
506,497,500,517,524
498,498,496,511,527
496,504,495,507,531
498,502,499,505,522
502,507,503,504,519
499,510,505,501,519
506,509,510,501,512
506,508,511,497,512
509,506,516,495,508
514,504,516,500,503
522,507,519,508,505
526,511,521,516,505
530,509,524,524,502
527,507,524,534,504
522,508,522,533,513
517,505,519,531,504
512,503,511,526,500
503,499,499,518,509
497,499,492,509,515
497,499,495,505,529
498,507,501,505,543
498,507,502,501,536
500,508,506,500,517
501,507,507,497,506
512,509,510,499,493
513,505,511,498,501
513,506,514,507,504
518,505,517,514,501
526,508,522,520,502
533,512,526,528,494
529,509,522,531,501
524,507,519,533,501
514,503,514,531,504
509,504,510,528,518
495,499,499,516,533
496,501,499,508,538
497,503,496,504,539
506,505,498,504,506
512,507,504,498,518
511,509,508,500,511
516,512,509,500,515
506,509,517,501,520
510,511,513,502,511
518,507,518,508,500
524,506,518,512,495
527,510,523,522,506
530,509,523,530,495
531,509,522,532,496
526,504,516,532,489
520,503,511,529,502
509,499,502,520,520
499,497,496,513,533
499,502,496,511,532
502,504,497,504,523
509,508,501,500,521
506,508,503,499,518
507,512,507,500,509
507,509,510,498,529
509,507,511,497,530
512,505,514,501,512
519,506,517,509,494
527,509,522,516,503
534,511,524,526,490
530,508,522,529,495
530,510,522,534,501
520,505,515,530,509
514,502,510,527,518
502,498,503,518,531
498,500,496,512,524
494,501,495,505,524
496,503,498,503,519
505,506,501,502,516
512,509,509,501,511
512,512,510,500,522
514,509,510,496,526
511,508,513,497,521
508,504,514,505,518
517,507,517,507,514
521,509,521,520,491
525,507,523,530,481
529,510,523,534,492
525,506,519,533,501
517,504,511,529,504
512,502,507,526,506
499,498,498,516,522
499,504,496,511,516
497,505,497,507,518
500,510,498,504,515
503,508,502,501,519
510,510,506,501,517
509,508,508,499,512
513,509,511,502,511
520,509,515,502,511
524,512,517,507,506
521,505,518,511,509
526,513,524,521,508
524,508,523,529,491
526,512,522,535,499
519,507,518,534,502
517,505,510,529,506
512,501,503,522,519
502,503,496,514,523
501,502,495,508,526
500,505,497,506,530
505,511,502,504,524
504,508,504,501,525
503,510,508,501,518
507,508,510,500,516
509,505,510,498,515
511,505,513,500,517
518,506,516,506,509
522,507,520,516,503
529,512,525,526,498
528,509,524,532,498
528,511,523,536,504
523,507,516,531,511
514,506,509,525,519
505,499,500,519,528
503,499,498,509,527
503,507,496,508,530
500,507,499,503,526
499,508,501,501,519
501,510,506,501,522
507,510,508,499,521
507,508,509,495,521
509,504,511,497,519
512,508,513,502,505
520,506,516,509,505
527,510,523,524,506
530,511,525,529,499
526,508,522,532,494
523,509,522,539,491
518,506,514,532,498
511,504,510,528,509
500,498,495,515,523
494,499,495,508,534
495,502,499,504,526
500,507,500,503,523
502,507,501,498,517
505,510,506,500,512
505,508,512,498,511
508,506,510,498,512
512,505,516,500,512
517,510,520,506,514
522,506,522,518,504
526,510,526,522,499
526,510,515,527,500
525,507,519,531,505
523,508,518,533,508
515,505,511,529,510
509,503,507,524,508
501,502,497,514,514
503,500,496,510,518
498,504,497,504,528
499,507,502,502,538
500,507,506,499,536
507,509,513,498,522
513,507,518,496,516
516,508,521,498,520
518,506,509,499,519
523,505,504,506,506
523,507,527,518,497
527,509,533,527,494
526,511,534,532,489
523,509,516,534,499
518,506,505,529,513
512,504,505,527,519
500,498,495,516,525
493,497,490,512,525
491,499,494,505,517
493,503,494,503,511
499,505,499,500,516
510,507,502,498,515
516,510,508,499,522
513,512,509,498,524
516,507,514,504,518
515,508,515,504,520
513,505,521,511,520
519,510,524,522,510
524,510,521,529,506
525,509,527,532,504
527,510,523,536,496
524,505,515,532,502
519,502,505,529,491
503,496,487,513,510
491,496,498,504,527
491,499,494,504,528
498,505,499,504,525
501,506,500,500,515
502,510,504,499,518
505,510,509,498,517
507,508,514,497,518
515,506,512,499,510
520,507,516,509,501
529,509,519,514,491
538,509,521,522,485
545,510,524,530,506
539,510,521,536,516
534,509,518,531,510
524,506,513,529,510
518,502,509,521,513
503,499,498,513,519
496,502,495,508,515
490,501,493,504,519
499,507,497,504,520
506,508,499,502,515
508,508,503,499,506
510,508,506,497,511
509,506,507,500,514
514,506,511,501,512
518,506,515,509,505
526,508,515,515,505
529,508,521,531,492
531,509,522,530,497
525,507,518,533,495
521,505,513,533,502
514,503,507,529,509
503,496,497,518,521
502,498,496,511,527
499,506,493,507,527
498,504,499,502,529
497,507,499,503,529
501,508,502,501,531
507,512,507,500,519
510,509,508,505,517
514,508,510,502,510
518,508,513,505,506
518,508,517,511,503
521,509,521,520,499
525,508,522,529,494
526,508,514,533,508
526,508,516,535,503
520,504,508,528,515
512,501,505,525,527
497,498,495,514,539
493,499,491,509,534
501,502,490,507,518
498,509,492,503,506
502,506,496,502,510
505,507,502,502,507
510,508,505,499,507
510,509,507,501,505
513,508,510,506,502
521,507,512,506,495
521,507,513,513,491
528,507,517,520,489
531,512,523,531,512
522,506,517,531,528
521,509,517,535,517
514,509,509,532,517
509,501,502,526,518
498,498,492,514,511
496,499,491,508,523
497,502,495,503,529
501,507,496,503,520
500,511,497,500,517
511,510,502,503,515
510,509,506,501,516
508,505,507,497,513
512,502,507,499,511
517,506,512,508,499
522,506,514,514,499
528,509,521,526,496
529,509,520,529,492
527,508,516,533,502
523,507,513,532,503
521,505,508,529,501
505,499,497,521,512
497,498,492,514,522
495,501,492,508,528
496,503,493,505,536
503,509,498,504,531
510,510,502,500,523
510,511,505,501,523
511,509,504,499,528
510,503,504,496,521
510,503,507,499,509
516,506,512,510,503
524,508,518,519,496
533,511,520,527,488
531,507,517,530,501
532,508,516,533,510
520,505,509,530,516
510,504,505,532,507
495,496,494,520,505
494,498,489,509,519
498,502,492,507,521
505,506,495,508,517
505,509,497,502,517
510,510,503,503,512
511,512,506,502,531
509,508,507,499,538
512,506,510,497,524
519,505,511,505,509
527,510,517,514,498
530,509,524,522,499
534,513,527,530,505
535,509,526,532,493
535,508,517,536,494
522,505,498,529,500
512,502,497,525,505
492,497,493,514,521
490,500,491,511,532
496,502,490,506,528
499,506,496,503,523
500,507,500,500,522
507,510,514,502,516
511,509,511,504,515
509,511,502,499,521
516,509,505,501,521
520,508,515,508,512
525,509,517,514,515
528,509,519,522,516
533,510,521,529,518
531,510,520,536,495
525,506,514,538,489
523,506,509,532,507
504,498,500,521,515
496,499,492,514,523
491,500,489,507,531
494,507,498,505,537
495,506,498,503,526
500,507,500,500,518
508,509,506,501,509
512,508,507,496,498
512,506,506,503,500
517,504,509,499,505
525,505,515,509,511
530,508,519,520,508
534,509,521,527,502
538,512,522,533,500
531,508,517,537,492
517,504,510,533,499
507,503,511,528,509
503,500,497,516,528
495,498,491,508,536
497,502,494,507,526
500,505,496,504,519
508,506,499,502,515
508,508,503,502,515
510,509,506,501,513
508,507,506,498,514
516,506,508,498,510
519,505,512,504,506
524,508,516,516,504
531,509,520,520,497
528,510,522,529,498
522,508,519,533,498
522,506,516,533,499
514,503,509,529,508
509,500,505,526,507
500,499,498,515,523
498,501,494,509,532
500,503,495,507,534
503,504,497,503,537
503,505,500,500,534
506,512,503,501,525
510,509,507,499,517
510,507,509,501,498
510,506,511,502,492
515,506,514,506,504
519,507,517,514,502
523,508,519,522,513
527,511,523,530,521
530,509,518,533,505
528,506,513,535,492
519,504,509,534,504
507,500,500,523,521
499,499,494,513,526
498,501,492,507,530
500,502,493,502,527
505,507,498,508,520
506,512,501,503,519
513,512,506,501,514
511,509,508,499,518
510,509,510,500,511
515,509,512,502,511
521,508,516,508,514
524,513,517,516,510
525,508,521,525,505
531,510,522,532,502
529,509,519,535,499
522,505,512,531,503
511,505,507,529,512
500,499,498,517,522
495,498,492,510,535
497,502,495,507,532
500,506,496,506,526
500,510,499,504,521
506,510,503,502,518
510,510,506,501,517
510,508,508,498,517
511,507,509,498,516
515,506,512,504,513
521,507,514,511,515
526,511,521,519,514
531,512,525,530,498
527,510,521,534,490
523,508,517,535,494
519,505,511,528,507
509,499,504,526,523
502,498,494,515,527
497,500,491,508,524
500,501,494,505,520
504,505,495,502,523
502,506,499,500,526
509,510,506,499,524
514,514,508,500,525
511,508,510,501,512
512,508,511,502,507
518,510,515,508,508
522,507,518,514,505
528,510,527,522,501
530,510,523,531,498
531,509,515,534,505
523,508,517,535,505
516,506,510,533,510
507,500,502,525,521
