CH1,CH2,CH3,CH4,CH5
518.0,513.0,510.0,510.0,512.0
514.0,509.0,504.0,503.0,515.0
504.0,504.0,499.0,498.0,515.0
500.0,496.0,497.0,501.0,519.0
501.0,499.0,500.0,510.0,520.0
508.0,501.0,510.0,510.0,518.0
512.0,502.0,513.0,516.0,517.0
512.0,506.0,517.0,520.0,517.0
510.0,505.0,522.0,522.0,517.0
515.0,504.0,520.0,523.0,518.0
515.0,503.0,518.0,519.0,520.0
518.0,505.0,518.0,516.0,518.0
518.0,511.0,519.0,516.0,515.0
520.0,508.0,519.0,515.0,512.0
525.0,516.0,524.0,518.0,511.0
527.0,517.0,522.0,519.0,504.0
521.0,514.0,514.0,512.0,507.0
511.0,510.0,508.0,508.0,508.0
509.0,507.0,505.0,502.0,516.0
504.0,503.0,499.0,502.0,515.0
501.0,500.0,498.0,502.0,518.0
500.0,498.0,501.0,508.0,519.0
510.0,502.0,510.0,512.0,519.0
514.0,504.0,517.0,524.0,515.0
516.0,508.0,521.0,525.0,515.0
515.0,506.0,523.0,524.0,516.0
514.0,506.0,522.0,521.0,518.0
511.0,503.0,518.0,514.0,521.0
514.0,503.0,519.0,516.0,521.0
514.0,506.0,519.0,516.0,517.0
515.0,507.0,516.0,514.0,517.0
521.0,515.0,517.0,515.0,510.0
522.0,514.0,518.0,514.0,506.0
524.0,515.0,515.0,512.0,510.0
517.0,510.0,509.0,506.0,511.0
504.0,506.0,503.0,504.0,515.0
499.0,498.0,497.0,498.0,522.0
501.0,500.0,503.0,502.0,520.0
508.0,501.0,504.0,508.0,517.0
508.0,503.0,511.0,514.0,516.0
509.0,504.0,517.0,518.0,516.0
513.0,504.0,521.0,522.0,517.0
515.0,504.0,521.0,523.0,516.0
515.0,507.0,523.0,525.0,517.0
513.0,507.0,519.0,518.0,518.0
516.0,506.0,523.0,518.0,514.0
517.0,508.0,521.0,517.0,513.0
524.0,517.0,523.0,519.0,509.0
524.0,516.0,521.0,518.0,507.0
520.0,515.0,519.0,516.0,510.0
514.0,514.0,513.0,510.0,507.0
509.0,509.0,504.0,505.0,511.0
504.0,509.0,503.0,505.0,513.0
501.0,499.0,500.0,501.0,517.0
498.0,500.0,500.0,498.0,520.0
509.0,499.0,507.0,509.0,521.0
513.0,503.0,517.0,519.0,522.0
515.0,503.0,518.0,523.0,517.0
515.0,503.0,519.0,525.0,514.0
514.0,504.0,523.0,521.0,516.0
513.0,505.0,522.0,517.0,518.0
512.0,505.0,520.0,517.0,517.0
516.0,506.0,517.0,516.0,514.0
520.0,509.0,520.0,516.0,511.0
522.0,511.0,520.0,518.0,508.0
524.0,515.0,521.0,517.0,509.0
519.0,515.0,517.0,514.0,512.0
517.0,513.0,515.0,510.0,509.0
514.0,508.0,506.0,505.0,511.0
506.0,503.0,500.0,503.0,514.0
508.0,502.0,504.0,504.0,513.0
503.0,499.0,505.0,508.0,518.0
502.0,506.0,512.0,515.0,519.0
510.0,502.0,516.0,516.0,516.0
516.0,504.0,521.0,521.0,515.0
517.0,504.0,525.0,524.0,515.0
514.0,503.0,521.0,517.0,511.0
512.0,503.0,519.0,519.0,515.0
509.0,504.0,517.0,517.0,517.0
516.0,508.0,521.0,516.0,517.0
514.0,508.0,518.0,514.0,516.0
521.0,513.0,519.0,516.0,510.0
522.0,516.0,518.0,516.0,507.0
519.0,518.0,512.0,516.0,508.0
510.0,509.0,506.0,507.0,511.0
505.0,505.0,503.0,505.0,516.0
501.0,505.0,496.0,501.0,516.0
504.0,496.0,499.0,502.0,522.0
501.0,499.0,508.0,508.0,515.0
505.0,500.0,510.0,515.0,519.0
513.0,503.0,519.0,523.0,518.0
514.0,505.0,522.0,526.0,516.0
516.0,508.0,521.0,523.0,517.0
517.0,503.0,519.0,518.0,518.0
512.0,504.0,518.0,512.0,515.0
514.0,504.0,517.0,515.0,515.0
516.0,510.0,517.0,516.0,515.0
518.0,511.0,517.0,518.0,511.0
522.0,517.0,518.0,518.0,510.0
517.0,512.0,511.0,509.0,513.0
513.0,512.0,507.0,511.0,514.0
509.0,508.0,508.0,504.0,512.0
502.0,507.0,499.0,501.0,512.0
497.0,498.0,494.0,498.0,517.0
499.0,497.0,497.0,502.0,521.0
505.0,501.0,506.0,509.0,516.0
511.0,502.0,512.0,515.0,514.0
515.0,504.0,519.0,522.0,514.0
509.0,503.0,516.0,521.0,516.0
509.0,503.0,519.0,522.0,517.0
513.0,503.0,519.0,522.0,516.0
517.0,507.0,520.0,521.0,516.0
517.0,507.0,519.0,516.0,520.0
519.0,508.0,518.0,519.0,512.0
520.0,513.0,520.0,516.0,510.0
522.0,518.0,520.0,514.0,509.0
518.0,514.0,513.0,514.0,506.0
518.0,513.0,512.0,508.0,511.0
507.0,507.0,502.0,502.0,514.0
503.0,503.0,499.0,500.0,515.0
499.0,499.0,498.0,501.0,522.0
502.0,500.0,508.0,506.0,519.0
505.0,502.0,512.0,512.0,516.0
508.0,503.0,515.0,522.0,516.0
517.0,506.0,522.0,522.0,514.0
522.0,507.0,523.0,525.0,514.0
515.0,505.0,521.0,523.0,516.0
515.0,504.0,524.0,519.0,517.0
516.0,506.0,521.0,517.0,514.0
519.0,509.0,524.0,516.0,511.0
521.0,511.0,520.0,512.0,509.0
525.0,516.0,521.0,520.0,505.0
524.0,515.0,518.0,516.0,507.0
521.0,515.0,515.0,508.0,510.0
511.0,509.0,508.0,504.0,511.0
504.0,507.0,503.0,505.0,514.0
505.0,504.0,500.0,501.0,518.0
501.0,500.0,499.0,503.0,517.0
503.0,501.0,504.0,508.0,518.0
507.0,504.0,514.0,517.0,516.0
513.0,504.0,518.0,519.0,516.0
519.0,507.0,524.0,523.0,514.0
515.0,506.0,523.0,523.0,515.0
515.0,508.0,523.0,523.0,517.0
511.0,503.0,521.0,518.0,516.0
512.0,504.0,517.0,515.0,515.0
515.0,509.0,519.0,517.0,512.0
519.0,511.0,521.0,519.0,509.0
526.0,515.0,521.0,519.0,508.0
526.0,516.0,519.0,515.0,507.0
523.0,514.0,513.0,510.0,508.0
521.0,510.0,510.0,507.0,514.0
508.0,504.0,502.0,504.0,515.0
506.0,501.0,500.0,507.0,516.0
505.0,500.0,501.0,504.0,519.0
507.0,501.0,510.0,512.0,519.0
512.0,505.0,518.0,521.0,518.0
516.0,507.0,524.0,525.0,517.0
518.0,506.0,525.0,527.0,514.0
517.0,504.0,521.0,522.0,514.0
513.0,501.0,518.0,516.0,520.0
512.0,503.0,518.0,515.0,522.0
516.0,508.0,520.0,519.0,518.0
517.0,509.0,519.0,521.0,517.0
520.0,513.0,517.0,518.0,512.0
522.0,515.0,519.0,516.0,508.0
524.0,517.0,515.0,516.0,506.0
514.0,513.0,510.0,512.0,509.0
509.0,507.0,503.0,500.0,521.0
502.0,504.0,498.0,500.0,518.0
503.0,500.0,500.0,505.0,519.0
506.0,499.0,504.0,508.0,516.0
510.0,502.0,510.0,513.0,516.0
510.0,503.0,518.0,524.0,515.0
515.0,506.0,523.0,524.0,518.0
520.0,509.0,528.0,530.0,515.0
517.0,504.0,522.0,521.0,519.0
517.0,503.0,520.0,518.0,523.0
515.0,505.0,521.0,517.0,518.0
520.0,508.0,520.0,521.0,511.0
522.0,508.0,521.0,520.0,510.0
522.0,514.0,519.0,516.0,509.0
524.0,519.0,521.0,516.0,507.0
520.0,515.0,515.0,515.0,505.0
515.0,512.0,508.0,508.0,509.0
504.0,508.0,504.0,506.0,513.0
500.0,502.0,498.0,502.0,516.0
500.0,500.0,500.0,505.0,521.0
505.0,503.0,509.0,508.0,524.0
508.0,501.0,510.0,517.0,518.0
509.0,503.0,519.0,521.0,517.0
516.0,508.0,527.0,528.0,514.0
518.0,509.0,524.0,524.0,516.0
515.0,505.0,520.0,520.0,518.0
514.0,504.0,519.0,519.0,517.0
516.0,505.0,518.0,516.0,518.0
517.0,506.0,513.0,516.0,515.0
522.0,511.0,520.0,519.0,510.0
522.0,519.0,519.0,518.0,509.0
519.0,517.0,517.0,516.0,509.0
515.0,519.0,513.0,514.0,509.0
506.0,509.0,505.0,505.0,509.0
501.0,506.0,502.0,505.0,516.0
503.0,502.0,500.0,503.0,521.0
499.0,500.0,501.0,508.0,517.0
507.0,496.0,508.0,513.0,519.0
513.0,507.0,519.0,521.0,519.0
521.0,509.0,524.0,529.0,513.0
523.0,508.0,524.0,529.0,511.0
518.0,506.0,523.0,520.0,511.0
509.0,503.0,518.0,516.0,519.0
514.0,504.0,519.0,518.0,516.0
517.0,507.0,517.0,520.0,516.0
517.0,516.0,521.0,519.0,514.0
523.0,516.0,521.0,522.0,511.0
525.0,519.0,521.0,523.0,509.0
525.0,518.0,515.0,515.0,505.0
521.0,514.0,508.0,506.0,509.0
508.0,508.0,503.0,505.0,516.0
507.0,505.0,503.0,503.0,518.0
501.0,501.0,500.0,501.0,518.0
502.0,497.0,501.0,507.0,519.0
505.0,501.0,511.0,516.0,519.0
512.0,506.0,519.0,522.0,519.0
513.0,510.0,521.0,522.0,520.0
514.0,507.0,526.0,524.0,519.0
513.0,505.0,525.0,522.0,519.0
510.0,503.0,518.0,525.0,520.0
511.0,510.0,520.0,520.0,519.0
514.0,508.0,519.0,517.0,516.0
516.0,509.0,519.0,516.0,512.0
522.0,518.0,518.0,516.0,512.0
524.0,516.0,516.0,515.0,509.0
523.0,514.0,514.0,512.0,511.0
520.0,513.0,511.0,507.0,512.0
505.0,507.0,502.0,503.0,512.0
501.0,503.0,499.0,502.0,517.0
501.0,502.0,498.0,504.0,518.0
502.0,503.0,504.0,508.0,519.0
508.0,505.0,514.0,518.0,517.0
513.0,511.0,520.0,523.0,517.0
517.0,511.0,525.0,527.0,513.0
517.0,506.0,523.0,526.0,515.0
512.0,504.0,523.0,521.0,518.0
512.0,506.0,522.0,520.0,517.0
511.0,508.0,520.0,516.0,515.0
522.0,511.0,524.0,517.0,510.0
522.0,514.0,521.0,521.0,508.0
527.0,518.0,523.0,519.0,501.0
527.0,518.0,521.0,516.0,503.0
515.0,512.0,512.0,511.0,510.0
513.0,511.0,506.0,506.0,514.0
505.0,506.0,501.0,500.0,515.0
500.0,501.0,502.0,503.0,520.0
503.0,501.0,501.0,504.0,520.0
506.0,502.0,508.0,515.0,517.0
509.0,503.0,516.0,525.0,518.0
513.0,504.0,521.0,519.0,517.0
519.0,503.0,525.0,525.0,517.0
513.0,506.0,522.0,521.0,522.0
508.0,503.0,516.0,519.0,520.0
513.0,506.0,521.0,522.0,515.0
517.0,507.0,522.0,519.0,513.0
522.0,509.0,520.0,520.0,509.0
519.0,517.0,522.0,520.0,509.0
522.0,517.0,524.0,517.0,506.0
518.0,514.0,516.0,513.0,506.0
513.0,515.0,512.0,514.0,512.0
512.0,508.0,502.0,501.0,515.0
503.0,507.0,502.0,502.0,517.0
499.0,502.0,500.0,505.0,518.0
503.0,501.0,506.0,510.0,520.0
506.0,501.0,510.0,512.0,518.0
508.0,502.0,515.0,517.0,517.0
511.0,507.0,523.0,523.0,516.0
521.0,507.0,526.0,528.0,513.0
519.0,503.0,522.0,521.0,516.0
518.0,504.0,523.0,519.0,517.0
515.0,505.0,520.0,518.0,511.0
516.0,511.0,520.0,518.0,511.0
518.0,510.0,525.0,518.0,513.0
520.0,515.0,521.0,520.0,510.0
520.0,515.0,519.0,516.0,507.0
526.0,515.0,517.0,515.0,504.0
511.0,510.0,507.0,509.0,509.0
514.0,508.0,505.0,509.0,508.0
512.0,502.0,498.0,501.0,518.0
503.0,503.0,503.0,503.0,517.0
504.0,503.0,506.0,508.0,517.0
508.0,503.0,513.0,518.0,517.0
512.0,504.0,517.0,522.0,515.0
515.0,507.0,522.0,524.0,516.0
520.0,503.0,519.0,522.0,514.0
515.0,502.0,519.0,516.0,516.0
512.0,506.0,524.0,520.0,517.0
511.0,506.0,519.0,516.0,515.0
512.0,507.0,518.0,515.0,512.0
516.0,513.0,520.0,525.0,509.0
523.0,517.0,525.0,517.0,509.0
521.0,513.0,517.0,512.0,506.0
515.0,512.0,510.0,513.0,511.0
511.0,509.0,506.0,504.0,515.0
497.0,503.0,502.0,502.0,517.0
500.0,505.0,504.0,504.0,517.0
501.0,501.0,504.0,508.0,517.0
512.0,501.0,509.0,510.0,515.0
516.0,503.0,513.0,519.0,514.0
514.0,504.0,523.0,521.0,513.0
518.0,503.0,526.0,525.0,513.0
512.0,503.0,522.0,521.0,515.0
512.0,498.0,520.0,518.0,515.0
512.0,502.0,517.0,516.0,514.0
510.0,501.0,521.0,517.0,514.0
512.0,504.0,518.0,514.0,510.0
519.0,511.0,523.0,518.0,507.0
515.0,516.0,521.0,521.0,504.0
513.0,513.0,516.0,513.0,505.0
530.0,513.0,511.0,512.0,507.0
525.0,511.0,506.0,506.0,508.0
516.0,503.0,501.0,504.0,513.0
504.0,504.0,497.0,501.0,514.0
506.0,500.0,505.0,507.0,515.0
514.0,504.0,514.0,515.0,515.0
516.0,500.0,523.0,521.0,514.0
512.0,500.0,523.0,524.0,514.0
517.0,500.0,524.0,525.0,514.0
521.0,503.0,525.0,522.0,512.0
515.0,501.0,522.0,518.0,515.0
513.0,507.0,520.0,516.0,513.0
513.0,505.0,519.0,515.0,514.0
513.0,509.0,519.0,515.0,513.0
517.0,517.0,523.0,517.0,512.0
513.0,517.0,521.0,517.0,509.0
515.0,516.0,516.0,512.0,507.0
500.0,510.0,512.0,509.0,512.0
490.0,509.0,506.0,504.0,513.0
496.0,503.0,502.0,499.0,515.0
518.0,508.0,503.0,504.0,512.0
513.0,503.0,507.0,508.0,513.0
516.0,500.0,514.0,514.0,519.0
530.0,508.0,521.0,520.0,519.0
538.0,512.0,525.0,525.0,512.0
528.0,509.0,529.0,525.0,513.0
519.0,507.0,521.0,526.0,515.0
518.0,506.0,521.0,519.0,517.0
515.0,508.0,520.0,517.0,515.0
516.0,516.0,520.0,515.0,516.0
525.0,515.0,521.0,518.0,511.0
530.0,519.0,521.0,519.0,507.0
525.0,517.0,517.0,515.0,508.0
517.0,516.0,511.0,516.0,512.0
516.0,512.0,509.0,506.0,513.0
498.0,497.0,490.0,489.0,522.0
499.0,494.0,488.0,488.0,524.0
491.0,497.0,490.0,493.0,529.0
492.0,496.0,496.0,500.0,522.0
530.0,517.0,537.0,539.0,507.0
536.0,518.0,539.0,544.0,509.0
534.0,516.0,538.0,536.0,507.0
535.0,513.0,531.0,537.0,507.0
531.0,515.0,535.0,534.0,511.0
532.0,517.0,534.0,536.0,509.0
533.0,515.0,533.0,533.0,505.0
540.0,525.0,536.0,535.0,502.0
539.0,526.0,533.0,528.0,499.0
534.0,520.0,527.0,528.0,498.0
530.0,519.0,520.0,522.0,499.0
523.0,514.0,514.0,515.0,505.0
520.0,510.0,508.0,511.0,512.0
511.0,508.0,508.0,514.0,516.0
517.0,510.0,514.0,521.0,515.0
521.0,509.0,520.0,527.0,507.0
520.0,513.0,526.0,530.0,506.0
523.0,510.0,532.0,535.0,504.0
524.0,514.0,538.0,538.0,503.0
523.0,512.0,532.0,538.0,510.0
518.0,509.0,529.0,530.0,514.0
528.0,511.0,528.0,526.0,510.0
537.0,518.0,529.0,526.0,506.0
536.0,519.0,528.0,527.0,505.0
533.0,519.0,527.0,525.0,501.0
534.0,521.0,524.0,521.0,502.0
529.0,518.0,519.0,519.0,504.0
521.0,514.0,511.0,513.0,506.0
516.0,509.0,507.0,510.0,509.0
510.0,505.0,503.0,509.0,513.0
508.0,506.0,509.0,511.0,514.0
511.0,508.0,513.0,517.0,516.0
514.0,506.0,520.0,524.0,512.0
520.0,511.0,529.0,530.0,508.0
522.0,513.0,528.0,531.0,511.0
522.0,509.0,528.0,533.0,513.0
520.0,506.0,526.0,527.0,515.0
517.0,510.0,526.0,525.0,513.0
519.0,511.0,524.0,526.0,509.0
523.0,513.0,523.0,524.0,507.0
527.0,517.0,526.0,525.0,503.0
530.0,519.0,524.0,525.0,500.0
524.0,517.0,520.0,518.0,501.0
519.0,516.0,513.0,513.0,507.0
514.0,510.0,507.0,507.0,511.0
509.0,511.0,503.0,505.0,512.0
504.0,503.0,501.0,504.0,513.0
506.0,502.0,503.0,511.0,516.0
511.0,503.0,511.0,515.0,513.0
516.0,508.0,521.0,524.0,513.0
517.0,511.0,525.0,527.0,513.0
517.0,511.0,527.0,528.0,517.0
516.0,506.0,525.0,524.0,518.0
514.0,503.0,520.0,520.0,518.0
526.0,507.0,523.0,522.0,511.0
522.0,508.0,522.0,521.0,503.0
527.0,513.0,523.0,521.0,502.0
525.0,513.0,520.0,518.0,502.0
524.0,517.0,519.0,515.0,509.0
526.0,518.0,519.0,517.0,502.0
517.0,514.0,512.0,511.0,509.0
507.0,510.0,506.0,504.0,505.0
503.0,505.0,502.0,500.0,513.0
501.0,500.0,504.0,502.0,517.0
499.0,496.0,503.0,506.0,516.0
508.0,503.0,513.0,518.0,518.0
511.0,505.0,521.0,523.0,516.0
516.0,509.0,525.0,526.0,523.0
520.0,507.0,529.0,526.0,514.0
519.0,506.0,524.0,524.0,514.0
517.0,503.0,522.0,521.0,518.0
519.0,506.0,522.0,521.0,514.0
522.0,515.0,524.0,521.0,513.0
526.0,512.0,522.0,519.0,509.0
526.0,516.0,522.0,519.0,505.0
527.0,518.0,519.0,517.0,497.0
525.0,519.0,514.0,513.0,498.0
517.0,510.0,508.0,508.0,500.0
511.0,507.0,504.0,505.0,504.0
506.0,503.0,500.0,502.0,509.0
505.0,501.0,501.0,506.0,518.0
506.0,502.0,509.0,511.0,519.0
512.0,505.0,514.0,514.0,516.0
513.0,506.0,522.0,525.0,515.0
516.0,507.0,526.0,527.0,511.0
517.0,509.0,531.0,529.0,513.0
515.0,506.0,523.0,525.0,511.0
515.0,507.0,523.0,524.0,515.0
511.0,506.0,521.0,518.0,517.0
517.0,507.0,519.0,517.0,509.0
522.0,513.0,520.0,511.0,510.0
526.0,517.0,522.0,522.0,506.0
523.0,515.0,517.0,514.0,508.0
517.0,513.0,510.0,509.0,506.0
514.0,510.0,505.0,505.0,501.0
508.0,506.0,502.0,505.0,504.0
504.0,502.0,499.0,505.0,505.0
504.0,498.0,502.0,506.0,506.0
509.0,501.0,510.0,513.0,517.0
512.0,505.0,518.0,523.0,526.0
515.0,507.0,521.0,522.0,519.0
517.0,510.0,526.0,528.0,518.0
517.0,506.0,523.0,522.0,516.0
514.0,508.0,523.0,521.0,521.0
515.0,505.0,521.0,516.0,517.0
514.0,509.0,520.0,516.0,516.0
518.0,511.0,522.0,515.0,515.0
522.0,516.0,523.0,518.0,509.0
524.0,516.0,518.0,515.0,506.0
526.0,518.0,513.0,513.0,502.0
520.0,513.0,511.0,509.0,506.0
513.0,507.0,503.0,509.0,509.0
502.0,504.0,500.0,499.0,512.0
499.0,506.0,498.0,502.0,515.0
502.0,501.0,504.0,507.0,519.0
506.0,501.0,507.0,512.0,519.0
512.0,504.0,515.0,519.0,523.0
511.0,503.0,515.0,522.0,519.0
514.0,503.0,523.0,519.0,518.0
519.0,506.0,521.0,522.0,515.0
517.0,503.0,517.0,521.0,513.0
515.0,504.0,517.0,520.0,512.0
517.0,507.0,517.0,515.0,514.0
515.0,508.0,516.0,514.0,518.0
523.0,514.0,520.0,520.0,509.0
523.0,517.0,518.0,515.0,507.0
517.0,516.0,510.0,508.0,511.0
516.0,509.0,501.0,501.0,512.0
511.0,505.0,500.0,504.0,513.0
501.0,499.0,496.0,499.0,518.0
498.0,499.0,499.0,502.0,519.0
503.0,499.0,504.0,508.0,519.0
509.0,501.0,513.0,516.0,518.0
514.0,504.0,520.0,521.0,514.0
521.0,506.0,525.0,528.0,515.0
522.0,508.0,526.0,527.0,518.0
518.0,504.0,521.0,523.0,517.0
512.0,506.0,521.0,518.0,519.0
510.0,504.0,518.0,514.0,525.0
512.0,507.0,518.0,516.0,520.0
520.0,511.0,519.0,516.0,512.0
534.0,518.0,520.0,518.0,503.0
530.0,519.0,517.0,515.0,498.0
523.0,515.0,513.0,511.0,504.0
515.0,512.0,506.0,506.0,512.0
510.0,506.0,505.0,502.0,510.0
503.0,501.0,499.0,500.0,515.0
503.0,497.0,500.0,503.0,517.0
506.0,501.0,507.0,515.0,517.0
511.0,504.0,516.0,520.0,516.0
515.0,505.0,522.0,523.0,515.0
521.0,506.0,529.0,529.0,514.0
520.0,508.0,526.0,526.0,514.0
515.0,508.0,524.0,522.0,525.0
513.0,505.0,522.0,520.0,514.0
513.0,506.0,519.0,517.0,513.0
517.0,510.0,520.0,516.0,510.0
519.0,513.0,522.0,515.0,505.0
523.0,517.0,521.0,516.0,503.0
519.0,516.0,516.0,516.0,504.0
517.0,516.0,511.0,509.0,512.0
508.0,509.0,504.0,504.0,511.0
507.0,504.0,504.0,500.0,528.0
499.0,505.0,500.0,502.0,533.0
497.0,499.0,503.0,512.0,525.0
503.0,501.0,516.0,516.0,521.0
513.0,505.0,522.0,520.0,511.0
518.0,506.0,527.0,526.0,508.0
513.0,506.0,522.0,528.0,511.0
512.0,503.0,524.0,524.0,514.0
511.0,504.0,521.0,519.0,515.0
517.0,507.0,522.0,519.0,518.0
516.0,509.0,522.0,520.0,513.0
522.0,510.0,519.0,517.0,508.0
530.0,513.0,523.0,514.0,507.0
526.0,517.0,520.0,515.0,508.0
523.0,512.0,512.0,510.0,510.0
514.0,511.0,505.0,506.0,516.0
502.0,507.0,503.0,507.0,522.0
493.0,496.0,497.0,497.0,529.0
496.0,498.0,498.0,501.0,525.0
498.0,500.0,503.0,505.0,519.0
506.0,505.0,510.0,513.0,511.0
514.0,503.0,515.0,521.0,509.0
514.0,505.0,524.0,524.0,508.0
517.0,501.0,528.0,524.0,504.0
517.0,502.0,519.0,519.0,505.0
509.0,503.0,516.0,514.0,516.0
511.0,504.0,521.0,519.0,512.0
513.0,510.0,523.0,522.0,511.0
518.0,512.0,521.0,517.0,514.0
519.0,517.0,520.0,518.0,509.0
522.0,517.0,518.0,514.0,507.0
519.0,514.0,510.0,506.0,508.0
511.0,509.0,505.0,506.0,507.0
506.0,501.0,502.0,501.0,512.0
499.0,499.0,499.0,500.0,516.0
500.0,500.0,501.0,503.0,516.0
508.0,502.0,510.0,511.0,518.0
511.0,505.0,516.0,519.0,512.0
514.0,504.0,521.0,524.0,512.0
516.0,506.0,526.0,529.0,513.0
516.0,505.0,526.0,525.0,513.0
513.0,504.0,522.0,521.0,518.0
512.0,506.0,523.0,526.0,519.0
520.0,507.0,517.0,517.0,512.0
521.0,511.0,519.0,515.0,514.0
519.0,514.0,520.0,518.0,506.0
528.0,518.0,524.0,517.0,501.0
522.0,521.0,518.0,514.0,501.0
517.0,514.0,511.0,510.0,505.0
510.0,508.0,504.0,506.0,514.0
503.0,502.0,501.0,500.0,523.0
497.0,498.0,498.0,498.0,524.0
501.0,496.0,504.0,504.0,516.0
504.0,503.0,511.0,514.0,517.0
506.0,501.0,518.0,518.0,517.0
512.0,504.0,519.0,523.0,519.0
518.0,504.0,524.0,525.0,512.0
517.0,510.0,524.0,523.0,512.0
515.0,502.0,515.0,518.0,516.0
515.0,505.0,521.0,521.0,511.0
522.0,510.0,525.0,519.0,506.0
522.0,510.0,520.0,519.0,513.0
528.0,513.0,520.0,518.0,509.0
522.0,521.0,520.0,517.0,511.0
514.0,518.0,513.0,512.0,507.0
512.0,514.0,507.0,507.0,509.0
508.0,507.0,501.0,504.0,510.0
502.0,500.0,497.0,500.0,516.0
499.0,500.0,499.0,500.0,524.0
501.0,500.0,505.0,511.0,521.0
506.0,502.0,513.0,516.0,521.0
510.0,502.0,518.0,521.0,521.0
514.0,504.0,522.0,525.0,523.0
518.0,505.0,528.0,524.0,515.0
512.0,503.0,521.0,518.0,517.0
515.0,503.0,519.0,519.0,517.0
513.0,508.0,518.0,522.0,515.0
518.0,508.0,519.0,518.0,514.0
524.0,509.0,519.0,519.0,509.0
522.0,514.0,523.0,518.0,505.0
518.0,514.0,513.0,516.0,508.0
512.0,511.0,510.0,507.0,512.0
505.0,506.0,502.0,503.0,513.0
497.0,502.0,499.0,502.0,522.0
493.0,497.0,495.0,499.0,519.0
507.0,498.0,501.0,505.0,517.0
506.0,500.0,505.0,510.0,518.0
510.0,500.0,512.0,516.0,517.0
513.0,502.0,517.0,521.0,515.0
517.0,508.0,526.0,529.0,515.0
516.0,504.0,525.0,526.0,517.0
510.0,506.0,523.0,522.0,522.0
513.0,503.0,521.0,514.0,519.0
515.0,505.0,518.0,515.0,518.0
516.0,509.0,519.0,517.0,517.0
523.0,518.0,520.0,519.0,510.0
525.0,518.0,519.0,518.0,507.0
528.0,515.0,516.0,516.0,507.0
518.0,510.0,509.0,509.0,508.0
511.0,511.0,504.0,507.0,515.0
506.0,505.0,500.0,504.0,512.0
503.0,501.0,499.0,504.0,517.0
502.0,499.0,501.0,510.0,519.0
509.0,503.0,511.0,516.0,514.0
512.0,507.0,517.0,526.0,507.0
511.0,503.0,519.0,526.0,518.0
517.0,504.0,525.0,525.0,520.0
518.0,506.0,521.0,524.0,517.0
516.0,506.0,522.0,523.0,521.0
512.0,504.0,519.0,519.0,521.0
512.0,508.0,518.0,515.0,518.0
514.0,513.0,523.0,517.0,518.0
523.0,516.0,518.0,512.0,507.0
524.0,518.0,520.0,516.0,510.0
517.0,515.0,514.0,513.0,507.0
512.0,513.0,508.0,507.0,510.0
507.0,506.0,502.0,503.0,516.0
502.0,506.0,498.0,500.0,521.0
503.0,505.0,500.0,504.0,514.0
510.0,502.0,505.0,508.0,511.0
518.0,504.0,515.0,518.0,508.0
516.0,505.0,518.0,521.0,515.0
518.0,507.0,522.0,525.0,516.0
520.0,503.0,523.0,525.0,523.0
511.0,504.0,522.0,522.0,531.0
510.0,503.0,520.0,521.0,523.0
516.0,505.0,513.0,518.0,517.0
515.0,512.0,519.0,516.0,516.0
522.0,512.0,520.0,518.0,510.0
529.0,517.0,520.0,518.0,508.0
524.0,516.0,515.0,516.0,509.0
520.0,513.0,512.0,508.0,509.0
516.0,511.0,509.0,504.0,511.0
505.0,505.0,500.0,504.0,513.0
500.0,505.0,498.0,503.0,518.0
501.0,497.0,498.0,501.0,521.0
499.0,496.0,505.0,510.0,515.0
510.0,502.0,515.0,521.0,515.0
519.0,507.0,522.0,527.0,513.0
519.0,505.0,526.0,528.0,518.0
513.0,506.0,522.0,523.0,520.0
514.0,501.0,521.0,516.0,519.0
514.0,503.0,524.0,519.0,511.0
517.0,506.0,519.0,517.0,506.0
516.0,511.0,520.0,516.0,502.0
518.0,510.0,519.0,514.0,507.0
524.0,515.0,519.0,514.0,523.0
515.0,513.0,512.0,508.0,523.0
514.0,511.0,506.0,505.0,517.0
513.0,507.0,501.0,502.0,516.0
505.0,502.0,496.0,497.0,517.0
500.0,499.0,495.0,497.0,520.0
499.0,498.0,500.0,502.0,522.0
506.0,503.0,509.0,512.0,520.0
507.0,505.0,518.0,520.0,522.0
507.0,502.0,519.0,521.0,517.0
509.0,504.0,527.0,524.0,519.0
509.0,503.0,522.0,523.0,513.0
512.0,508.0,521.0,521.0,514.0
515.0,505.0,520.0,523.0,512.0
514.0,511.0,524.0,521.0,515.0
515.0,508.0,518.0,516.0,512.0
518.0,512.0,519.0,514.0,506.0
531.0,518.0,521.0,515.0,507.0
521.0,516.0,514.0,513.0,503.0
512.0,511.0,507.0,508.0,512.0
506.0,506.0,504.0,505.0,513.0
504.0,502.0,501.0,501.0,516.0
502.0,502.0,498.0,504.0,517.0
501.0,499.0,503.0,507.0,518.0
507.0,501.0,511.0,518.0,516.0
512.0,504.0,518.0,523.0,514.0
517.0,505.0,528.0,526.0,520.0
516.0,504.0,524.0,524.0,515.0
516.0,505.0,525.0,521.0,517.0
516.0,506.0,521.0,519.0,520.0
508.0,506.0,519.0,522.0,517.0
515.0,505.0,518.0,515.0,518.0
528.0,513.0,520.0,523.0,516.0
522.0,515.0,521.0,518.0,515.0
523.0,520.0,517.0,515.0,508.0
517.0,516.0,512.0,515.0,504.0
514.0,510.0,505.0,509.0,501.0
508.0,505.0,501.0,503.0,509.0
502.0,503.0,497.0,502.0,516.0
499.0,500.0,502.0,504.0,517.0
503.0,501.0,506.0,509.0,518.0
507.0,503.0,516.0,517.0,516.0
511.0,504.0,519.0,522.0,513.0
514.0,509.0,523.0,528.0,510.0
515.0,507.0,526.0,527.0,510.0
514.0,505.0,521.0,523.0,512.0
515.0,506.0,522.0,525.0,514.0
516.0,507.0,520.0,521.0,514.0
518.0,509.0,520.0,519.0,514.0
523.0,513.0,518.0,515.0,510.0
525.0,520.0,523.0,520.0,508.0
521.0,516.0,516.0,514.0,508.0
519.0,514.0,511.0,512.0,507.0
512.0,509.0,504.0,504.0,513.0
505.0,504.0,500.0,500.0,515.0
502.0,500.0,496.0,499.0,520.0
505.0,501.0,502.0,505.0,520.0
507.0,501.0,510.0,512.0,522.0
513.0,502.0,518.0,521.0,509.0
515.0,510.0,522.0,526.0,510.0
515.0,506.0,521.0,525.0,512.0
513.0,505.0,521.0,523.0,510.0
503.0,502.0,517.0,517.0,514.0
504.0,502.0,516.0,516.0,521.0
514.0,507.0,511.0,513.0,524.0
520.0,512.0,518.0,514.0,515.0
523.0,516.0,522.0,518.0,508.0
526.0,521.0,518.0,516.0,505.0
525.0,516.0,511.0,511.0,507.0
516.0,512.0,505.0,504.0,511.0
506.0,503.0,503.0,502.0,513.0
503.0,504.0,498.0,501.0,516.0
504.0,500.0,498.0,501.0,522.0
504.0,499.0,500.0,503.0,522.0
502.0,498.0,506.0,509.0,524.0
512.0,504.0,517.0,522.0,518.0
515.0,505.0,523.0,525.0,525.0
516.0,507.0,524.0,528.0,518.0
518.0,508.0,521.0,528.0,514.0
516.0,500.0,521.0,521.0,516.0
522.0,505.0,518.0,514.0,514.0
523.0,508.0,520.0,518.0,512.0
522.0,512.0,519.0,516.0,516.0
522.0,512.0,521.0,519.0,505.0
516.0,517.0,520.0,518.0,502.0
511.0,514.0,512.0,511.0,499.0
508.0,510.0,509.0,507.0,500.0
501.0,506.0,504.0,502.0,502.0
497.0,501.0,492.0,497.0,516.0
495.0,500.0,499.0,503.0,518.0
503.0,502.0,508.0,509.0,531.0
514.0,504.0,515.0,517.0,547.0
515.0,505.0,520.0,526.0,527.0
516.0,504.0,526.0,527.0,495.0
517.0,504.0,524.0,526.0,502.0
525.0,504.0,519.0,520.0,506.0
525.0,500.0,519.0,521.0,502.0
522.0,511.0,519.0,520.0,503.0
518.0,509.0,521.0,519.0,508.0
523.0,512.0,521.0,517.0,504.0
515.0,514.0,521.0,517.0,500.0
517.0,516.0,516.0,517.0,503.0
514.0,511.0,508.0,509.0,508.0
509.0,504.0,500.0,502.0,509.0
510.0,505.0,498.0,507.0,510.0
508.0,504.0,502.0,505.0,514.0
508.0,506.0,504.0,508.0,522.0
518.0,503.0,509.0,511.0,517.0
524.0,504.0,516.0,515.0,521.0
527.0,508.0,522.0,520.0,529.0
528.0,508.0,522.0,520.0,516.0
523.0,505.0,522.0,522.0,515.0
513.0,505.0,520.0,518.0,509.0
505.0,502.0,519.0,517.0,515.0
501.0,506.0,521.0,515.0,519.0
510.0,509.0,517.0,515.0,508.0
517.0,513.0,519.0,516.0,502.0
525.0,520.0,519.0,517.0,498.0
522.0,519.0,516.0,515.0,501.0
514.0,511.0,508.0,512.0,505.0
502.0,509.0,499.0,501.0,508.0
498.0,501.0,495.0,497.0,519.0
499.0,501.0,498.0,495.0,524.0
506.0,502.0,503.0,505.0,520.0
509.0,504.0,512.0,514.0,518.0
514.0,504.0,514.0,521.0,518.0
518.0,508.0,526.0,524.0,522.0
514.0,503.0,522.0,522.0,518.0
510.0,501.0,518.0,519.0,523.0
509.0,500.0,521.0,516.0,527.0
512.0,499.0,518.0,516.0,523.0
517.0,507.0,519.0,517.0,508.0
521.0,510.0,516.0,515.0,510.0
523.0,514.0,517.0,519.0,505.0
521.0,518.0,518.0,516.0,497.0
516.0,514.0,512.0,511.0,506.0
511.0,511.0,506.0,507.0,506.0
503.0,505.0,498.0,499.0,511.0
496.0,498.0,496.0,498.0,516.0
495.0,498.0,497.0,503.0,521.0
504.0,501.0,505.0,509.0,517.0
510.0,502.0,514.0,516.0,517.0
519.0,509.0,519.0,521.0,516.0
518.0,505.0,524.0,525.0,517.0
521.0,508.0,524.0,525.0,522.0
518.0,504.0,520.0,521.0,522.0
517.0,506.0,523.0,520.0,522.0
518.0,508.0,520.0,517.0,522.0
521.0,511.0,519.0,517.0,521.0
522.0,514.0,523.0,519.0,509.0
525.0,519.0,519.0,517.0,505.0
524.0,518.0,518.0,512.0,509.0
516.0,515.0,512.0,509.0,508.0
508.0,507.0,503.0,504.0,502.0
504.0,505.0,500.0,502.0,510.0
506.0,500.0,498.0,501.0,517.0
499.0,499.0,501.0,505.0,527.0
508.0,502.0,507.0,508.0,543.0
521.0,510.0,518.0,519.0,539.0
526.0,508.0,522.0,523.0,522.0
523.0,506.0,523.0,524.0,515.0
513.0,506.0,523.0,526.0,517.0
515.0,505.0,524.0,523.0,514.0
508.0,502.0,520.0,521.0,518.0
499.0,507.0,521.0,518.0,521.0
503.0,511.0,520.0,518.0,526.0
514.0,514.0,520.0,520.0,522.0
533.0,516.0,519.0,515.0,517.0
524.0,512.0,513.0,509.0,517.0
520.0,514.0,508.0,508.0,520.0
517.0,507.0,501.0,501.0,517.0
504.0,502.0,498.0,499.0,525.0
495.0,499.0,500.0,502.0,520.0
501.0,497.0,502.0,508.0,508.0
506.0,500.0,510.0,515.0,498.0
509.0,499.0,520.0,524.0,493.0
512.0,503.0,520.0,527.0,497.0
514.0,504.0,523.0,527.0,503.0
516.0,504.0,524.0,522.0,510.0
514.0,503.0,521.0,519.0,510.0
519.0,508.0,522.0,520.0,516.0
513.0,511.0,521.0,516.0,530.0
508.0,508.0,519.0,515.0,533.0
510.0,517.0,520.0,518.0,520.0
507.0,514.0,516.0,516.0,516.0
503.0,513.0,513.0,515.0,502.0
496.0,509.0,506.0,507.0,507.0
495.0,505.0,504.0,502.0,517.0
488.0,498.0,501.0,501.0,518.0
491.0,498.0,501.0,510.0,510.0
501.0,502.0,508.0,509.0,520.0
513.0,500.0,511.0,512.0,520.0
540.0,507.0,518.0,517.0,509.0
549.0,508.0,522.0,522.0,515.0
535.0,505.0,521.0,518.0,529.0
524.0,502.0,517.0,513.0,535.0
528.0,506.0,520.0,518.0,530.0
529.0,507.0,521.0,518.0,522.0
525.0,513.0,519.0,516.0,514.0
523.0,509.0,518.0,510.0,498.0
520.0,513.0,518.0,514.0,488.0
519.0,513.0,518.0,510.0,503.0
516.0,510.0,509.0,508.0,508.0
511.0,508.0,504.0,504.0,512.0
504.0,501.0,498.0,498.0,525.0
502.0,501.0,499.0,500.0,528.0
504.0,502.0,500.0,503.0,527.0
512.0,504.0,513.0,512.0,524.0
512.0,504.0,520.0,522.0,527.0
516.0,507.0,524.0,524.0,527.0
518.0,511.0,532.0,528.0,522.0
517.0,509.0,526.0,523.0,521.0
510.0,504.0,520.0,517.0,529.0
514.0,505.0,522.0,519.0,529.0
515.0,508.0,522.0,518.0,519.0
517.0,510.0,522.0,516.0,522.0
521.0,513.0,520.0,517.0,522.0
513.0,513.0,518.0,511.0,520.0
509.0,515.0,516.0,514.0,519.0
501.0,513.0,509.0,505.0,529.0
496.0,508.0,509.0,503.0,530.0
506.0,505.0,502.0,502.0,523.0
510.0,500.0,498.0,503.0,517.0
516.0,506.0,504.0,509.0,510.0
517.0,501.0,510.0,514.0,501.0
520.0,502.0,518.0,518.0,507.0
517.0,505.0,521.0,525.0,497.0
518.0,503.0,523.0,525.0,501.0
526.0,502.0,520.0,520.0,505.0
524.0,504.0,523.0,517.0,517.0
524.0,506.0,519.0,519.0,525.0
523.0,508.0,519.0,515.0,538.0
526.0,511.0,519.0,516.0,525.0
526.0,516.0,525.0,520.0,517.0
519.0,515.0,518.0,516.0,510.0
523.0,518.0,513.0,512.0,493.0
518.0,515.0,508.0,509.0,497.0
507.0,506.0,507.0,505.0,502.0
496.0,502.0,499.0,501.0,506.0
497.0,499.0,500.0,505.0,517.0
499.0,498.0,505.0,509.0,526.0
497.0,500.0,510.0,518.0,501.0
511.0,503.0,521.0,519.0,512.0
514.0,507.0,525.0,525.0,519.0
519.0,506.0,528.0,523.0,510.0
516.0,505.0,524.0,523.0,511.0
513.0,502.0,522.0,520.0,497.0
517.0,504.0,524.0,516.0,490.0
523.0,509.0,523.0,515.0,497.0
523.0,514.0,522.0,524.0,507.0
521.0,518.0,521.0,518.0,542.0
522.0,518.0,517.0,514.0,537.0
523.0,515.0,512.0,511.0,525.0
519.0,510.0,508.0,504.0,523.0
508.0,507.0,500.0,500.0,517.0
496.0,503.0,497.0,497.0,515.0
492.0,495.0,497.0,503.0,500.0
497.0,495.0,505.0,507.0,520.0
504.0,505.0,519.0,520.0,527.0
498.0,502.0,521.0,521.0,549.0
506.0,505.0,524.0,523.0,550.0
509.0,503.0,522.0,523.0,534.0
508.0,500.0,518.0,518.0,520.0
514.0,504.0,519.0,516.0,503.0
516.0,507.0,521.0,516.0,502.0
521.0,507.0,516.0,513.0,508.0
525.0,511.0,517.0,511.0,511.0
524.0,516.0,517.0,510.0,514.0
524.0,516.0,514.0,509.0,523.0
520.0,512.0,509.0,506.0,529.0
515.0,509.0,506.0,502.0,524.0
513.0,502.0,499.0,500.0,513.0
502.0,498.0,500.0,501.0,512.0
499.0,497.0,502.0,504.0,522.0
511.0,499.0,511.0,516.0,522.0
506.0,503.0,520.0,525.0,512.0
503.0,502.0,524.0,527.0,509.0
511.0,507.0,524.0,529.0,511.0
524.0,508.0,524.0,524.0,516.0
505.0,507.0,524.0,522.0,513.0
496.0,509.0,524.0,521.0,509.0
493.0,509.0,522.0,519.0,503.0
492.0,509.0,519.0,507.0,535.0
489.0,514.0,525.0,516.0,520.0
498.0,512.0,518.0,514.0,521.0
524.0,512.0,511.0,509.0,501.0
528.0,507.0,504.0,505.0,478.0
522.0,502.0,498.0,499.0,459.0
530.0,504.0,499.0,507.0,456.0
523.0,504.0,507.0,507.0,516.0
526.0,503.0,508.0,513.0,537.0
520.0,509.0,515.0,519.0,549.0
523.0,506.0,521.0,522.0,546.0
525.0,509.0,520.0,518.0,514.0
520.0,502.0,523.0,518.0,497.0
519.0,501.0,517.0,517.0,499.0
518.0,506.0,516.0,518.0,504.0
519.0,504.0,515.0,517.0,503.0
529.0,509.0,518.0,518.0,499.0
534.0,511.0,518.0,519.0,496.0
524.0,516.0,524.0,519.0,494.0
517.0,518.0,517.0,515.0,485.0
516.0,515.0,513.0,515.0,480.0
510.0,508.0,505.0,510.0,491.0
506.0,507.0,503.0,509.0,505.0
502.0,502.0,502.0,502.0,516.0
495.0,499.0,505.0,505.0,528.0
493.0,500.0,505.0,509.0,529.0
509.0,503.0,515.0,519.0,528.0
511.0,507.0,521.0,524.0,528.0
505.0,504.0,522.0,526.0,521.0
503.0,509.0,524.0,526.0,519.0
517.0,505.0,521.0,525.0,517.0
515.0,505.0,520.0,522.0,526.0
512.0,505.0,516.0,515.0,521.0
515.0,509.0,519.0,516.0,502.0
524.0,514.0,526.0,518.0,491.0
520.0,515.0,524.0,514.0,517.0
521.0,513.0,513.0,512.0,525.0
534.0,516.0,515.0,513.0,511.0
510.0,512.0,504.0,507.0,531.0
492.0,501.0,497.0,501.0,538.0
501.0,495.0,493.0,499.0,511.0
514.0,498.0,497.0,504.0,488.0
513.0,507.0,507.0,511.0,490.0
511.0,504.0,513.0,519.0,498.0
529.0,503.0,524.0,525.0,505.0
524.0,505.0,521.0,518.0,535.0
516.0,505.0,520.0,515.0,550.0
517.0,502.0,518.0,514.0,512.0
505.0,507.0,519.0,514.0,500.0
499.0,502.0,516.0,512.0,494.0
502.0,506.0,518.0,515.0,481.0
531.0,518.0,521.0,517.0,477.0
523.0,515.0,516.0,516.0,534.0
523.0,514.0,510.0,508.0,532.0
518.0,509.0,504.0,507.0,516.0
506.0,503.0,503.0,504.0,496.0
506.0,502.0,498.0,499.0,511.0
507.0,500.0,499.0,500.0,516.0
508.0,500.0,507.0,508.0,504.0
506.0,504.0,513.0,520.0,492.0
509.0,501.0,518.0,517.0,498.0
507.0,501.0,521.0,521.0,504.0
511.0,505.0,523.0,519.0,507.0
499.0,505.0,527.0,520.0,522.0
506.0,503.0,521.0,516.0,521.0
507.0,507.0,522.0,519.0,522.0
505.0,507.0,522.0,516.0,553.0
514.0,514.0,526.0,522.0,558.0
518.0,517.0,525.0,526.0,527.0
507.0,513.0,517.0,522.0,524.0
488.0,507.0,510.0,511.0,501.0
489.0,504.0,503.0,504.0,484.0
490.0,505.0,502.0,500.0,528.0
506.0,501.0,495.0,494.0,520.0
497.0,497.0,498.0,493.0,503.0
519.0,500.0,505.0,509.0,507.0
530.0,509.0,516.0,521.0,521.0
523.0,508.0,523.0,526.0,532.0
521.0,508.0,526.0,528.0,531.0
517.0,503.0,522.0,525.0,523.0
514.0,501.0,518.0,512.0,551.0
522.0,507.0,522.0,519.0,544.0
507.0,508.0,519.0,519.0,529.0
498.0,512.0,523.0,518.0,563.0
510.0,520.0,530.0,524.0,563.0
528.0,517.0,521.0,521.0,521.0
517.0,511.0,511.0,511.0,477.0
506.0,508.0,506.0,505.0,495.0
514.0,506.0,502.0,494.0,478.0
490.0,504.0,500.0,497.0,506.0
465.0,497.0,499.0,498.0,535.0
473.0,497.0,503.0,505.0,524.0
444.0,493.0,508.0,512.0,540.0
457.0,495.0,510.0,515.0,498.0
504.0,503.0,522.0,539.0,444.0
543.0,505.0,525.0,533.0,497.0
547.0,505.0,526.0,537.0,469.0
552.0,501.0,524.0,532.0,518.0
549.0,509.0,522.0,521.0,532.0
545.0,510.0,522.0,515.0,504.0
526.0,514.0,526.0,510.0,521.0
506.0,519.0,525.0,513.0,543.0
508.0,523.0,520.0,511.0,519.0
493.0,508.0,505.0,504.0,543.0
489.0,505.0,502.0,501.0,514.0
499.0,506.0,505.0,504.0,473.0
496.0,488.0,488.0,485.0,506.0
456.0,485.0,486.0,486.0,512.0
472.0,493.0,497.0,499.0,544.0
505.0,500.0,512.0,517.0,567.0
491.0,502.0,517.0,523.0,534.0
502.0,497.0,517.0,522.0,498.0
532.0,502.0,520.0,530.0,472.0
526.0,500.0,518.0,525.0,442.0
500.0,499.0,515.0,514.0,503.0
527.0,505.0,515.0,507.0,536.0
540.0,513.0,524.0,522.0,538.0
546.0,520.0,525.0,527.0,499.0
543.0,523.0,525.0,529.0,483.0
540.0,524.0,520.0,524.0,472.0
553.0,522.0,515.0,525.0,475.0
540.0,515.0,516.0,514.0,487.0
513.0,513.0,507.0,504.0,530.0
493.0,509.0,502.0,495.0,593.0
480.0,501.0,496.0,491.0,574.0
470.0,492.0,501.0,505.0,550.0
489.0,496.0,509.0,508.0,554.0
520.0,502.0,516.0,515.0,494.0
530.0,506.0,523.0,525.0,495.0
537.0,504.0,523.0,519.0,520.0
496.0,501.0,518.0,508.0,553.0
491.0,505.0,521.0,517.0,525.0
493.0,506.0,522.0,524.0,513.0
476.0,510.0,521.0,521.0,516.0
487.0,509.0,522.0,524.0,489.0
535.0,511.0,520.0,523.0,463.0
554.0,514.0,515.0,517.0,462.0
541.0,512.0,508.0,507.0,492.0
504.0,499.0,494.0,491.0,500.0
485.0,499.0,500.0,492.0,579.0
474.0,500.0,501.0,501.0,584.0
462.0,505.0,501.0,510.0,549.0
420.0,498.0,507.0,506.0,527.0
459.0,506.0,519.0,519.0,501.0
530.0,515.0,526.0,527.0,485.0
568.0,523.0,537.0,550.0,494.0
549.0,512.0,530.0,537.0,565.0
480.0,501.0,519.0,530.0,572.0
465.0,500.0,517.0,544.0,474.0
446.0,491.0,514.0,526.0,451.0
443.0,496.0,515.0,518.0,511.0
468.0,501.0,518.0,523.0,592.0
475.0,510.0,520.0,520.0,540.0
529.0,514.0,517.0,520.0,452.0
568.0,519.0,516.0,532.0,404.0
560.0,510.0,508.0,523.0,443.0
526.0,506.0,501.0,490.0,578.0
521.0,503.0,501.0,472.0,648.0
488.0,505.0,507.0,488.0,692.0
503.0,509.0,516.0,516.0,658.0
503.0,503.0,518.0,543.0,519.0
476.0,497.0,525.0,550.0,468.0
429.0,483.0,513.0,534.0,387.0
423.0,476.0,506.0,517.0,399.0
477.0,487.0,507.0,486.0,484.0
550.0,506.0,510.0,486.0,506.0
576.0,513.0,518.0,506.0,482.0
557.0,521.0,524.0,529.0,455.0
540.0,524.0,525.0,534.0,451.0
559.0,529.0,520.0,519.0,504.0
572.0,530.0,518.0,501.0,567.0
594.0,525.0,512.0,488.0,646.0
564.0,517.0,503.0,489.0,739.0
559.0,512.0,503.0,500.0,788.0
501.0,509.0,505.0,520.0,667.0
423.0,477.0,493.0,512.0,438.0
402.0,465.0,493.0,505.0,317.0
466.0,501.0,525.0,530.0,314.0
447.0,501.0,525.0,522.0,409.0
472.0,502.0,527.0,516.0,431.0
553.0,509.0,527.0,529.0,459.0
513.0,502.0,519.0,539.0,450.0
464.0,497.0,519.0,536.0,508.0
454.0,497.0,512.0,531.0,552.0
464.0,515.0,518.0,511.0,622.0
562.0,528.0,523.0,498.0,619.0
601.0,527.0,519.0,500.0,523.0
516.0,497.0,499.0,484.0,580.0
453.0,489.0,492.0,481.0,550.0
417.0,489.0,495.0,502.0,483.0
506.0,503.0,498.0,521.0,479.0
574.0,515.0,512.0,532.0,495.0
585.0,519.0,522.0,544.0,525.0
559.0,514.0,523.0,538.0,577.0
518.0,503.0,518.0,530.0,585.0
469.0,495.0,515.0,508.0,535.0
478.0,508.0,529.0,526.0,427.0
505.0,518.0,526.0,513.0,530.0
532.0,513.0,522.0,494.0,518.0
563.0,512.0,518.0,497.0,445.0
533.0,516.0,518.0,514.0,446.0
511.0,519.0,518.0,510.0,521.0
481.0,499.0,502.0,504.0,469.0
475.0,499.0,504.0,512.0,445.0
446.0,492.0,500.0,498.0,542.0
428.0,501.0,504.0,499.0,545.0
437.0,499.0,498.0,506.0,511.0
471.0,491.0,491.0,497.0,476.0
527.0,501.0,500.0,506.0,529.0
550.0,512.0,518.0,529.0,551.0
539.0,500.0,518.0,525.0,589.0
464.0,490.0,513.0,517.0,582.0
474.0,502.0,520.0,513.0,540.0
522.0,514.0,526.0,524.0,446.0
525.0,512.0,524.0,527.0,463.0
454.0,496.0,515.0,515.0,455.0
485.0,499.0,512.0,504.0,460.0
477.0,506.0,520.0,523.0,506.0
431.0,510.0,527.0,536.0,522.0
461.0,509.0,512.0,517.0,508.0
533.0,517.0,507.0,504.0,489.0
594.0,519.0,509.0,493.0,540.0
618.0,527.0,509.0,505.0,611.0
497.0,493.0,493.0,503.0,522.0
474.0,488.0,499.0,521.0,392.0
493.0,503.0,509.0,531.0,504.0
510.0,520.0,523.0,541.0,517.0
547.0,521.0,525.0,516.0,626.0
501.0,489.0,512.0,507.0,470.0
516.0,489.0,506.0,498.0,528.0
507.0,497.0,515.0,512.0,578.0
473.0,495.0,509.0,499.0,528.0
514.0,512.0,523.0,522.0,477.0
537.0,525.0,529.0,519.0,513.0
488.0,513.0,520.0,506.0,501.0
413.0,500.0,510.0,506.0,555.0
431.0,505.0,509.0,506.0,495.0
417.0,508.0,511.0,510.0,523.0
420.0,487.0,496.0,506.0,530.0
524.0,487.0,485.0,495.0,471.0
564.0,493.0,489.0,494.0,408.0
545.0,491.0,492.0,492.0,590.0
502.0,501.0,502.0,496.0,688.0
509.0,506.0,511.0,522.0,550.0
499.0,508.0,524.0,538.0,401.0
488.0,504.0,521.0,521.0,440.0
478.0,494.0,510.0,509.0,501.0
490.0,499.0,520.0,521.0,516.0
529.0,506.0,520.0,507.0,550.0
556.0,529.0,531.0,511.0,561.0
585.0,531.0,525.0,509.0,548.0
654.0,540.0,526.0,514.0,466.0
633.0,531.0,523.0,531.0,425.0
573.0,516.0,508.0,506.0,514.0
585.0,522.0,513.0,509.0,474.0
545.0,512.0,501.0,511.0,462.0
462.0,500.0,499.0,514.0,467.0
446.0,498.0,505.0,516.0,543.0
490.0,503.0,512.0,516.0,607.0
566.0,508.0,516.0,513.0,623.0
531.0,505.0,517.0,511.0,543.0
468.0,490.0,512.0,500.0,597.0
409.0,485.0,513.0,504.0,525.0
441.0,482.0,504.0,506.0,504.0
554.0,505.0,515.0,514.0,470.0
577.0,515.0,519.0,518.0,454.0
541.0,521.0,525.0,525.0,460.0
540.0,507.0,516.0,523.0,520.0
553.0,507.0,510.0,511.0,465.0
580.0,516.0,510.0,516.0,500.0
497.0,510.0,507.0,493.0,607.0
425.0,508.0,507.0,503.0,542.0
380.0,506.0,504.0,503.0,464.0
491.0,505.0,500.0,500.0,494.0
657.0,504.0,501.0,517.0,467.0
583.0,489.0,502.0,515.0,486.0
444.0,489.0,506.0,516.0,487.0
444.0,493.0,505.0,511.0,573.0
487.0,508.0,517.0,515.0,630.0
539.0,518.0,526.0,538.0,568.0
591.0,521.0,526.0,546.0,433.0
538.0,508.0,516.0,520.0,533.0
516.0,511.0,522.0,530.0,484.0
516.0,515.0,522.0,506.0,630.0
556.0,530.0,531.0,523.0,531.0
573.0,523.0,527.0,522.0,432.0
578.0,510.0,517.0,539.0,334.0
560.0,513.0,513.0,529.0,327.0
508.0,518.0,514.0,504.0,472.0
515.0,516.0,507.0,498.0,659.0
541.0,514.0,504.0,507.0,714.0
482.0,487.0,489.0,484.0,599.0
392.0,480.0,498.0,483.0,503.0
477.0,498.0,510.0,493.0,505.0
556.0,505.0,516.0,509.0,434.0
547.0,508.0,520.0,516.0,465.0
513.0,496.0,517.0,522.0,479.0
476.0,489.0,511.0,518.0,522.0
431.0,479.0,509.0,517.0,433.0
389.0,478.0,502.0,508.0,500.0
467.0,489.0,505.0,507.0,482.0
437.0,512.0,518.0,521.0,603.0
520.0,524.0,517.0,515.0,580.0
596.0,526.0,506.0,500.0,531.0
637.0,528.0,519.0,520.0,502.0
547.0,517.0,510.0,525.0,523.0
428.0,497.0,497.0,507.0,470.0
490.0,491.0,493.0,504.0,436.0
601.0,507.0,501.0,509.0,470.0
625.0,521.0,513.0,500.0,574.0
568.0,516.0,519.0,503.0,655.0
528.0,505.0,522.0,522.0,628.0
503.0,506.0,527.0,533.0,580.0
510.0,505.0,518.0,512.0,441.0
557.0,512.0,522.0,516.0,460.0
550.0,503.0,516.0,511.0,504.0
451.0,489.0,510.0,508.0,501.0
382.0,487.0,507.0,500.0,497.0
443.0,502.0,510.0,512.0,453.0
573.0,531.0,524.0,517.0,471.0
531.0,531.0,522.0,517.0,551.0
571.0,537.0,522.0,520.0,560.0
584.0,522.0,507.0,511.0,509.0
551.0,502.0,499.0,516.0,496.0
480.0,469.0,485.0,503.0,511.0
391.0,464.0,489.0,499.0,549.0
448.0,485.0,506.0,510.0,588.0
469.0,497.0,517.0,518.0,586.0
403.0,504.0,526.0,529.0,498.0
489.0,525.0,533.0,538.0,484.0
539.0,499.0,501.0,490.0,518.0
597.0,497.0,507.0,500.0,477.0
549.0,521.0,533.0,525.0,476.0
478.0,509.0,523.0,525.0,542.0
486.0,514.0,519.0,510.0,594.0
668.0,549.0,531.0,518.0,509.0
686.0,557.0,538.0,539.0,523.0
604.0,526.0,520.0,531.0,454.0
433.0,486.0,500.0,500.0,504.0
475.0,486.0,490.0,491.0,454.0
548.0,486.0,487.0,481.0,491.0
436.0,473.0,485.0,488.0,509.0
446.0,497.0,506.0,513.0,457.0
488.0,505.0,514.0,521.0,504.0
527.0,508.0,521.0,518.0,522.0
587.0,520.0,527.0,529.0,506.0
621.0,526.0,526.0,521.0,523.0
568.0,514.0,519.0,503.0,543.0
551.0,514.0,522.0,507.0,584.0
536.0,516.0,523.0,525.0,594.0
531.0,519.0,525.0,536.0,524.0
553.0,522.0,525.0,530.0,556.0
552.0,521.0,521.0,520.0,438.0
570.0,519.0,516.0,533.0,463.0
517.0,488.0,500.0,523.0,474.0
410.0,484.0,503.0,509.0,554.0
402.0,487.0,498.0,494.0,509.0
476.0,509.0,514.0,525.0,475.0
489.0,518.0,518.0,525.0,477.0
446.0,492.0,509.0,511.0,495.0
426.0,481.0,499.0,484.0,603.0
386.0,485.0,512.0,502.0,537.0
522.0,502.0,521.0,521.0,507.0
640.0,530.0,532.0,532.0,430.0
619.0,509.0,508.0,501.0,456.0
460.0,492.0,504.0,499.0,567.0
489.0,507.0,516.0,516.0,511.0
523.0,510.0,517.0,517.0,553.0
562.0,520.0,523.0,549.0,452.0
545.0,519.0,518.0,547.0,411.0
538.0,499.0,501.0,497.0,507.0
561.0,508.0,503.0,476.0,588.0
531.0,510.0,507.0,485.0,560.0
502.0,507.0,500.0,491.0,501.0
504.0,520.0,516.0,523.0,459.0
562.0,520.0,520.0,534.0,471.0
560.0,501.0,521.0,536.0,508.0
558.0,485.0,510.0,515.0,550.0
479.0,492.0,515.0,509.0,561.0
435.0,500.0,517.0,518.0,567.0
484.0,505.0,513.0,505.0,602.0
578.0,529.0,527.0,513.0,536.0
611.0,538.0,540.0,538.0,526.0
548.0,524.0,526.0,524.0,563.0
540.0,517.0,519.0,508.0,551.0
587.0,527.0,528.0,522.0,511.0
525.0,517.0,524.0,514.0,532.0
459.0,504.0,513.0,519.0,507.0
478.0,499.0,502.0,507.0,471.0
471.0,486.0,487.0,483.0,376.0
498.0,487.0,491.0,488.0,445.0
560.0,507.0,497.0,500.0,571.0
545.0,495.0,500.0,496.0,591.0
532.0,499.0,512.0,505.0,525.0
470.0,507.0,518.0,525.0,513.0
426.0,508.0,531.0,536.0,540.0
506.0,515.0,533.0,547.0,486.0
454.0,504.0,525.0,534.0,591.0
414.0,491.0,514.0,506.0,693.0
422.0,499.0,517.0,511.0,575.0
522.0,512.0,527.0,541.0,486.0
563.0,503.0,513.0,517.0,402.0
648.0,518.0,515.0,510.0,393.0
583.0,514.0,514.0,507.0,441.0
518.0,512.0,519.0,513.0,422.0
421.0,495.0,511.0,514.0,467.0
412.0,495.0,501.0,522.0,453.0
497.0,500.0,493.0,500.0,521.0
510.0,506.0,505.0,502.0,583.0
591.0,530.0,525.0,528.0,577.0
570.0,522.0,530.0,551.0,466.0
573.0,499.0,516.0,514.0,450.0
513.0,495.0,517.0,508.0,470.0
479.0,500.0,521.0,502.0,609.0
496.0,503.0,517.0,518.0,597.0
518.0,492.0,506.0,497.0,581.0
530.0,503.0,509.0,489.0,566.0
485.0,501.0,514.0,511.0,530.0
525.0,504.0,515.0,519.0,507.0
627.0,534.0,525.0,532.0,450.0
568.0,534.0,521.0,521.0,550.0
569.0,527.0,517.0,503.0,550.0
490.0,508.0,505.0,497.0,556.0
380.0,479.0,482.0,476.0,498.0
436.0,491.0,495.0,503.0,445.0
537.0,504.0,503.0,522.0,457.0
559.0,504.0,515.0,536.0,419.0
542.0,505.0,520.0,531.0,446.0
556.0,510.0,520.0,511.0,505.0
527.0,511.0,524.0,514.0,523.0
504.0,500.0,519.0,531.0,525.0
458.0,492.0,515.0,529.0,484.0
462.0,494.0,516.0,520.0,539.0
457.0,500.0,519.0,517.0,536.0
458.0,498.0,511.0,503.0,567.0
553.0,525.0,520.0,507.0,534.0
568.0,530.0,515.0,498.0,547.0
571.0,525.0,515.0,500.0,503.0
567.0,511.0,502.0,502.0,504.0
475.0,506.0,504.0,508.0,523.0
446.0,500.0,497.0,497.0,534.0
547.0,513.0,506.0,512.0,468.0
543.0,508.0,512.0,523.0,549.0
498.0,496.0,510.0,517.0,579.0
518.0,499.0,516.0,526.0,578.0
530.0,509.0,524.0,524.0,509.0
504.0,522.0,532.0,523.0,466.0
532.0,513.0,525.0,508.0,521.0
547.0,511.0,525.0,512.0,542.0
517.0,507.0,522.0,515.0,566.0
470.0,522.0,535.0,540.0,525.0
496.0,517.0,522.0,526.0,479.0
550.0,498.0,506.0,516.0,407.0
584.0,509.0,509.0,510.0,433.0
502.0,511.0,515.0,515.0,497.0
440.0,505.0,509.0,500.0,604.0
440.0,495.0,498.0,492.0,651.0
501.0,504.0,502.0,504.0,640.0
569.0,506.0,505.0,524.0,474.0
504.0,492.0,505.0,509.0,487.0
533.0,506.0,512.0,516.0,509.0
514.0,513.0,520.0,519.0,452.0
507.0,502.0,515.0,514.0,457.0
490.0,497.0,514.0,510.0,519.0
546.0,505.0,524.0,517.0,516.0
555.0,510.0,519.0,509.0,567.0
535.0,505.0,516.0,523.0,499.0
505.0,511.0,520.0,517.0,461.0
501.0,522.0,532.0,529.0,479.0
484.0,521.0,523.0,520.0,530.0
461.0,495.0,509.0,510.0,502.0
454.0,483.0,502.0,503.0,508.0
406.0,479.0,493.0,490.0,551.0
431.0,492.0,498.0,498.0,586.0
561.0,511.0,504.0,503.0,542.0
557.0,509.0,506.0,506.0,469.0
486.0,508.0,514.0,516.0,553.0
456.0,516.0,527.0,524.0,617.0
600.0,535.0,538.0,534.0,582.0
617.0,523.0,529.0,539.0,508.0
608.0,511.0,519.0,526.0,481.0
507.0,513.0,526.0,527.0,510.0
484.0,512.0,530.0,553.0,536.0
530.0,507.0,521.0,543.0,512.0
544.0,504.0,509.0,526.0,390.0
518.0,506.0,508.0,490.0,452.0
564.0,516.0,511.0,493.0,438.0
499.0,496.0,502.0,496.0,497.0
429.0,492.0,500.0,497.0,565.0
444.0,506.0,508.0,510.0,534.0
424.0,483.0,493.0,493.0,528.0
479.0,487.0,492.0,499.0,500.0
602.0,504.0,502.0,509.0,543.0
631.0,525.0,517.0,526.0,616.0
580.0,505.0,513.0,533.0,460.0
516.0,495.0,511.0,522.0,473.0
487.0,493.0,516.0,516.0,492.0
495.0,499.0,521.0,511.0,486.0
461.0,492.0,514.0,511.0,494.0
512.0,508.0,518.0,507.0,528.0
588.0,542.0,542.0,536.0,493.0
496.0,537.0,539.0,535.0,497.0
460.0,506.0,516.0,512.0,490.0
540.0,521.0,516.0,514.0,433.0
539.0,527.0,517.0,514.0,482.0
563.0,520.0,509.0,505.0,495.0
567.0,511.0,500.0,501.0,465.0
548.0,499.0,495.0,499.0,580.0
545.0,510.0,519.0,514.0,648.0
454.0,496.0,516.0,532.0,659.0
389.0,477.0,509.0,517.0,605.0
314.0,464.0,498.0,485.0,545.0
560.0,510.0,519.0,520.0,418.0
610.0,512.0,522.0,508.0,473.0
527.0,509.0,518.0,503.0,522.0
532.0,527.0,534.0,523.0,529.0
504.0,527.0,532.0,520.0,497.0
585.0,538.0,533.0,537.0,449.0
604.0,535.0,538.0,546.0,485.0
584.0,518.0,522.0,521.0,483.0
552.0,498.0,501.0,503.0,489.0
504.0,493.0,501.0,503.0,426.0
418.0,484.0,490.0,484.0,521.0
460.0,488.0,491.0,485.0,508.0
530.0,510.0,508.0,510.0,497.0
445.0,489.0,504.0,501.0,566.0
447.0,491.0,501.0,502.0,579.0
530.0,512.0,518.0,528.0,486.0
557.0,509.0,519.0,513.0,497.0
607.0,519.0,528.0,525.0,490.0
526.0,512.0,525.0,519.0,560.0
520.0,518.0,529.0,524.0,619.0
526.0,515.0,523.0,520.0,515.0
488.0,516.0,523.0,521.0,497.0
465.0,508.0,520.0,516.0,508.0
503.0,514.0,518.0,531.0,486.0
510.0,506.0,517.0,542.0,454.0
508.0,505.0,511.0,523.0,445.0
504.0,508.0,498.0,484.0,480.0
465.0,509.0,505.0,492.0,512.0
489.0,503.0,499.0,498.0,519.0
520.0,505.0,505.0,503.0,536.0
609.0,507.0,505.0,509.0,526.0
586.0,517.0,517.0,514.0,640.0
567.0,518.0,525.0,535.0,584.0
559.0,510.0,523.0,531.0,519.0
475.0,491.0,515.0,509.0,540.0
430.0,481.0,508.0,515.0,449.0
442.0,494.0,514.0,511.0,479.0
515.0,513.0,523.0,512.0,483.0
534.0,523.0,525.0,504.0,546.0
476.0,507.0,521.0,517.0,578.0
464.0,496.0,506.0,514.0,574.0
461.0,495.0,501.0,489.0,494.0
543.0,527.0,517.0,516.0,404.0
546.0,528.0,519.0,522.0,512.0
538.0,513.0,509.0,519.0,516.0
540.0,504.0,498.0,507.0,530.0
545.0,503.0,499.0,504.0,468.0
542.0,510.0,518.0,517.0,489.0
529.0,504.0,520.0,519.0,528.0
459.0,488.0,515.0,523.0,627.0
455.0,485.0,509.0,523.0,532.0
479.0,493.0,515.0,525.0,466.0
480.0,503.0,517.0,516.0,466.0
538.0,513.0,526.0,508.0,517.0
554.0,511.0,525.0,512.0,514.0
486.0,498.0,513.0,499.0,551.0
499.0,502.0,519.0,516.0,598.0
548.0,502.0,513.0,519.0,562.0
492.0,494.0,503.0,502.0,442.0
447.0,502.0,507.0,510.0,451.0
605.0,547.0,521.0,515.0,482.0
581.0,534.0,515.0,504.0,491.0
543.0,510.0,504.0,505.0,461.0
534.0,502.0,504.0,508.0,475.0
554.0,497.0,502.0,505.0,491.0
491.0,503.0,521.0,525.0,506.0
443.0,489.0,523.0,536.0,449.0
385.0,481.0,514.0,520.0,528.0
418.0,494.0,517.0,514.0,522.0
520.0,503.0,515.0,495.0,532.0
543.0,502.0,519.0,514.0,501.0
521.0,512.0,524.0,514.0,552.0
587.0,523.0,527.0,514.0,548.0
600.0,526.0,524.0,519.0,489.0
595.0,526.0,525.0,524.0,522.0
501.0,523.0,518.0,529.0,540.0
452.0,521.0,517.0,535.0,531.0
497.0,516.0,516.0,534.0,532.0
461.0,492.0,503.0,515.0,642.0
476.0,479.0,491.0,482.0,634.0
370.0,464.0,490.0,492.0,514.0
426.0,488.0,505.0,500.0,443.0
612.0,520.0,521.0,514.0,443.0
651.0,528.0,533.0,532.0,452.0
560.0,507.0,523.0,516.0,510.0
484.0,495.0,519.0,510.0,540.0
400.0,487.0,512.0,508.0,544.0
464.0,506.0,518.0,513.0,502.0
610.0,535.0,530.0,529.0,445.0
566.0,514.0,517.0,511.0,505.0
523.0,517.0,520.0,517.0,538.0
529.0,513.0,516.0,516.0,490.0
547.0,505.0,511.0,512.0,472.0
527.0,507.0,504.0,503.0,491.0
458.0,502.0,506.0,513.0,494.0
561.0,512.0,505.0,501.0,503.0
525.0,503.0,495.0,493.0,479.0
538.0,509.0,507.0,506.0,462.0
525.0,524.0,532.0,535.0,534.0
492.0,519.0,533.0,535.0,574.0
500.0,505.0,527.0,523.0,590.0
444.0,479.0,512.0,512.0,520.0
534.0,489.0,506.0,516.0,516.0
524.0,496.0,513.0,508.0,557.0
548.0,512.0,520.0,516.0,524.0
534.0,511.0,513.0,507.0,516.0
478.0,514.0,520.0,516.0,551.0
519.0,521.0,523.0,523.0,601.0
574.0,518.0,515.0,510.0,501.0
467.0,510.0,508.0,507.0,468.0
521.0,507.0,500.0,492.0,507.0
542.0,518.0,501.0,501.0,525.0
555.0,502.0,499.0,501.0,467.0
532.0,490.0,499.0,510.0,433.0
498.0,491.0,507.0,515.0,428.0
501.0,502.0,515.0,518.0,490.0
503.0,501.0,516.0,521.0,508.0
473.0,499.0,518.0,518.0,549.0
500.0,501.0,518.0,513.0,529.0
565.0,511.0,524.0,526.0,476.0
549.0,506.0,519.0,519.0,514.0
549.0,512.0,515.0,513.0,499.0
551.0,525.0,525.0,510.0,515.0
544.0,527.0,529.0,517.0,527.0
512.0,521.0,525.0,524.0,532.0
503.0,508.0,514.0,520.0,494.0
481.0,509.0,512.0,517.0,521.0
458.0,510.0,513.0,504.0,567.0
502.0,509.0,506.0,515.0,556.0
446.0,483.0,499.0,518.0,491.0
471.0,482.0,499.0,523.0,516.0
460.0,479.0,500.0,503.0,560.0
457.0,492.0,510.0,515.0,480.0
481.0,498.0,521.0,530.0,435.0
502.0,500.0,513.0,499.0,499.0
516.0,510.0,518.0,490.0,567.0
607.0,530.0,530.0,515.0,509.0
533.0,523.0,529.0,521.0,508.0
459.0,508.0,529.0,530.0,489.0
526.0,517.0,526.0,520.0,548.0
537.0,508.0,521.0,498.0,567.0
518.0,510.0,511.0,501.0,488.0
551.0,513.0,511.0,502.0,488.0
558.0,519.0,513.0,507.0,531.0
532.0,517.0,509.0,513.0,553.0
497.0,495.0,493.0,489.0,595.0
523.0,482.0,494.0,492.0,555.0
492.0,490.0,498.0,499.0,496.0
471.0,499.0,509.0,509.0,450.0
563.0,514.0,521.0,518.0,454.0
527.0,511.0,527.0,531.0,541.0
506.0,519.0,536.0,544.0,583.0
547.0,523.0,532.0,538.0,596.0
484.0,492.0,517.0,523.0,549.0
536.0,514.0,521.0,524.0,521.0
522.0,517.0,525.0,521.0,478.0
525.0,514.0,524.0,525.0,507.0
505.0,505.0,510.0,501.0,500.0
480.0,514.0,516.0,514.0,387.0
482.0,511.0,511.0,502.0,464.0
489.0,520.0,512.0,498.0,537.0
507.0,522.0,514.0,510.0,513.0
525.0,504.0,511.0,515.0,537.0
540.0,495.0,504.0,507.0,544.0
546.0,507.0,505.0,498.0,487.0
552.0,510.0,514.0,526.0,410.0
507.0,496.0,513.0,528.0,490.0
508.0,499.0,517.0,510.0,552.0
527.0,499.0,519.0,529.0,492.0
505.0,498.0,517.0,525.0,521.0
468.0,494.0,511.0,517.0,508.0
467.0,491.0,511.0,512.0,490.0
528.0,509.0,520.0,525.0,506.0
576.0,526.0,524.0,508.0,556.0
605.0,532.0,523.0,511.0,502.0
537.0,519.0,515.0,501.0,508.0
424.0,500.0,506.0,508.0,508.0
369.0,505.0,515.0,513.0,517.0
346.0,492.0,501.0,498.0,535.0
465.0,507.0,503.0,492.0,549.0
533.0,505.0,505.0,503.0,459.0
610.0,521.0,516.0,513.0,510.0
568.0,514.0,521.0,516.0,590.0
568.0,498.0,518.0,514.0,599.0
544.0,491.0,516.0,520.0,519.0
486.0,491.0,515.0,518.0,591.0
418.0,482.0,511.0,508.0,551.0
437.0,495.0,513.0,513.0,521.0
598.0,531.0,531.0,525.0,463.0
641.0,549.0,538.0,524.0,454.0
601.0,541.0,537.0,529.0,461.0
560.0,522.0,517.0,504.0,494.0
510.0,515.0,510.0,516.0,454.0
531.0,510.0,504.0,504.0,581.0
513.0,506.0,501.0,496.0,627.0
521.0,508.0,505.0,509.0,525.0
529.0,501.0,504.0,526.0,456.0
545.0,504.0,509.0,525.0,455.0
507.0,505.0,517.0,525.0,489.0
418.0,491.0,508.0,491.0,548.0
458.0,503.0,516.0,504.0,498.0
557.0,516.0,529.0,522.0,469.0
516.0,503.0,519.0,522.0,471.0
531.0,505.0,520.0,524.0,500.0
549.0,514.0,528.0,525.0,547.0
541.0,529.0,533.0,526.0,519.0
537.0,525.0,526.0,516.0,517.0
544.0,514.0,518.0,510.0,540.0
527.0,512.0,510.0,500.0,506.0
475.0,501.0,502.0,502.0,484.0
472.0,503.0,498.0,496.0,523.0
483.0,505.0,501.0,504.0,517.0
525.0,501.0,499.0,508.0,469.0
573.0,510.0,510.0,516.0,483.0
538.0,503.0,511.0,515.0,510.0
539.0,503.0,515.0,515.0,522.0
505.0,504.0,525.0,523.0,498.0
494.0,498.0,515.0,522.0,514.0
519.0,505.0,516.0,531.0,489.0
506.0,497.0,511.0,523.0,511.0
534.0,508.0,521.0,518.0,561.0
498.0,498.0,515.0,506.0,535.0
512.0,508.0,520.0,509.0,474.0
541.0,527.0,533.0,529.0,496.0
517.0,521.0,527.0,524.0,544.0
470.0,508.0,514.0,507.0,585.0
399.0,491.0,498.0,495.0,544.0
449.0,493.0,499.0,498.0,521.0
578.0,511.0,503.0,498.0,460.0
566.0,511.0,506.0,505.0,530.0
562.0,511.0,515.0,526.0,561.0
570.0,502.0,514.0,523.0,496.0
519.0,491.0,514.0,522.0,545.0
428.0,492.0,516.0,519.0,536.0
464.0,511.0,538.0,539.0,516.0
439.0,489.0,521.0,519.0,578.0
436.0,485.0,514.0,516.0,510.0
416.0,490.0,512.0,496.0,517.0
492.0,504.0,522.0,521.0,481.0
515.0,509.0,518.0,506.0,510.0
595.0,532.0,528.0,512.0,569.0
534.0,522.0,520.0,504.0,569.0
475.0,502.0,502.0,494.0,529.0
574.0,523.0,511.0,498.0,469.0
579.0,530.0,512.0,510.0,455.0
513.0,513.0,510.0,504.0,551.0
493.0,500.0,506.0,518.0,521.0
491.0,494.0,508.0,522.0,433.0
488.0,501.0,514.0,520.0,472.0
420.0,486.0,514.0,510.0,516.0
515.0,512.0,524.0,522.0,485.0
639.0,534.0,535.0,527.0,493.0
619.0,530.0,534.0,521.0,486.0
537.0,511.0,527.0,519.0,490.0
542.0,503.0,518.0,515.0,476.0
517.0,497.0,513.0,514.0,479.0
522.0,502.0,515.0,511.0,533.0
493.0,504.0,516.0,510.0,525.0
503.0,505.0,517.0,519.0,485.0
463.0,494.0,502.0,495.0,511.0
421.0,487.0,498.0,496.0,503.0
482.0,502.0,505.0,511.0,521.0
506.0,511.0,508.0,507.0,551.0
502.0,500.0,505.0,496.0,588.0
529.0,497.0,504.0,500.0,533.0
601.0,519.0,517.0,514.0,489.0
593.0,514.0,519.0,519.0,526.0
547.0,515.0,527.0,531.0,578.0
534.0,514.0,529.0,534.0,558.0
557.0,513.0,519.0,515.0,561.0
568.0,518.0,522.0,527.0,452.0
547.0,509.0,520.0,523.0,501.0
502.0,508.0,520.0,512.0,562.0
503.0,525.0,531.0,527.0,454.0
498.0,506.0,520.0,532.0,442.0
487.0,500.0,507.0,507.0,438.0
424.0,492.0,500.0,491.0,491.0
468.0,507.0,502.0,488.0,530.0
568.0,516.0,506.0,499.0,522.0
558.0,515.0,508.0,510.0,518.0
547.0,509.0,514.0,516.0,455.0
512.0,504.0,514.0,512.0,540.0
514.0,504.0,520.0,527.0,558.0
502.0,504.0,526.0,524.0,530.0
463.0,493.0,519.0,522.0,505.0
567.0,499.0,518.0,522.0,482.0
480.0,495.0,513.0,515.0,557.0
398.0,484.0,509.0,500.0,534.0
428.0,500.0,516.0,507.0,557.0
509.0,526.0,533.0,539.0,504.0
563.0,526.0,523.0,521.0,488.0
605.0,523.0,515.0,512.0,479.0
543.0,512.0,510.0,511.0,474.0
499.0,504.0,500.0,495.0,491.0
479.0,499.0,499.0,498.0,521.0
551.0,510.0,506.0,505.0,521.0
479.0,495.0,496.0,496.0,552.0
488.0,500.0,506.0,510.0,520.0
545.0,520.0,527.0,538.0,498.0
520.0,522.0,531.0,532.0,545.0
548.0,506.0,520.0,516.0,482.0
517.0,504.0,520.0,514.0,510.0
488.0,501.0,517.0,512.0,550.0
455.0,504.0,520.0,510.0,546.0
456.0,498.0,519.0,505.0,554.0
527.0,502.0,513.0,506.0,544.0
570.0,513.0,519.0,530.0,497.0
561.0,513.0,517.0,513.0,503.0
553.0,524.0,517.0,512.0,450.0
556.0,518.0,509.0,500.0,488.0
530.0,518.0,511.0,508.0,515.0
482.0,508.0,508.0,514.0,531.0
470.0,498.0,502.0,500.0,564.0
447.0,485.0,499.0,497.0,538.0
492.0,493.0,506.0,507.0,587.0
541.0,505.0,519.0,520.0,532.0
510.0,505.0,521.0,526.0,525.0
476.0,506.0,522.0,528.0,475.0
521.0,506.0,525.0,534.0,466.0
565.0,513.0,524.0,530.0,538.0
557.0,514.0,522.0,526.0,546.0
535.0,513.0,522.0,524.0,490.0
490.0,503.0,512.0,508.0,497.0
469.0,503.0,515.0,500.0,508.0
428.0,507.0,514.0,506.0,514.0
452.0,501.0,506.0,513.0,509.0
593.0,526.0,510.0,506.0,510.0
579.0,516.0,503.0,498.0,484.0
533.0,507.0,499.0,496.0,486.0
517.0,503.0,498.0,499.0,503.0
514.0,503.0,505.0,508.0,553.0
511.0,498.0,512.0,524.0,551.0
494.0,494.0,515.0,527.0,515.0
472.0,500.0,522.0,521.0,518.0
584.0,525.0,535.0,533.0,516.0
606.0,525.0,523.0,512.0,516.0
532.0,511.0,515.0,507.0,524.0
507.0,504.0,515.0,514.0,507.0
507.0,506.0,517.0,523.0,504.0
549.0,519.0,523.0,515.0,527.0
551.0,520.0,523.0,522.0,514.0
534.0,516.0,519.0,520.0,513.0
483.0,511.0,514.0,512.0,510.0
467.0,513.0,511.0,507.0,494.0
483.0,504.0,502.0,503.0,509.0
484.0,497.0,501.0,501.0,514.0
424.0,494.0,502.0,501.0,543.0
456.0,503.0,509.0,509.0,548.0
478.0,499.0,515.0,525.0,515.0
506.0,496.0,517.0,528.0,493.0
541.0,515.0,524.0,521.0,516.0
530.0,516.0,524.0,524.0,464.0
532.0,511.0,520.0,512.0,520.0
517.0,511.0,521.0,516.0,503.0
593.0,516.0,520.0,512.0,499.0
570.0,506.0,516.0,523.0,496.0
506.0,500.0,512.0,520.0,536.0
462.0,500.0,509.0,510.0,533.0
472.0,502.0,508.0,509.0,468.0
564.0,524.0,516.0,513.0,437.0
531.0,510.0,506.0,498.0,517.0
491.0,503.0,497.0,486.0,543.0
503.0,503.0,501.0,496.0,525.0
534.0,502.0,501.0,508.0,493.0
534.0,499.0,502.0,508.0,485.0
513.0,507.0,521.0,532.0,495.0
448.0,493.0,517.0,516.0,545.0
456.0,498.0,518.0,512.0,548.0
470.0,499.0,515.0,512.0,592.0
524.0,504.0,514.0,512.0,531.0
550.0,510.0,517.0,513.0,528.0
523.0,513.0,525.0,516.0,549.0
478.0,512.0,522.0,520.0,511.0
517.0,517.0,524.0,518.0,488.0
560.0,513.0,517.0,519.0,474.0
566.0,520.0,517.0,524.0,465.0
502.0,506.0,505.0,501.0,486.0
513.0,505.0,502.0,490.0,540.0
524.0,504.0,496.0,495.0,542.0
528.0,499.0,497.0,500.0,533.0
521.0,499.0,506.0,517.0,502.0
496.0,492.0,512.0,512.0,517.0
499.0,503.0,519.0,522.0,505.0
541.0,518.0,528.0,525.0,516.0
536.0,524.0,534.0,535.0,515.0
527.0,514.0,527.0,525.0,534.0
479.0,502.0,520.0,528.0,543.0
471.0,500.0,517.0,535.0,551.0
505.0,497.0,510.0,510.0,530.0
545.0,506.0,518.0,521.0,449.0
547.0,519.0,521.0,513.0,508.0
546.0,521.0,520.0,508.0,502.0
537.0,515.0,514.0,506.0,523.0
470.0,505.0,507.0,500.0,583.0
474.0,501.0,506.0,507.0,574.0
446.0,491.0,494.0,490.0,514.0
495.0,504.0,499.0,499.0,493.0
557.0,514.0,509.0,511.0,483.0
556.0,516.0,518.0,518.0,492.0
565.0,513.0,519.0,519.0,483.0
526.0,507.0,520.0,524.0,478.0
523.0,507.0,520.0,526.0,478.0
507.0,505.0,524.0,525.0,562.0
504.0,507.0,525.0,531.0,584.0
505.0,514.0,528.0,531.0,570.0
522.0,517.0,528.0,525.0,511.0
533.0,514.0,524.0,527.0,435.0
565.0,522.0,522.0,520.0,476.0
560.0,525.0,517.0,512.0,483.0
542.0,517.0,508.0,503.0,534.0
535.0,507.0,498.0,500.0,516.0
505.0,501.0,495.0,492.0,513.0
490.0,494.0,498.0,498.0,497.0
472.0,489.0,498.0,500.0,496.0
477.0,497.0,508.0,511.0,526.0
496.0,502.0,514.0,514.0,526.0
496.0,503.0,523.0,525.0,480.0
502.0,507.0,520.0,521.0,518.0
511.0,504.0,519.0,520.0,537.0
524.0,499.0,517.0,514.0,543.0
511.0,500.0,515.0,515.0,520.0
510.0,507.0,518.0,514.0,486.0
528.0,522.0,527.0,526.0,462.0
552.0,518.0,522.0,521.0,493.0
518.0,516.0,520.0,519.0,491.0
461.0,504.0,514.0,517.0,518.0
493.0,513.0,513.0,510.0,536.0
535.0,510.0,507.0,501.0,510.0
549.0,504.0,496.0,508.0,536.0
505.0,491.0,491.0,495.0,541.0
495.0,499.0,504.0,518.0,455.0
488.0,498.0,511.0,523.0,470.0
488.0,502.0,520.0,525.0,529.0
506.0,509.0,527.0,522.0,560.0
512.0,513.0,532.0,530.0,539.0
501.0,506.0,526.0,529.0,571.0
500.0,494.0,516.0,525.0,513.0
469.0,492.0,510.0,506.0,504.0
489.0,504.0,516.0,502.0,505.0
454.0,505.0,519.0,507.0,536.0
522.0,515.0,524.0,516.0,521.0
575.0,519.0,517.0,514.0,499.0
573.0,527.0,517.0,519.0,542.0
508.0,514.0,509.0,499.0,511.0
541.0,512.0,506.0,506.0,447.0
534.0,500.0,495.0,494.0,477.0
507.0,499.0,496.0,498.0,497.0
521.0,505.0,507.0,511.0,510.0
508.0,503.0,512.0,514.0,523.0
502.0,502.0,516.0,514.0,532.0
507.0,508.0,528.0,527.0,520.0
508.0,508.0,528.0,533.0,518.0
543.0,514.0,527.0,526.0,536.0
547.0,512.0,523.0,518.0,491.0
518.0,506.0,521.0,523.0,475.0
495.0,506.0,519.0,519.0,527.0
512.0,517.0,521.0,514.0,511.0
545.0,520.0,521.0,515.0,486.0
525.0,516.0,518.0,515.0,507.0
519.0,518.0,515.0,503.0,540.0
512.0,514.0,507.0,500.0,539.0
501.0,503.0,499.0,493.0,521.0
514.0,501.0,499.0,498.0,518.0
518.0,499.0,505.0,508.0,517.0
502.0,494.0,506.0,509.0,506.0
495.0,500.0,514.0,519.0,498.0
515.0,504.0,521.0,525.0,527.0
517.0,506.0,526.0,526.0,516.0
514.0,504.0,521.0,514.0,489.0
508.0,499.0,514.0,514.0,470.0
486.0,496.0,516.0,518.0,521.0
516.0,508.0,522.0,519.0,542.0
525.0,509.0,524.0,520.0,505.0
520.0,512.0,523.0,516.0,503.0
530.0,521.0,525.0,517.0,507.0
525.0,517.0,517.0,512.0,500.0
513.0,514.0,516.0,507.0,509.0
498.0,505.0,509.0,503.0,529.0
497.0,500.0,498.0,497.0,522.0
497.0,497.0,498.0,504.0,511.0
497.0,498.0,508.0,513.0,519.0
498.0,501.0,517.0,514.0,552.0
492.0,502.0,517.0,515.0,546.0
499.0,504.0,524.0,538.0,501.0
519.0,505.0,519.0,518.0,496.0
533.0,508.0,524.0,516.0,494.0
523.0,499.0,520.0,522.0,489.0
529.0,506.0,520.0,512.0,502.0
525.0,505.0,515.0,512.0,511.0
511.0,509.0,519.0,516.0,539.0
521.0,523.0,533.0,523.0,480.0
534.0,524.0,524.0,522.0,482.0
503.0,515.0,514.0,513.0,517.0
486.0,505.0,503.0,498.0,547.0
480.0,498.0,498.0,491.0,524.0
525.0,512.0,505.0,501.0,538.0
528.0,510.0,508.0,500.0,525.0
536.0,505.0,510.0,508.0,472.0
516.0,501.0,514.0,530.0,474.0
521.0,507.0,519.0,530.0,526.0
509.0,498.0,520.0,521.0,478.0
517.0,501.0,527.0,520.0,550.0
470.0,492.0,518.0,512.0,578.0
472.0,497.0,515.0,525.0,527.0
492.0,501.0,519.0,525.0,533.0
499.0,502.0,522.0,521.0,506.0
540.0,508.0,515.0,512.0,484.0
547.0,519.0,522.0,510.0,470.0
568.0,525.0,520.0,515.0,470.0
514.0,518.0,513.0,508.0,493.0
484.0,507.0,504.0,503.0,485.0
492.0,504.0,500.0,500.0,506.0
561.0,508.0,502.0,507.0,497.0
552.0,503.0,507.0,512.0,504.0
519.0,501.0,511.0,518.0,515.0
488.0,506.0,523.0,519.0,519.0
482.0,502.0,517.0,515.0,499.0
496.0,507.0,525.0,525.0,529.0
522.0,507.0,521.0,525.0,533.0
525.0,511.0,524.0,520.0,516.0
523.0,510.0,524.0,521.0,553.0
523.0,503.0,518.0,512.0,525.0
560.0,516.0,525.0,520.0,492.0
520.0,516.0,518.0,517.0,488.0
524.0,519.0,519.0,511.0,492.0
512.0,517.0,520.0,520.0,491.0
495.0,507.0,511.0,512.0,496.0
499.0,507.0,502.0,505.0,512.0
493.0,499.0,495.0,497.0,496.0
504.0,497.0,498.0,503.0,501.0
478.0,496.0,500.0,509.0,563.0
509.0,501.0,511.0,511.0,530.0
524.0,500.0,512.0,510.0,505.0
519.0,511.0,524.0,527.0,504.0
518.0,507.0,525.0,528.0,507.0
521.0,503.0,523.0,522.0,514.0
521.0,505.0,521.0,518.0,510.0
515.0,505.0,517.0,512.0,511.0
521.0,507.0,519.0,518.0,507.0
524.0,512.0,520.0,519.0,497.0
525.0,517.0,522.0,522.0,499.0
528.0,518.0,520.0,513.0,502.0
519.0,516.0,514.0,512.0,505.0
519.0,512.0,509.0,512.0,514.0
521.0,508.0,505.0,507.0,514.0
509.0,505.0,502.0,504.0,524.0
491.0,496.0,500.0,501.0,524.0
481.0,495.0,505.0,506.0,509.0
496.0,497.0,512.0,518.0,513.0
503.0,500.0,517.0,523.0,513.0
522.0,508.0,519.0,516.0,507.0
520.0,503.0,517.0,518.0,507.0
512.0,501.0,518.0,519.0,513.0
511.0,506.0,517.0,520.0,514.0
511.0,505.0,519.0,520.0,511.0
508.0,509.0,517.0,523.0,513.0
518.0,514.0,518.0,521.0,513.0
532.0,524.0,524.0,515.0,510.0
517.0,522.0,526.0,520.0,519.0
501.0,515.0,510.0,509.0,518.0
497.0,508.0,505.0,504.0,513.0
514.0,507.0,505.0,498.0,510.0
514.0,500.0,499.0,502.0,505.0
512.0,501.0,502.0,500.0,522.0
507.0,499.0,507.0,509.0,524.0
504.0,507.0,518.0,518.0,518.0
513.0,510.0,527.0,542.0,519.0
525.0,513.0,528.0,528.0,489.0
512.0,507.0,520.0,517.0,505.0
528.0,508.0,520.0,519.0,525.0
540.0,509.0,520.0,524.0,512.0
539.0,506.0,518.0,521.0,495.0
517.0,498.0,509.0,511.0,517.0
512.0,506.0,514.0,509.0,512.0
533.0,513.0,518.0,512.0,478.0
524.0,514.0,514.0,508.0,502.0
508.0,510.0,510.0,507.0,505.0
495.0,508.0,507.0,513.0,516.0
489.0,505.0,502.0,503.0,520.0
499.0,498.0,499.0,501.0,513.0
513.0,502.0,504.0,507.0,528.0
516.0,505.0,514.0,516.0,535.0
513.0,505.0,520.0,526.0,518.0
524.0,517.0,533.0,531.0,524.0
524.0,514.0,528.0,526.0,525.0
517.0,504.0,519.0,519.0,511.0
500.0,499.0,519.0,525.0,512.0
485.0,504.0,524.0,528.0,507.0
493.0,507.0,521.0,516.0,521.0
517.0,508.0,516.0,513.0,536.0
520.0,510.0,516.0,513.0,539.0
515.0,509.0,515.0,513.0,523.0
510.0,511.0,515.0,526.0,494.0
498.0,506.0,505.0,514.0,492.0
534.0,514.0,507.0,501.0,499.0
494.0,502.0,502.0,504.0,502.0
488.0,499.0,503.0,505.0,485.0
517.0,503.0,507.0,509.0,512.0
522.0,507.0,514.0,515.0,546.0
514.0,509.0,521.0,516.0,559.0
509.0,506.0,522.0,517.0,521.0
510.0,510.0,522.0,527.0,494.0
511.0,507.0,517.0,514.0,505.0
516.0,504.0,521.0,519.0,504.0
524.0,509.0,521.0,521.0,518.0
514.0,510.0,519.0,514.0,517.0
516.0,513.0,520.0,519.0,510.0
515.0,517.0,524.0,519.0,522.0
525.0,518.0,515.0,513.0,516.0
537.0,516.0,511.0,506.0,514.0
520.0,511.0,508.0,505.0,497.0
509.0,505.0,501.0,504.0,502.0
497.0,499.0,500.0,506.0,504.0
505.0,498.0,503.0,511.0,524.0
492.0,498.0,509.0,512.0,527.0
459.0,495.0,514.0,520.0,523.0
469.0,500.0,516.0,514.0,523.0
506.0,505.0,521.0,521.0,512.0
553.0,511.0,522.0,522.0,508.0
547.0,507.0,520.0,524.0,509.0
531.0,507.0,519.0,523.0,511.0
527.0,507.0,519.0,524.0,511.0
522.0,502.0,519.0,527.0,514.0
527.0,516.0,519.0,512.0,502.0
536.0,522.0,524.0,519.0,499.0
527.0,514.0,516.0,510.0,503.0
524.0,513.0,509.0,511.0,504.0
514.0,509.0,504.0,507.0,507.0
505.0,504.0,500.0,503.0,510.0
500.0,500.0,497.0,498.0,515.0
502.0,497.0,502.0,506.0,518.0
497.0,499.0,511.0,520.0,521.0
511.0,507.0,517.0,523.0,517.0
511.0,510.0,521.0,521.0,513.0
508.0,506.0,525.0,528.0,517.0
505.0,502.0,521.0,524.0,523.0
515.0,503.0,518.0,517.0,519.0
525.0,507.0,520.0,513.0,516.0
519.0,509.0,520.0,517.0,510.0
524.0,514.0,523.0,520.0,509.0
523.0,517.0,524.0,519.0,503.0
524.0,522.0,519.0,517.0,508.0
529.0,518.0,517.0,513.0,506.0
516.0,512.0,509.0,510.0,508.0
508.0,505.0,503.0,506.0,510.0
504.0,499.0,499.0,500.0,515.0
499.0,497.0,499.0,505.0,519.0
495.0,500.0,510.0,512.0,522.0
510.0,505.0,516.0,520.0,515.0
515.0,506.0,521.0,526.0,515.0
514.0,506.0,527.0,525.0,517.0
515.0,507.0,525.0,524.0,519.0
512.0,500.0,519.0,520.0,521.0
516.0,506.0,520.0,519.0,519.0
518.0,508.0,522.0,520.0,518.0
518.0,509.0,519.0,523.0,513.0
526.0,513.0,520.0,520.0,503.0
527.0,521.0,521.0,520.0,500.0
515.0,517.0,519.0,516.0,502.0
510.0,513.0,512.0,514.0,505.0
508.0,508.0,507.0,511.0,511.0
512.0,505.0,502.0,508.0,510.0
511.0,500.0,500.0,498.0,509.0
508.0,500.0,502.0,505.0,517.0
504.0,498.0,510.0,511.0,525.0
511.0,502.0,516.0,520.0,519.0
514.0,508.0,520.0,521.0,518.0
515.0,507.0,524.0,524.0,521.0
513.0,506.0,528.0,525.0,524.0
510.0,499.0,518.0,519.0,522.0
516.0,505.0,521.0,513.0,517.0
519.0,512.0,524.0,522.0,517.0
516.0,514.0,525.0,526.0,511.0
523.0,516.0,526.0,520.0,506.0
532.0,514.0,518.0,515.0,513.0
534.0,512.0,514.0,510.0,507.0
512.0,505.0,507.0,504.0,500.0
501.0,502.0,497.0,503.0,504.0
498.0,498.0,495.0,501.0,515.0
500.0,497.0,495.0,503.0,514.0
501.0,497.0,499.0,504.0,517.0
506.0,500.0,507.0,515.0,517.0
513.0,504.0,517.0,520.0,518.0
511.0,505.0,527.0,529.0,519.0
511.0,503.0,524.0,526.0,519.0
524.0,504.0,515.0,516.0,516.0
517.0,501.0,515.0,515.0,520.0
516.0,505.0,517.0,514.0,515.0
517.0,507.0,518.0,513.0,515.0
523.0,513.0,521.0,519.0,507.0
527.0,517.0,522.0,523.0,500.0
525.0,519.0,521.0,519.0,500.0
521.0,516.0,516.0,519.0,504.0
515.0,510.0,506.0,508.0,507.0
515.0,506.0,502.0,503.0,510.0
508.0,503.0,501.0,502.0,515.0
503.0,500.0,501.0,508.0,517.0
506.0,498.0,506.0,510.0,518.0
516.0,504.0,512.0,515.0,514.0
521.0,505.0,520.0,523.0,516.0
523.0,509.0,523.0,527.0,515.0
523.0,506.0,523.0,525.0,523.0
517.0,505.0,519.0,520.0,522.0
512.0,506.0,520.0,519.0,524.0
507.0,507.0,519.0,521.0,514.0
513.0,508.0,518.0,518.0,513.0
521.0,511.0,523.0,521.0,513.0
528.0,517.0,522.0,516.0,507.0
529.0,519.0,517.0,514.0,510.0
517.0,519.0,510.0,512.0,510.0
508.0,506.0,504.0,505.0,520.0
505.0,507.0,501.0,503.0,513.0
507.0,506.0,500.0,504.0,510.0
506.0,505.0,501.0,507.0,515.0
502.0,501.0,506.0,516.0,512.0
509.0,501.0,516.0,522.0,511.0
510.0,500.0,518.0,522.0,513.0
520.0,507.0,525.0,524.0,510.0
515.0,504.0,521.0,527.0,501.0
515.0,502.0,520.0,521.0,503.0
517.0,502.0,518.0,516.0,511.0
518.0,503.0,515.0,515.0,511.0
522.0,509.0,518.0,515.0,508.0
524.0,515.0,520.0,516.0,505.0
526.0,522.0,521.0,519.0,503.0
516.0,517.0,516.0,516.0,506.0
514.0,514.0,510.0,509.0,505.0
509.0,508.0,502.0,506.0,507.0
507.0,504.0,499.0,502.0,514.0
502.0,500.0,499.0,500.0,517.0
503.0,502.0,504.0,513.0,517.0
505.0,505.0,510.0,510.0,514.0
511.0,504.0,518.0,521.0,512.0
518.0,506.0,522.0,525.0,513.0
518.0,507.0,524.0,525.0,516.0
516.0,502.0,521.0,522.0,517.0
512.0,502.0,519.0,519.0,515.0
517.0,506.0,519.0,523.0,510.0
517.0,510.0,520.0,517.0,511.0
522.0,514.0,522.0,522.0,508.0
525.0,515.0,521.0,517.0,503.0
523.0,516.0,517.0,512.0,500.0
520.0,513.0,513.0,510.0,501.0
511.0,508.0,500.0,503.0,506.0
508.0,505.0,503.0,501.0,508.0
502.0,499.0,498.0,502.0,509.0
502.0,500.0,502.0,505.0,516.0
503.0,500.0,504.0,509.0,521.0
507.0,500.0,509.0,517.0,519.0
518.0,504.0,519.0,523.0,511.0
527.0,506.0,523.0,524.0,510.0
520.0,504.0,520.0,521.0,515.0
512.0,501.0,519.0,518.0,519.0
512.0,500.0,516.0,516.0,515.0
519.0,506.0,518.0,520.0,509.0
522.0,513.0,518.0,516.0,508.0
525.0,513.0,521.0,521.0,503.0
532.0,519.0,523.0,524.0,496.0
528.0,522.0,518.0,516.0,495.0
521.0,520.0,510.0,514.0,500.0
515.0,508.0,505.0,509.0,500.0
508.0,505.0,500.0,505.0,502.0
502.0,501.0,502.0,503.0,516.0
502.0,504.0,505.0,508.0,512.0
503.0,504.0,510.0,515.0,514.0
508.0,505.0,516.0,522.0,509.0
514.0,506.0,522.0,524.0,511.0
515.0,501.0,520.0,522.0,520.0
525.0,502.0,524.0,522.0,514.0
524.0,508.0,521.0,522.0,524.0
523.0,504.0,518.0,519.0,520.0
521.0,507.0,520.0,517.0,515.0
525.0,511.0,520.0,517.0,507.0
529.0,514.0,519.0,518.0,509.0
532.0,519.0,521.0,519.0,502.0
527.0,518.0,515.0,515.0,493.0
517.0,517.0,509.0,511.0,493.0
511.0,508.0,501.0,504.0,500.0
504.0,503.0,500.0,506.0,504.0
504.0,501.0,500.0,505.0,510.0
506.0,499.0,502.0,509.0,509.0
508.0,501.0,509.0,512.0,511.0
515.0,507.0,518.0,521.0,509.0
520.0,511.0,522.0,525.0,512.0
521.0,507.0,525.0,525.0,506.0
520.0,505.0,520.0,522.0,515.0
515.0,506.0,521.0,519.0,523.0
513.0,505.0,518.0,516.0,519.0
521.0,508.0,518.0,517.0,509.0
525.0,511.0,517.0,518.0,505.0
525.0,520.0,522.0,519.0,504.0
525.0,519.0,520.0,517.0,498.0
523.0,519.0,515.0,514.0,499.0
523.0,511.0,506.0,508.0,500.0
511.0,506.0,503.0,505.0,506.0
502.0,501.0,501.0,504.0,513.0
499.0,504.0,503.0,509.0,518.0
504.0,505.0,505.0,512.0,517.0
510.0,502.0,513.0,517.0,514.0
518.0,506.0,520.0,526.0,509.0
521.0,503.0,524.0,527.0,508.0
522.0,512.0,527.0,529.0,507.0
519.0,507.0,523.0,527.0,506.0
515.0,502.0,519.0,520.0,513.0
511.0,503.0,514.0,515.0,519.0
515.0,507.0,516.0,508.0,519.0
518.0,511.0,517.0,513.0,511.0
524.0,519.0,521.0,518.0,505.0
522.0,520.0,522.0,516.0,503.0
520.0,514.0,505.0,513.0,504.0
506.0,506.0,502.0,503.0,511.0
505.0,506.0,498.0,499.0,515.0
504.0,503.0,499.0,501.0,515.0
504.0,503.0,500.0,501.0,517.0
503.0,500.0,504.0,501.0,520.0
507.0,502.0,514.0,517.0,515.0
514.0,507.0,523.0,522.0,512.0
522.0,509.0,524.0,528.0,512.0
522.0,507.0,523.0,528.0,512.0
518.0,503.0,520.0,522.0,513.0
511.0,505.0,520.0,519.0,521.0
515.0,513.0,522.0,519.0,517.0
521.0,515.0,524.0,519.0,512.0
528.0,519.0,520.0,522.0,504.0
528.0,522.0,522.0,520.0,506.0
519.0,522.0,515.0,513.0,506.0
518.0,513.0,511.0,508.0,504.0
514.0,507.0,503.0,504.0,509.0
510.0,508.0,501.0,499.0,509.0
502.0,503.0,499.0,503.0,511.0
500.0,501.0,502.0,509.0,520.0
506.0,503.0,509.0,516.0,517.0
512.0,509.0,517.0,519.0,516.0
517.0,510.0,522.0,529.0,516.0
516.0,508.0,524.0,524.0,516.0
516.0,507.0,522.0,522.0,512.0
515.0,508.0,520.0,515.0,518.0
515.0,511.0,525.0,519.0,516.0
518.0,514.0,521.0,518.0,512.0
522.0,514.0,521.0,521.0,509.0
523.0,517.0,521.0,517.0,507.0
526.0,520.0,521.0,518.0,503.0
521.0,520.0,513.0,514.0,504.0
515.0,513.0,501.0,507.0,507.0
514.0,508.0,505.0,503.0,507.0
501.0,503.0,500.0,501.0,513.0
503.0,503.0,501.0,503.0,517.0
507.0,503.0,507.0,512.0,515.0
509.0,504.0,512.0,514.0,517.0
513.0,509.0,520.0,523.0,515.0
516.0,507.0,524.0,528.0,517.0
517.0,507.0,524.0,525.0,519.0
518.0,507.0,523.0,521.0,518.0
520.0,504.0,521.0,519.0,518.0
521.0,508.0,523.0,517.0,511.0
528.0,514.0,524.0,517.0,508.0
528.0,518.0,522.0,518.0,512.0
533.0,512.0,518.0,516.0,502.0
528.0,513.0,517.0,514.0,499.0
522.0,521.0,515.0,510.0,504.0
514.0,514.0,507.0,504.0,512.0
505.0,510.0,504.0,501.0,515.0
503.0,504.0,502.0,501.0,519.0
499.0,501.0,501.0,505.0,522.0
503.0,503.0,509.0,512.0,520.0
513.0,507.0,517.0,518.0,519.0
517.0,507.0,526.0,523.0,522.0
520.0,506.0,524.0,525.0,516.0
523.0,509.0,523.0,524.0,515.0
517.0,508.0,525.0,520.0,517.0
513.0,503.0,516.0,519.0,516.0
518.0,507.0,520.0,517.0,512.0
521.0,515.0,519.0,515.0,512.0
524.0,518.0,519.0,519.0,509.0
524.0,517.0,519.0,515.0,507.0
524.0,517.0,514.0,512.0,506.0
517.0,514.0,510.0,508.0,506.0
510.0,507.0,502.0,500.0,510.0
501.0,502.0,497.0,497.0,507.0
502.0,502.0,500.0,498.0,517.0
504.0,501.0,505.0,506.0,517.0
510.0,501.0,509.0,512.0,519.0
515.0,503.0,521.0,520.0,516.0
514.0,504.0,519.0,521.0,516.0
514.0,503.0,523.0,523.0,517.0
514.0,504.0,525.0,522.0,517.0
512.0,509.0,525.0,519.0,520.0
515.0,506.0,521.0,518.0,516.0
520.0,511.0,523.0,519.0,512.0
522.0,513.0,521.0,522.0,510.0
527.0,518.0,521.0,523.0,504.0
526.0,521.0,518.0,516.0,503.0
525.0,519.0,513.0,511.0,505.0
520.0,514.0,507.0,507.0,508.0
509.0,509.0,503.0,503.0,510.0
501.0,507.0,498.0,499.0,517.0
503.0,501.0,500.0,506.0,516.0
506.0,502.0,505.0,512.0,518.0
510.0,503.0,507.0,515.0,518.0
519.0,504.0,522.0,524.0,514.0
517.0,508.0,528.0,525.0,514.0
516.0,506.0,525.0,525.0,516.0
518.0,509.0,522.0,524.0,517.0
516.0,504.0,520.0,520.0,517.0
514.0,506.0,518.0,516.0,516.0
518.0,510.0,519.0,514.0,517.0
524.0,516.0,522.0,517.0,510.0
528.0,517.0,522.0,519.0,507.0
524.0,519.0,519.0,514.0,510.0
520.0,515.0,514.0,513.0,507.0
512.0,511.0,506.0,499.0,510.0
506.0,507.0,502.0,501.0,513.0
504.0,501.0,500.0,501.0,518.0
505.0,504.0,502.0,503.0,519.0
512.0,501.0,508.0,513.0,516.0
520.0,506.0,518.0,525.0,512.0
521.0,505.0,521.0,523.0,514.0
514.0,511.0,526.0,526.0,520.0
511.0,504.0,522.0,520.0,523.0
508.0,504.0,521.0,523.0,521.0
516.0,504.0,522.0,517.0,522.0
516.0,508.0,526.0,518.0,522.0
521.0,510.0,521.0,516.0,516.0
529.0,516.0,525.0,516.0,510.0
530.0,518.0,522.0,518.0,507.0
523.0,514.0,515.0,512.0,507.0
520.0,506.0,507.0,506.0,511.0
514.0,508.0,503.0,501.0,514.0
506.0,508.0,500.0,500.0,515.0
503.0,501.0,497.0,501.0,519.0
500.0,499.0,501.0,504.0,520.0
505.0,504.0,508.0,510.0,519.0
512.0,503.0,516.0,518.0,519.0
518.0,505.0,522.0,523.0,520.0
515.0,504.0,520.0,520.0,522.0
513.0,501.0,518.0,518.0,522.0
513.0,506.0,520.0,519.0,522.0
512.0,503.0,518.0,517.0,519.0
517.0,509.0,521.0,515.0,515.0
517.0,508.0,515.0,515.0,518.0
522.0,513.0,517.0,517.0,512.0
529.0,518.0,517.0,515.0,507.0
521.0,517.0,513.0,513.0,507.0
513.0,511.0,505.0,507.0,511.0
507.0,509.0,498.0,501.0,512.0
502.0,502.0,497.0,503.0,517.0
505.0,503.0,501.0,503.0,518.0
504.0,502.0,506.0,508.0,519.0
516.0,504.0,512.0,516.0,518.0
515.0,507.0,523.0,523.0,519.0
517.0,508.0,522.0,524.0,516.0
517.0,507.0,525.0,526.0,518.0
516.0,504.0,520.0,523.0,518.0
517.0,501.0,522.0,519.0,518.0
518.0,507.0,520.0,521.0,521.0
516.0,513.0,520.0,520.0,518.0
523.0,516.0,520.0,519.0,513.0
526.0,519.0,522.0,519.0,511.0
523.0,518.0,517.0,515.0,508.0
517.0,515.0,510.0,513.0,508.0
511.0,509.0,502.0,503.0,510.0
506.0,507.0,500.0,503.0,515.0
506.0,503.0,497.0,500.0,514.0
503.0,500.0,502.0,504.0,520.0
505.0,502.0,507.0,511.0,520.0
510.0,503.0,513.0,518.0,517.0
516.0,507.0,521.0,525.0,517.0
521.0,506.0,524.0,527.0,515.0
512.0,505.0,524.0,525.0,520.0
514.0,503.0,518.0,520.0,520.0
517.0,510.0,520.0,521.0,517.0
518.0,507.0,519.0,523.0,517.0
520.0,507.0,517.0,516.0,514.0
526.0,514.0,522.0,518.0,508.0
524.0,519.0,521.0,518.0,509.0
524.0,517.0,516.0,518.0,508.0
518.0,514.0,510.0,511.0,509.0
511.0,509.0,504.0,504.0,511.0
507.0,508.0,499.0,504.0,513.0
503.0,502.0,500.0,503.0,518.0
502.0,506.0,502.0,506.0,518.0
507.0,502.0,508.0,513.0,516.0
512.0,504.0,517.0,520.0,514.0
520.0,503.0,520.0,525.0,511.0
522.0,504.0,526.0,527.0,513.0
510.0,502.0,521.0,521.0,520.0
512.0,504.0,522.0,521.0,522.0
513.0,506.0,521.0,521.0,524.0
516.0,508.0,519.0,516.0,516.0
518.0,509.0,518.0,516.0,513.0
522.0,514.0,521.0,519.0,513.0
523.0,517.0,518.0,519.0,507.0
519.0,519.0,514.0,511.0,508.0
514.0,510.0,506.0,504.0,512.0
508.0,504.0,501.0,504.0,515.0
503.0,500.0,498.0,499.0,518.0
500.0,501.0,500.0,503.0,521.0
501.0,498.0,503.0,502.0,522.0
508.0,505.0,513.0,513.0,520.0
509.0,503.0,519.0,521.0,522.0
513.0,505.0,521.0,523.0,519.0
515.0,505.0,524.0,527.0,518.0
518.0,503.0,523.0,524.0,515.0
520.0,503.0,521.0,525.0,515.0
511.0,506.0,519.0,515.0,519.0
513.0,510.0,518.0,514.0,518.0
517.0,514.0,519.0,513.0,514.0
524.0,517.0,520.0,514.0,509.0
523.0,517.0,519.0,515.0,506.0
514.0,515.0,511.0,509.0,510.0
510.0,507.0,502.0,503.0,512.0
507.0,503.0,500.0,501.0,512.0
503.0,502.0,498.0,502.0,516.0
499.0,495.0,501.0,503.0,524.0
506.0,504.0,509.0,512.0,521.0
510.0,505.0,516.0,517.0,518.0
513.0,504.0,521.0,529.0,518.0
518.0,506.0,523.0,526.0,515.0
516.0,507.0,524.0,528.0,518.0
515.0,507.0,525.0,525.0,516.0
515.0,507.0,521.0,523.0,516.0
514.0,504.0,521.0,520.0,516.0
517.0,508.0,519.0,516.0,517.0
519.0,514.0,518.0,517.0,512.0
521.0,518.0,520.0,515.0,509.0
523.0,515.0,515.0,512.0,508.0
517.0,512.0,511.0,510.0,508.0
508.0,511.0,505.0,507.0,510.0
504.0,505.0,502.0,502.0,515.0
498.0,501.0,498.0,502.0,519.0
500.0,501.0,502.0,510.0,519.0
505.0,505.0,509.0,512.0,517.0
509.0,499.0,517.0,518.0,517.0
512.0,505.0,523.0,522.0,523.0
513.0,502.0,524.0,525.0,518.0
512.0,500.0,523.0,525.0,518.0
510.0,496.0,522.0,519.0,519.0
511.0,499.0,520.0,521.0,516.0
508.0,504.0,520.0,517.0,516.0
513.0,506.0,522.0,518.0,514.0
515.0,510.0,524.0,519.0,511.0
519.0,510.0,518.0,518.0,508.0
515.0,512.0,514.0,519.0,504.0
510.0,514.0,510.0,511.0,509.0
497.0,513.0,504.0,504.0,516.0
493.0,504.0,498.0,499.0,517.0
492.0,503.0,500.0,502.0,520.0
497.0,502.0,508.0,508.0,519.0
504.0,504.0,514.0,515.0,520.0
508.0,507.0,516.0,520.0,521.0
513.0,508.0,524.0,522.0,518.0
518.0,508.0,527.0,525.0,517.0
518.0,508.0,523.0,523.0,516.0
517.0,509.0,522.0,522.0,521.0
523.0,508.0,522.0,524.0,520.0
521.0,509.0,521.0,517.0,515.0
523.0,513.0,520.0,520.0,510.0
532.0,518.0,521.0,518.0,503.0
532.0,519.0,519.0,516.0,505.0
522.0,515.0,513.0,512.0,506.0
516.0,512.0,506.0,507.0,511.0
509.0,512.0,502.0,503.0,516.0
504.0,503.0,498.0,499.0,518.0
505.0,502.0,499.0,503.0,518.0
510.0,508.0,507.0,514.0,516.0
518.0,505.0,519.0,520.0,518.0
516.0,505.0,520.0,523.0,515.0
517.0,509.0,526.0,529.0,515.0
518.0,513.0,524.0,525.0,517.0
519.0,510.0,524.0,524.0,519.0
517.0,507.0,521.0,521.0,518.0
517.0,507.0,520.0,518.0,515.0
519.0,509.0,517.0,512.0,513.0
523.0,517.0,518.0,516.0,508.0
528.0,520.0,522.0,517.0,508.0
524.0,520.0,517.0,515.0,509.0
520.0,515.0,510.0,510.0,506.0
512.0,510.0,504.0,511.0,510.0
509.0,507.0,503.0,503.0,511.0
504.0,503.0,500.0,502.0,514.0
504.0,502.0,502.0,505.0,516.0
507.0,503.0,510.0,513.0,512.0
512.0,505.0,518.0,520.0,520.0
517.0,505.0,522.0,524.0,515.0
518.0,509.0,526.0,525.0,515.0
519.0,507.0,526.0,527.0,517.0
514.0,506.0,526.0,522.0,519.0
515.0,504.0,521.0,519.0,517.0
520.0,507.0,522.0,518.0,513.0
519.0,509.0,520.0,517.0,511.0
524.0,517.0,521.0,517.0,508.0
526.0,519.0,522.0,516.0,504.0
524.0,519.0,517.0,514.0,502.0
516.0,513.0,514.0,509.0,504.0
509.0,507.0,501.0,502.0,510.0
503.0,507.0,500.0,501.0,513.0
505.0,504.0,505.0,503.0,513.0
503.0,505.0,504.0,507.0,516.0
508.0,501.0,513.0,514.0,516.0
517.0,505.0,518.0,515.0,513.0
524.0,507.0,525.0,527.0,511.0
526.0,508.0,526.0,526.0,511.0
514.0,507.0,524.0,524.0,516.0
507.0,507.0,521.0,520.0,519.0
515.0,508.0,521.0,519.0,515.0
520.0,510.0,520.0,516.0,512.0
521.0,514.0,521.0,522.0,508.0
524.0,518.0,527.0,518.0,504.0
521.0,522.0,519.0,516.0,505.0
515.0,515.0,516.0,513.0,507.0
514.0,512.0,507.0,509.0,508.0
509.0,508.0,504.0,507.0,505.0
508.0,501.0,503.0,507.0,508.0
506.0,504.0,504.0,506.0,514.0
503.0,502.0,509.0,506.0,519.0
505.0,501.0,512.0,513.0,518.0
514.0,506.0,521.0,526.0,516.0
520.0,510.0,526.0,526.0,515.0
515.0,508.0,525.0,521.0,520.0
511.0,505.0,521.0,517.0,525.0
510.0,504.0,520.0,518.0,522.0
506.0,501.0,510.0,507.0,521.0
521.0,509.0,520.0,516.0,511.0
524.0,519.0,523.0,519.0,515.0
523.0,516.0,521.0,517.0,507.0
518.0,516.0,515.0,515.0,504.0
511.0,514.0,509.0,505.0,511.0
508.0,507.0,501.0,501.0,515.0
503.0,506.0,497.0,498.0,517.0
500.0,500.0,498.0,499.0,518.0
501.0,496.0,500.0,501.0,523.0
504.0,498.0,507.0,509.0,521.0
511.0,501.0,516.0,516.0,514.0
512.0,503.0,521.0,522.0,514.0
516.0,504.0,525.0,524.0,513.0
515.0,504.0,522.0,522.0,513.0
513.0,503.0,522.0,520.0,516.0
513.0,504.0,519.0,519.0,524.0
516.0,504.0,521.0,515.0,518.0
516.0,512.0,522.0,517.0,518.0
521.0,515.0,521.0,517.0,505.0
525.0,517.0,521.0,517.0,503.0
525.0,516.0,515.0,513.0,505.0
512.0,512.0,514.0,505.0,507.0
508.0,507.0,502.0,501.0,509.0
508.0,503.0,496.0,500.0,515.0
503.0,502.0,501.0,503.0,518.0
503.0,503.0,507.0,507.0,518.0
511.0,504.0,519.0,514.0,519.0
513.0,508.0,519.0,519.0,516.0
515.0,508.0,525.0,524.0,521.0
516.0,506.0,525.0,525.0,518.0
517.0,505.0,525.0,520.0,518.0
513.0,503.0,518.0,517.0,518.0
516.0,506.0,521.0,519.0,517.0
518.0,509.0,521.0,520.0,514.0
524.0,513.0,520.0,516.0,511.0
523.0,516.0,520.0,519.0,508.0
523.0,517.0,517.0,517.0,503.0
517.0,513.0,511.0,509.0,505.0
511.0,510.0,505.0,511.0,510.0
507.0,506.0,505.0,501.0,510.0
504.0,500.0,496.0,500.0,514.0
501.0,502.0,507.0,505.0,518.0
502.0,505.0,508.0,508.0,517.0
507.0,504.0,515.0,517.0,515.0
516.0,507.0,522.0,521.0,515.0
517.0,506.0,523.0,525.0,514.0
516.0,506.0,526.0,524.0,514.0
512.0,504.0,522.0,520.0,510.0
511.0,506.0,523.0,520.0,513.0
513.0,506.0,521.0,520.0,511.0
514.0,508.0,519.0,517.0,509.0
522.0,511.0,520.0,518.0,504.0
523.0,516.0,520.0,517.0,502.0
521.0,517.0,519.0,515.0,509.0
519.0,511.0,511.0,508.0,513.0
514.0,507.0,505.0,503.0,508.0
510.0,504.0,500.0,501.0,513.0
503.0,499.0,498.0,498.0,516.0
500.0,500.0,500.0,504.0,518.0
503.0,500.0,504.0,512.0,518.0
510.0,503.0,512.0,519.0,515.0
516.0,507.0,523.0,525.0,513.0
520.0,508.0,526.0,527.0,512.0
518.0,507.0,524.0,525.0,516.0
513.0,506.0,521.0,517.0,516.0
511.0,510.0,521.0,513.0,517.0
513.0,511.0,520.0,515.0,519.0
518.0,510.0,518.0,513.0,515.0
522.0,516.0,523.0,515.0,510.0
518.0,517.0,517.0,514.0,510.0
517.0,516.0,512.0,509.0,508.0
510.0,511.0,506.0,503.0,509.0
508.0,509.0,502.0,503.0,512.0
505.0,502.0,499.0,499.0,512.0
502.0,500.0,500.0,501.0,516.0
502.0,500.0,502.0,507.0,519.0
506.0,504.0,509.0,515.0,519.0
511.0,506.0,518.0,524.0,516.0
511.0,506.0,521.0,523.0,516.0
509.0,505.0,523.0,523.0,519.0
510.0,504.0,521.0,520.0,518.0
510.0,504.0,519.0,517.0,516.0
512.0,504.0,521.0,517.0,519.0
517.0,506.0,520.0,514.0,516.0
518.0,514.0,520.0,515.0,515.0
520.0,515.0,522.0,515.0,509.0
526.0,516.0,515.0,515.0,500.0
521.0,513.0,514.0,510.0,506.0
515.0,511.0,508.0,506.0,507.0
510.0,507.0,503.0,508.0,510.0
502.0,500.0,493.0,498.0,520.0
500.0,497.0,497.0,499.0,519.0
502.0,499.0,504.0,508.0,517.0
509.0,502.0,513.0,516.0,519.0
515.0,507.0,520.0,522.0,515.0
514.0,506.0,522.0,524.0,516.0
515.0,507.0,522.0,525.0,519.0
512.0,506.0,520.0,519.0,519.0
514.0,512.0,522.0,520.0,518.0
517.0,506.0,519.0,517.0,516.0
516.0,508.0,520.0,518.0,513.0
524.0,513.0,521.0,517.0,509.0
528.0,520.0,524.0,517.0,508.0
524.0,520.0,518.0,516.0,509.0
514.0,514.0,511.0,511.0,508.0
512.0,510.0,507.0,506.0,510.0
509.0,506.0,502.0,503.0,512.0
504.0,504.0,500.0,505.0,517.0
497.0,501.0,500.0,504.0,519.0
502.0,501.0,507.0,512.0,518.0
508.0,501.0,517.0,518.0,517.0
511.0,503.0,520.0,522.0,516.0
515.0,508.0,527.0,527.0,518.0
514.0,504.0,524.0,520.0,516.0
514.0,502.0,524.0,521.0,523.0
512.0,504.0,521.0,519.0,523.0
514.0,507.0,519.0,517.0,516.0
518.0,509.0,518.0,517.0,513.0
526.0,516.0,523.0,518.0,504.0
524.0,517.0,522.0,518.0,505.0
520.0,520.0,518.0,514.0,504.0
514.0,516.0,510.0,508.0,512.0
507.0,508.0,506.0,500.0,514.0
503.0,504.0,499.0,499.0,514.0
500.0,501.0,502.0,503.0,518.0
502.0,503.0,507.0,507.0,519.0
507.0,504.0,512.0,517.0,519.0
511.0,510.0,521.0,521.0,517.0
513.0,505.0,523.0,524.0,516.0
518.0,506.0,529.0,525.0,516.0
513.0,506.0,523.0,525.0,518.0
509.0,502.0,519.0,516.0,520.0
510.0,504.0,518.0,520.0,518.0
513.0,507.0,518.0,516.0,515.0
515.0,509.0,518.0,515.0,515.0
522.0,516.0,521.0,519.0,508.0
523.0,518.0,519.0,515.0,505.0
516.0,515.0,511.0,508.0,508.0
510.0,510.0,505.0,503.0,513.0
505.0,508.0,503.0,501.0,513.0
502.0,502.0,498.0,503.0,516.0
498.0,499.0,500.0,501.0,518.0
501.0,499.0,504.0,506.0,518.0
504.0,499.0,512.0,515.0,515.0
513.0,507.0,519.0,523.0,516.0
513.0,508.0,526.0,525.0,516.0
517.0,507.0,524.0,528.0,513.0
515.0,506.0,522.0,526.0,514.0
517.0,508.0,526.0,520.0,512.0
514.0,509.0,525.0,519.0,516.0
518.0,509.0,521.0,517.0,510.0
522.0,514.0,523.0,518.0,506.0
529.0,518.0,523.0,521.0,505.0
521.0,518.0,519.0,516.0,505.0
517.0,514.0,508.0,511.0,507.0
510.0,509.0,505.0,503.0,509.0
507.0,507.0,504.0,500.0,512.0
501.0,500.0,499.0,500.0,517.0
500.0,504.0,502.0,505.0,517.0
506.0,501.0,508.0,510.0,515.0
512.0,502.0,516.0,518.0,514.0
512.0,504.0,520.0,525.0,515.0
515.0,505.0,525.0,529.0,516.0
516.0,503.0,525.0,524.0,515.0
512.0,503.0,522.0,521.0,517.0
514.0,505.0,520.0,518.0,513.0
517.0,507.0,520.0,519.0,511.0
516.0,510.0,518.0,516.0,509.0
520.0,513.0,520.0,518.0,504.0
521.0,519.0,519.0,520.0,503.0
521.0,515.0,515.0,513.0,503.0
516.0,507.0,506.0,507.0,507.0
506.0,508.0,504.0,504.0,513.0
509.0,508.0,500.0,501.0,514.0
502.0,503.0,501.0,506.0,516.0
502.0,501.0,503.0,505.0,517.0
509.0,502.0,511.0,515.0,512.0
514.0,504.0,518.0,522.0,512.0
516.0,510.0,524.0,527.0,510.0
523.0,510.0,527.0,526.0,509.0
513.0,507.0,524.0,525.0,517.0
509.0,505.0,522.0,521.0,519.0
510.0,503.0,519.0,514.0,517.0
512.0,505.0,519.0,516.0,518.0
516.0,511.0,518.0,519.0,511.0
523.0,518.0,522.0,516.0,510.0
521.0,517.0,520.0,515.0,509.0
518.0,515.0,513.0,509.0,507.0
515.0,510.0,509.0,507.0,507.0
509.0,508.0,505.0,504.0,510.0
507.0,507.0,498.0,503.0,511.0
509.0,497.0,500.0,504.0,514.0
501.0,498.0,504.0,507.0,520.0
507.0,502.0,515.0,517.0,516.0
510.0,508.0,520.0,521.0,516.0
512.0,503.0,519.0,520.0,516.0
515.0,507.0,524.0,525.0,515.0
508.0,503.0,519.0,520.0,519.0
510.0,503.0,519.0,517.0,516.0
514.0,507.0,518.0,517.0,515.0
518.0,512.0,523.0,515.0,513.0
519.0,512.0,519.0,515.0,509.0
521.0,518.0,520.0,515.0,507.0
520.0,516.0,515.0,508.0,507.0
516.0,511.0,510.0,508.0,507.0
505.0,506.0,501.0,506.0,510.0
502.0,508.0,500.0,501.0,514.0
499.0,501.0,498.0,502.0,516.0
502.0,498.0,500.0,504.0,516.0
504.0,500.0,506.0,511.0,514.0
508.0,504.0,519.0,520.0,515.0
512.0,503.0,521.0,521.0,513.0
515.0,506.0,524.0,522.0,511.0
518.0,507.0,525.0,524.0,513.0
513.0,505.0,521.0,526.0,516.0
516.0,505.0,521.0,518.0,515.0
517.0,507.0,519.0,516.0,511.0
522.0,509.0,521.0,515.0,510.0
521.0,514.0,522.0,523.0,506.0
529.0,518.0,521.0,517.0,502.0
522.0,517.0,516.0,514.0,503.0
519.0,514.0,511.0,513.0,504.0
513.0,510.0,506.0,509.0,507.0
504.0,504.0,500.0,501.0,514.0
503.0,500.0,499.0,502.0,514.0
503.0,501.0,502.0,506.0,516.0
506.0,501.0,510.0,514.0,519.0
515.0,503.0,514.0,520.0,514.0
513.0,505.0,522.0,526.0,512.0
517.0,510.0,526.0,526.0,514.0
516.0,503.0,523.0,525.0,514.0
513.0,502.0,521.0,519.0,515.0
516.0,507.0,522.0,518.0,515.0
518.0,512.0,520.0,522.0,512.0
519.0,509.0,519.0,516.0,508.0
524.0,515.0,523.0,519.0,505.0
527.0,516.0,520.0,518.0,502.0
522.0,519.0,517.0,513.0,505.0
513.0,511.0,508.0,510.0,505.0
509.0,507.0,504.0,504.0,508.0
502.0,499.0,498.0,499.0,516.0
498.0,498.0,500.0,504.0,518.0
502.0,503.0,507.0,508.0,517.0
510.0,502.0,510.0,515.0,516.0
516.0,505.0,519.0,521.0,511.0
515.0,500.0,524.0,525.0,516.0
518.0,506.0,526.0,524.0,515.0
514.0,503.0,523.0,520.0,516.0
512.0,508.0,521.0,519.0,518.0
514.0,507.0,522.0,522.0,515.0
516.0,509.0,522.0,518.0,513.0
518.0,511.0,521.0,520.0,508.0
523.0,513.0,520.0,518.0,504.0
524.0,515.0,521.0,514.0,501.0
518.0,514.0,514.0,509.0,503.0
509.0,509.0,501.0,503.0,510.0
506.0,503.0,501.0,502.0,512.0
502.0,500.0,498.0,501.0,517.0
497.0,496.0,499.0,501.0,519.0
498.0,497.0,504.0,507.0,520.0
506.0,502.0,512.0,515.0,517.0
514.0,505.0,519.0,522.0,515.0
520.0,506.0,523.0,522.0,512.0
518.0,505.0,525.0,530.0,511.0
519.0,503.0,520.0,523.0,513.0
512.0,502.0,518.0,516.0,513.0
516.0,507.0,519.0,519.0,513.0
517.0,509.0,519.0,516.0,511.0
521.0,512.0,523.0,516.0,508.0
519.0,515.0,518.0,512.0,506.0
519.0,516.0,514.0,516.0,506.0
513.0,514.0,512.0,510.0,507.0
510.0,509.0,507.0,504.0,511.0
506.0,506.0,502.0,500.0,507.0
503.0,501.0,500.0,503.0,513.0
502.0,498.0,505.0,507.0,513.0
509.0,499.0,509.0,521.0,509.0
515.0,506.0,523.0,523.0,514.0
514.0,513.0,525.0,523.0,520.0
516.0,508.0,526.0,523.0,515.0
514.0,508.0,525.0,523.0,519.0
511.0,505.0,521.0,519.0,518.0
510.0,507.0,521.0,515.0,518.0
517.0,509.0,525.0,517.0,514.0
518.0,511.0,525.0,516.0,509.0
522.0,514.0,521.0,515.0,507.0
522.0,515.0,518.0,515.0,506.0
519.0,515.0,514.0,512.0,507.0
510.0,510.0,509.0,508.0,510.0
505.0,510.0,504.0,504.0,512.0
498.0,501.0,498.0,501.0,519.0
500.0,501.0,504.0,504.0,518.0
504.0,502.0,512.0,510.0,518.0
508.0,501.0,513.0,522.0,519.0
513.0,503.0,519.0,523.0,516.0
516.0,507.0,525.0,527.0,516.0
513.0,504.0,526.0,525.0,518.0
513.0,508.0,523.0,521.0,518.0
511.0,506.0,526.0,521.0,520.0
512.0,504.0,521.0,518.0,516.0
517.0,509.0,521.0,517.0,513.0
525.0,514.0,521.0,517.0,511.0
522.0,516.0,521.0,519.0,509.0
526.0,516.0,519.0,514.0,504.0
518.0,515.0,511.0,510.0,503.0
511.0,508.0,506.0,506.0,506.0
507.0,506.0,502.0,503.0,513.0
502.0,501.0,498.0,502.0,518.0
503.0,498.0,501.0,505.0,519.0
507.0,499.0,503.0,511.0,518.0
509.0,503.0,515.0,521.0,515.0
512.0,501.0,521.0,525.0,517.0
515.0,505.0,523.0,527.0,518.0
517.0,505.0,522.0,526.0,518.0
519.0,504.0,523.0,520.0,517.0
516.0,502.0,520.0,521.0,513.0
517.0,509.0,519.0,520.0,516.0
516.0,513.0,520.0,519.0,516.0
521.0,513.0,517.0,517.0,512.0
524.0,520.0,520.0,518.0,508.0
521.0,518.0,516.0,513.0,505.0
517.0,514.0,509.0,510.0,508.0
513.0,510.0,508.0,504.0,511.0
505.0,505.0,500.0,500.0,518.0
504.0,502.0,499.0,501.0,517.0
499.0,497.0,499.0,504.0,521.0
504.0,499.0,507.0,509.0,521.0
507.0,501.0,512.0,516.0,519.0
512.0,503.0,519.0,523.0,517.0
514.0,505.0,524.0,525.0,521.0
514.0,505.0,523.0,523.0,521.0
512.0,504.0,521.0,518.0,524.0
514.0,508.0,518.0,517.0,518.0
517.0,508.0,522.0,517.0,519.0
521.0,516.0,520.0,519.0,510.0
520.0,516.0,521.0,522.0,508.0
522.0,514.0,517.0,513.0,510.0
519.0,511.0,510.0,508.0,510.0
514.0,513.0,505.0,505.0,509.0
503.0,508.0,505.0,505.0,511.0
503.0,505.0,499.0,501.0,515.0
502.0,505.0,498.0,506.0,518.0
508.0,500.0,505.0,513.0,515.0
514.0,502.0,512.0,518.0,514.0
513.0,508.0,518.0,522.0,512.0
515.0,509.0,525.0,525.0,515.0
515.0,506.0,523.0,522.0,517.0
515.0,504.0,517.0,519.0,517.0
512.0,504.0,518.0,521.0,521.0
514.0,507.0,516.0,516.0,517.0
520.0,508.0,517.0,515.0,512.0
522.0,513.0,520.0,516.0,508.0
522.0,516.0,519.0,512.0,505.0
523.0,517.0,515.0,515.0,504.0
523.0,516.0,514.0,510.0,510.0
516.0,511.0,507.0,504.0,509.0
510.0,507.0,501.0,501.0,510.0
503.0,502.0,493.0,501.0,515.0
504.0,501.0,500.0,504.0,519.0
505.0,502.0,501.0,512.0,519.0
509.0,507.0,514.0,518.0,517.0
513.0,506.0,519.0,520.0,517.0
516.0,506.0,522.0,525.0,517.0
515.0,504.0,521.0,527.0,518.0
513.0,501.0,519.0,520.0,521.0
513.0,507.0,519.0,519.0,519.0
517.0,508.0,518.0,519.0,518.0
517.0,509.0,518.0,516.0,516.0
521.0,515.0,520.0,521.0,509.0
525.0,520.0,520.0,518.0,503.0
519.0,515.0,518.0,515.0,503.0
519.0,516.0,514.0,511.0,507.0
512.0,512.0,502.0,504.0,511.0
507.0,503.0,498.0,501.0,514.0
506.0,501.0,498.0,503.0,515.0
503.0,500.0,502.0,505.0,526.0
503.0,504.0,510.0,513.0,521.0
507.0,506.0,517.0,519.0,522.0
508.0,508.0,521.0,522.0,519.0
510.0,506.0,521.0,517.0,523.0
511.0,502.0,519.0,519.0,523.0
509.0,504.0,518.0,516.0,520.0
512.0,511.0,520.0,518.0,520.0
514.0,509.0,519.0,513.0,518.0
520.0,511.0,520.0,515.0,513.0
520.0,516.0,519.0,516.0,505.0
524.0,518.0,519.0,516.0,507.0
518.0,516.0,514.0,510.0,509.0
515.0,512.0,508.0,509.0,509.0
510.0,509.0,500.0,500.0,513.0
504.0,504.0,498.0,497.0,518.0
496.0,497.0,497.0,499.0,522.0
503.0,501.0,504.0,506.0,520.0
505.0,502.0,509.0,513.0,519.0
509.0,505.0,518.0,519.0,516.0
512.0,509.0,519.0,522.0,519.0
514.0,508.0,524.0,528.0,517.0
511.0,504.0,520.0,524.0,522.0
508.0,502.0,515.0,515.0,523.0
511.0,503.0,515.0,513.0,519.0
516.0,506.0,518.0,514.0,515.0
518.0,512.0,517.0,516.0,511.0
524.0,518.0,520.0,517.0,507.0
525.0,516.0,517.0,515.0,504.0
517.0,518.0,511.0,508.0,503.0
511.0,508.0,504.0,506.0,508.0
506.0,508.0,500.0,503.0,511.0
500.0,502.0,497.0,500.0,518.0
504.0,503.0,501.0,504.0,518.0
510.0,503.0,506.0,510.0,516.0
511.0,505.0,515.0,514.0,517.0
516.0,506.0,518.0,521.0,517.0
520.0,510.0,524.0,526.0,517.0
517.0,507.0,524.0,522.0,515.0
513.0,505.0,521.0,520.0,512.0
517.0,507.0,523.0,518.0,518.0
517.0,509.0,519.0,516.0,519.0
518.0,511.0,522.0,517.0,515.0
521.0,513.0,520.0,516.0,510.0
524.0,517.0,518.0,519.0,506.0
525.0,520.0,515.0,511.0,509.0
513.0,513.0,507.0,507.0,507.0
511.0,509.0,503.0,507.0,509.0
507.0,506.0,499.0,505.0,511.0
504.0,501.0,501.0,501.0,516.0
503.0,501.0,501.0,506.0,518.0
504.0,502.0,508.0,511.0,517.0
511.0,504.0,516.0,519.0,515.0
515.0,506.0,521.0,525.0,517.0
516.0,506.0,523.0,523.0,516.0
519.0,505.0,523.0,521.0,519.0
515.0,505.0,520.0,518.0,518.0
518.0,506.0,520.0,519.0,517.0
518.0,510.0,520.0,517.0,515.0
518.0,512.0,521.0,520.0,513.0
522.0,513.0,519.0,515.0,505.0
522.0,517.0,518.0,515.0,504.0
525.0,517.0,515.0,515.0,503.0
516.0,512.0,509.0,510.0,507.0
507.0,510.0,503.0,502.0,514.0
502.0,505.0,503.0,498.0,518.0
500.0,500.0,500.0,502.0,519.0
504.0,502.0,506.0,507.0,517.0
511.0,504.0,513.0,513.0,518.0
511.0,504.0,522.0,522.0,516.0
519.0,506.0,522.0,523.0,511.0
514.0,506.0,524.0,524.0,518.0
513.0,508.0,521.0,518.0,519.0
515.0,504.0,519.0,513.0,517.0
519.0,506.0,522.0,516.0,519.0
519.0,509.0,521.0,518.0,512.0
525.0,510.0,520.0,515.0,509.0
521.0,514.0,518.0,516.0,507.0
520.0,516.0,518.0,514.0,505.0
516.0,515.0,512.0,512.0,508.0
511.0,511.0,506.0,505.0,510.0
502.0,503.0,499.0,498.0,516.0
494.0,498.0,495.0,496.0,518.0
497.0,499.0,500.0,499.0,518.0
503.0,500.0,504.0,507.0,517.0
509.0,501.0,513.0,516.0,515.0
512.0,504.0,521.0,518.0,517.0
513.0,505.0,523.0,528.0,518.0
518.0,506.0,523.0,523.0,514.0
518.0,505.0,524.0,522.0,516.0
513.0,507.0,519.0,519.0,518.0
515.0,510.0,519.0,517.0,512.0
518.0,508.0,520.0,518.0,515.0
520.0,512.0,520.0,520.0,509.0
526.0,516.0,521.0,518.0,500.0
522.0,516.0,519.0,516.0,506.0
517.0,512.0,513.0,511.0,508.0
511.0,508.0,507.0,507.0,507.0
509.0,505.0,500.0,500.0,516.0
504.0,501.0,501.0,499.0,518.0
500.0,499.0,502.0,505.0,522.0
505.0,500.0,510.0,513.0,518.0
513.0,503.0,518.0,518.0,516.0
515.0,501.0,521.0,523.0,515.0
515.0,506.0,525.0,528.0,515.0
514.0,505.0,523.0,526.0,513.0
516.0,505.0,522.0,522.0,515.0
514.0,506.0,521.0,518.0,521.0
515.0,511.0,520.0,518.0,517.0
520.0,511.0,520.0,511.0,511.0
521.0,515.0,521.0,515.0,509.0
525.0,515.0,518.0,516.0,505.0
522.0,515.0,513.0,511.0,505.0
514.0,510.0,508.0,508.0,508.0
506.0,506.0,503.0,503.0,511.0
501.0,502.0,499.0,501.0,514.0
503.0,505.0,502.0,505.0,517.0
503.0,502.0,506.0,508.0,518.0
507.0,503.0,512.0,514.0,519.0
513.0,506.0,520.0,523.0,515.0
512.0,505.0,522.0,522.0,514.0
516.0,508.0,524.0,527.0,515.0
515.0,507.0,524.0,524.0,517.0
516.0,504.0,519.0,516.0,519.0
516.0,506.0,519.0,517.0,517.0
519.0,509.0,522.0,518.0,514.0
522.0,510.0,520.0,516.0,512.0
526.0,516.0,520.0,517.0,507.0
524.0,519.0,517.0,516.0,502.0
520.0,515.0,513.0,514.0,502.0
516.0,512.0,508.0,505.0,507.0
505.0,505.0,502.0,500.0,512.0
501.0,501.0,499.0,500.0,519.0
504.0,501.0,500.0,503.0,519.0
506.0,502.0,510.0,511.0,515.0
509.0,501.0,518.0,517.0,521.0
520.0,505.0,519.0,521.0,512.0
515.0,508.0,522.0,521.0,514.0
514.0,505.0,525.0,522.0,519.0
511.0,497.0,520.0,516.0,520.0
512.0,504.0,518.0,516.0,519.0
513.0,503.0,516.0,513.0,516.0
516.0,507.0,517.0,513.0,516.0
522.0,512.0,520.0,517.0,509.0
526.0,516.0,523.0,517.0,505.0
520.0,512.0,517.0,510.0,507.0
517.0,512.0,509.0,510.0,507.0
506.0,506.0,503.0,500.0,510.0
504.0,505.0,501.0,500.0,511.0
501.0,500.0,499.0,502.0,517.0
498.0,498.0,500.0,505.0,520.0
502.0,498.0,507.0,511.0,521.0
508.0,502.0,517.0,518.0,518.0
515.0,504.0,522.0,524.0,517.0
518.0,509.0,525.0,526.0,516.0
517.0,507.0,527.0,524.0,515.0
513.0,503.0,525.0,520.0,519.0
515.0,504.0,521.0,516.0,517.0
516.0,507.0,521.0,519.0,516.0
518.0,509.0,519.0,515.0,512.0
524.0,515.0,522.0,520.0,507.0
522.0,517.0,519.0,518.0,505.0
521.0,515.0,515.0,513.0,504.0
513.0,511.0,505.0,510.0,506.0
509.0,509.0,505.0,505.0,510.0
512.0,506.0,500.0,505.0,510.0
505.0,500.0,500.0,504.0,517.0
501.0,500.0,504.0,508.0,521.0
508.0,502.0,514.0,512.0,523.0
511.0,504.0,520.0,521.0,520.0
515.0,506.0,523.0,522.0,517.0
518.0,507.0,528.0,528.0,516.0
516.0,504.0,522.0,522.0,518.0
518.0,505.0,521.0,521.0,519.0
518.0,505.0,519.0,522.0,518.0
519.0,509.0,518.0,516.0,515.0
521.0,511.0,521.0,517.0,512.0
523.0,513.0,520.0,517.0,512.0
531.0,517.0,519.0,514.0,504.0
526.0,517.0,515.0,519.0,502.0
516.0,516.0,510.0,509.0,508.0
508.0,508.0,506.0,502.0,516.0
500.0,501.0,497.0,495.0,520.0
499.0,499.0,499.0,499.0,522.0
503.0,502.0,506.0,510.0,520.0
508.0,503.0,515.0,515.0,523.0
512.0,507.0,521.0,522.0,519.0
515.0,506.0,523.0,523.0,518.0
520.0,507.0,525.0,527.0,518.0
515.0,502.0,521.0,521.0,519.0
514.0,508.0,521.0,518.0,519.0
514.0,507.0,521.0,517.0,519.0
518.0,507.0,513.0,514.0,516.0
522.0,510.0,521.0,515.0,511.0
525.0,516.0,520.0,518.0,511.0
525.0,512.0,515.0,513.0,506.0
518.0,514.0,512.0,508.0,508.0
512.0,511.0,504.0,508.0,511.0
506.0,507.0,500.0,501.0,511.0
505.0,501.0,498.0,502.0,515.0
502.0,500.0,502.0,504.0,519.0
504.0,503.0,508.0,512.0,517.0
512.0,504.0,516.0,520.0,515.0
517.0,508.0,521.0,524.0,513.0
516.0,503.0,522.0,523.0,516.0
515.0,502.0,520.0,522.0,521.0
509.0,501.0,517.0,517.0,525.0
514.0,505.0,524.0,516.0,520.0
518.0,508.0,519.0,517.0,519.0
511.0,508.0,512.0,514.0,517.0
521.0,512.0,518.0,517.0,509.0
523.0,514.0,517.0,513.0,507.0
516.0,515.0,515.0,513.0,507.0
516.0,513.0,510.0,508.0,507.0
507.0,506.0,503.0,502.0,512.0
499.0,499.0,496.0,496.0,517.0
501.0,499.0,497.0,497.0,518.0
502.0,499.0,503.0,505.0,518.0
507.0,501.0,508.0,513.0,517.0
513.0,505.0,515.0,522.0,518.0
516.0,505.0,523.0,523.0,516.0
516.0,504.0,525.0,525.0,516.0
517.0,505.0,523.0,523.0,517.0
515.0,503.0,521.0,519.0,519.0
514.0,507.0,520.0,517.0,515.0
518.0,509.0,522.0,516.0,513.0
522.0,509.0,520.0,517.0,514.0
524.0,514.0,520.0,518.0,505.0
527.0,518.0,522.0,522.0,504.0
522.0,515.0,513.0,511.0,504.0
516.0,509.0,506.0,505.0,509.0
508.0,505.0,502.0,502.0,511.0
503.0,497.0,498.0,498.0,512.0
500.0,501.0,499.0,501.0,517.0
503.0,497.0,504.0,509.0,515.0
508.0,501.0,513.0,517.0,514.0
518.0,505.0,521.0,521.0,513.0
515.0,505.0,523.0,523.0,515.0
516.0,505.0,523.0,522.0,517.0
512.0,502.0,521.0,520.0,519.0
514.0,506.0,520.0,517.0,516.0
514.0,504.0,521.0,518.0,515.0
514.0,506.0,519.0,516.0,512.0
520.0,512.0,523.0,518.0,507.0
523.0,513.0,520.0,519.0,503.0
523.0,519.0,522.0,515.0,501.0
519.0,513.0,511.0,511.0,506.0
512.0,507.0,504.0,506.0,510.0
506.0,506.0,501.0,501.0,512.0
503.0,502.0,498.0,502.0,514.0
501.0,498.0,500.0,504.0,519.0
505.0,501.0,512.0,512.0,517.0
514.0,504.0,516.0,518.0,513.0
513.0,508.0,520.0,524.0,515.0
515.0,505.0,526.0,527.0,516.0
515.0,504.0,522.0,524.0,516.0
512.0,502.0,520.0,522.0,520.0
515.0,503.0,521.0,517.0,514.0
518.0,504.0,518.0,519.0,510.0
518.0,509.0,524.0,517.0,507.0
520.0,514.0,523.0,519.0,506.0
523.0,514.0,518.0,515.0,505.0
520.0,514.0,513.0,510.0,502.0
515.0,512.0,511.0,505.0,506.0
508.0,505.0,502.0,503.0,510.0
500.0,503.0,499.0,499.0,515.0
499.0,500.0,499.0,500.0,519.0
502.0,499.0,503.0,507.0,518.0
503.0,500.0,508.0,511.0,520.0
508.0,505.0,514.0,516.0,518.0
515.0,501.0,520.0,523.0,516.0
519.0,503.0,524.0,525.0,514.0
514.0,501.0,516.0,521.0,516.0
511.0,500.0,518.0,518.0,517.0
516.0,502.0,521.0,517.0,512.0
515.0,506.0,517.0,517.0,512.0
520.0,511.0,521.0,517.0,508.0
525.0,515.0,521.0,518.0,507.0
520.0,515.0,515.0,511.0,506.0
513.0,511.0,509.0,506.0,507.0
507.0,509.0,506.0,506.0,508.0
506.0,504.0,500.0,500.0,510.0
503.0,500.0,497.0,501.0,514.0
506.0,500.0,505.0,503.0,520.0
505.0,502.0,506.0,510.0,518.0
514.0,504.0,515.0,515.0,516.0
514.0,503.0,520.0,522.0,520.0
519.0,510.0,524.0,527.0,513.0
514.0,505.0,524.0,526.0,517.0
517.0,503.0,521.0,517.0,514.0
514.0,503.0,521.0,524.0,515.0
511.0,505.0,525.0,520.0,514.0
516.0,506.0,520.0,514.0,517.0
522.0,512.0,523.0,521.0,511.0
522.0,517.0,521.0,516.0,509.0
523.0,515.0,519.0,513.0,506.0
520.0,513.0,516.0,510.0,508.0
511.0,507.0,505.0,503.0,510.0
507.0,504.0,501.0,502.0,511.0
501.0,503.0,499.0,495.0,515.0
503.0,500.0,497.0,504.0,517.0
506.0,501.0,509.0,510.0,516.0
513.0,508.0,516.0,520.0,515.0
519.0,506.0,522.0,524.0,515.0
515.0,507.0,525.0,525.0,521.0
516.0,504.0,522.0,519.0,516.0
522.0,504.0,522.0,520.0,517.0
516.0,513.0,523.0,521.0,519.0
521.0,507.0,516.0,517.0,516.0
522.0,510.0,522.0,513.0,517.0
518.0,513.0,520.0,515.0,510.0
526.0,516.0,517.0,513.0,507.0
520.0,518.0,514.0,511.0,509.0
518.0,517.0,509.0,507.0,507.0
509.0,506.0,503.0,500.0,512.0
504.0,503.0,499.0,497.0,514.0
500.0,500.0,498.0,499.0,516.0
502.0,500.0,503.0,503.0,519.0
507.0,504.0,509.0,513.0,520.0
510.0,505.0,517.0,520.0,518.0
515.0,510.0,522.0,523.0,515.0
516.0,505.0,524.0,526.0,516.0
516.0,505.0,522.0,523.0,517.0
517.0,505.0,520.0,519.0,518.0
514.0,507.0,522.0,520.0,520.0
517.0,506.0,519.0,521.0,515.0
524.0,507.0,517.0,516.0,511.0
521.0,512.0,520.0,515.0,509.0
522.0,518.0,513.0,514.0,502.0
521.0,515.0,513.0,510.0,510.0
514.0,515.0,506.0,506.0,508.0
510.0,506.0,501.0,501.0,512.0
500.0,499.0,494.0,497.0,517.0
498.0,500.0,497.0,499.0,520.0
504.0,499.0,505.0,505.0,519.0
509.0,505.0,510.0,515.0,517.0
514.0,506.0,513.0,520.0,514.0
514.0,505.0,522.0,522.0,517.0
511.0,503.0,522.0,520.0,518.0
512.0,502.0,522.0,519.0,523.0
515.0,505.0,521.0,522.0,520.0
515.0,509.0,519.0,517.0,516.0
518.0,508.0,517.0,515.0,514.0
520.0,511.0,519.0,516.0,512.0
523.0,518.0,519.0,519.0,506.0
519.0,518.0,518.0,516.0,504.0
517.0,514.0,513.0,514.0,506.0
512.0,514.0,507.0,508.0,508.0
507.0,504.0,503.0,503.0,516.0
502.0,502.0,504.0,502.0,515.0
504.0,502.0,503.0,504.0,518.0
506.0,504.0,509.0,511.0,516.0
512.0,505.0,515.0,518.0,519.0
512.0,504.0,520.0,523.0,518.0
519.0,506.0,524.0,528.0,513.0
519.0,508.0,524.0,526.0,517.0
512.0,505.0,522.0,522.0,521.0
515.0,505.0,523.0,519.0,518.0
519.0,510.0,520.0,519.0,515.0
520.0,511.0,522.0,519.0,517.0
522.0,514.0,522.0,518.0,509.0
524.0,519.0,520.0,516.0,505.0
524.0,518.0,517.0,516.0,505.0
519.0,517.0,510.0,511.0,506.0
510.0,510.0,503.0,503.0,510.0
506.0,507.0,502.0,503.0,514.0
504.0,505.0,500.0,501.0,516.0
501.0,500.0,505.0,504.0,517.0
509.0,501.0,511.0,513.0,519.0
515.0,504.0,517.0,520.0,514.0
517.0,506.0,523.0,525.0,514.0
519.0,505.0,524.0,524.0,515.0
516.0,505.0,523.0,522.0,518.0
513.0,505.0,522.0,521.0,522.0
513.0,505.0,521.0,521.0,516.0
513.0,511.0,521.0,518.0,514.0
513.0,509.0,518.0,515.0,512.0
522.0,515.0,521.0,520.0,508.0
525.0,519.0,522.0,515.0,503.0
522.0,519.0,514.0,512.0,506.0
516.0,511.0,503.0,506.0,508.0
509.0,505.0,501.0,503.0,508.0
508.0,501.0,499.0,506.0,513.0
505.0,501.0,502.0,508.0,518.0
502.0,501.0,505.0,511.0,520.0
505.0,504.0,513.0,516.0,523.0
515.0,502.0,518.0,520.0,521.0
515.0,510.0,523.0,524.0,517.0
517.0,506.0,526.0,527.0,518.0
512.0,501.0,520.0,521.0,520.0
515.0,504.0,520.0,522.0,522.0
516.0,506.0,518.0,518.0,518.0
518.0,512.0,519.0,512.0,512.0
516.0,511.0,522.0,516.0,509.0
520.0,514.0,518.0,513.0,511.0
519.0,515.0,517.0,509.0,509.0
516.0,512.0,512.0,506.0,510.0
512.0,508.0,505.0,501.0,515.0
501.0,503.0,499.0,498.0,511.0
497.0,498.0,496.0,496.0,515.0
501.0,497.0,501.0,503.0,521.0
502.0,502.0,508.0,510.0,519.0
507.0,503.0,513.0,517.0,519.0
511.0,502.0,517.0,523.0,519.0
515.0,505.0,523.0,524.0,517.0
516.0,503.0,524.0,524.0,517.0
513.0,507.0,522.0,521.0,522.0
517.0,505.0,520.0,518.0,519.0
519.0,506.0,517.0,513.0,519.0
516.0,510.0,519.0,514.0,514.0
522.0,513.0,520.0,522.0,510.0
526.0,516.0,521.0,517.0,505.0
523.0,518.0,520.0,514.0,508.0
521.0,514.0,512.0,509.0,508.0
512.0,508.0,504.0,503.0,512.0
507.0,507.0,501.0,502.0,513.0
502.0,502.0,498.0,501.0,516.0
501.0,499.0,503.0,506.0,518.0
506.0,500.0,510.0,514.0,517.0
512.0,504.0,518.0,519.0,516.0
515.0,508.0,528.0,526.0,518.0
518.0,506.0,523.0,526.0,515.0
517.0,505.0,523.0,524.0,517.0
509.0,504.0,524.0,522.0,519.0
516.0,505.0,521.0,519.0,522.0
516.0,506.0,520.0,518.0,515.0
519.0,509.0,514.0,516.0,513.0
522.0,514.0,520.0,517.0,508.0
527.0,517.0,519.0,516.0,505.0
523.0,516.0,512.0,512.0,506.0
517.0,511.0,506.0,508.0,508.0
510.0,506.0,502.0,503.0,511.0
503.0,502.0,499.0,500.0,518.0
503.0,501.0,505.0,503.0,520.0
504.0,500.0,504.0,507.0,517.0
507.0,503.0,511.0,515.0,517.0
508.0,504.0,519.0,519.0,516.0
517.0,505.0,523.0,525.0,521.0
516.0,505.0,524.0,526.0,520.0
518.0,504.0,523.0,522.0,517.0
515.0,503.0,520.0,517.0,519.0
516.0,505.0,518.0,514.0,516.0
517.0,505.0,519.0,516.0,516.0
521.0,510.0,518.0,514.0,508.0
524.0,515.0,522.0,514.0,507.0
521.0,515.0,516.0,510.0,506.0
514.0,512.0,511.0,509.0,508.0
512.0,509.0,509.0,505.0,509.0
508.0,506.0,501.0,501.0,511.0
502.0,501.0,497.0,500.0,516.0
500.0,499.0,501.0,501.0,518.0
506.0,501.0,506.0,508.0,518.0
511.0,502.0,514.0,512.0,518.0
517.0,507.0,523.0,522.0,513.0
518.0,507.0,526.0,525.0,513.0
514.0,506.0,527.0,523.0,518.0
511.0,503.0,519.0,518.0,522.0
514.0,503.0,519.0,516.0,518.0
515.0,505.0,519.0,516.0,516.0
520.0,508.0,518.0,515.0,513.0
519.0,511.0,517.0,514.0,510.0
527.0,516.0,519.0,511.0,508.0
521.0,516.0,515.0,507.0,511.0
514.0,511.0,506.0,505.0,507.0
511.0,508.0,500.0,499.0,512.0
510.0,503.0,501.0,502.0,517.0
511.0,502.0,501.0,505.0,514.0
505.0,498.0,505.0,504.0,515.0
499.0,500.0,511.0,511.0,518.0
503.0,504.0,514.0,516.0,516.0
511.0,507.0,523.0,521.0,520.0
516.0,504.0,522.0,520.0,518.0
512.0,503.0,521.0,518.0,517.0
512.0,506.0,520.0,517.0,519.0
514.0,507.0,521.0,520.0,517.0
513.0,514.0,522.0,517.0,513.0
519.0,510.0,521.0,518.0,506.0
520.0,516.0,522.0,516.0,508.0
522.0,516.0,518.0,513.0,505.0
521.0,519.0,514.0,506.0,506.0
519.0,514.0,512.0,507.0,509.0
506.0,506.0,502.0,497.0,512.0
503.0,503.0,497.0,495.0,516.0
502.0,501.0,501.0,503.0,518.0
505.0,502.0,510.0,508.0,518.0
509.0,504.0,513.0,514.0,516.0
516.0,504.0,519.0,527.0,516.0
512.0,507.0,524.0,528.0,513.0
516.0,510.0,528.0,527.0,515.0
516.0,502.0,520.0,522.0,513.0
514.0,503.0,519.0,520.0,520.0
512.0,506.0,519.0,516.0,520.0
518.0,507.0,520.0,516.0,519.0
519.0,511.0,522.0,516.0,510.0
526.0,516.0,522.0,516.0,506.0
525.0,518.0,519.0,515.0,503.0
515.0,515.0,514.0,511.0,507.0
512.0,510.0,505.0,506.0,508.0
503.0,504.0,501.0,502.0,514.0
501.0,501.0,498.0,497.0,518.0
503.0,500.0,501.0,503.0,518.0
506.0,502.0,506.0,511.0,516.0
509.0,503.0,512.0,516.0,516.0
514.0,505.0,521.0,522.0,515.0
515.0,508.0,529.0,526.0,516.0
513.0,504.0,522.0,522.0,519.0
514.0,503.0,520.0,519.0,520.0
517.0,504.0,520.0,518.0,517.0
517.0,508.0,518.0,517.0,514.0
518.0,507.0,518.0,514.0,511.0
521.0,516.0,520.0,517.0,509.0
523.0,516.0,519.0,519.0,508.0
521.0,514.0,512.0,512.0,505.0
514.0,510.0,508.0,508.0,504.0
510.0,508.0,504.0,504.0,510.0
507.0,508.0,499.0,496.0,512.0
504.0,499.0,497.0,502.0,514.0
503.0,500.0,501.0,506.0,515.0
506.0,501.0,507.0,511.0,518.0
513.0,506.0,517.0,518.0,516.0
516.0,505.0,521.0,523.0,515.0
517.0,505.0,524.0,525.0,515.0
516.0,504.0,524.0,523.0,516.0
511.0,503.0,521.0,520.0,519.0
513.0,500.0,516.0,513.0,521.0
522.0,508.0,520.0,515.0,515.0
517.0,508.0,516.0,514.0,512.0
522.0,512.0,518.0,518.0,510.0
519.0,514.0,516.0,516.0,509.0
524.0,513.0,513.0,509.0,509.0
516.0,511.0,508.0,507.0,513.0
507.0,504.0,500.0,505.0,512.0
498.0,500.0,496.0,499.0,518.0
501.0,499.0,498.0,498.0,517.0
503.0,499.0,501.0,506.0,517.0
507.0,501.0,510.0,516.0,518.0
513.0,501.0,511.0,518.0,516.0
513.0,506.0,518.0,519.0,517.0
514.0,504.0,521.0,523.0,515.0
516.0,508.0,523.0,523.0,520.0
513.0,503.0,521.0,519.0,519.0
518.0,502.0,519.0,517.0,519.0
521.0,508.0,521.0,521.0,513.0
524.0,515.0,520.0,517.0,509.0
523.0,517.0,524.0,519.0,508.0
521.0,514.0,516.0,514.0,504.0
517.0,513.0,511.0,510.0,504.0
510.0,505.0,505.0,504.0,508.0
507.0,505.0,501.0,502.0,512.0
499.0,501.0,498.0,500.0,521.0
499.0,501.0,502.0,504.0,521.0
506.0,503.0,505.0,510.0,518.0
518.0,502.0,514.0,518.0,513.0
517.0,504.0,522.0,527.0,514.0
518.0,506.0,524.0,524.0,515.0
515.0,507.0,525.0,526.0,517.0
514.0,506.0,525.0,521.0,517.0
517.0,504.0,524.0,521.0,514.0
517.0,507.0,520.0,518.0,516.0
514.0,511.0,520.0,516.0,514.0
517.0,512.0,520.0,517.0,511.0
521.0,517.0,521.0,517.0,506.0
521.0,516.0,516.0,512.0,505.0
518.0,513.0,509.0,507.0,506.0
509.0,508.0,503.0,505.0,509.0
505.0,504.0,499.0,502.0,512.0
501.0,501.0,498.0,506.0,517.0
503.0,501.0,503.0,508.0,517.0
509.0,503.0,509.0,518.0,516.0
512.0,505.0,518.0,522.0,514.0
512.0,505.0,521.0,526.0,515.0
519.0,505.0,523.0,526.0,514.0
516.0,502.0,523.0,523.0,516.0
514.0,508.0,520.0,519.0,520.0
515.0,504.0,520.0,517.0,520.0
516.0,507.0,520.0,518.0,517.0
518.0,512.0,518.0,514.0,511.0
522.0,519.0,519.0,516.0,510.0
523.0,515.0,518.0,516.0,506.0
520.0,513.0,512.0,512.0,506.0
515.0,515.0,509.0,510.0,511.0
508.0,507.0,503.0,502.0,512.0
507.0,502.0,499.0,500.0,516.0
503.0,500.0,499.0,505.0,515.0
508.0,498.0,507.0,509.0,515.0
508.0,498.0,512.0,516.0,515.0
514.0,508.0,521.0,527.0,514.0
518.0,505.0,522.0,526.0,513.0
510.0,504.0,521.0,521.0,515.0
513.0,502.0,518.0,522.0,517.0
510.0,504.0,517.0,516.0,520.0
512.0,504.0,521.0,516.0,519.0
514.0,508.0,519.0,514.0,518.0
518.0,510.0,518.0,513.0,512.0
520.0,513.0,517.0,513.0,507.0
520.0,517.0,514.0,516.0,506.0
520.0,516.0,514.0,510.0,506.0
515.0,509.0,506.0,504.0,509.0
509.0,504.0,501.0,500.0,513.0
501.0,506.0,498.0,500.0,522.0
501.0,499.0,494.0,503.0,519.0
507.0,502.0,508.0,511.0,514.0
505.0,506.0,513.0,517.0,517.0
512.0,508.0,519.0,519.0,516.0
518.0,508.0,525.0,528.0,514.0
518.0,506.0,520.0,524.0,515.0
514.0,506.0,521.0,523.0,518.0
513.0,506.0,520.0,521.0,518.0
509.0,506.0,519.0,517.0,516.0
517.0,511.0,521.0,516.0,514.0
523.0,514.0,525.0,520.0,512.0
522.0,519.0,519.0,517.0,505.0
522.0,518.0,517.0,515.0,506.0
517.0,515.0,511.0,509.0,508.0
514.0,511.0,504.0,503.0,510.0
506.0,510.0,500.0,502.0,512.0
502.0,502.0,499.0,502.0,515.0
502.0,501.0,503.0,508.0,518.0
507.0,502.0,511.0,513.0,517.0
514.0,506.0,517.0,523.0,517.0
513.0,506.0,522.0,525.0,517.0
517.0,507.0,529.0,527.0,516.0
517.0,502.0,523.0,523.0,514.0
514.0,501.0,520.0,519.0,518.0
514.0,505.0,522.0,520.0,518.0
515.0,509.0,519.0,517.0,513.0
522.0,510.0,522.0,515.0,514.0
521.0,514.0,520.0,517.0,507.0
525.0,517.0,521.0,517.0,503.0
522.0,516.0,516.0,514.0,504.0
515.0,512.0,510.0,510.0,509.0
507.0,507.0,504.0,504.0,510.0
504.0,505.0,500.0,500.0,513.0
502.0,502.0,501.0,506.0,516.0
506.0,502.0,505.0,507.0,513.0
507.0,504.0,512.0,514.0,515.0
511.0,504.0,517.0,522.0,519.0
518.0,505.0,523.0,525.0,513.0
515.0,506.0,524.0,525.0,516.0
514.0,504.0,524.0,522.0,515.0
513.0,505.0,526.0,521.0,517.0
514.0,507.0,518.0,518.0,515.0
522.0,512.0,520.0,517.0,513.0
522.0,512.0,521.0,516.0,513.0
524.0,515.0,520.0,518.0,503.0
526.0,517.0,518.0,515.0,504.0
520.0,514.0,514.0,512.0,505.0
514.0,510.0,507.0,507.0,507.0
510.0,508.0,501.0,502.0,510.0
505.0,502.0,498.0,499.0,514.0
506.0,497.0,502.0,504.0,513.0
512.0,502.0,510.0,509.0,512.0
505.0,500.0,511.0,514.0,518.0
511.0,504.0,523.0,520.0,517.0
514.0,505.0,522.0,522.0,515.0
512.0,503.0,521.0,520.0,518.0
510.0,502.0,518.0,516.0,523.0
513.0,504.0,519.0,516.0,515.0
516.0,507.0,520.0,520.0,514.0
515.0,511.0,519.0,515.0,515.0
518.0,510.0,517.0,519.0,511.0
523.0,513.0,517.0,515.0,506.0
524.0,516.0,518.0,514.0,502.0
518.0,514.0,511.0,509.0,506.0
510.0,507.0,503.0,500.0,515.0
505.0,505.0,498.0,501.0,511.0
504.0,501.0,496.0,499.0,518.0
504.0,497.0,499.0,505.0,517.0
510.0,498.0,507.0,513.0,514.0
515.0,503.0,515.0,519.0,515.0
517.0,505.0,519.0,516.0,515.0
518.0,508.0,525.0,530.0,514.0
514.0,506.0,525.0,522.0,516.0
511.0,502.0,519.0,519.0,518.0
512.0,507.0,521.0,517.0,519.0
514.0,507.0,519.0,515.0,520.0
520.0,511.0,519.0,515.0,513.0
522.0,512.0,519.0,520.0,512.0
525.0,515.0,519.0,516.0,504.0
519.0,517.0,515.0,513.0,505.0
511.0,512.0,508.0,507.0,511.0
507.0,505.0,502.0,502.0,512.0
505.0,502.0,500.0,499.0,517.0
500.0,500.0,499.0,498.0,518.0
502.0,499.0,505.0,505.0,518.0
507.0,501.0,509.0,512.0,515.0
511.0,505.0,521.0,519.0,517.0
516.0,505.0,516.0,522.0,516.0
516.0,508.0,530.0,526.0,518.0
514.0,506.0,521.0,524.0,517.0
512.0,505.0,520.0,519.0,521.0
512.0,507.0,518.0,515.0,519.0
516.0,508.0,520.0,516.0,514.0
526.0,512.0,520.0,516.0,511.0
527.0,515.0,520.0,517.0,507.0
528.0,517.0,519.0,519.0,504.0
523.0,516.0,517.0,513.0,505.0
515.0,512.0,511.0,507.0,509.0
511.0,508.0,507.0,504.0,511.0
505.0,503.0,501.0,502.0,516.0
507.0,503.0,502.0,505.0,516.0
506.0,504.0,507.0,511.0,518.0
505.0,504.0,515.0,516.0,521.0
506.0,503.0,518.0,519.0,518.0
514.0,504.0,522.0,522.0,517.0
515.0,506.0,524.0,525.0,519.0
514.0,503.0,520.0,520.0,518.0
514.0,505.0,521.0,521.0,519.0
513.0,506.0,518.0,518.0,517.0
517.0,508.0,515.0,515.0,514.0
520.0,514.0,523.0,518.0,512.0
523.0,515.0,519.0,518.0,507.0
525.0,516.0,517.0,513.0,508.0
519.0,513.0,510.0,511.0,509.0
512.0,510.0,504.0,505.0,512.0
509.0,506.0,501.0,504.0,512.0
497.0,499.0,498.0,500.0,521.0
497.0,497.0,497.0,501.0,524.0
502.0,502.0,503.0,508.0,524.0
508.0,502.0,513.0,518.0,518.0
518.0,505.0,521.0,523.0,518.0
519.0,505.0,522.0,523.0,519.0
513.0,504.0,522.0,521.0,522.0
509.0,501.0,516.0,517.0,521.0
513.0,506.0,521.0,520.0,519.0
517.0,506.0,518.0,517.0,516.0
521.0,510.0,519.0,516.0,514.0
523.0,513.0,519.0,516.0,513.0
518.0,518.0,517.0,515.0,512.0
519.0,514.0,512.0,513.0,510.0
518.0,511.0,507.0,508.0,511.0
510.0,508.0,500.0,502.0,514.0
506.0,504.0,497.0,499.0,516.0
501.0,499.0,496.0,501.0,519.0
503.0,499.0,502.0,506.0,520.0
508.0,505.0,508.0,514.0,519.0
513.0,505.0,517.0,523.0,516.0
515.0,506.0,523.0,525.0,518.0
518.0,506.0,522.0,524.0,518.0
518.0,506.0,522.0,523.0,519.0
513.0,502.0,519.0,520.0,520.0
515.0,506.0,520.0,519.0,518.0
519.0,509.0,522.0,519.0,513.0
520.0,513.0,517.0,511.0,513.0
521.0,514.0,518.0,517.0,511.0
526.0,520.0,519.0,517.0,504.0
521.0,515.0,513.0,516.0,504.0
511.0,511.0,505.0,509.0,508.0
512.0,506.0,504.0,502.0,511.0
503.0,500.0,497.0,500.0,518.0
502.0,498.0,497.0,500.0,520.0
504.0,501.0,505.0,508.0,519.0
511.0,503.0,511.0,519.0,517.0
518.0,507.0,519.0,522.0,516.0
515.0,506.0,522.0,528.0,521.0
517.0,507.0,522.0,525.0,517.0
514.0,503.0,521.0,523.0,519.0
515.0,504.0,517.0,518.0,519.0
517.0,508.0,517.0,517.0,516.0
519.0,514.0,520.0,518.0,514.0
522.0,513.0,520.0,517.0,513.0
525.0,519.0,518.0,516.0,506.0
522.0,516.0,516.0,516.0,507.0
518.0,515.0,510.0,512.0,511.0
513.0,510.0,503.0,503.0,509.0
506.0,506.0,499.0,502.0,515.0
502.0,501.0,497.0,504.0,515.0
503.0,500.0,500.0,504.0,518.0
509.0,502.0,504.0,512.0,515.0
517.0,506.0,517.0,519.0,516.0
515.0,504.0,520.0,524.0,516.0
518.0,505.0,528.0,526.0,516.0
513.0,504.0,522.0,523.0,517.0
516.0,504.0,524.0,520.0,516.0
515.0,506.0,519.0,520.0,518.0
518.0,506.0,517.0,514.0,515.0
520.0,511.0,520.0,514.0,517.0
518.0,513.0,518.0,520.0,512.0
522.0,515.0,517.0,517.0,504.0
517.0,514.0,512.0,510.0,507.0
514.0,511.0,505.0,506.0,506.0
507.0,506.0,500.0,498.0,513.0
507.0,499.0,497.0,497.0,517.0
501.0,502.0,498.0,505.0,516.0
502.0,502.0,504.0,507.0,517.0
506.0,504.0,512.0,514.0,521.0
510.0,506.0,513.0,515.0,519.0
514.0,504.0,522.0,520.0,520.0
516.0,506.0,524.0,525.0,517.0
516.0,508.0,522.0,521.0,517.0
513.0,506.0,519.0,517.0,521.0
510.0,504.0,517.0,512.0,520.0
517.0,508.0,517.0,515.0,515.0
523.0,513.0,521.0,520.0,513.0
526.0,518.0,523.0,523.0,507.0
521.0,517.0,517.0,512.0,507.0
519.0,516.0,515.0,506.0,507.0
513.0,512.0,506.0,505.0,508.0
509.0,512.0,502.0,505.0,512.0
504.0,503.0,499.0,500.0,516.0
505.0,502.0,503.0,503.0,518.0
507.0,501.0,505.0,507.0,518.0
512.0,506.0,513.0,515.0,516.0
515.0,507.0,522.0,523.0,519.0
515.0,510.0,523.0,523.0,514.0
512.0,506.0,523.0,519.0,518.0
515.0,507.0,522.0,521.0,518.0
515.0,504.0,522.0,519.0,518.0
517.0,509.0,522.0,519.0,516.0
519.0,508.0,519.0,516.0,514.0
523.0,513.0,523.0,520.0,509.0
523.0,516.0,520.0,516.0,509.0
523.0,517.0,518.0,513.0,504.0
520.0,517.0,511.0,509.0,505.0
511.0,509.0,507.0,508.0,510.0
507.0,510.0,503.0,503.0,512.0
501.0,500.0,499.0,499.0,516.0
500.0,495.0,500.0,502.0,519.0
504.0,500.0,508.0,510.0,518.0
511.0,504.0,515.0,518.0,515.0
515.0,505.0,525.0,523.0,519.0
517.0,505.0,525.0,525.0,515.0
516.0,504.0,524.0,526.0,517.0
517.0,502.0,521.0,520.0,518.0
516.0,503.0,525.0,519.0,516.0
518.0,507.0,520.0,519.0,517.0
516.0,509.0,519.0,516.0,513.0
524.0,514.0,521.0,515.0,506.0
524.0,517.0,523.0,517.0,506.0
522.0,515.0,511.0,511.0,504.0
518.0,510.0,507.0,507.0,505.0
511.0,504.0,503.0,503.0,509.0
505.0,503.0,500.0,500.0,514.0
502.0,501.0,498.0,506.0,517.0
499.0,499.0,505.0,507.0,519.0
508.0,503.0,510.0,517.0,517.0
517.0,507.0,517.0,520.0,514.0
518.0,505.0,523.0,528.0,516.0
517.0,506.0,525.0,526.0,510.0
517.0,507.0,523.0,526.0,516.0
511.0,503.0,519.0,521.0,521.0
512.0,503.0,519.0,516.0,515.0
517.0,509.0,520.0,516.0,513.0
523.0,511.0,520.0,517.0,511.0
523.0,515.0,519.0,515.0,508.0
523.0,521.0,518.0,519.0,504.0
516.0,512.0,510.0,508.0,509.0
512.0,509.0,505.0,499.0,506.0
507.0,507.0,499.0,500.0,511.0
504.0,501.0,497.0,499.0,517.0
501.0,499.0,500.0,499.0,517.0
499.0,495.0,502.0,504.0,524.0
507.0,502.0,513.0,515.0,516.0
513.0,505.0,518.0,524.0,517.0
516.0,505.0,522.0,524.0,515.0
519.0,503.0,524.0,524.0,515.0
513.0,506.0,524.0,520.0,519.0
510.0,501.0,518.0,516.0,522.0
515.0,504.0,518.0,518.0,513.0
522.0,511.0,519.0,517.0,509.0
522.0,512.0,520.0,518.0,504.0
523.0,517.0,521.0,520.0,506.0
524.0,516.0,512.0,514.0,501.0
525.0,514.0,516.0,510.0,504.0
511.0,507.0,504.0,506.0,505.0
507.0,506.0,500.0,506.0,509.0
500.0,503.0,495.0,498.0,518.0
499.0,499.0,500.0,501.0,519.0
504.0,501.0,507.0,510.0,518.0
511.0,503.0,513.0,518.0,516.0
514.0,506.0,519.0,525.0,514.0
518.0,505.0,524.0,527.0,512.0
516.0,505.0,522.0,525.0,513.0
515.0,507.0,521.0,521.0,514.0
515.0,504.0,520.0,520.0,512.0
514.0,508.0,518.0,518.0,512.0
516.0,509.0,517.0,516.0,509.0
523.0,515.0,521.0,519.0,506.0
529.0,518.0,520.0,517.0,507.0
530.0,514.0,513.0,515.0,501.0
519.0,509.0,506.0,509.0,503.0
510.0,507.0,502.0,505.0,511.0
506.0,506.0,499.0,501.0,513.0
502.0,503.0,500.0,502.0,517.0
502.0,502.0,502.0,506.0,521.0
510.0,503.0,507.0,512.0,515.0
515.0,505.0,517.0,521.0,514.0
519.0,506.0,520.0,525.0,514.0
523.0,508.0,525.0,525.0,510.0
515.0,505.0,522.0,523.0,519.0
510.0,509.0,518.0,520.0,517.0
516.0,509.0,521.0,520.0,515.0
517.0,511.0,521.0,521.0,512.0
517.0,513.0,518.0,515.0,513.0
522.0,513.0,516.0,514.0,510.0
524.0,521.0,517.0,517.0,503.0
520.0,514.0,512.0,511.0,508.0
514.0,510.0,506.0,507.0,509.0
507.0,508.0,503.0,508.0,511.0
503.0,501.0,497.0,501.0,512.0
500.0,502.0,498.0,500.0,517.0
500.0,501.0,503.0,506.0,517.0
507.0,504.0,511.0,514.0,515.0
512.0,504.0,521.0,521.0,516.0
515.0,506.0,523.0,525.0,517.0
515.0,506.0,524.0,527.0,517.0
516.0,505.0,521.0,523.0,513.0
513.0,505.0,521.0,522.0,516.0
515.0,507.0,519.0,518.0,515.0
517.0,508.0,522.0,518.0,514.0
516.0,512.0,520.0,520.0,513.0
521.0,516.0,518.0,518.0,506.0
522.0,518.0,517.0,514.0,504.0
515.0,519.0,512.0,510.0,508.0
507.0,508.0,504.0,503.0,513.0
504.0,502.0,501.0,501.0,511.0
500.0,501.0,497.0,502.0,517.0
497.0,499.0,499.0,503.0,517.0
502.0,498.0,504.0,509.0,517.0
510.0,503.0,512.0,519.0,514.0
514.0,504.0,516.0,519.0,512.0
517.0,501.0,527.0,525.0,513.0
516.0,510.0,525.0,525.0,516.0
513.0,504.0,523.0,518.0,516.0
515.0,505.0,519.0,521.0,516.0
515.0,508.0,525.0,518.0,515.0
517.0,505.0,518.0,516.0,514.0
526.0,514.0,522.0,518.0,501.0
524.0,517.0,519.0,516.0,502.0
521.0,518.0,516.0,514.0,503.0
518.0,513.0,510.0,509.0,505.0
510.0,510.0,502.0,506.0,508.0
508.0,505.0,504.0,502.0,510.0
500.0,500.0,500.0,502.0,514.0
500.0,499.0,501.0,508.0,518.0
507.0,503.0,509.0,518.0,515.0
515.0,507.0,518.0,521.0,514.0
512.0,505.0,521.0,526.0,516.0
516.0,505.0,523.0,525.0,514.0
515.0,505.0,523.0,523.0,513.0
516.0,504.0,520.0,519.0,516.0
517.0,505.0,520.0,521.0,514.0
518.0,509.0,519.0,518.0,512.0
522.0,511.0,519.0,517.0,510.0
522.0,514.0,520.0,518.0,507.0
524.0,517.0,518.0,516.0,503.0
520.0,518.0,513.0,511.0,507.0
513.0,510.0,506.0,506.0,506.0
506.0,505.0,506.0,502.0,509.0
505.0,501.0,498.0,499.0,512.0
501.0,500.0,500.0,503.0,512.0
505.0,499.0,504.0,508.0,514.0
506.0,501.0,511.0,515.0,515.0
514.0,505.0,519.0,525.0,513.0
519.0,507.0,523.0,524.0,511.0
518.0,511.0,525.0,526.0,520.0
516.0,509.0,521.0,520.0,520.0
513.0,504.0,519.0,516.0,518.0
515.0,505.0,514.0,516.0,514.0
520.0,510.0,521.0,521.0,512.0
524.0,514.0,521.0,518.0,508.0
525.0,514.0,520.0,518.0,504.0
524.0,518.0,517.0,512.0,505.0
523.0,516.0,513.0,516.0,503.0
513.0,510.0,504.0,507.0,507.0
513.0,507.0,500.0,502.0,515.0
500.0,501.0,499.0,501.0,519.0
501.0,501.0,501.0,504.0,522.0
505.0,504.0,505.0,510.0,519.0
507.0,502.0,509.0,515.0,517.0
514.0,506.0,521.0,525.0,516.0
519.0,504.0,523.0,525.0,515.0
517.0,504.0,522.0,523.0,515.0
512.0,503.0,519.0,521.0,517.0
511.0,504.0,522.0,517.0,518.0
510.0,509.0,520.0,518.0,515.0
514.0,507.0,517.0,513.0,512.0
519.0,513.0,516.0,511.0,507.0
519.0,515.0,517.0,513.0,507.0
518.0,518.0,514.0,508.0,506.0
516.0,511.0,509.0,505.0,506.0
510.0,502.0,504.0,500.0,512.0
501.0,504.0,498.0,498.0,514.0
500.0,500.0,497.0,497.0,516.0
500.0,493.0,500.0,502.0,520.0
506.0,499.0,509.0,511.0,515.0
514.0,504.0,517.0,518.0,515.0
519.0,506.0,522.0,524.0,514.0
519.0,507.0,526.0,526.0,518.0
518.0,507.0,525.0,523.0,522.0
512.0,504.0,520.0,518.0,522.0
514.0,505.0,521.0,516.0,516.0
517.0,505.0,520.0,515.0,510.0
520.0,511.0,519.0,518.0,507.0
521.0,515.0,521.0,521.0,506.0
526.0,518.0,517.0,518.0,497.0
522.0,516.0,517.0,514.0,497.0
517.0,512.0,509.0,508.0,514.0
508.0,508.0,504.0,502.0,522.0
504.0,506.0,501.0,501.0,518.0
502.0,504.0,502.0,505.0,515.0
506.0,503.0,506.0,511.0,517.0
507.0,501.0,507.0,512.0,518.0
515.0,504.0,517.0,520.0,514.0
514.0,505.0,522.0,523.0,515.0
515.0,507.0,525.0,524.0,511.0
514.0,505.0,522.0,527.0,510.0
515.0,504.0,521.0,524.0,510.0
514.0,509.0,521.0,518.0,514.0
512.0,510.0,520.0,516.0,520.0
520.0,515.0,522.0,518.0,514.0
524.0,517.0,521.0,519.0,511.0
529.0,519.0,518.0,514.0,510.0
520.0,518.0,514.0,510.0,511.0
514.0,510.0,505.0,504.0,513.0
510.0,506.0,502.0,502.0,514.0
502.0,501.0,497.0,499.0,518.0
498.0,499.0,500.0,504.0,522.0
503.0,501.0,507.0,512.0,521.0
510.0,506.0,519.0,518.0,514.0
514.0,505.0,521.0,524.0,513.0
518.0,506.0,525.0,525.0,508.0
521.0,506.0,526.0,524.0,509.0
516.0,504.0,522.0,520.0,514.0
512.0,510.0,523.0,520.0,519.0
513.0,508.0,519.0,517.0,522.0
515.0,507.0,518.0,516.0,517.0
519.0,514.0,521.0,518.0,508.0
521.0,515.0,520.0,515.0,506.0
526.0,517.0,517.0,512.0,505.0
525.0,513.0,510.0,507.0,501.0
513.0,507.0,503.0,502.0,514.0
506.0,504.0,501.0,495.0,516.0
506.0,501.0,499.0,501.0,518.0
502.0,500.0,503.0,505.0,520.0
509.0,504.0,511.0,512.0,517.0
515.0,507.0,521.0,519.0,518.0
516.0,506.0,523.0,525.0,517.0
517.0,504.0,524.0,524.0,515.0
518.0,505.0,527.0,523.0,515.0
510.0,506.0,520.0,517.0,521.0
512.0,501.0,514.0,514.0,519.0
513.0,506.0,519.0,515.0,513.0
516.0,511.0,523.0,516.0,509.0
