CH1,CH2,CH3,CH4,CH5
524.0,522.0,519.0,516.0,509.0
518.0,514.0,512.0,506.0,507.0
512.0,512.0,507.0,508.0,508.0
509.0,507.0,503.0,504.0,512.0
504.0,502.0,501.0,503.0,514.0
501.0,500.0,501.0,503.0,516.0
506.0,502.0,508.0,506.0,513.0
511.0,504.0,515.0,520.0,512.0
516.0,508.0,520.0,520.0,513.0
516.0,506.0,523.0,523.0,515.0
517.0,505.0,521.0,523.0,513.0
515.0,505.0,519.0,517.0,515.0
508.0,505.0,521.0,521.0,515.0
515.0,510.0,519.0,516.0,513.0
516.0,509.0,518.0,516.0,509.0
521.0,513.0,516.0,518.0,507.0
522.0,517.0,520.0,517.0,508.0
521.0,518.0,515.0,513.0,505.0
518.0,511.0,507.0,509.0,507.0
510.0,507.0,503.0,504.0,512.0
505.0,504.0,501.0,503.0,514.0
503.0,501.0,502.0,505.0,516.0
502.0,501.0,504.0,509.0,516.0
505.0,505.0,512.0,519.0,513.0
514.0,505.0,521.0,524.0,512.0
517.0,503.0,519.0,523.0,513.0
514.0,504.0,523.0,522.0,513.0
512.0,508.0,524.0,522.0,517.0
514.0,507.0,521.0,517.0,520.0
513.0,506.0,517.0,515.0,517.0
514.0,509.0,519.0,515.0,512.0
515.0,509.0,519.0,516.0,511.0
520.0,518.0,520.0,518.0,512.0
520.0,520.0,517.0,513.0,507.0
516.0,513.0,515.0,510.0,507.0
512.0,510.0,507.0,508.0,509.0
505.0,506.0,503.0,506.0,513.0
504.0,503.0,500.0,505.0,515.0
506.0,500.0,502.0,508.0,515.0
506.0,503.0,507.0,513.0,513.0
506.0,504.0,515.0,516.0,514.0
509.0,499.0,516.0,515.0,523.0
508.0,505.0,520.0,521.0,515.0
511.0,507.0,523.0,522.0,522.0
512.0,503.0,519.0,516.0,521.0
514.0,509.0,519.0,515.0,519.0
518.0,509.0,517.0,514.0,517.0
518.0,510.0,519.0,517.0,517.0
519.0,513.0,519.0,513.0,513.0
523.0,517.0,519.0,517.0,509.0
521.0,517.0,515.0,515.0,508.0
512.0,513.0,509.0,512.0,511.0
509.0,511.0,502.0,504.0,513.0
506.0,506.0,503.0,501.0,515.0
500.0,501.0,494.0,502.0,516.0
499.0,500.0,503.0,504.0,518.0
505.0,502.0,509.0,509.0,518.0
508.0,505.0,516.0,517.0,516.0
509.0,503.0,518.0,518.0,513.0
514.0,502.0,523.0,522.0,514.0
511.0,506.0,522.0,520.0,516.0
507.0,502.0,518.0,512.0,519.0
508.0,503.0,517.0,515.0,517.0
509.0,508.0,516.0,514.0,515.0
513.0,512.0,517.0,514.0,513.0
520.0,518.0,520.0,516.0,511.0
532.0,518.0,521.0,520.0,509.0
528.0,517.0,516.0,519.0,504.0
519.0,514.0,511.0,511.0,507.0
511.0,508.0,505.0,505.0,511.0
506.0,508.0,501.0,505.0,512.0
503.0,503.0,501.0,503.0,514.0
507.0,503.0,506.0,507.0,516.0
509.0,503.0,514.0,515.0,514.0
513.0,507.0,519.0,521.0,515.0
519.0,507.0,522.0,526.0,512.0
517.0,506.0,524.0,524.0,514.0
517.0,505.0,516.0,521.0,513.0
513.0,504.0,520.0,519.0,518.0
516.0,505.0,518.0,516.0,515.0
517.0,505.0,518.0,517.0,513.0
521.0,513.0,521.0,522.0,510.0
523.0,515.0,519.0,520.0,507.0
523.0,519.0,525.0,521.0,506.0
520.0,518.0,515.0,513.0,506.0
516.0,511.0,507.0,508.0,507.0
507.0,508.0,502.0,506.0,511.0
503.0,506.0,499.0,502.0,519.0
502.0,501.0,500.0,504.0,518.0
504.0,506.0,505.0,508.0,518.0
511.0,507.0,512.0,516.0,515.0
516.0,506.0,520.0,524.0,514.0
516.0,506.0,523.0,525.0,514.0
513.0,505.0,523.0,522.0,514.0
514.0,504.0,522.0,521.0,516.0
514.0,505.0,524.0,520.0,518.0
515.0,505.0,519.0,520.0,515.0
520.0,507.0,520.0,520.0,508.0
527.0,515.0,521.0,522.0,500.0
529.0,518.0,522.0,521.0,501.0
524.0,518.0,519.0,518.0,506.0
517.0,518.0,514.0,515.0,508.0
513.0,510.0,508.0,510.0,510.0
509.0,505.0,502.0,504.0,509.0
499.0,505.0,500.0,500.0,518.0
501.0,501.0,501.0,503.0,524.0
504.0,502.0,508.0,509.0,521.0
509.0,503.0,515.0,519.0,519.0
511.0,506.0,522.0,518.0,515.0
513.0,506.0,523.0,520.0,516.0
510.0,504.0,522.0,525.0,517.0
513.0,499.0,520.0,518.0,517.0
510.0,503.0,518.0,515.0,517.0
509.0,506.0,518.0,515.0,512.0
511.0,510.0,518.0,516.0,514.0
517.0,515.0,517.0,515.0,511.0
522.0,520.0,521.0,517.0,508.0
531.0,517.0,514.0,511.0,506.0
526.0,515.0,513.0,509.0,509.0
516.0,506.0,502.0,504.0,509.0
505.0,503.0,501.0,509.0,515.0
506.0,503.0,502.0,503.0,516.0
506.0,502.0,504.0,504.0,519.0
509.0,503.0,514.0,511.0,518.0
512.0,503.0,515.0,513.0,518.0
517.0,510.0,522.0,521.0,512.0
520.0,507.0,527.0,525.0,514.0
513.0,500.0,519.0,518.0,518.0
510.0,504.0,517.0,515.0,519.0
512.0,503.0,516.0,515.0,519.0
519.0,507.0,522.0,516.0,515.0
520.0,514.0,519.0,519.0,513.0
523.0,514.0,523.0,518.0,510.0
526.0,517.0,520.0,520.0,505.0
522.0,520.0,517.0,517.0,509.0
515.0,510.0,508.0,512.0,511.0
509.0,506.0,504.0,505.0,513.0
505.0,503.0,500.0,503.0,514.0
505.0,500.0,501.0,503.0,514.0
504.0,500.0,505.0,510.0,517.0
510.0,501.0,513.0,517.0,519.0
514.0,504.0,519.0,522.0,517.0
518.0,505.0,520.0,520.0,516.0
518.0,505.0,524.0,521.0,515.0
520.0,504.0,520.0,518.0,513.0
516.0,505.0,520.0,522.0,517.0
517.0,506.0,519.0,517.0,517.0
525.0,509.0,522.0,518.0,512.0
526.0,514.0,521.0,519.0,509.0
521.0,516.0,523.0,521.0,509.0
523.0,516.0,515.0,517.0,507.0
521.0,513.0,512.0,512.0,506.0
512.0,507.0,503.0,507.0,511.0
507.0,503.0,500.0,503.0,514.0
503.0,501.0,499.0,499.0,517.0
502.0,498.0,498.0,501.0,519.0
507.0,502.0,505.0,509.0,518.0
512.0,500.0,514.0,518.0,515.0
514.0,504.0,517.0,521.0,514.0
519.0,508.0,525.0,525.0,515.0
514.0,503.0,520.0,521.0,517.0
512.0,502.0,518.0,515.0,519.0
514.0,508.0,521.0,518.0,521.0
512.0,506.0,519.0,518.0,516.0
517.0,508.0,517.0,515.0,518.0
518.0,513.0,520.0,519.0,509.0
525.0,517.0,522.0,518.0,507.0
525.0,519.0,513.0,515.0,506.0
518.0,514.0,508.0,510.0,509.0
509.0,509.0,504.0,505.0,511.0
507.0,504.0,499.0,504.0,514.0
506.0,503.0,502.0,501.0,516.0
504.0,499.0,502.0,505.0,517.0
507.0,502.0,509.0,513.0,519.0
514.0,504.0,516.0,521.0,514.0
515.0,504.0,521.0,525.0,516.0
517.0,505.0,525.0,522.0,513.0
517.0,506.0,520.0,520.0,515.0
509.0,503.0,518.0,518.0,519.0
519.0,505.0,520.0,518.0,511.0
517.0,509.0,519.0,520.0,510.0
523.0,512.0,520.0,516.0,512.0
519.0,512.0,518.0,522.0,510.0
520.0,517.0,518.0,514.0,507.0
516.0,512.0,509.0,509.0,509.0
514.0,510.0,505.0,507.0,511.0
507.0,507.0,503.0,506.0,513.0
496.0,500.0,495.0,501.0,519.0
498.0,499.0,497.0,504.0,519.0
501.0,501.0,505.0,513.0,518.0
508.0,508.0,513.0,515.0,515.0
511.0,500.0,518.0,521.0,516.0
515.0,508.0,519.0,522.0,514.0
520.0,505.0,521.0,520.0,511.0
514.0,503.0,519.0,513.0,517.0
514.0,505.0,519.0,519.0,517.0
514.0,506.0,514.0,517.0,515.0
515.0,508.0,518.0,516.0,512.0
521.0,514.0,523.0,520.0,513.0
519.0,516.0,520.0,520.0,507.0
520.0,515.0,518.0,515.0,504.0
518.0,514.0,511.0,509.0,508.0
509.0,509.0,505.0,507.0,514.0
515.0,509.0,508.0,507.0,512.0
507.0,505.0,505.0,504.0,515.0
507.0,502.0,503.0,505.0,516.0
509.0,502.0,507.0,514.0,516.0
514.0,503.0,512.0,519.0,513.0
515.0,504.0,519.0,523.0,512.0
520.0,507.0,525.0,528.0,511.0
515.0,505.0,523.0,523.0,520.0
515.0,504.0,515.0,519.0,516.0
517.0,506.0,522.0,516.0,516.0
518.0,506.0,521.0,516.0,517.0
520.0,509.0,519.0,520.0,511.0
526.0,513.0,520.0,520.0,507.0
521.0,515.0,518.0,521.0,504.0
523.0,516.0,519.0,516.0,504.0
515.0,512.0,511.0,509.0,508.0
508.0,508.0,503.0,505.0,515.0
506.0,505.0,501.0,499.0,515.0
500.0,505.0,500.0,503.0,520.0
500.0,500.0,502.0,506.0,518.0
502.0,503.0,512.0,519.0,518.0
509.0,506.0,518.0,523.0,522.0
511.0,504.0,521.0,521.0,515.0
515.0,503.0,527.0,522.0,515.0
517.0,505.0,524.0,521.0,517.0
522.0,505.0,521.0,517.0,521.0
516.0,506.0,521.0,519.0,518.0
518.0,510.0,520.0,517.0,514.0
517.0,512.0,520.0,519.0,512.0
521.0,513.0,521.0,518.0,509.0
520.0,516.0,519.0,519.0,505.0
518.0,516.0,513.0,513.0,509.0
515.0,511.0,508.0,509.0,508.0
511.0,507.0,501.0,506.0,508.0
507.0,503.0,503.0,503.0,515.0
501.0,501.0,501.0,504.0,518.0
504.0,498.0,506.0,508.0,515.0
512.0,502.0,512.0,514.0,515.0
513.0,504.0,519.0,523.0,516.0
522.0,507.0,523.0,524.0,513.0
515.0,503.0,521.0,522.0,517.0
513.0,502.0,520.0,519.0,515.0
512.0,507.0,517.0,517.0,516.0
511.0,507.0,516.0,516.0,516.0
512.0,506.0,518.0,513.0,514.0
522.0,513.0,520.0,518.0,509.0
523.0,517.0,522.0,519.0,508.0
520.0,516.0,517.0,520.0,508.0
515.0,516.0,512.0,510.0,510.0
510.0,510.0,503.0,505.0,513.0
509.0,503.0,501.0,503.0,515.0
505.0,504.0,503.0,501.0,516.0
505.0,500.0,498.0,507.0,518.0
503.0,499.0,507.0,511.0,519.0
508.0,502.0,515.0,517.0,519.0
510.0,503.0,517.0,523.0,518.0
517.0,506.0,523.0,523.0,515.0
517.0,508.0,523.0,525.0,516.0
514.0,507.0,522.0,520.0,518.0
517.0,505.0,521.0,522.0,515.0
519.0,507.0,520.0,513.0,513.0
518.0,509.0,520.0,519.0,513.0
520.0,513.0,520.0,518.0,505.0
523.0,515.0,520.0,519.0,506.0
523.0,514.0,521.0,516.0,504.0
517.0,511.0,505.0,512.0,508.0
508.0,508.0,504.0,510.0,510.0
504.0,504.0,501.0,504.0,515.0
500.0,502.0,501.0,507.0,518.0
500.0,500.0,505.0,510.0,520.0
506.0,502.0,512.0,516.0,513.0
510.0,506.0,515.0,519.0,516.0
515.0,506.0,522.0,523.0,513.0
522.0,506.0,523.0,524.0,513.0
521.0,506.0,521.0,521.0,517.0
520.0,502.0,521.0,521.0,516.0
519.0,505.0,520.0,518.0,516.0
526.0,509.0,520.0,519.0,511.0
522.0,511.0,520.0,518.0,508.0
523.0,516.0,520.0,519.0,508.0
527.0,516.0,517.0,516.0,502.0
521.0,514.0,508.0,514.0,507.0
513.0,513.0,507.0,510.0,512.0
507.0,507.0,503.0,506.0,510.0
504.0,502.0,498.0,504.0,514.0
503.0,500.0,502.0,505.0,514.0
504.0,502.0,506.0,508.0,516.0
509.0,501.0,512.0,515.0,519.0
516.0,506.0,519.0,523.0,518.0
519.0,505.0,521.0,524.0,515.0
521.0,507.0,522.0,524.0,513.0
513.0,504.0,521.0,520.0,517.0
512.0,504.0,520.0,520.0,518.0
516.0,506.0,518.0,517.0,515.0
519.0,510.0,522.0,518.0,518.0
521.0,513.0,519.0,520.0,510.0
523.0,516.0,517.0,521.0,508.0
523.0,517.0,519.0,518.0,507.0
518.0,515.0,512.0,513.0,511.0
514.0,509.0,506.0,507.0,514.0
510.0,505.0,502.0,505.0,512.0
502.0,501.0,498.0,502.0,515.0
502.0,499.0,501.0,503.0,518.0
505.0,501.0,508.0,514.0,516.0
511.0,503.0,515.0,518.0,514.0
514.0,504.0,522.0,526.0,513.0
516.0,505.0,522.0,525.0,515.0
514.0,500.0,523.0,520.0,515.0
514.0,507.0,518.0,515.0,516.0
512.0,505.0,520.0,518.0,516.0
514.0,505.0,513.0,515.0,515.0
518.0,507.0,518.0,517.0,513.0
525.0,514.0,514.0,517.0,508.0
521.0,515.0,519.0,516.0,504.0
518.0,513.0,516.0,513.0,507.0
516.0,512.0,511.0,507.0,508.0
507.0,505.0,503.0,505.0,510.0
506.0,506.0,503.0,504.0,513.0
500.0,499.0,502.0,504.0,515.0
498.0,500.0,502.0,500.0,518.0
503.0,501.0,509.0,510.0,517.0
510.0,505.0,515.0,518.0,513.0
516.0,506.0,523.0,527.0,513.0
516.0,504.0,523.0,524.0,513.0
516.0,506.0,522.0,523.0,513.0
511.0,504.0,523.0,521.0,516.0
511.0,505.0,520.0,518.0,518.0
516.0,506.0,520.0,518.0,514.0
516.0,511.0,520.0,521.0,512.0
527.0,513.0,520.0,519.0,507.0
527.0,515.0,519.0,517.0,503.0
524.0,516.0,515.0,516.0,507.0
516.0,513.0,507.0,511.0,507.0
511.0,508.0,504.0,507.0,511.0
502.0,505.0,504.0,503.0,515.0
502.0,503.0,502.0,505.0,518.0
503.0,502.0,506.0,510.0,516.0
509.0,504.0,513.0,516.0,514.0
511.0,506.0,520.0,522.0,515.0
513.0,508.0,521.0,524.0,514.0
515.0,507.0,526.0,523.0,518.0
510.0,505.0,521.0,521.0,514.0
512.0,505.0,521.0,519.0,515.0
523.0,507.0,521.0,519.0,513.0
519.0,508.0,519.0,518.0,515.0
520.0,512.0,521.0,518.0,512.0
527.0,515.0,521.0,518.0,505.0
522.0,516.0,519.0,517.0,503.0
520.0,513.0,512.0,514.0,505.0
496.0,500.0,492.0,492.0,518.0
491.0,496.0,487.0,490.0,522.0
488.0,492.0,485.0,486.0,523.0
487.0,488.0,485.0,490.0,526.0
533.0,514.0,532.0,535.0,515.0
535.0,517.0,536.0,537.0,512.0
541.0,518.0,538.0,541.0,503.0
529.0,519.0,535.0,537.0,504.0
531.0,516.0,532.0,533.0,502.0
529.0,517.0,530.0,531.0,502.0
530.0,518.0,532.0,531.0,502.0
532.0,520.0,531.0,534.0,501.0
539.0,525.0,531.0,533.0,497.0
539.0,526.0,530.0,534.0,493.0
537.0,522.0,525.0,525.0,493.0
526.0,519.0,518.0,519.0,500.0
519.0,517.0,513.0,515.0,501.0
512.0,511.0,509.0,517.0,510.0
513.0,505.0,511.0,511.0,509.0
516.0,504.0,516.0,521.0,509.0
520.0,510.0,522.0,526.0,509.0
523.0,512.0,531.0,533.0,508.0
530.0,514.0,534.0,534.0,507.0
524.0,510.0,530.0,531.0,510.0
524.0,509.0,527.0,527.0,512.0
521.0,511.0,527.0,529.0,512.0
523.0,512.0,527.0,524.0,505.0
524.0,516.0,527.0,524.0,508.0
526.0,521.0,526.0,525.0,505.0
528.0,522.0,529.0,527.0,503.0
527.0,524.0,522.0,524.0,502.0
520.0,518.0,516.0,519.0,504.0
516.0,512.0,509.0,513.0,510.0
519.0,513.0,512.0,512.0,508.0
511.0,501.0,505.0,508.0,510.0
508.0,507.0,509.0,513.0,515.0
511.0,505.0,516.0,515.0,516.0
517.0,506.0,516.0,522.0,513.0
519.0,509.0,525.0,528.0,515.0
524.0,509.0,528.0,529.0,517.0
523.0,502.0,525.0,524.0,517.0
516.0,506.0,524.0,519.0,513.0
517.0,507.0,521.0,522.0,515.0
522.0,512.0,524.0,522.0,509.0
526.0,516.0,524.0,522.0,508.0
527.0,516.0,525.0,524.0,505.0
528.0,519.0,528.0,523.0,504.0
526.0,520.0,518.0,517.0,508.0
521.0,517.0,515.0,514.0,507.0
516.0,512.0,511.0,511.0,507.0
506.0,505.0,505.0,506.0,515.0
505.0,504.0,506.0,508.0,514.0
507.0,504.0,511.0,510.0,515.0
510.0,505.0,517.0,516.0,515.0
518.0,503.0,521.0,524.0,512.0
521.0,509.0,530.0,527.0,514.0
521.0,508.0,527.0,529.0,514.0
516.0,506.0,522.0,526.0,515.0
521.0,507.0,523.0,520.0,514.0
520.0,506.0,521.0,524.0,515.0
522.0,507.0,521.0,518.0,518.0
524.0,513.0,526.0,519.0,508.0
530.0,518.0,523.0,521.0,505.0
526.0,519.0,522.0,519.0,503.0
522.0,517.0,515.0,514.0,508.0
516.0,513.0,510.0,510.0,507.0
504.0,508.0,511.0,508.0,507.0
507.0,506.0,501.0,504.0,515.0
506.0,503.0,504.0,506.0,513.0
506.0,503.0,511.0,515.0,515.0
512.0,505.0,517.0,517.0,514.0
519.0,506.0,519.0,523.0,515.0
519.0,506.0,524.0,521.0,518.0
521.0,507.0,524.0,521.0,520.0
521.0,507.0,522.0,518.0,521.0
517.0,507.0,521.0,523.0,519.0
522.0,506.0,520.0,517.0,511.0
522.0,507.0,519.0,517.0,503.0
516.0,513.0,521.0,520.0,503.0
520.0,515.0,522.0,521.0,499.0
519.0,519.0,518.0,518.0,500.0
518.0,514.0,514.0,512.0,505.0
511.0,508.0,502.0,506.0,510.0
508.0,508.0,504.0,504.0,516.0
505.0,502.0,505.0,502.0,514.0
504.0,503.0,506.0,508.0,513.0
508.0,502.0,511.0,512.0,510.0
511.0,504.0,514.0,520.0,510.0
514.0,504.0,516.0,523.0,512.0
515.0,506.0,523.0,524.0,518.0
512.0,504.0,526.0,520.0,517.0
514.0,505.0,520.0,521.0,515.0
513.0,505.0,516.0,516.0,512.0
514.0,508.0,520.0,519.0,512.0
521.0,507.0,519.0,517.0,511.0
520.0,511.0,518.0,518.0,512.0
520.0,517.0,519.0,516.0,510.0
517.0,516.0,514.0,514.0,509.0
516.0,517.0,510.0,511.0,511.0
505.0,507.0,506.0,507.0,517.0
505.0,504.0,501.0,504.0,518.0
500.0,501.0,500.0,503.0,518.0
504.0,504.0,507.0,510.0,518.0
511.0,504.0,512.0,516.0,516.0
517.0,508.0,517.0,520.0,516.0
515.0,507.0,519.0,521.0,512.0
513.0,505.0,522.0,521.0,511.0
510.0,505.0,524.0,520.0,519.0
507.0,504.0,519.0,517.0,522.0
510.0,508.0,520.0,516.0,519.0
516.0,511.0,521.0,517.0,513.0
520.0,513.0,521.0,520.0,504.0
523.0,519.0,523.0,520.0,500.0
526.0,519.0,521.0,520.0,503.0
523.0,517.0,514.0,512.0,505.0
514.0,509.0,507.0,505.0,507.0
506.0,507.0,506.0,505.0,513.0
500.0,503.0,507.0,503.0,515.0
501.0,504.0,505.0,507.0,514.0
503.0,501.0,507.0,510.0,515.0
506.0,505.0,515.0,516.0,515.0
512.0,509.0,519.0,524.0,513.0
515.0,507.0,522.0,525.0,514.0
517.0,505.0,521.0,521.0,517.0
514.0,503.0,521.0,518.0,517.0
514.0,505.0,519.0,515.0,514.0
518.0,509.0,517.0,516.0,513.0
518.0,508.0,520.0,517.0,512.0
521.0,515.0,525.0,520.0,508.0
527.0,515.0,520.0,519.0,507.0
521.0,514.0,516.0,514.0,509.0
516.0,514.0,512.0,510.0,512.0
509.0,505.0,505.0,505.0,511.0
506.0,509.0,504.0,503.0,513.0
502.0,501.0,503.0,501.0,516.0
505.0,499.0,503.0,508.0,519.0
508.0,501.0,509.0,513.0,517.0
511.0,506.0,515.0,516.0,516.0
513.0,509.0,519.0,523.0,517.0
513.0,506.0,522.0,518.0,516.0
514.0,506.0,524.0,520.0,519.0
512.0,504.0,519.0,517.0,519.0
520.0,503.0,520.0,518.0,517.0
518.0,512.0,521.0,519.0,511.0
523.0,510.0,522.0,517.0,506.0
530.0,515.0,523.0,519.0,505.0
526.0,521.0,520.0,520.0,507.0
522.0,517.0,515.0,513.0,507.0
517.0,513.0,507.0,508.0,503.0
507.0,508.0,504.0,503.0,505.0
504.0,504.0,499.0,500.0,511.0
498.0,502.0,502.0,503.0,513.0
499.0,501.0,506.0,510.0,513.0
508.0,502.0,509.0,513.0,513.0
511.0,507.0,522.0,522.0,517.0
512.0,504.0,521.0,518.0,518.0
515.0,506.0,522.0,522.0,519.0
511.0,504.0,519.0,518.0,522.0
509.0,504.0,516.0,511.0,523.0
513.0,501.0,514.0,512.0,520.0
513.0,505.0,514.0,516.0,512.0
516.0,511.0,521.0,518.0,507.0
522.0,512.0,520.0,521.0,506.0
518.0,516.0,517.0,517.0,506.0
516.0,520.0,514.0,514.0,505.0
512.0,512.0,508.0,507.0,509.0
506.0,507.0,502.0,503.0,512.0
501.0,506.0,501.0,501.0,513.0
500.0,502.0,501.0,502.0,521.0
505.0,500.0,505.0,507.0,519.0
509.0,502.0,510.0,513.0,519.0
517.0,505.0,514.0,521.0,519.0
517.0,507.0,523.0,524.0,519.0
519.0,503.0,521.0,521.0,517.0
516.0,503.0,518.0,518.0,519.0
522.0,504.0,519.0,518.0,518.0
519.0,506.0,518.0,521.0,515.0
522.0,509.0,519.0,522.0,511.0
522.0,514.0,522.0,519.0,511.0
524.0,521.0,522.0,523.0,504.0
519.0,517.0,518.0,515.0,505.0
515.0,513.0,510.0,512.0,506.0
507.0,508.0,503.0,507.0,511.0
502.0,504.0,502.0,504.0,516.0
506.0,503.0,501.0,504.0,512.0
507.0,502.0,503.0,504.0,518.0
508.0,502.0,509.0,511.0,517.0
514.0,506.0,515.0,517.0,515.0
519.0,506.0,520.0,522.0,520.0
521.0,509.0,522.0,521.0,519.0
520.0,505.0,522.0,520.0,520.0
513.0,503.0,521.0,517.0,526.0
512.0,505.0,520.0,517.0,524.0
517.0,507.0,520.0,518.0,520.0
516.0,511.0,518.0,517.0,518.0
517.0,514.0,520.0,523.0,511.0
524.0,516.0,519.0,518.0,504.0
515.0,515.0,518.0,515.0,507.0
511.0,512.0,510.0,508.0,508.0
506.0,511.0,506.0,506.0,512.0
503.0,506.0,500.0,502.0,517.0
500.0,502.0,501.0,499.0,521.0
502.0,501.0,508.0,508.0,523.0
510.0,503.0,510.0,512.0,517.0
516.0,504.0,517.0,519.0,516.0
518.0,504.0,519.0,521.0,515.0
515.0,505.0,526.0,521.0,515.0
517.0,508.0,519.0,519.0,518.0
518.0,506.0,518.0,515.0,520.0
517.0,508.0,521.0,519.0,521.0
513.0,509.0,520.0,518.0,521.0
516.0,512.0,521.0,519.0,516.0
521.0,517.0,521.0,523.0,508.0
521.0,517.0,521.0,517.0,505.0
519.0,515.0,512.0,513.0,500.0
511.0,511.0,511.0,509.0,509.0
507.0,507.0,505.0,504.0,513.0
504.0,502.0,500.0,501.0,522.0
500.0,502.0,502.0,503.0,519.0
503.0,501.0,506.0,507.0,519.0
508.0,503.0,515.0,515.0,518.0
512.0,504.0,519.0,522.0,515.0
513.0,506.0,521.0,521.0,518.0
515.0,504.0,521.0,517.0,520.0
509.0,501.0,516.0,513.0,516.0
510.0,501.0,517.0,513.0,520.0
514.0,505.0,517.0,514.0,516.0
515.0,508.0,519.0,517.0,515.0
521.0,513.0,523.0,517.0,513.0
521.0,517.0,520.0,517.0,513.0
520.0,515.0,516.0,515.0,513.0
519.0,516.0,509.0,508.0,511.0
512.0,509.0,505.0,507.0,514.0
505.0,506.0,503.0,503.0,517.0
497.0,501.0,499.0,502.0,519.0
498.0,501.0,501.0,503.0,521.0
505.0,502.0,506.0,508.0,519.0
513.0,500.0,516.0,515.0,521.0
514.0,506.0,522.0,522.0,519.0
519.0,504.0,522.0,521.0,520.0
518.0,505.0,522.0,520.0,519.0
514.0,506.0,526.0,521.0,518.0
518.0,506.0,519.0,516.0,522.0
522.0,508.0,519.0,517.0,515.0
525.0,511.0,523.0,518.0,509.0
521.0,514.0,523.0,518.0,507.0
521.0,516.0,520.0,520.0,502.0
521.0,515.0,516.0,515.0,501.0
513.0,512.0,509.0,508.0,506.0
507.0,507.0,504.0,505.0,513.0
506.0,505.0,500.0,501.0,516.0
504.0,506.0,500.0,506.0,516.0
502.0,501.0,504.0,509.0,518.0
511.0,505.0,511.0,515.0,514.0
514.0,505.0,518.0,518.0,510.0
516.0,505.0,520.0,522.0,517.0
518.0,506.0,522.0,524.0,517.0
513.0,504.0,520.0,519.0,517.0
513.0,504.0,518.0,517.0,520.0
517.0,507.0,520.0,519.0,518.0
515.0,509.0,520.0,518.0,518.0
518.0,513.0,520.0,519.0,513.0
523.0,515.0,520.0,519.0,509.0
526.0,521.0,518.0,517.0,507.0
521.0,514.0,513.0,514.0,511.0
510.0,513.0,510.0,509.0,511.0
505.0,509.0,502.0,504.0,518.0
500.0,504.0,500.0,503.0,521.0
500.0,503.0,501.0,503.0,517.0
503.0,500.0,506.0,513.0,518.0
514.0,502.0,512.0,518.0,518.0
519.0,506.0,518.0,519.0,518.0
520.0,506.0,520.0,520.0,513.0
515.0,505.0,525.0,524.0,514.0
510.0,502.0,519.0,518.0,519.0
515.0,506.0,519.0,518.0,519.0
516.0,509.0,519.0,516.0,517.0
517.0,508.0,518.0,515.0,515.0
519.0,512.0,520.0,518.0,510.0
519.0,516.0,521.0,520.0,510.0
514.0,517.0,521.0,519.0,511.0
516.0,515.0,515.0,515.0,508.0
510.0,508.0,505.0,507.0,513.0
507.0,506.0,503.0,502.0,506.0
502.0,503.0,501.0,507.0,518.0
500.0,501.0,504.0,503.0,526.0
500.0,499.0,507.0,511.0,521.0
502.0,500.0,512.0,517.0,523.0
509.0,508.0,519.0,520.0,518.0
518.0,506.0,523.0,521.0,515.0
514.0,503.0,523.0,520.0,519.0
509.0,503.0,514.0,514.0,520.0
510.0,502.0,516.0,516.0,521.0
512.0,508.0,515.0,512.0,515.0
514.0,507.0,517.0,516.0,512.0
524.0,511.0,518.0,514.0,507.0
524.0,519.0,516.0,520.0,504.0
521.0,518.0,514.0,512.0,506.0
512.0,512.0,512.0,510.0,512.0
508.0,507.0,506.0,504.0,515.0
507.0,506.0,502.0,505.0,514.0
504.0,502.0,502.0,506.0,518.0
504.0,501.0,507.0,507.0,519.0
507.0,502.0,512.0,514.0,517.0
511.0,505.0,524.0,522.0,513.0
515.0,507.0,523.0,528.0,510.0
515.0,506.0,524.0,522.0,515.0
518.0,505.0,523.0,519.0,517.0
515.0,505.0,518.0,516.0,520.0
511.0,505.0,518.0,516.0,518.0
516.0,506.0,519.0,518.0,515.0
521.0,511.0,521.0,513.0,510.0
523.0,515.0,522.0,523.0,509.0
524.0,517.0,523.0,518.0,508.0
521.0,510.0,515.0,513.0,508.0
511.0,513.0,510.0,508.0,511.0
506.0,506.0,505.0,508.0,515.0
505.0,501.0,502.0,502.0,517.0
500.0,501.0,503.0,506.0,516.0
503.0,499.0,506.0,508.0,512.0
511.0,499.0,513.0,517.0,507.0
516.0,504.0,520.0,522.0,510.0
517.0,502.0,522.0,522.0,505.0
518.0,506.0,522.0,521.0,511.0
513.0,503.0,519.0,513.0,516.0
513.0,500.0,519.0,518.0,519.0
510.0,509.0,521.0,519.0,518.0
516.0,508.0,518.0,515.0,514.0
519.0,511.0,521.0,517.0,509.0
525.0,515.0,520.0,517.0,507.0
522.0,515.0,518.0,516.0,505.0
516.0,511.0,514.0,512.0,506.0
510.0,509.0,507.0,506.0,511.0
505.0,506.0,504.0,503.0,512.0
504.0,502.0,500.0,500.0,518.0
499.0,497.0,505.0,503.0,525.0
503.0,500.0,511.0,513.0,518.0
511.0,507.0,520.0,520.0,514.0
512.0,505.0,522.0,522.0,515.0
518.0,505.0,523.0,524.0,517.0
515.0,502.0,522.0,519.0,518.0
513.0,501.0,519.0,516.0,520.0
513.0,506.0,518.0,515.0,517.0
515.0,505.0,518.0,516.0,516.0
518.0,509.0,518.0,516.0,517.0
522.0,514.0,522.0,518.0,513.0
524.0,515.0,520.0,517.0,508.0
523.0,516.0,516.0,517.0,508.0
518.0,512.0,510.0,504.0,506.0
510.0,506.0,503.0,503.0,513.0
501.0,500.0,497.0,498.0,516.0
502.0,502.0,497.0,500.0,518.0
505.0,498.0,504.0,502.0,519.0
508.0,501.0,509.0,512.0,516.0
510.0,503.0,518.0,517.0,512.0
513.0,502.0,521.0,519.0,515.0
511.0,504.0,521.0,518.0,519.0
512.0,502.0,525.0,519.0,517.0
516.0,501.0,519.0,517.0,520.0
511.0,501.0,516.0,507.0,521.0
516.0,505.0,516.0,511.0,518.0
516.0,509.0,520.0,515.0,516.0
522.0,514.0,525.0,518.0,512.0
521.0,515.0,520.0,516.0,510.0
518.0,516.0,516.0,513.0,504.0
515.0,509.0,509.0,507.0,506.0
507.0,507.0,505.0,503.0,509.0
504.0,501.0,501.0,501.0,515.0
501.0,498.0,502.0,505.0,518.0
505.0,502.0,510.0,512.0,516.0
510.0,499.0,513.0,516.0,515.0
514.0,502.0,520.0,520.0,518.0
521.0,504.0,521.0,522.0,516.0
517.0,505.0,522.0,523.0,515.0
516.0,502.0,520.0,516.0,517.0
516.0,503.0,514.0,516.0,520.0
512.0,504.0,518.0,513.0,517.0
515.0,507.0,517.0,514.0,516.0
517.0,512.0,516.0,519.0,512.0
522.0,517.0,522.0,522.0,507.0
524.0,517.0,520.0,517.0,507.0
514.0,512.0,513.0,511.0,505.0
509.0,513.0,508.0,507.0,509.0
505.0,509.0,503.0,504.0,513.0
500.0,502.0,500.0,501.0,520.0
504.0,500.0,504.0,504.0,524.0
508.0,502.0,507.0,509.0,523.0
510.0,504.0,522.0,518.0,522.0
514.0,505.0,520.0,526.0,522.0
517.0,505.0,523.0,523.0,518.0
518.0,503.0,521.0,521.0,518.0
513.0,502.0,518.0,517.0,522.0
515.0,503.0,520.0,517.0,515.0
515.0,506.0,519.0,515.0,514.0
514.0,508.0,519.0,513.0,511.0
522.0,509.0,516.0,514.0,508.0
520.0,517.0,519.0,517.0,509.0
510.0,515.0,514.0,514.0,510.0
510.0,512.0,510.0,513.0,508.0
506.0,510.0,506.0,511.0,511.0
504.0,503.0,500.0,502.0,519.0
503.0,503.0,503.0,505.0,509.0
500.0,499.0,505.0,508.0,523.0
507.0,505.0,512.0,511.0,520.0
512.0,505.0,518.0,518.0,518.0
518.0,506.0,522.0,522.0,521.0
518.0,508.0,524.0,523.0,520.0
518.0,500.0,520.0,520.0,523.0
515.0,503.0,520.0,518.0,522.0
513.0,506.0,517.0,516.0,519.0
514.0,508.0,519.0,519.0,512.0
517.0,512.0,519.0,517.0,513.0
521.0,513.0,520.0,518.0,512.0
525.0,521.0,521.0,519.0,512.0
521.0,515.0,517.0,515.0,513.0
517.0,509.0,504.0,500.0,516.0
505.0,507.0,499.0,501.0,521.0
502.0,500.0,499.0,499.0,528.0
506.0,502.0,502.0,504.0,524.0
509.0,502.0,507.0,508.0,513.0
507.0,501.0,511.0,516.0,510.0
510.0,506.0,519.0,518.0,519.0
510.0,503.0,520.0,521.0,518.0
510.0,504.0,523.0,522.0,516.0
507.0,503.0,519.0,516.0,519.0
508.0,501.0,516.0,515.0,515.0
512.0,506.0,515.0,513.0,513.0
520.0,507.0,518.0,515.0,506.0
525.0,514.0,519.0,517.0,507.0
526.0,516.0,521.0,515.0,505.0
526.0,516.0,518.0,516.0,506.0
518.0,511.0,512.0,514.0,510.0
510.0,508.0,506.0,507.0,508.0
506.0,507.0,506.0,508.0,513.0
505.0,503.0,503.0,502.0,516.0
500.0,500.0,502.0,503.0,516.0
507.0,502.0,511.0,512.0,516.0
515.0,505.0,517.0,519.0,515.0
519.0,506.0,521.0,522.0,514.0
524.0,507.0,522.0,521.0,516.0
521.0,505.0,521.0,519.0,516.0
517.0,503.0,521.0,517.0,517.0
516.0,504.0,518.0,515.0,518.0
515.0,504.0,518.0,515.0,518.0
514.0,509.0,522.0,518.0,506.0
518.0,513.0,522.0,518.0,506.0
521.0,516.0,519.0,522.0,505.0
520.0,517.0,513.0,514.0,505.0
518.0,512.0,511.0,510.0,506.0
509.0,507.0,505.0,511.0,513.0
503.0,504.0,496.0,501.0,515.0
501.0,503.0,502.0,502.0,522.0
503.0,503.0,504.0,507.0,518.0
506.0,502.0,511.0,515.0,518.0
512.0,505.0,517.0,519.0,516.0
517.0,510.0,523.0,524.0,513.0
519.0,508.0,523.0,523.0,512.0
516.0,505.0,521.0,518.0,511.0
519.0,503.0,522.0,516.0,519.0
515.0,504.0,516.0,514.0,514.0
515.0,506.0,518.0,516.0,522.0
516.0,509.0,517.0,521.0,522.0
517.0,513.0,519.0,514.0,520.0
521.0,513.0,518.0,518.0,512.0
516.0,514.0,519.0,515.0,510.0
517.0,512.0,512.0,515.0,506.0
508.0,505.0,505.0,506.0,509.0
502.0,505.0,497.0,502.0,514.0
499.0,499.0,505.0,504.0,521.0
503.0,500.0,507.0,507.0,519.0
510.0,501.0,512.0,513.0,520.0
514.0,504.0,523.0,521.0,517.0
515.0,503.0,521.0,521.0,521.0
511.0,501.0,521.0,518.0,524.0
511.0,502.0,520.0,518.0,525.0
511.0,502.0,519.0,516.0,522.0
515.0,506.0,519.0,518.0,519.0
520.0,508.0,517.0,512.0,514.0
525.0,511.0,520.0,516.0,510.0
523.0,514.0,516.0,519.0,507.0
521.0,514.0,515.0,513.0,504.0
517.0,512.0,510.0,508.0,513.0
511.0,505.0,505.0,505.0,514.0
505.0,506.0,500.0,506.0,509.0
495.0,501.0,497.0,497.0,515.0
497.0,497.0,500.0,507.0,521.0
506.0,498.0,507.0,509.0,519.0
511.0,506.0,516.0,518.0,513.0
512.0,503.0,517.0,517.0,515.0
513.0,503.0,517.0,517.0,520.0
517.0,498.0,519.0,518.0,519.0
516.0,503.0,519.0,517.0,519.0
517.0,507.0,521.0,516.0,517.0
518.0,505.0,519.0,516.0,523.0
515.0,509.0,518.0,516.0,513.0
523.0,513.0,522.0,519.0,508.0
524.0,515.0,520.0,518.0,502.0
524.0,515.0,516.0,517.0,502.0
514.0,513.0,509.0,513.0,511.0
505.0,507.0,505.0,504.0,514.0
505.0,502.0,500.0,497.0,516.0
499.0,500.0,501.0,502.0,516.0
505.0,502.0,505.0,507.0,515.0
508.0,504.0,510.0,509.0,516.0
513.0,503.0,517.0,521.0,516.0
516.0,504.0,521.0,525.0,519.0
517.0,503.0,522.0,521.0,519.0
517.0,503.0,521.0,518.0,519.0
517.0,501.0,521.0,515.0,519.0
517.0,503.0,516.0,516.0,516.0
516.0,509.0,521.0,518.0,514.0
519.0,511.0,522.0,516.0,523.0
523.0,515.0,520.0,515.0,514.0
527.0,518.0,519.0,516.0,507.0
519.0,515.0,512.0,510.0,511.0
511.0,509.0,508.0,506.0,510.0
505.0,505.0,503.0,505.0,512.0
499.0,504.0,499.0,505.0,515.0
497.0,500.0,503.0,504.0,514.0
500.0,501.0,508.0,507.0,516.0
506.0,500.0,511.0,515.0,517.0
513.0,506.0,519.0,524.0,512.0
515.0,511.0,524.0,528.0,516.0
514.0,508.0,528.0,525.0,525.0
509.0,503.0,518.0,516.0,532.0
515.0,503.0,517.0,516.0,524.0
516.0,510.0,518.0,514.0,518.0
522.0,509.0,518.0,516.0,513.0
519.0,512.0,520.0,518.0,514.0
525.0,515.0,522.0,521.0,509.0
522.0,516.0,517.0,512.0,503.0
519.0,513.0,517.0,512.0,502.0
511.0,509.0,507.0,505.0,509.0
505.0,507.0,504.0,503.0,515.0
502.0,500.0,499.0,501.0,524.0
500.0,499.0,501.0,502.0,522.0
507.0,499.0,507.0,511.0,521.0
521.0,505.0,515.0,515.0,516.0
524.0,508.0,518.0,520.0,512.0
521.0,506.0,521.0,525.0,510.0
514.0,503.0,525.0,523.0,514.0
512.0,502.0,519.0,517.0,513.0
509.0,503.0,518.0,517.0,511.0
508.0,503.0,514.0,511.0,511.0
515.0,509.0,517.0,513.0,510.0
524.0,515.0,521.0,518.0,511.0
524.0,517.0,521.0,518.0,507.0
520.0,514.0,514.0,517.0,506.0
513.0,510.0,507.0,503.0,508.0
505.0,506.0,503.0,508.0,516.0
503.0,498.0,500.0,502.0,515.0
500.0,500.0,497.0,504.0,517.0
501.0,499.0,501.0,500.0,512.0
506.0,499.0,508.0,516.0,510.0
513.0,504.0,517.0,517.0,504.0
516.0,502.0,520.0,519.0,506.0
521.0,503.0,525.0,521.0,514.0
516.0,507.0,519.0,519.0,521.0
513.0,502.0,521.0,516.0,523.0
514.0,503.0,519.0,517.0,518.0
516.0,507.0,519.0,518.0,517.0
521.0,511.0,521.0,519.0,518.0
520.0,514.0,520.0,519.0,510.0
521.0,514.0,517.0,515.0,508.0
517.0,515.0,518.0,514.0,509.0
514.0,511.0,510.0,508.0,508.0
504.0,508.0,508.0,505.0,514.0
504.0,505.0,501.0,502.0,515.0
500.0,502.0,509.0,506.0,522.0
505.0,502.0,506.0,508.0,518.0
507.0,507.0,516.0,514.0,519.0
513.0,508.0,521.0,521.0,517.0
519.0,506.0,526.0,524.0,518.0
519.0,505.0,523.0,524.0,517.0
518.0,505.0,521.0,521.0,513.0
516.0,503.0,519.0,515.0,510.0
517.0,505.0,519.0,515.0,512.0
519.0,507.0,521.0,514.0,510.0
522.0,511.0,520.0,517.0,512.0
527.0,516.0,521.0,519.0,508.0
522.0,518.0,516.0,514.0,506.0
516.0,513.0,514.0,512.0,510.0
510.0,508.0,507.0,504.0,515.0
504.0,506.0,503.0,509.0,518.0
500.0,499.0,503.0,503.0,526.0
498.0,506.0,504.0,505.0,531.0
504.0,502.0,509.0,504.0,526.0
513.0,506.0,516.0,514.0,520.0
516.0,504.0,519.0,519.0,520.0
520.0,506.0,521.0,522.0,512.0
520.0,506.0,521.0,519.0,504.0
516.0,505.0,516.0,516.0,512.0
519.0,506.0,520.0,516.0,513.0
520.0,508.0,520.0,517.0,507.0
517.0,507.0,523.0,516.0,513.0
526.0,515.0,519.0,522.0,505.0
526.0,517.0,520.0,521.0,504.0
523.0,518.0,516.0,516.0,500.0
518.0,515.0,510.0,509.0,504.0
511.0,507.0,506.0,506.0,511.0
511.0,500.0,501.0,501.0,512.0
503.0,503.0,504.0,502.0,516.0
499.0,499.0,504.0,508.0,510.0
504.0,504.0,509.0,515.0,511.0
505.0,502.0,515.0,517.0,516.0
509.0,502.0,522.0,522.0,513.0
512.0,503.0,520.0,522.0,511.0
506.0,500.0,517.0,516.0,523.0
510.0,500.0,516.0,515.0,514.0
516.0,504.0,521.0,515.0,511.0
524.0,504.0,518.0,516.0,515.0
520.0,508.0,515.0,514.0,511.0
522.0,511.0,517.0,515.0,511.0
522.0,514.0,516.0,520.0,510.0
517.0,513.0,516.0,513.0,506.0
512.0,509.0,512.0,510.0,511.0
501.0,504.0,497.0,501.0,516.0
496.0,498.0,496.0,499.0,523.0
496.0,498.0,500.0,502.0,529.0
508.0,500.0,505.0,506.0,529.0
512.0,502.0,511.0,513.0,522.0
520.0,506.0,518.0,521.0,518.0
514.0,505.0,520.0,522.0,517.0
520.0,507.0,522.0,521.0,512.0
519.0,504.0,520.0,519.0,506.0
520.0,504.0,523.0,519.0,504.0
516.0,504.0,517.0,516.0,509.0
517.0,510.0,519.0,519.0,512.0
522.0,515.0,523.0,517.0,507.0
523.0,520.0,521.0,522.0,503.0
522.0,517.0,516.0,515.0,502.0
522.0,513.0,512.0,512.0,508.0
516.0,509.0,509.0,508.0,511.0
510.0,506.0,504.0,504.0,510.0
510.0,501.0,500.0,502.0,516.0
509.0,500.0,501.0,504.0,526.0
512.0,500.0,507.0,509.0,522.0
512.0,502.0,513.0,517.0,512.0
508.0,501.0,519.0,517.0,510.0
509.0,501.0,519.0,521.0,506.0
515.0,502.0,519.0,520.0,508.0
511.0,501.0,519.0,517.0,514.0
512.0,506.0,517.0,516.0,518.0
514.0,506.0,519.0,519.0,516.0
520.0,502.0,515.0,513.0,509.0
525.0,515.0,520.0,520.0,512.0
528.0,517.0,524.0,519.0,511.0
525.0,517.0,519.0,514.0,511.0
518.0,513.0,509.0,510.0,516.0
508.0,507.0,504.0,504.0,522.0
502.0,504.0,501.0,500.0,513.0
493.0,500.0,501.0,504.0,512.0
492.0,499.0,506.0,508.0,510.0
497.0,499.0,514.0,512.0,509.0
505.0,503.0,516.0,523.0,518.0
513.0,503.0,521.0,521.0,512.0
520.0,502.0,520.0,522.0,515.0
520.0,506.0,520.0,520.0,517.0
513.0,503.0,515.0,515.0,521.0
513.0,504.0,519.0,516.0,515.0
518.0,507.0,516.0,515.0,508.0
516.0,511.0,519.0,515.0,510.0
524.0,510.0,520.0,521.0,509.0
525.0,515.0,518.0,516.0,510.0
518.0,514.0,515.0,513.0,513.0
516.0,513.0,507.0,511.0,516.0
507.0,507.0,506.0,507.0,517.0
503.0,503.0,499.0,500.0,520.0
501.0,501.0,502.0,502.0,520.0
505.0,501.0,506.0,506.0,515.0
504.0,505.0,513.0,512.0,516.0
513.0,505.0,516.0,517.0,518.0
513.0,504.0,519.0,516.0,523.0
515.0,505.0,522.0,520.0,520.0
513.0,507.0,520.0,520.0,519.0
509.0,502.0,518.0,515.0,524.0
513.0,503.0,515.0,511.0,520.0
516.0,510.0,519.0,515.0,515.0
524.0,513.0,519.0,516.0,510.0
527.0,517.0,523.0,518.0,505.0
523.0,519.0,518.0,513.0,505.0
517.0,513.0,511.0,504.0,503.0
507.0,508.0,506.0,506.0,505.0
508.0,505.0,504.0,505.0,509.0
498.0,502.0,502.0,504.0,513.0
501.0,502.0,501.0,507.0,514.0
504.0,499.0,508.0,512.0,515.0
512.0,505.0,517.0,518.0,508.0
515.0,508.0,521.0,522.0,511.0
521.0,505.0,524.0,525.0,510.0
513.0,502.0,521.0,521.0,519.0
511.0,502.0,517.0,518.0,521.0
514.0,503.0,520.0,519.0,519.0
512.0,511.0,520.0,521.0,516.0
515.0,511.0,520.0,520.0,511.0
522.0,514.0,523.0,520.0,507.0
524.0,515.0,520.0,519.0,501.0
520.0,515.0,519.0,515.0,504.0
518.0,513.0,510.0,510.0,504.0
508.0,508.0,507.0,505.0,509.0
499.0,503.0,500.0,502.0,515.0
500.0,501.0,501.0,504.0,520.0
506.0,501.0,507.0,505.0,521.0
510.0,505.0,509.0,512.0,517.0
512.0,503.0,515.0,519.0,514.0
515.0,503.0,522.0,522.0,516.0
513.0,504.0,528.0,523.0,516.0
514.0,505.0,522.0,522.0,514.0
514.0,503.0,519.0,518.0,518.0
514.0,505.0,519.0,516.0,512.0
517.0,505.0,519.0,517.0,518.0
517.0,510.0,523.0,519.0,512.0
524.0,514.0,520.0,522.0,507.0
524.0,518.0,519.0,520.0,502.0
519.0,516.0,514.0,512.0,504.0
509.0,509.0,510.0,510.0,511.0
507.0,505.0,505.0,504.0,510.0
503.0,503.0,499.0,502.0,513.0
496.0,498.0,500.0,504.0,521.0
499.0,502.0,508.0,510.0,518.0
508.0,499.0,511.0,514.0,517.0
515.0,505.0,521.0,519.0,521.0
518.0,508.0,521.0,526.0,523.0
518.0,505.0,522.0,523.0,524.0
514.0,502.0,518.0,517.0,521.0
511.0,506.0,520.0,515.0,516.0
512.0,504.0,518.0,516.0,509.0
512.0,506.0,522.0,515.0,512.0
518.0,512.0,520.0,518.0,507.0
524.0,518.0,523.0,520.0,505.0
521.0,518.0,519.0,518.0,508.0
517.0,515.0,519.0,513.0,510.0
510.0,510.0,506.0,504.0,514.0
509.0,508.0,504.0,507.0,516.0
502.0,501.0,498.0,501.0,520.0
499.0,497.0,501.0,499.0,526.0
497.0,498.0,504.0,512.0,523.0
508.0,505.0,517.0,517.0,506.0
514.0,503.0,517.0,522.0,506.0
519.0,504.0,520.0,515.0,515.0
511.0,503.0,520.0,519.0,516.0
511.0,507.0,519.0,519.0,514.0
512.0,505.0,520.0,517.0,509.0
516.0,504.0,511.0,514.0,515.0
515.0,506.0,513.0,510.0,516.0
519.0,511.0,516.0,515.0,512.0
525.0,520.0,520.0,519.0,505.0
524.0,516.0,518.0,516.0,507.0
517.0,514.0,514.0,511.0,508.0
506.0,513.0,506.0,505.0,510.0
498.0,504.0,500.0,502.0,513.0
497.0,503.0,502.0,503.0,518.0
505.0,501.0,503.0,506.0,517.0
511.0,502.0,512.0,514.0,514.0
514.0,507.0,516.0,520.0,512.0
514.0,503.0,516.0,520.0,518.0
518.0,504.0,520.0,521.0,521.0
515.0,506.0,518.0,518.0,522.0
511.0,503.0,517.0,516.0,522.0
508.0,505.0,521.0,518.0,520.0
516.0,506.0,522.0,515.0,514.0
521.0,511.0,517.0,515.0,509.0
525.0,516.0,519.0,516.0,507.0
530.0,519.0,518.0,520.0,505.0
523.0,517.0,519.0,513.0,518.0
512.0,514.0,511.0,509.0,524.0
511.0,506.0,503.0,502.0,525.0
501.0,501.0,497.0,498.0,523.0
502.0,499.0,500.0,501.0,526.0
503.0,502.0,506.0,508.0,517.0
511.0,502.0,515.0,514.0,516.0
516.0,505.0,521.0,519.0,522.0
522.0,509.0,523.0,523.0,521.0
520.0,506.0,522.0,522.0,521.0
513.0,503.0,518.0,519.0,521.0
513.0,502.0,516.0,514.0,520.0
510.0,504.0,517.0,516.0,518.0
506.0,508.0,519.0,515.0,511.0
512.0,511.0,520.0,519.0,500.0
515.0,516.0,521.0,518.0,496.0
519.0,518.0,517.0,517.0,495.0
518.0,513.0,513.0,518.0,502.0
507.0,509.0,507.0,508.0,507.0
505.0,505.0,506.0,505.0,511.0
502.0,503.0,499.0,504.0,516.0
502.0,502.0,503.0,506.0,519.0
502.0,502.0,508.0,510.0,523.0
510.0,504.0,515.0,516.0,524.0
510.0,506.0,520.0,523.0,518.0
515.0,505.0,522.0,524.0,518.0
520.0,505.0,523.0,521.0,513.0
515.0,502.0,518.0,518.0,513.0
514.0,504.0,519.0,516.0,510.0
520.0,506.0,517.0,518.0,511.0
518.0,511.0,516.0,517.0,513.0
517.0,512.0,519.0,518.0,508.0
519.0,512.0,516.0,515.0,505.0
514.0,514.0,514.0,512.0,511.0
514.0,512.0,509.0,506.0,508.0
504.0,509.0,502.0,506.0,512.0
501.0,505.0,498.0,500.0,522.0
503.0,502.0,497.0,500.0,523.0
504.0,498.0,501.0,505.0,525.0
507.0,500.0,509.0,514.0,526.0
513.0,502.0,513.0,515.0,527.0
515.0,504.0,517.0,520.0,512.0
523.0,505.0,523.0,519.0,512.0
517.0,504.0,519.0,517.0,518.0
516.0,502.0,517.0,516.0,521.0
519.0,507.0,517.0,520.0,514.0
522.0,506.0,517.0,514.0,508.0
516.0,507.0,514.0,512.0,505.0
518.0,511.0,516.0,519.0,497.0
525.0,519.0,521.0,523.0,505.0
516.0,515.0,515.0,516.0,519.0
509.0,511.0,511.0,509.0,524.0
503.0,508.0,504.0,510.0,516.0
501.0,505.0,501.0,505.0,520.0
498.0,500.0,502.0,506.0,517.0
501.0,503.0,506.0,512.0,513.0
507.0,501.0,512.0,516.0,512.0
509.0,504.0,519.0,522.0,514.0
516.0,506.0,521.0,524.0,524.0
520.0,506.0,525.0,524.0,519.0
518.0,505.0,522.0,520.0,518.0
515.0,506.0,519.0,516.0,536.0
514.0,508.0,521.0,517.0,529.0
518.0,513.0,520.0,516.0,519.0
517.0,513.0,521.0,517.0,514.0
520.0,516.0,525.0,518.0,501.0
521.0,515.0,516.0,519.0,496.0
514.0,515.0,512.0,509.0,497.0
506.0,509.0,508.0,507.0,496.0
503.0,508.0,508.0,508.0,496.0
495.0,501.0,500.0,503.0,510.0
498.0,500.0,503.0,504.0,517.0
514.0,503.0,508.0,513.0,519.0
522.0,506.0,517.0,517.0,517.0
528.0,506.0,519.0,522.0,518.0
527.0,508.0,522.0,523.0,515.0
521.0,506.0,522.0,522.0,519.0
518.0,500.0,518.0,516.0,520.0
513.0,507.0,521.0,517.0,510.0
507.0,507.0,521.0,516.0,506.0
509.0,510.0,515.0,515.0,505.0
519.0,518.0,523.0,516.0,501.0
524.0,520.0,522.0,521.0,500.0
519.0,517.0,515.0,515.0,505.0
513.0,513.0,513.0,513.0,509.0
508.0,511.0,507.0,509.0,510.0
504.0,506.0,503.0,506.0,518.0
499.0,500.0,499.0,501.0,517.0
501.0,502.0,508.0,505.0,513.0
504.0,500.0,509.0,512.0,519.0
512.0,508.0,518.0,519.0,515.0
517.0,507.0,526.0,523.0,516.0
518.0,506.0,521.0,525.0,516.0
522.0,505.0,520.0,522.0,520.0
519.0,502.0,521.0,515.0,522.0
518.0,505.0,518.0,520.0,524.0
517.0,508.0,520.0,515.0,524.0
513.0,513.0,523.0,516.0,518.0
518.0,511.0,521.0,518.0,515.0
518.0,517.0,518.0,516.0,510.0
514.0,513.0,513.0,514.0,512.0
509.0,512.0,509.0,506.0,510.0
501.0,506.0,503.0,509.0,507.0
502.0,501.0,506.0,505.0,509.0
500.0,502.0,500.0,502.0,513.0
503.0,501.0,505.0,507.0,517.0
500.0,499.0,508.0,511.0,523.0
513.0,504.0,520.0,521.0,520.0
516.0,504.0,523.0,522.0,520.0
515.0,503.0,520.0,519.0,526.0
522.0,505.0,519.0,521.0,525.0
521.0,505.0,519.0,522.0,523.0
520.0,506.0,518.0,514.0,515.0
517.0,507.0,518.0,516.0,507.0
523.0,507.0,517.0,513.0,501.0
522.0,514.0,519.0,517.0,510.0
521.0,517.0,518.0,515.0,517.0
510.0,516.0,515.0,515.0,504.0
505.0,507.0,507.0,507.0,510.0
507.0,506.0,502.0,504.0,512.0
507.0,500.0,499.0,504.0,517.0
505.0,498.0,503.0,505.0,518.0
509.0,502.0,507.0,511.0,518.0
515.0,506.0,515.0,517.0,515.0
523.0,504.0,519.0,522.0,515.0
521.0,507.0,524.0,524.0,514.0
517.0,506.0,525.0,518.0,512.0
504.0,503.0,518.0,514.0,507.0
509.0,504.0,521.0,516.0,508.0
514.0,508.0,519.0,519.0,515.0
520.0,510.0,520.0,518.0,519.0
520.0,515.0,521.0,520.0,536.0
520.0,518.0,521.0,515.0,528.0
529.0,519.0,517.0,513.0,515.0
522.0,513.0,509.0,507.0,508.0
512.0,507.0,503.0,504.0,512.0
504.0,508.0,501.0,501.0,512.0
502.0,501.0,501.0,504.0,514.0
501.0,501.0,504.0,507.0,521.0
508.0,505.0,513.0,517.0,512.0
517.0,510.0,521.0,519.0,517.0
517.0,513.0,524.0,523.0,523.0
515.0,508.0,524.0,523.0,528.0
512.0,506.0,525.0,518.0,547.0
503.0,505.0,516.0,513.0,551.0
508.0,502.0,516.0,514.0,524.0
521.0,507.0,517.0,516.0,519.0
515.0,508.0,522.0,519.0,509.0
514.0,512.0,518.0,519.0,489.0
522.0,516.0,521.0,521.0,479.0
520.0,518.0,514.0,517.0,484.0
518.0,509.0,508.0,516.0,491.0
515.0,506.0,504.0,508.0,490.0
513.0,501.0,500.0,506.0,471.0
508.0,500.0,501.0,505.0,508.0
504.0,504.0,507.0,506.0,527.0
520.0,506.0,514.0,510.0,523.0
521.0,507.0,519.0,518.0,505.0
521.0,508.0,524.0,525.0,494.0
520.0,510.0,523.0,526.0,508.0
520.0,505.0,516.0,524.0,506.0
512.0,504.0,515.0,517.0,487.0
512.0,502.0,518.0,512.0,520.0
522.0,507.0,515.0,522.0,494.0
523.0,510.0,512.0,513.0,504.0
533.0,518.0,518.0,515.0,500.0
534.0,519.0,519.0,513.0,516.0
524.0,513.0,510.0,503.0,535.0
507.0,506.0,506.0,501.0,537.0
503.0,505.0,502.0,504.0,522.0
503.0,504.0,501.0,500.0,538.0
494.0,498.0,499.0,501.0,538.0
495.0,498.0,510.0,507.0,509.0
506.0,501.0,516.0,518.0,504.0
510.0,503.0,518.0,519.0,520.0
513.0,506.0,523.0,524.0,520.0
508.0,504.0,520.0,523.0,510.0
509.0,505.0,519.0,523.0,511.0
513.0,506.0,524.0,522.0,509.0
516.0,508.0,521.0,519.0,498.0
528.0,508.0,519.0,521.0,500.0
531.0,514.0,523.0,520.0,494.0
525.0,514.0,520.0,519.0,498.0
525.0,515.0,515.0,515.0,505.0
520.0,512.0,510.0,511.0,509.0
512.0,506.0,506.0,508.0,509.0
507.0,503.0,502.0,505.0,513.0
504.0,496.0,500.0,504.0,511.0
505.0,497.0,501.0,501.0,519.0
513.0,503.0,509.0,511.0,524.0
517.0,504.0,521.0,519.0,524.0
516.0,505.0,520.0,525.0,521.0
521.0,508.0,521.0,525.0,518.0
515.0,504.0,519.0,523.0,515.0
509.0,502.0,514.0,520.0,515.0
508.0,505.0,517.0,516.0,516.0
511.0,508.0,518.0,517.0,503.0
514.0,510.0,519.0,518.0,500.0
525.0,514.0,522.0,517.0,499.0
527.0,516.0,517.0,516.0,502.0
524.0,515.0,515.0,511.0,508.0
523.0,510.0,508.0,508.0,519.0
517.0,506.0,508.0,503.0,536.0
505.0,505.0,501.0,498.0,537.0
497.0,501.0,502.0,502.0,521.0
502.0,504.0,506.0,511.0,508.0
511.0,501.0,512.0,521.0,510.0
507.0,502.0,518.0,524.0,506.0
511.0,506.0,523.0,530.0,507.0
522.0,507.0,522.0,524.0,513.0
520.0,505.0,519.0,519.0,525.0
519.0,506.0,518.0,521.0,518.0
516.0,508.0,517.0,520.0,511.0
512.0,505.0,517.0,516.0,513.0
506.0,510.0,522.0,521.0,513.0
508.0,517.0,529.0,524.0,508.0
511.0,521.0,522.0,523.0,509.0
502.0,517.0,516.0,514.0,522.0
509.0,512.0,511.0,505.0,517.0
508.0,506.0,507.0,503.0,512.0
504.0,503.0,504.0,505.0,516.0
514.0,504.0,505.0,506.0,524.0
517.0,507.0,508.0,509.0,536.0
522.0,506.0,516.0,515.0,536.0
523.0,503.0,521.0,522.0,533.0
526.0,503.0,521.0,524.0,519.0
518.0,503.0,519.0,520.0,514.0
500.0,499.0,516.0,515.0,512.0
509.0,500.0,514.0,515.0,505.0
524.0,503.0,516.0,517.0,487.0
520.0,509.0,518.0,517.0,491.0
519.0,515.0,521.0,520.0,522.0
528.0,518.0,522.0,516.0,518.0
516.0,516.0,514.0,512.0,505.0
501.0,511.0,511.0,506.0,516.0
507.0,505.0,504.0,506.0,517.0
516.0,508.0,504.0,505.0,517.0
506.0,499.0,500.0,501.0,518.0
500.0,495.0,499.0,510.0,488.0
507.0,497.0,507.0,513.0,501.0
510.0,496.0,510.0,508.0,537.0
507.0,506.0,522.0,522.0,536.0
521.0,508.0,526.0,527.0,507.0
517.0,506.0,526.0,522.0,496.0
516.0,505.0,518.0,519.0,491.0
521.0,509.0,524.0,517.0,480.0
522.0,513.0,522.0,522.0,476.0
527.0,514.0,525.0,526.0,463.0
525.0,518.0,523.0,519.0,493.0
523.0,518.0,520.0,517.0,517.0
518.0,516.0,516.0,509.0,532.0
516.0,509.0,511.0,507.0,525.0
503.0,504.0,504.0,505.0,582.0
497.0,502.0,502.0,507.0,528.0
504.0,508.0,505.0,520.0,506.0
507.0,501.0,507.0,515.0,516.0
513.0,500.0,510.0,510.0,524.0
505.0,502.0,515.0,507.0,525.0
514.0,505.0,521.0,516.0,506.0
515.0,502.0,519.0,516.0,517.0
506.0,499.0,521.0,510.0,529.0
510.0,506.0,518.0,521.0,489.0
513.0,507.0,520.0,518.0,493.0
526.0,508.0,518.0,517.0,495.0
531.0,509.0,518.0,514.0,477.0
535.0,517.0,523.0,520.0,459.0
530.0,520.0,523.0,519.0,479.0
523.0,516.0,517.0,519.0,511.0
515.0,513.0,512.0,515.0,495.0
513.0,506.0,503.0,510.0,499.0
497.0,494.0,498.0,498.0,524.0
496.0,495.0,496.0,498.0,505.0
498.0,496.0,506.0,509.0,512.0
510.0,496.0,513.0,514.0,520.0
519.0,501.0,518.0,515.0,529.0
517.0,510.0,524.0,523.0,530.0
514.0,514.0,526.0,519.0,533.0
509.0,503.0,519.0,516.0,530.0
503.0,502.0,521.0,511.0,530.0
512.0,505.0,517.0,511.0,529.0
522.0,506.0,518.0,516.0,513.0
528.0,517.0,522.0,516.0,514.0
533.0,518.0,526.0,519.0,484.0
541.0,517.0,518.0,519.0,473.0
539.0,520.0,514.0,515.0,463.0
530.0,506.0,504.0,504.0,503.0
512.0,504.0,502.0,504.0,520.0
485.0,497.0,497.0,501.0,526.0
488.0,498.0,504.0,512.0,512.0
502.0,504.0,512.0,519.0,532.0
510.0,505.0,519.0,518.0,543.0
503.0,501.0,515.0,517.0,521.0
509.0,502.0,518.0,517.0,513.0
517.0,504.0,519.0,518.0,530.0
524.0,502.0,515.0,508.0,556.0
522.0,507.0,521.0,506.0,570.0
530.0,514.0,527.0,505.0,545.0
525.0,515.0,525.0,511.0,532.0
516.0,512.0,523.0,514.0,494.0
520.0,510.0,519.0,515.0,458.0
505.0,510.0,511.0,508.0,479.0
506.0,511.0,509.0,508.0,506.0
512.0,507.0,505.0,512.0,483.0
512.0,510.0,510.0,515.0,471.0
507.0,504.0,509.0,518.0,464.0
496.0,499.0,508.0,519.0,494.0
490.0,500.0,515.0,521.0,520.0
498.0,503.0,518.0,519.0,525.0
500.0,497.0,517.0,518.0,534.0
514.0,500.0,519.0,517.0,552.0
523.0,504.0,515.0,507.0,552.0
533.0,505.0,518.0,509.0,554.0
535.0,509.0,516.0,507.0,560.0
533.0,516.0,522.0,518.0,508.0
531.0,518.0,529.0,515.0,520.0
531.0,518.0,521.0,511.0,527.0
535.0,515.0,518.0,522.0,499.0
507.0,511.0,516.0,522.0,526.0
498.0,506.0,508.0,517.0,485.0
494.0,507.0,501.0,506.0,537.0
523.0,511.0,512.0,501.0,523.0
542.0,508.0,506.0,491.0,552.0
521.0,502.0,509.0,495.0,538.0
539.0,507.0,518.0,514.0,500.0
551.0,505.0,519.0,519.0,474.0
520.0,501.0,520.0,527.0,484.0
475.0,499.0,524.0,536.0,412.0
494.0,502.0,521.0,528.0,401.0
517.0,511.0,529.0,530.0,448.0
510.0,510.0,521.0,518.0,534.0
501.0,510.0,520.0,506.0,604.0
518.0,521.0,523.0,509.0,638.0
514.0,526.0,533.0,525.0,632.0
489.0,520.0,523.0,521.0,609.0
484.0,514.0,517.0,531.0,532.0
496.0,506.0,507.0,515.0,563.0
525.0,510.0,510.0,515.0,576.0
518.0,502.0,503.0,514.0,534.0
502.0,497.0,496.0,508.0,468.0
518.0,497.0,502.0,486.0,452.0
529.0,502.0,513.0,515.0,462.0
532.0,502.0,516.0,519.0,495.0
549.0,506.0,523.0,534.0,430.0
557.0,515.0,528.0,529.0,548.0
557.0,507.0,520.0,519.0,605.0
523.0,508.0,520.0,522.0,624.0
493.0,523.0,534.0,542.0,648.0
480.0,514.0,523.0,545.0,530.0
479.0,513.0,526.0,540.0,414.0
493.0,514.0,518.0,518.0,419.0
514.0,521.0,523.0,535.0,418.0
510.0,520.0,519.0,527.0,531.0
502.0,501.0,502.0,502.0,507.0
490.0,490.0,491.0,474.0,464.0
512.0,490.0,494.0,494.0,378.0
516.0,490.0,499.0,498.0,427.0
503.0,493.0,503.0,504.0,479.0
498.0,498.0,510.0,512.0,510.0
482.0,497.0,517.0,528.0,510.0
476.0,497.0,516.0,525.0,600.0
491.0,503.0,525.0,532.0,541.0
492.0,499.0,519.0,518.0,527.0
482.0,503.0,518.0,502.0,522.0
488.0,516.0,528.0,511.0,534.0
516.0,520.0,528.0,510.0,488.0
511.0,521.0,521.0,507.0,523.0
504.0,508.0,509.0,501.0,507.0
509.0,503.0,506.0,493.0,535.0
508.0,502.0,500.0,485.0,546.0
512.0,501.0,498.0,494.0,530.0
492.0,492.0,493.0,489.0,526.0
501.0,492.0,492.0,500.0,534.0
521.0,498.0,505.0,512.0,543.0
520.0,514.0,522.0,526.0,568.0
540.0,520.0,534.0,530.0,574.0
526.0,510.0,520.0,514.0,566.0
510.0,512.0,531.0,540.0,495.0
493.0,507.0,525.0,523.0,536.0
473.0,501.0,517.0,523.0,435.0
495.0,504.0,526.0,530.0,452.0
533.0,498.0,517.0,507.0,556.0
531.0,511.0,517.0,515.0,515.0
521.0,517.0,521.0,535.0,374.0
510.0,511.0,516.0,531.0,409.0
463.0,507.0,507.0,514.0,508.0
476.0,510.0,512.0,510.0,498.0
493.0,517.0,515.0,509.0,495.0
478.0,505.0,510.0,494.0,526.0
452.0,498.0,509.0,489.0,504.0
527.0,503.0,514.0,512.0,489.0
562.0,508.0,520.0,525.0,528.0
556.0,508.0,515.0,512.0,572.0
527.0,497.0,507.0,499.0,638.0
509.0,493.0,511.0,521.0,505.0
514.0,504.0,518.0,525.0,389.0
514.0,507.0,514.0,500.0,588.0
532.0,516.0,525.0,518.0,685.0
510.0,516.0,530.0,524.0,640.0
481.0,505.0,521.0,526.0,458.0
464.0,509.0,521.0,525.0,464.0
526.0,529.0,529.0,526.0,514.0
567.0,536.0,535.0,532.0,582.0
552.0,518.0,516.0,520.0,570.0
504.0,498.0,499.0,510.0,502.0
465.0,486.0,492.0,485.0,474.0
491.0,492.0,502.0,495.0,388.0
535.0,498.0,503.0,490.0,405.0
518.0,492.0,506.0,495.0,442.0
540.0,504.0,513.0,507.0,527.0
537.0,516.0,533.0,523.0,542.0
538.0,517.0,529.0,514.0,589.0
506.0,506.0,521.0,515.0,504.0
511.0,494.0,512.0,527.0,370.0
500.0,507.0,522.0,537.0,442.0
508.0,527.0,537.0,545.0,544.0
558.0,548.0,554.0,561.0,662.0
520.0,538.0,546.0,560.0,717.0
415.0,504.0,515.0,519.0,656.0
424.0,498.0,503.0,516.0,492.0
463.0,505.0,501.0,492.0,482.0
462.0,496.0,488.0,464.0,366.0
468.0,489.0,490.0,476.0,409.0
540.0,491.0,495.0,478.0,424.0
549.0,496.0,506.0,510.0,485.0
476.0,480.0,505.0,530.0,503.0
487.0,482.0,507.0,514.0,478.0
534.0,509.0,524.0,521.0,446.0
523.0,521.0,536.0,528.0,589.0
479.0,498.0,520.0,518.0,554.0
466.0,488.0,505.0,506.0,461.0
515.0,509.0,524.0,513.0,470.0
527.0,525.0,528.0,511.0,544.0
551.0,545.0,549.0,521.0,529.0
527.0,522.0,524.0,512.0,498.0
540.0,507.0,506.0,507.0,477.0
515.0,496.0,498.0,514.0,617.0
465.0,477.0,483.0,484.0,638.0
425.0,479.0,487.0,481.0,545.0
469.0,495.0,503.0,518.0,519.0
494.0,493.0,508.0,534.0,515.0
448.0,490.0,506.0,514.0,419.0
519.0,512.0,529.0,530.0,501.0
560.0,519.0,537.0,535.0,547.0
549.0,511.0,530.0,538.0,442.0
521.0,500.0,519.0,519.0,396.0
498.0,515.0,529.0,516.0,526.0
539.0,516.0,527.0,492.0,631.0
533.0,519.0,525.0,505.0,713.0
443.0,506.0,516.0,506.0,613.0
378.0,491.0,507.0,501.0,439.0
424.0,500.0,514.0,528.0,331.0
455.0,500.0,508.0,504.0,382.0
408.0,483.0,495.0,491.0,419.0
439.0,492.0,496.0,486.0,524.0
479.0,488.0,494.0,492.0,622.0
515.0,496.0,504.0,508.0,675.0
583.0,509.0,512.0,518.0,440.0
612.0,517.0,518.0,505.0,477.0
647.0,532.0,530.0,511.0,480.0
629.0,538.0,537.0,516.0,553.0
588.0,522.0,524.0,515.0,627.0
486.0,496.0,515.0,523.0,623.0
485.0,497.0,520.0,533.0,409.0
468.0,499.0,516.0,511.0,403.0
463.0,506.0,524.0,525.0,425.0
517.0,525.0,530.0,511.0,718.0
547.0,521.0,528.0,549.0,547.0
547.0,491.0,496.0,501.0,509.0
528.0,505.0,509.0,509.0,338.0
515.0,505.0,502.0,485.0,476.0
545.0,503.0,499.0,477.0,522.0
521.0,494.0,500.0,487.0,542.0
508.0,507.0,511.0,512.0,527.0
519.0,516.0,525.0,520.0,480.0
514.0,513.0,531.0,526.0,508.0
514.0,512.0,521.0,515.0,612.0
517.0,504.0,515.0,520.0,553.0
518.0,503.0,519.0,524.0,415.0
444.0,489.0,513.0,520.0,537.0
427.0,498.0,518.0,519.0,525.0
444.0,509.0,520.0,509.0,505.0
494.0,505.0,512.0,497.0,491.0
568.0,503.0,504.0,486.0,450.0
549.0,501.0,506.0,495.0,502.0
503.0,496.0,500.0,519.0,551.0
452.0,498.0,502.0,521.0,560.0
463.0,498.0,495.0,499.0,459.0
514.0,506.0,507.0,506.0,508.0
516.0,512.0,511.0,518.0,471.0
526.0,515.0,519.0,518.0,483.0
566.0,515.0,520.0,503.0,563.0
559.0,513.0,523.0,513.0,537.0
496.0,507.0,518.0,513.0,545.0
517.0,507.0,514.0,505.0,522.0
524.0,513.0,521.0,516.0,558.0
524.0,502.0,511.0,498.0,571.0
526.0,497.0,510.0,507.0,478.0
521.0,499.0,508.0,506.0,428.0
531.0,510.0,516.0,513.0,496.0
523.0,526.0,529.0,518.0,557.0
535.0,524.0,529.0,548.0,602.0
436.0,488.0,503.0,544.0,630.0
417.0,491.0,503.0,532.0,387.0
415.0,497.0,504.0,491.0,457.0
413.0,500.0,509.0,507.0,451.0
488.0,509.0,517.0,507.0,495.0
624.0,521.0,526.0,502.0,492.0
607.0,520.0,525.0,511.0,441.0
548.0,496.0,509.0,496.0,583.0
458.0,484.0,506.0,494.0,563.0
525.0,507.0,522.0,522.0,560.0
536.0,513.0,524.0,533.0,584.0
501.0,502.0,518.0,538.0,455.0
506.0,493.0,506.0,508.0,289.0
557.0,515.0,520.0,504.0,453.0
543.0,520.0,524.0,509.0,630.0
521.0,528.0,528.0,529.0,594.0
526.0,529.0,529.0,522.0,541.0
482.0,503.0,506.0,489.0,458.0
395.0,487.0,499.0,498.0,460.0
402.0,498.0,507.0,512.0,641.0
523.0,517.0,509.0,507.0,695.0
609.0,511.0,507.0,505.0,560.0
584.0,500.0,510.0,515.0,395.0
481.0,488.0,507.0,515.0,333.0
381.0,476.0,506.0,517.0,418.0
406.0,490.0,518.0,531.0,622.0
467.0,506.0,525.0,532.0,645.0
541.0,512.0,524.0,529.0,495.0
573.0,512.0,518.0,523.0,407.0
597.0,516.0,518.0,505.0,440.0
607.0,529.0,526.0,492.0,584.0
566.0,536.0,535.0,519.0,528.0
540.0,518.0,519.0,505.0,455.0
468.0,497.0,501.0,483.0,529.0
448.0,497.0,501.0,488.0,528.0
508.0,501.0,497.0,500.0,464.0
484.0,499.0,497.0,498.0,531.0
407.0,479.0,488.0,482.0,507.0
507.0,505.0,514.0,504.0,526.0
530.0,517.0,533.0,544.0,534.0
460.0,499.0,520.0,523.0,627.0
446.0,498.0,525.0,540.0,439.0
520.0,510.0,523.0,527.0,423.0
560.0,511.0,524.0,535.0,377.0
580.0,512.0,520.0,525.0,436.0
608.0,508.0,511.0,504.0,503.0
566.0,512.0,512.0,499.0,549.0
510.0,514.0,519.0,504.0,597.0
468.0,541.0,541.0,532.0,612.0
475.0,536.0,536.0,544.0,682.0
478.0,511.0,511.0,515.0,461.0
472.0,497.0,495.0,489.0,413.0
506.0,486.0,489.0,494.0,439.0
531.0,483.0,487.0,496.0,548.0
522.0,493.0,492.0,499.0,514.0
520.0,482.0,490.0,482.0,480.0
530.0,491.0,497.0,486.0,554.0
550.0,504.0,518.0,511.0,551.0
513.0,502.0,521.0,527.0,460.0
505.0,499.0,521.0,531.0,437.0
503.0,506.0,523.0,527.0,500.0
538.0,518.0,527.0,522.0,519.0
537.0,519.0,528.0,514.0,537.0
471.0,511.0,524.0,519.0,507.0
500.0,510.0,519.0,512.0,470.0
504.0,509.0,517.0,525.0,489.0
506.0,516.0,518.0,527.0,512.0
495.0,502.0,507.0,514.0,464.0
454.0,489.0,495.0,491.0,514.0
437.0,484.0,493.0,484.0,538.0
511.0,497.0,500.0,494.0,528.0
517.0,505.0,509.0,513.0,520.0
550.0,511.0,516.0,518.0,485.0
580.0,522.0,528.0,524.0,544.0
586.0,527.0,535.0,529.0,630.0
547.0,521.0,533.0,536.0,572.0
441.0,506.0,523.0,521.0,505.0
472.0,490.0,511.0,523.0,502.0
527.0,495.0,514.0,524.0,541.0
492.0,482.0,501.0,508.0,458.0
468.0,491.0,503.0,491.0,504.0
498.0,495.0,506.0,494.0,515.0
493.0,508.0,508.0,491.0,544.0
492.0,512.0,512.0,515.0,500.0
470.0,504.0,502.0,499.0,472.0
476.0,511.0,503.0,503.0,476.0
574.0,535.0,516.0,521.0,446.0
554.0,517.0,512.0,516.0,499.0
419.0,496.0,508.0,503.0,569.0
498.0,513.0,527.0,528.0,531.0
513.0,520.0,533.0,537.0,492.0
497.0,506.0,523.0,521.0,505.0
499.0,493.0,511.0,503.0,507.0
513.0,494.0,508.0,513.0,553.0
517.0,503.0,514.0,526.0,592.0
566.0,505.0,509.0,520.0,474.0
569.0,517.0,519.0,518.0,478.0
645.0,535.0,532.0,534.0,466.0
658.0,546.0,536.0,509.0,523.0
598.0,531.0,538.0,528.0,524.0
448.0,507.0,524.0,533.0,529.0
503.0,507.0,508.0,508.0,477.0
459.0,489.0,493.0,488.0,552.0
447.0,485.0,491.0,485.0,515.0
483.0,503.0,509.0,521.0,468.0
526.0,501.0,508.0,513.0,528.0
553.0,511.0,520.0,519.0,648.0
540.0,500.0,517.0,527.0,527.0
536.0,508.0,521.0,526.0,482.0
460.0,506.0,520.0,528.0,472.0
489.0,505.0,513.0,509.0,548.0
539.0,518.0,520.0,503.0,551.0
556.0,530.0,530.0,508.0,477.0
553.0,523.0,527.0,515.0,458.0
529.0,506.0,515.0,510.0,478.0
495.0,511.0,518.0,512.0,512.0
466.0,508.0,518.0,514.0,551.0
493.0,500.0,509.0,507.0,535.0
538.0,495.0,496.0,492.0,521.0
487.0,498.0,494.0,487.0,595.0
504.0,511.0,505.0,522.0,572.0
557.0,513.0,509.0,515.0,581.0
524.0,498.0,510.0,508.0,704.0
478.0,501.0,522.0,549.0,517.0
456.0,497.0,513.0,521.0,432.0
551.0,504.0,513.0,502.0,473.0
533.0,498.0,510.0,495.0,411.0
552.0,506.0,517.0,514.0,409.0
516.0,501.0,515.0,513.0,500.0
507.0,506.0,513.0,503.0,521.0
534.0,516.0,524.0,512.0,486.0
510.0,516.0,527.0,522.0,437.0
483.0,513.0,522.0,519.0,507.0
480.0,517.0,517.0,513.0,584.0
526.0,527.0,518.0,501.0,544.0
540.0,515.0,506.0,500.0,458.0
497.0,497.0,498.0,497.0,507.0
480.0,498.0,504.0,500.0,578.0
495.0,506.0,513.0,511.0,614.0
508.0,509.0,521.0,532.0,604.0
496.0,501.0,517.0,538.0,512.0
529.0,497.0,507.0,515.0,431.0
600.0,514.0,523.0,537.0,347.0
553.0,507.0,512.0,502.0,539.0
500.0,501.0,512.0,499.0,634.0
512.0,508.0,519.0,525.0,547.0
565.0,514.0,517.0,497.0,498.0
550.0,522.0,529.0,540.0,362.0
529.0,519.0,527.0,538.0,418.0
520.0,505.0,510.0,506.0,497.0
533.0,508.0,507.0,490.0,598.0
502.0,506.0,504.0,494.0,559.0
475.0,504.0,504.0,498.0,551.0
567.0,514.0,509.0,508.0,511.0
618.0,512.0,511.0,508.0,504.0
507.0,490.0,503.0,498.0,534.0
420.0,495.0,519.0,533.0,458.0
413.0,490.0,521.0,519.0,550.0
369.0,478.0,508.0,502.0,529.0
384.0,482.0,507.0,509.0,539.0
534.0,512.0,521.0,517.0,526.0
583.0,531.0,535.0,528.0,490.0
561.0,526.0,530.0,524.0,526.0
563.0,524.0,533.0,544.0,505.0
533.0,510.0,519.0,530.0,487.0
504.0,506.0,513.0,528.0,420.0
515.0,508.0,513.0,510.0,484.0
501.0,515.0,518.0,510.0,506.0
561.0,525.0,521.0,527.0,556.0
475.0,498.0,498.0,496.0,587.0
463.0,494.0,498.0,483.0,538.0
537.0,512.0,508.0,503.0,469.0
521.0,502.0,514.0,523.0,502.0
502.0,495.0,516.0,520.0,550.0
481.0,497.0,521.0,525.0,572.0
494.0,498.0,517.0,520.0,507.0
524.0,509.0,521.0,521.0,500.0
542.0,516.0,520.0,504.0,522.0
594.0,527.0,526.0,516.0,497.0
572.0,510.0,515.0,504.0,501.0
553.0,508.0,515.0,508.0,515.0
548.0,515.0,520.0,517.0,558.0
530.0,516.0,522.0,521.0,590.0
465.0,510.0,518.0,521.0,526.0
362.0,484.0,498.0,502.0,455.0
458.0,494.0,495.0,495.0,464.0
508.0,501.0,498.0,488.0,534.0
554.0,506.0,508.0,514.0,510.0
491.0,493.0,506.0,506.0,486.0
473.0,495.0,513.0,522.0,469.0
437.0,492.0,511.0,509.0,531.0
464.0,508.0,522.0,518.0,584.0
503.0,516.0,526.0,526.0,568.0
562.0,518.0,526.0,532.0,450.0
634.0,529.0,534.0,537.0,481.0
618.0,523.0,519.0,510.0,623.0
587.0,518.0,521.0,526.0,529.0
490.0,500.0,510.0,508.0,506.0
504.0,517.0,523.0,520.0,489.0
509.0,512.0,522.0,529.0,459.0
493.0,502.0,507.0,511.0,509.0
479.0,501.0,504.0,500.0,513.0
531.0,506.0,506.0,501.0,459.0
539.0,506.0,506.0,502.0,509.0
516.0,505.0,508.0,507.0,559.0
431.0,492.0,508.0,508.0,517.0
470.0,491.0,509.0,513.0,504.0
430.0,489.0,512.0,514.0,489.0
459.0,509.0,523.0,527.0,499.0
518.0,511.0,519.0,514.0,555.0
564.0,510.0,522.0,517.0,586.0
538.0,505.0,513.0,503.0,547.0
499.0,511.0,522.0,528.0,451.0
493.0,523.0,535.0,550.0,420.0
529.0,528.0,531.0,526.0,541.0
542.0,518.0,520.0,501.0,592.0
541.0,518.0,513.0,512.0,474.0
544.0,515.0,508.0,517.0,513.0
540.0,506.0,504.0,514.0,594.0
502.0,495.0,498.0,490.0,572.0
450.0,501.0,504.0,517.0,425.0
500.0,502.0,506.0,502.0,469.0
542.0,503.0,511.0,513.0,495.0
538.0,509.0,517.0,519.0,495.0
544.0,518.0,532.0,525.0,538.0
526.0,513.0,531.0,524.0,537.0
508.0,506.0,524.0,509.0,617.0
494.0,506.0,523.0,533.0,488.0
525.0,513.0,523.0,540.0,470.0
536.0,501.0,511.0,499.0,613.0
547.0,505.0,515.0,497.0,630.0
570.0,521.0,526.0,514.0,591.0
536.0,516.0,515.0,505.0,443.0
518.0,512.0,512.0,513.0,421.0
460.0,512.0,513.0,513.0,468.0
476.0,513.0,517.0,533.0,454.0
526.0,501.0,500.0,504.0,504.0
531.0,492.0,498.0,499.0,496.0
520.0,490.0,500.0,490.0,546.0
488.0,492.0,508.0,505.0,537.0
489.0,511.0,529.0,546.0,507.0
492.0,504.0,525.0,541.0,457.0
502.0,497.0,520.0,530.0,451.0
532.0,500.0,514.0,504.0,649.0
542.0,504.0,515.0,505.0,642.0
510.0,501.0,509.0,501.0,569.0
535.0,513.0,521.0,515.0,436.0
545.0,517.0,525.0,538.0,401.0
535.0,520.0,528.0,536.0,418.0
537.0,517.0,519.0,506.0,483.0
510.0,512.0,515.0,504.0,539.0
485.0,506.0,504.0,493.0,541.0
475.0,504.0,505.0,493.0,519.0
489.0,496.0,501.0,496.0,486.0
480.0,497.0,499.0,501.0,498.0
470.0,504.0,514.0,510.0,559.0
520.0,517.0,529.0,526.0,588.0
523.0,508.0,522.0,522.0,530.0
451.0,497.0,523.0,524.0,512.0
479.0,492.0,515.0,515.0,447.0
498.0,498.0,514.0,521.0,481.0
523.0,508.0,522.0,537.0,479.0
568.0,525.0,524.0,520.0,547.0
601.0,540.0,533.0,524.0,556.0
607.0,533.0,534.0,529.0,557.0
615.0,527.0,522.0,521.0,538.0
498.0,499.0,504.0,501.0,507.0
487.0,505.0,509.0,501.0,532.0
475.0,502.0,503.0,506.0,597.0
469.0,498.0,503.0,513.0,573.0
540.0,496.0,495.0,505.0,540.0
606.0,513.0,512.0,516.0,422.0
586.0,519.0,526.0,506.0,503.0
459.0,502.0,521.0,513.0,485.0
490.0,514.0,534.0,547.0,434.0
500.0,511.0,528.0,539.0,486.0
508.0,495.0,512.0,516.0,472.0
499.0,499.0,520.0,507.0,471.0
504.0,504.0,517.0,504.0,512.0
472.0,504.0,524.0,502.0,597.0
503.0,519.0,534.0,524.0,591.0
511.0,515.0,530.0,549.0,494.0
527.0,519.0,520.0,526.0,436.0
538.0,512.0,511.0,490.0,471.0
506.0,513.0,513.0,500.0,484.0
474.0,507.0,511.0,500.0,573.0
456.0,504.0,508.0,500.0,615.0
516.0,501.0,503.0,505.0,525.0
498.0,490.0,503.0,513.0,438.0
521.0,486.0,508.0,509.0,450.0
563.0,502.0,519.0,510.0,528.0
559.0,510.0,526.0,523.0,516.0
566.0,511.0,529.0,524.0,508.0
525.0,507.0,521.0,521.0,529.0
485.0,504.0,521.0,520.0,496.0
481.0,512.0,529.0,531.0,446.0
477.0,503.0,517.0,518.0,493.0
518.0,507.0,520.0,515.0,532.0
513.0,515.0,520.0,517.0,506.0
523.0,518.0,520.0,514.0,524.0
543.0,518.0,514.0,509.0,550.0
530.0,513.0,513.0,522.0,543.0
512.0,502.0,503.0,510.0,528.0
503.0,502.0,504.0,504.0,525.0
490.0,502.0,509.0,516.0,485.0
482.0,493.0,508.0,514.0,493.0
492.0,511.0,515.0,499.0,583.0
549.0,521.0,527.0,523.0,481.0
544.0,510.0,523.0,527.0,486.0
537.0,505.0,516.0,514.0,497.0
546.0,502.0,510.0,505.0,517.0
539.0,508.0,515.0,504.0,555.0
563.0,520.0,524.0,515.0,546.0
574.0,532.0,532.0,533.0,524.0
548.0,527.0,533.0,527.0,516.0
455.0,509.0,525.0,517.0,489.0
472.0,513.0,523.0,521.0,541.0
499.0,498.0,505.0,519.0,549.0
505.0,495.0,497.0,498.0,456.0
531.0,496.0,501.0,498.0,484.0
496.0,499.0,505.0,507.0,532.0
495.0,502.0,508.0,517.0,556.0
497.0,498.0,513.0,521.0,501.0
504.0,511.0,521.0,529.0,476.0
533.0,518.0,532.0,526.0,547.0
537.0,521.0,528.0,519.0,627.0
504.0,511.0,529.0,542.0,557.0
499.0,509.0,528.0,556.0,432.0
511.0,516.0,526.0,524.0,496.0
543.0,508.0,517.0,503.0,522.0
547.0,505.0,511.0,490.0,578.0
519.0,511.0,520.0,531.0,514.0
500.0,503.0,513.0,502.0,458.0
536.0,513.0,516.0,510.0,455.0
532.0,513.0,510.0,512.0,401.0
503.0,506.0,505.0,503.0,452.0
497.0,497.0,499.0,494.0,554.0
494.0,493.0,499.0,501.0,486.0
499.0,498.0,505.0,505.0,513.0
513.0,508.0,516.0,508.0,570.0
536.0,516.0,528.0,526.0,522.0
541.0,522.0,529.0,535.0,542.0
458.0,496.0,512.0,515.0,577.0
496.0,500.0,515.0,515.0,513.0
545.0,500.0,515.0,517.0,434.0
494.0,496.0,518.0,515.0,455.0
453.0,494.0,514.0,513.0,505.0
455.0,507.0,521.0,517.0,504.0
528.0,520.0,526.0,538.0,455.0
598.0,526.0,525.0,527.0,542.0
533.0,516.0,514.0,505.0,571.0
474.0,503.0,504.0,499.0,563.0
465.0,494.0,499.0,505.0,498.0
444.0,489.0,498.0,505.0,584.0
519.0,493.0,503.0,509.0,533.0
527.0,511.0,514.0,516.0,462.0
554.0,517.0,521.0,523.0,467.0
556.0,517.0,523.0,512.0,515.0
530.0,515.0,524.0,518.0,583.0
546.0,514.0,526.0,519.0,636.0
589.0,524.0,529.0,526.0,664.0
545.0,520.0,531.0,543.0,511.0
501.0,500.0,515.0,531.0,429.0
436.0,498.0,512.0,510.0,398.0
496.0,519.0,523.0,511.0,496.0
547.0,532.0,529.0,515.0,488.0
553.0,524.0,521.0,525.0,459.0
557.0,511.0,509.0,506.0,446.0
549.0,512.0,506.0,499.0,510.0
500.0,498.0,500.0,498.0,523.0
500.0,499.0,501.0,507.0,488.0
512.0,498.0,503.0,502.0,573.0
502.0,501.0,516.0,523.0,569.0
491.0,503.0,518.0,527.0,492.0
473.0,505.0,527.0,538.0,439.0
485.0,502.0,519.0,504.0,543.0
524.0,505.0,515.0,507.0,549.0
490.0,497.0,517.0,519.0,542.0
449.0,481.0,509.0,518.0,455.0
496.0,503.0,509.0,514.0,554.0
495.0,516.0,526.0,514.0,552.0
549.0,523.0,529.0,528.0,464.0
564.0,525.0,520.0,518.0,444.0
539.0,523.0,522.0,521.0,462.0
547.0,530.0,524.0,523.0,516.0
521.0,519.0,511.0,508.0,546.0
510.0,510.0,502.0,503.0,523.0
486.0,486.0,492.0,497.0,500.0
536.0,503.0,506.0,509.0,560.0
561.0,510.0,518.0,513.0,602.0
556.0,512.0,520.0,515.0,549.0
537.0,502.0,520.0,529.0,452.0
484.0,497.0,511.0,504.0,499.0
469.0,491.0,508.0,500.0,533.0
505.0,506.0,520.0,518.0,514.0
548.0,514.0,523.0,523.0,496.0
553.0,520.0,523.0,514.0,529.0
556.0,521.0,523.0,509.0,542.0
529.0,518.0,524.0,523.0,519.0
534.0,523.0,519.0,536.0,552.0
541.0,527.0,528.0,554.0,491.0
523.0,505.0,506.0,513.0,391.0
503.0,494.0,497.0,495.0,412.0
479.0,498.0,503.0,484.0,519.0
472.0,500.0,506.0,498.0,546.0
528.0,506.0,511.0,510.0,525.0
538.0,511.0,523.0,524.0,523.0
504.0,503.0,522.0,521.0,560.0
482.0,499.0,519.0,518.0,534.0
457.0,498.0,516.0,512.0,557.0
459.0,494.0,510.0,512.0,542.0
524.0,500.0,512.0,519.0,449.0
540.0,515.0,522.0,516.0,486.0
520.0,521.0,532.0,523.0,503.0
525.0,523.0,530.0,524.0,498.0
524.0,523.0,526.0,520.0,553.0
533.0,516.0,517.0,513.0,481.0
533.0,506.0,507.0,513.0,467.0
519.0,499.0,505.0,514.0,521.0
504.0,500.0,505.0,502.0,529.0
488.0,496.0,504.0,504.0,537.0
458.0,495.0,502.0,500.0,503.0
528.0,499.0,508.0,508.0,483.0
554.0,512.0,517.0,512.0,504.0
548.0,519.0,527.0,536.0,469.0
522.0,510.0,524.0,533.0,454.0
495.0,506.0,522.0,519.0,537.0
528.0,503.0,519.0,508.0,583.0
486.0,494.0,514.0,504.0,558.0
515.0,504.0,518.0,524.0,519.0
512.0,509.0,517.0,519.0,447.0
529.0,521.0,526.0,520.0,496.0
586.0,532.0,529.0,509.0,572.0
594.0,532.0,524.0,509.0,639.0
541.0,518.0,512.0,501.0,646.0
514.0,499.0,503.0,516.0,444.0
493.0,503.0,507.0,508.0,498.0
453.0,501.0,511.0,520.0,570.0
376.0,482.0,508.0,532.0,536.0
363.0,487.0,509.0,523.0,520.0
383.0,511.0,528.0,527.0,399.0
543.0,522.0,533.0,524.0,482.0
551.0,515.0,527.0,521.0,508.0
595.0,515.0,520.0,506.0,507.0
579.0,514.0,520.0,509.0,507.0
581.0,516.0,522.0,517.0,519.0
535.0,504.0,516.0,515.0,516.0
522.0,500.0,511.0,507.0,445.0
519.0,504.0,512.0,512.0,459.0
557.0,509.0,507.0,496.0,517.0
610.0,523.0,512.0,502.0,542.0
571.0,516.0,508.0,504.0,517.0
518.0,503.0,500.0,499.0,525.0
466.0,511.0,512.0,513.0,489.0
476.0,504.0,510.0,513.0,524.0
502.0,504.0,512.0,505.0,527.0
484.0,500.0,516.0,524.0,454.0
487.0,502.0,515.0,527.0,478.0
500.0,509.0,524.0,516.0,499.0
535.0,518.0,532.0,526.0,530.0
517.0,512.0,525.0,527.0,540.0
555.0,512.0,519.0,523.0,515.0
540.0,502.0,511.0,503.0,512.0
492.0,505.0,513.0,518.0,432.0
502.0,520.0,531.0,528.0,486.0
534.0,529.0,531.0,532.0,514.0
497.0,518.0,519.0,507.0,550.0
557.0,524.0,520.0,512.0,584.0
567.0,516.0,509.0,503.0,609.0
495.0,494.0,493.0,491.0,469.0
489.0,496.0,503.0,510.0,439.0
469.0,498.0,506.0,508.0,467.0
490.0,503.0,512.0,514.0,512.0
500.0,502.0,517.0,524.0,579.0
541.0,503.0,518.0,546.0,512.0
505.0,499.0,521.0,532.0,477.0
499.0,499.0,514.0,501.0,493.0
520.0,502.0,516.0,507.0,577.0
515.0,507.0,521.0,524.0,486.0
500.0,519.0,529.0,530.0,463.0
500.0,524.0,532.0,520.0,504.0
561.0,535.0,532.0,526.0,477.0
542.0,519.0,523.0,516.0,516.0
499.0,501.0,505.0,500.0,458.0
497.0,505.0,503.0,498.0,510.0
506.0,504.0,502.0,497.0,548.0
527.0,498.0,498.0,500.0,560.0
530.0,498.0,501.0,501.0,534.0
489.0,493.0,507.0,528.0,521.0
500.0,507.0,522.0,547.0,486.0
507.0,505.0,514.0,533.0,486.0
534.0,507.0,521.0,514.0,544.0
551.0,515.0,528.0,517.0,622.0
498.0,497.0,512.0,499.0,568.0
467.0,494.0,509.0,502.0,492.0
515.0,514.0,528.0,520.0,475.0
543.0,514.0,519.0,513.0,503.0
544.0,519.0,521.0,517.0,529.0
553.0,530.0,525.0,519.0,482.0
562.0,524.0,519.0,517.0,435.0
520.0,512.0,512.0,509.0,491.0
491.0,503.0,505.0,509.0,494.0
510.0,504.0,512.0,509.0,515.0
537.0,508.0,506.0,511.0,506.0
500.0,499.0,507.0,513.0,571.0
471.0,498.0,511.0,515.0,522.0
459.0,504.0,519.0,521.0,498.0
474.0,506.0,527.0,530.0,459.0
494.0,500.0,520.0,527.0,541.0
518.0,504.0,519.0,521.0,583.0
524.0,500.0,513.0,516.0,552.0
533.0,511.0,522.0,522.0,583.0
577.0,526.0,526.0,522.0,511.0
569.0,522.0,528.0,516.0,478.0
537.0,511.0,519.0,510.0,442.0
538.0,516.0,519.0,513.0,463.0
493.0,508.0,514.0,515.0,475.0
487.0,507.0,513.0,530.0,453.0
471.0,505.0,514.0,531.0,481.0
503.0,508.0,507.0,507.0,510.0
531.0,514.0,511.0,496.0,587.0
509.0,508.0,521.0,518.0,521.0
463.0,501.0,517.0,526.0,501.0
493.0,506.0,519.0,516.0,584.0
521.0,507.0,520.0,502.0,593.0
532.0,507.0,516.0,511.0,480.0
568.0,502.0,509.0,508.0,476.0
533.0,501.0,515.0,512.0,544.0
547.0,503.0,517.0,516.0,567.0
520.0,494.0,506.0,507.0,561.0
603.0,523.0,522.0,525.0,463.0
518.0,521.0,524.0,512.0,490.0
539.0,523.0,525.0,521.0,502.0
536.0,513.0,518.0,516.0,486.0
492.0,507.0,513.0,514.0,475.0
490.0,503.0,508.0,508.0,503.0
442.0,494.0,498.0,506.0,508.0
419.0,487.0,501.0,505.0,492.0
492.0,502.0,512.0,521.0,458.0
582.0,516.0,515.0,515.0,457.0
516.0,507.0,514.0,508.0,537.0
505.0,501.0,516.0,508.0,557.0
498.0,504.0,519.0,512.0,562.0
507.0,507.0,521.0,522.0,577.0
515.0,516.0,529.0,530.0,541.0
532.0,519.0,527.0,538.0,489.0
508.0,503.0,514.0,517.0,508.0
532.0,507.0,515.0,520.0,404.0
528.0,517.0,517.0,508.0,427.0
546.0,517.0,517.0,512.0,503.0
534.0,516.0,514.0,514.0,477.0
495.0,512.0,516.0,518.0,444.0
469.0,506.0,507.0,520.0,517.0
475.0,507.0,503.0,500.0,583.0
498.0,495.0,491.0,490.0,574.0
506.0,493.0,499.0,501.0,594.0
582.0,504.0,512.0,519.0,560.0
547.0,501.0,513.0,519.0,528.0
500.0,496.0,511.0,508.0,565.0
521.0,501.0,513.0,525.0,395.0
502.0,508.0,521.0,530.0,468.0
521.0,502.0,516.0,519.0,501.0
490.0,503.0,517.0,502.0,521.0
463.0,506.0,516.0,512.0,510.0
511.0,514.0,521.0,518.0,513.0
528.0,524.0,524.0,514.0,554.0
538.0,529.0,522.0,510.0,586.0
523.0,520.0,515.0,517.0,530.0
517.0,516.0,507.0,515.0,487.0
506.0,509.0,503.0,508.0,486.0
519.0,507.0,501.0,509.0,487.0
531.0,501.0,502.0,509.0,497.0
534.0,497.0,506.0,514.0,461.0
512.0,498.0,513.0,503.0,544.0
504.0,506.0,522.0,518.0,569.0
515.0,518.0,530.0,527.0,601.0
552.0,522.0,529.0,515.0,569.0
545.0,507.0,519.0,514.0,518.0
491.0,490.0,507.0,506.0,525.0
477.0,503.0,518.0,526.0,464.0
514.0,515.0,527.0,534.0,463.0
483.0,512.0,524.0,526.0,476.0
489.0,504.0,515.0,517.0,493.0
522.0,512.0,517.0,516.0,488.0
552.0,517.0,510.0,503.0,519.0
515.0,515.0,507.0,507.0,537.0
518.0,509.0,505.0,510.0,473.0
518.0,500.0,504.0,516.0,499.0
543.0,501.0,511.0,519.0,462.0
546.0,508.0,518.0,523.0,498.0
509.0,506.0,515.0,520.0,550.0
510.0,507.0,523.0,523.0,555.0
514.0,506.0,521.0,518.0,561.0
486.0,490.0,511.0,510.0,549.0
489.0,508.0,523.0,513.0,533.0
505.0,514.0,523.0,514.0,481.0
515.0,518.0,522.0,515.0,500.0
550.0,525.0,525.0,516.0,559.0
533.0,519.0,524.0,519.0,516.0
512.0,507.0,513.0,508.0,492.0
499.0,504.0,512.0,503.0,444.0
494.0,503.0,504.0,504.0,480.0
497.0,495.0,497.0,503.0,508.0
507.0,496.0,497.0,505.0,489.0
506.0,498.0,501.0,502.0,532.0
507.0,504.0,512.0,509.0,549.0
518.0,503.0,515.0,514.0,502.0
518.0,507.0,519.0,519.0,509.0
519.0,507.0,525.0,533.0,515.0
516.0,506.0,526.0,526.0,538.0
506.0,501.0,519.0,509.0,557.0
491.0,500.0,517.0,514.0,539.0
531.0,505.0,514.0,497.0,549.0
544.0,519.0,524.0,526.0,513.0
536.0,524.0,532.0,525.0,500.0
523.0,524.0,532.0,522.0,522.0
520.0,523.0,530.0,521.0,508.0
508.0,508.0,508.0,521.0,512.0
493.0,499.0,497.0,516.0,490.0
529.0,502.0,497.0,506.0,507.0
556.0,506.0,497.0,485.0,550.0
545.0,503.0,506.0,503.0,506.0
485.0,501.0,510.0,512.0,484.0
502.0,497.0,512.0,506.0,487.0
464.0,501.0,523.0,525.0,500.0
480.0,493.0,515.0,518.0,520.0
492.0,492.0,510.0,509.0,526.0
479.0,497.0,511.0,507.0,526.0
502.0,505.0,512.0,509.0,519.0
511.0,507.0,515.0,517.0,516.0
537.0,514.0,522.0,521.0,527.0
535.0,522.0,527.0,522.0,535.0
554.0,528.0,529.0,523.0,507.0
556.0,524.0,521.0,510.0,460.0
546.0,515.0,509.0,501.0,532.0
519.0,498.0,502.0,503.0,509.0
496.0,493.0,499.0,506.0,493.0
494.0,496.0,504.0,520.0,493.0
511.0,496.0,507.0,506.0,510.0
508.0,504.0,515.0,510.0,531.0
504.0,500.0,522.0,513.0,538.0
498.0,502.0,517.0,519.0,511.0
492.0,506.0,522.0,522.0,515.0
498.0,511.0,525.0,515.0,528.0
519.0,515.0,530.0,517.0,525.0
533.0,509.0,519.0,509.0,537.0
536.0,507.0,520.0,517.0,524.0
528.0,509.0,519.0,524.0,528.0
528.0,512.0,517.0,507.0,514.0
513.0,513.0,513.0,504.0,517.0
498.0,510.0,514.0,518.0,493.0
473.0,502.0,508.0,511.0,547.0
473.0,498.0,502.0,499.0,488.0
520.0,501.0,499.0,503.0,488.0
523.0,503.0,508.0,508.0,478.0
502.0,497.0,507.0,506.0,495.0
520.0,503.0,517.0,519.0,509.0
513.0,505.0,518.0,522.0,519.0
528.0,506.0,519.0,515.0,512.0
537.0,508.0,520.0,516.0,525.0
509.0,503.0,522.0,525.0,539.0
507.0,508.0,519.0,522.0,521.0
513.0,517.0,525.0,517.0,494.0
524.0,523.0,529.0,521.0,517.0
529.0,522.0,522.0,521.0,521.0
560.0,520.0,521.0,511.0,508.0
539.0,511.0,511.0,505.0,516.0
516.0,507.0,508.0,515.0,475.0
509.0,508.0,508.0,500.0,481.0
491.0,498.0,499.0,501.0,519.0
477.0,495.0,500.0,502.0,542.0
519.0,503.0,509.0,509.0,517.0
546.0,511.0,516.0,515.0,488.0
533.0,504.0,516.0,517.0,502.0
509.0,504.0,519.0,518.0,544.0
502.0,505.0,522.0,521.0,511.0
504.0,503.0,517.0,518.0,506.0
507.0,503.0,521.0,520.0,513.0
507.0,504.0,517.0,517.0,508.0
508.0,506.0,519.0,516.0,518.0
518.0,513.0,520.0,518.0,513.0
525.0,522.0,523.0,521.0,510.0
522.0,515.0,523.0,517.0,505.0
520.0,517.0,516.0,514.0,508.0
514.0,515.0,512.0,508.0,507.0
503.0,510.0,507.0,506.0,508.0
496.0,500.0,503.0,509.0,512.0
494.0,496.0,499.0,510.0,523.0
510.0,497.0,507.0,504.0,539.0
500.0,496.0,512.0,510.0,522.0
518.0,504.0,520.0,515.0,501.0
521.0,509.0,524.0,517.0,524.0
505.0,501.0,517.0,515.0,531.0
510.0,499.0,514.0,512.0,529.0
518.0,502.0,513.0,512.0,509.0
528.0,509.0,515.0,514.0,504.0
524.0,515.0,516.0,515.0,509.0
524.0,512.0,516.0,514.0,506.0
519.0,517.0,518.0,516.0,503.0
515.0,514.0,517.0,516.0,500.0
506.0,507.0,509.0,514.0,503.0
509.0,509.0,505.0,506.0,503.0
507.0,501.0,501.0,507.0,512.0
506.0,502.0,504.0,501.0,514.0
506.0,502.0,508.0,510.0,524.0
507.0,505.0,515.0,523.0,528.0
505.0,508.0,518.0,515.0,581.0
509.0,517.0,529.0,531.0,631.0
521.0,512.0,527.0,548.0,522.0
517.0,502.0,517.0,511.0,432.0
525.0,503.0,512.0,512.0,455.0
532.0,504.0,513.0,503.0,527.0
535.0,508.0,516.0,509.0,497.0
530.0,515.0,521.0,519.0,503.0
505.0,514.0,521.0,520.0,509.0
503.0,520.0,523.0,519.0,503.0
520.0,516.0,518.0,512.0,492.0
516.0,512.0,508.0,508.0,507.0
501.0,506.0,507.0,507.0,532.0
489.0,502.0,506.0,508.0,522.0
495.0,497.0,503.0,506.0,483.0
505.0,499.0,504.0,504.0,507.0
503.0,503.0,513.0,517.0,547.0
516.0,506.0,518.0,515.0,527.0
531.0,508.0,524.0,518.0,520.0
518.0,501.0,524.0,516.0,526.0
506.0,498.0,514.0,512.0,507.0
495.0,502.0,518.0,516.0,503.0
493.0,507.0,514.0,512.0,518.0
517.0,509.0,518.0,513.0,518.0
549.0,516.0,523.0,519.0,494.0
539.0,518.0,521.0,525.0,490.0
527.0,520.0,519.0,514.0,494.0
519.0,512.0,512.0,509.0,506.0
497.0,509.0,508.0,510.0,519.0
510.0,508.0,503.0,505.0,513.0
523.0,507.0,507.0,511.0,511.0
496.0,498.0,499.0,506.0,535.0
512.0,500.0,506.0,508.0,508.0
511.0,505.0,518.0,516.0,513.0
524.0,507.0,520.0,519.0,517.0
532.0,510.0,522.0,526.0,519.0
521.0,509.0,520.0,518.0,515.0
512.0,504.0,517.0,513.0,525.0
519.0,506.0,520.0,520.0,530.0
534.0,516.0,521.0,515.0,515.0
540.0,514.0,520.0,515.0,517.0
537.0,516.0,520.0,521.0,505.0
514.0,515.0,520.0,515.0,494.0
491.0,509.0,515.0,515.0,491.0
506.0,511.0,511.0,509.0,500.0
506.0,505.0,503.0,499.0,510.0
501.0,502.0,498.0,500.0,515.0
495.0,500.0,501.0,499.0,520.0
499.0,499.0,503.0,504.0,521.0
507.0,499.0,506.0,508.0,512.0
515.0,502.0,513.0,518.0,514.0
516.0,504.0,516.0,518.0,514.0
516.0,503.0,524.0,520.0,521.0
513.0,500.0,518.0,520.0,519.0
510.0,503.0,518.0,518.0,521.0
510.0,504.0,520.0,514.0,521.0
508.0,504.0,515.0,511.0,526.0
518.0,512.0,522.0,518.0,518.0
527.0,523.0,522.0,520.0,508.0
524.0,522.0,523.0,518.0,505.0
521.0,515.0,512.0,514.0,506.0
511.0,510.0,508.0,510.0,510.0
511.0,510.0,508.0,508.0,512.0
499.0,503.0,501.0,502.0,520.0
500.0,499.0,503.0,504.0,528.0
501.0,502.0,506.0,507.0,521.0
510.0,502.0,512.0,517.0,519.0
512.0,506.0,519.0,520.0,520.0
515.0,508.0,522.0,521.0,517.0
515.0,507.0,522.0,522.0,518.0
515.0,505.0,520.0,518.0,519.0
512.0,504.0,517.0,519.0,520.0
517.0,507.0,520.0,515.0,518.0
521.0,508.0,516.0,519.0,514.0
522.0,514.0,522.0,519.0,510.0
525.0,521.0,523.0,519.0,506.0
518.0,518.0,521.0,518.0,504.0
517.0,514.0,513.0,513.0,504.0
511.0,509.0,514.0,510.0,511.0
505.0,510.0,503.0,508.0,511.0
500.0,502.0,501.0,508.0,515.0
502.0,501.0,503.0,505.0,515.0
508.0,503.0,508.0,511.0,515.0
510.0,504.0,515.0,523.0,519.0
511.0,504.0,518.0,522.0,521.0
520.0,505.0,520.0,523.0,521.0
522.0,507.0,516.0,518.0,515.0
515.0,503.0,516.0,516.0,522.0
514.0,504.0,517.0,522.0,521.0
516.0,507.0,520.0,520.0,519.0
521.0,512.0,519.0,515.0,506.0
521.0,515.0,521.0,518.0,504.0
527.0,521.0,522.0,519.0,501.0
523.0,515.0,518.0,514.0,501.0
517.0,512.0,514.0,511.0,508.0
509.0,507.0,508.0,504.0,512.0
505.0,506.0,503.0,502.0,519.0
501.0,500.0,506.0,503.0,518.0
502.0,500.0,509.0,507.0,519.0
507.0,500.0,509.0,512.0,517.0
515.0,504.0,516.0,519.0,512.0
518.0,506.0,518.0,521.0,514.0
518.0,505.0,517.0,522.0,518.0
511.0,503.0,518.0,527.0,516.0
514.0,505.0,520.0,519.0,515.0
519.0,505.0,517.0,518.0,516.0
515.0,506.0,515.0,514.0,519.0
517.0,508.0,515.0,512.0,518.0
522.0,514.0,516.0,517.0,513.0
523.0,516.0,518.0,515.0,510.0
516.0,512.0,516.0,512.0,510.0
516.0,512.0,511.0,507.0,511.0
506.0,506.0,505.0,508.0,515.0
506.0,501.0,500.0,502.0,519.0
501.0,500.0,500.0,502.0,519.0
506.0,500.0,504.0,511.0,521.0
511.0,501.0,507.0,512.0,519.0
513.0,503.0,514.0,522.0,515.0
519.0,508.0,519.0,521.0,517.0
520.0,501.0,515.0,515.0,520.0
519.0,502.0,514.0,516.0,517.0
514.0,505.0,519.0,519.0,517.0
518.0,507.0,519.0,518.0,521.0
523.0,509.0,519.0,518.0,513.0
526.0,516.0,523.0,521.0,508.0
529.0,520.0,523.0,521.0,504.0
527.0,521.0,520.0,518.0,503.0
519.0,512.0,515.0,511.0,511.0
512.0,510.0,506.0,507.0,512.0
507.0,505.0,503.0,507.0,517.0
506.0,502.0,501.0,503.0,517.0
505.0,499.0,502.0,511.0,518.0
506.0,501.0,508.0,517.0,516.0
514.0,507.0,519.0,522.0,512.0
514.0,506.0,519.0,520.0,516.0
517.0,507.0,521.0,522.0,521.0
512.0,504.0,519.0,523.0,517.0
514.0,502.0,516.0,515.0,524.0
517.0,504.0,518.0,516.0,524.0
521.0,508.0,518.0,517.0,511.0
529.0,511.0,517.0,522.0,506.0
532.0,514.0,520.0,522.0,504.0
530.0,519.0,521.0,524.0,499.0
526.0,515.0,515.0,518.0,502.0
515.0,509.0,510.0,509.0,508.0
508.0,507.0,505.0,506.0,512.0
505.0,504.0,501.0,502.0,514.0
503.0,502.0,501.0,506.0,518.0
508.0,500.0,503.0,507.0,519.0
510.0,503.0,512.0,513.0,520.0
516.0,506.0,515.0,519.0,515.0
516.0,506.0,520.0,521.0,515.0
521.0,503.0,520.0,522.0,517.0
517.0,503.0,518.0,518.0,522.0
513.0,505.0,517.0,517.0,517.0
518.0,504.0,510.0,516.0,512.0
519.0,508.0,516.0,517.0,510.0
522.0,514.0,517.0,517.0,510.0
526.0,516.0,522.0,520.0,506.0
525.0,519.0,518.0,516.0,504.0
519.0,515.0,514.0,515.0,510.0
516.0,512.0,510.0,512.0,504.0
509.0,507.0,511.0,509.0,511.0
504.0,503.0,500.0,503.0,518.0
506.0,502.0,500.0,505.0,515.0
504.0,500.0,504.0,511.0,514.0
510.0,503.0,512.0,517.0,515.0
515.0,510.0,518.0,522.0,514.0
517.0,508.0,522.0,524.0,515.0
519.0,502.0,520.0,522.0,518.0
517.0,503.0,516.0,518.0,518.0
518.0,508.0,516.0,516.0,516.0
519.0,503.0,514.0,513.0,516.0
520.0,505.0,515.0,512.0,512.0
523.0,511.0,517.0,517.0,508.0
525.0,517.0,520.0,523.0,501.0
528.0,519.0,521.0,520.0,501.0
521.0,512.0,509.0,511.0,504.0
512.0,511.0,507.0,507.0,507.0
510.0,506.0,505.0,505.0,509.0
504.0,502.0,500.0,509.0,514.0
507.0,501.0,503.0,505.0,516.0
508.0,501.0,506.0,512.0,516.0
507.0,504.0,516.0,518.0,515.0
514.0,506.0,517.0,522.0,515.0
516.0,505.0,524.0,524.0,515.0
518.0,503.0,522.0,523.0,514.0
518.0,505.0,517.0,518.0,516.0
517.0,505.0,519.0,516.0,510.0
521.0,506.0,518.0,518.0,510.0
524.0,512.0,521.0,519.0,505.0
533.0,515.0,523.0,523.0,501.0
529.0,514.0,519.0,524.0,502.0
523.0,513.0,516.0,516.0,504.0
517.0,512.0,512.0,512.0,505.0
512.0,510.0,506.0,509.0,507.0
505.0,506.0,502.0,503.0,510.0
504.0,502.0,504.0,506.0,510.0
508.0,505.0,505.0,509.0,510.0
509.0,504.0,511.0,516.0,514.0
515.0,506.0,520.0,520.0,520.0
516.0,507.0,520.0,517.0,521.0
520.0,507.0,522.0,523.0,520.0
519.0,506.0,519.0,520.0,516.0
517.0,506.0,519.0,516.0,516.0
518.0,505.0,518.0,514.0,517.0
520.0,511.0,516.0,513.0,511.0
525.0,512.0,517.0,516.0,506.0
528.0,520.0,526.0,521.0,504.0
529.0,521.0,523.0,520.0,502.0
521.0,517.0,516.0,519.0,502.0
513.0,511.0,507.0,512.0,509.0
514.0,506.0,501.0,501.0,510.0
503.0,499.0,498.0,498.0,515.0
503.0,503.0,502.0,504.0,519.0
507.0,504.0,510.0,510.0,514.0
512.0,511.0,515.0,517.0,514.0
519.0,509.0,520.0,521.0,514.0
519.0,507.0,522.0,525.0,513.0
518.0,506.0,521.0,523.0,519.0
520.0,506.0,519.0,519.0,514.0
515.0,506.0,517.0,521.0,515.0
520.0,509.0,519.0,519.0,515.0
517.0,511.0,515.0,516.0,512.0
521.0,519.0,522.0,519.0,513.0
522.0,518.0,520.0,518.0,507.0
522.0,516.0,521.0,515.0,507.0
519.0,518.0,512.0,513.0,506.0
516.0,512.0,506.0,509.0,505.0
508.0,507.0,502.0,506.0,511.0
506.0,503.0,503.0,502.0,513.0
503.0,503.0,502.0,508.0,516.0
506.0,508.0,511.0,513.0,517.0
517.0,504.0,514.0,516.0,516.0
515.0,508.0,520.0,519.0,517.0
518.0,508.0,522.0,526.0,517.0
519.0,507.0,523.0,520.0,516.0
516.0,504.0,516.0,516.0,515.0
519.0,505.0,521.0,518.0,515.0
516.0,509.0,516.0,515.0,514.0
516.0,508.0,516.0,514.0,515.0
522.0,516.0,521.0,520.0,511.0
528.0,520.0,523.0,520.0,505.0
520.0,519.0,515.0,513.0,509.0
514.0,514.0,504.0,509.0,511.0
508.0,509.0,507.0,505.0,512.0
504.0,506.0,504.0,505.0,516.0
502.0,504.0,506.0,502.0,522.0
503.0,501.0,506.0,503.0,522.0
509.0,500.0,508.0,512.0,514.0
513.0,503.0,514.0,517.0,513.0
516.0,506.0,519.0,521.0,514.0
523.0,507.0,521.0,522.0,510.0
518.0,505.0,518.0,519.0,508.0
520.0,507.0,522.0,519.0,512.0
519.0,507.0,517.0,516.0,510.0
521.0,511.0,516.0,514.0,511.0
528.0,513.0,517.0,515.0,508.0
529.0,522.0,520.0,523.0,504.0
526.0,523.0,520.0,516.0,502.0
522.0,520.0,515.0,513.0,502.0
516.0,512.0,507.0,508.0,509.0
510.0,511.0,502.0,505.0,508.0
509.0,505.0,499.0,502.0,516.0
505.0,501.0,501.0,504.0,513.0
508.0,501.0,506.0,509.0,521.0
510.0,505.0,513.0,517.0,517.0
516.0,509.0,519.0,521.0,519.0
518.0,510.0,522.0,525.0,511.0
521.0,511.0,521.0,526.0,511.0
518.0,508.0,520.0,520.0,519.0
519.0,508.0,520.0,518.0,517.0
520.0,510.0,521.0,516.0,519.0
519.0,514.0,520.0,517.0,514.0
523.0,516.0,525.0,521.0,510.0
524.0,519.0,520.0,524.0,506.0
523.0,519.0,522.0,517.0,507.0
520.0,518.0,512.0,511.0,507.0
516.0,510.0,505.0,507.0,507.0
510.0,508.0,502.0,504.0,509.0
505.0,504.0,505.0,504.0,513.0
508.0,501.0,501.0,506.0,514.0
509.0,503.0,508.0,515.0,515.0
518.0,504.0,517.0,522.0,514.0
517.0,509.0,522.0,524.0,515.0
520.0,508.0,523.0,523.0,513.0
519.0,508.0,523.0,525.0,513.0
519.0,504.0,518.0,520.0,515.0
517.0,507.0,519.0,519.0,514.0
519.0,509.0,519.0,516.0,512.0
522.0,514.0,519.0,516.0,509.0
528.0,517.0,523.0,521.0,506.0
526.0,518.0,525.0,519.0,504.0
526.0,518.0,514.0,518.0,502.0
520.0,514.0,516.0,514.0,508.0
514.0,511.0,504.0,509.0,507.0
503.0,504.0,501.0,506.0,512.0
503.0,506.0,501.0,503.0,512.0
505.0,502.0,505.0,508.0,516.0
511.0,499.0,508.0,513.0,516.0
511.0,505.0,516.0,518.0,522.0
520.0,508.0,522.0,523.0,518.0
516.0,505.0,522.0,521.0,514.0
515.0,504.0,521.0,519.0,516.0
516.0,506.0,517.0,517.0,520.0
516.0,505.0,517.0,514.0,514.0
519.0,510.0,517.0,513.0,513.0
518.0,512.0,517.0,512.0,508.0
521.0,514.0,516.0,514.0,507.0
523.0,515.0,520.0,514.0,505.0
520.0,516.0,511.0,512.0,506.0
514.0,512.0,509.0,509.0,508.0
508.0,512.0,503.0,503.0,511.0
502.0,503.0,498.0,502.0,517.0
505.0,505.0,501.0,509.0,516.0
505.0,502.0,507.0,509.0,513.0
512.0,504.0,513.0,517.0,513.0
515.0,506.0,521.0,521.0,515.0
520.0,508.0,524.0,525.0,514.0
519.0,507.0,524.0,528.0,516.0
520.0,509.0,520.0,524.0,515.0
525.0,508.0,525.0,521.0,512.0
518.0,510.0,520.0,523.0,513.0
516.0,514.0,520.0,518.0,511.0
520.0,515.0,523.0,518.0,511.0
524.0,517.0,521.0,518.0,508.0
526.0,516.0,516.0,515.0,504.0
521.0,517.0,511.0,512.0,503.0
514.0,511.0,511.0,509.0,506.0
507.0,508.0,502.0,503.0,513.0
503.0,504.0,504.0,504.0,517.0
505.0,504.0,502.0,506.0,519.0
506.0,508.0,511.0,513.0,519.0
517.0,508.0,516.0,517.0,515.0
517.0,508.0,521.0,523.0,514.0
517.0,508.0,525.0,526.0,518.0
518.0,509.0,521.0,522.0,517.0
517.0,506.0,518.0,517.0,520.0
516.0,507.0,519.0,519.0,520.0
516.0,510.0,519.0,516.0,516.0
521.0,514.0,521.0,519.0,513.0
523.0,516.0,520.0,520.0,509.0
523.0,518.0,516.0,518.0,506.0
520.0,517.0,514.0,513.0,505.0
515.0,514.0,510.0,510.0,512.0
510.0,512.0,505.0,502.0,521.0
502.0,506.0,502.0,502.0,532.0
501.0,505.0,503.0,505.0,528.0
501.0,507.0,507.0,509.0,529.0
509.0,507.0,513.0,515.0,526.0
516.0,509.0,521.0,523.0,504.0
518.0,506.0,518.0,521.0,488.0
520.0,505.0,520.0,521.0,492.0
520.0,507.0,518.0,524.0,501.0
515.0,503.0,516.0,519.0,506.0
516.0,504.0,516.0,515.0,510.0
517.0,507.0,517.0,516.0,511.0
521.0,512.0,518.0,514.0,506.0
524.0,515.0,521.0,517.0,501.0
531.0,519.0,520.0,516.0,499.0
522.0,515.0,514.0,515.0,502.0
512.0,513.0,508.0,511.0,504.0
511.0,507.0,503.0,504.0,510.0
501.0,503.0,499.0,501.0,514.0
504.0,501.0,499.0,502.0,515.0
505.0,502.0,508.0,508.0,515.0
510.0,504.0,513.0,516.0,514.0
514.0,510.0,521.0,522.0,512.0
517.0,508.0,522.0,524.0,512.0
518.0,507.0,518.0,525.0,512.0
514.0,505.0,515.0,516.0,520.0
514.0,505.0,519.0,518.0,514.0
516.0,507.0,517.0,520.0,512.0
521.0,512.0,518.0,520.0,512.0
524.0,514.0,517.0,516.0,509.0
523.0,516.0,517.0,516.0,506.0
525.0,517.0,517.0,515.0,504.0
519.0,515.0,511.0,513.0,505.0
510.0,508.0,507.0,508.0,511.0
505.0,506.0,504.0,504.0,512.0
501.0,505.0,506.0,504.0,520.0
504.0,508.0,502.0,509.0,522.0
509.0,509.0,509.0,514.0,517.0
512.0,508.0,518.0,518.0,512.0
516.0,508.0,522.0,523.0,514.0
517.0,507.0,523.0,526.0,508.0
516.0,504.0,522.0,521.0,509.0
518.0,502.0,519.0,522.0,514.0
515.0,505.0,519.0,524.0,514.0
518.0,510.0,520.0,518.0,515.0
522.0,515.0,519.0,520.0,509.0
522.0,516.0,520.0,522.0,508.0
525.0,517.0,519.0,517.0,503.0
521.0,515.0,514.0,514.0,504.0
518.0,508.0,511.0,512.0,507.0
513.0,508.0,504.0,511.0,509.0
505.0,505.0,499.0,503.0,516.0
502.0,504.0,502.0,503.0,515.0
506.0,502.0,505.0,512.0,514.0
512.0,498.0,510.0,514.0,515.0
513.0,504.0,520.0,520.0,516.0
516.0,505.0,522.0,523.0,516.0
518.0,508.0,523.0,523.0,512.0
518.0,507.0,520.0,525.0,515.0
517.0,505.0,518.0,523.0,517.0
519.0,507.0,519.0,516.0,517.0
520.0,511.0,517.0,516.0,514.0
522.0,513.0,519.0,518.0,509.0
524.0,517.0,527.0,521.0,508.0
528.0,519.0,518.0,518.0,505.0
518.0,520.0,513.0,514.0,507.0
511.0,510.0,508.0,509.0,512.0
507.0,507.0,503.0,504.0,512.0
502.0,503.0,500.0,506.0,517.0
503.0,503.0,503.0,505.0,517.0
504.0,503.0,507.0,513.0,517.0
510.0,503.0,508.0,517.0,516.0
512.0,506.0,519.0,522.0,516.0
519.0,506.0,525.0,523.0,514.0
517.0,506.0,521.0,525.0,512.0
515.0,504.0,519.0,523.0,513.0
514.0,509.0,518.0,523.0,514.0
514.0,506.0,517.0,519.0,515.0
518.0,509.0,518.0,515.0,513.0
523.0,514.0,523.0,519.0,509.0
525.0,518.0,522.0,519.0,509.0
522.0,515.0,518.0,515.0,507.0
517.0,512.0,508.0,507.0,511.0
506.0,508.0,504.0,502.0,513.0
504.0,509.0,501.0,500.0,514.0
505.0,502.0,498.0,501.0,514.0
499.0,499.0,502.0,504.0,520.0
502.0,501.0,510.0,509.0,521.0
509.0,500.0,513.0,518.0,518.0
513.0,504.0,523.0,519.0,519.0
518.0,507.0,524.0,525.0,517.0
516.0,508.0,520.0,521.0,518.0
514.0,504.0,516.0,517.0,520.0
506.0,502.0,517.0,512.0,519.0
519.0,506.0,519.0,518.0,517.0
517.0,509.0,519.0,517.0,515.0
521.0,514.0,521.0,518.0,511.0
524.0,515.0,516.0,517.0,507.0
520.0,513.0,514.0,513.0,506.0
515.0,513.0,511.0,510.0,509.0
509.0,506.0,504.0,505.0,515.0
507.0,505.0,500.0,504.0,513.0
501.0,502.0,504.0,503.0,517.0
504.0,501.0,506.0,510.0,519.0
508.0,506.0,519.0,516.0,519.0
512.0,505.0,521.0,521.0,514.0
514.0,504.0,521.0,522.0,514.0
517.0,506.0,524.0,523.0,514.0
514.0,505.0,521.0,520.0,521.0
513.0,505.0,521.0,520.0,519.0
515.0,505.0,519.0,519.0,519.0
518.0,508.0,524.0,520.0,515.0
521.0,510.0,520.0,515.0,513.0
525.0,515.0,520.0,520.0,508.0
524.0,516.0,520.0,517.0,506.0
519.0,514.0,512.0,511.0,505.0
512.0,509.0,506.0,512.0,512.0
509.0,509.0,505.0,510.0,514.0
507.0,502.0,499.0,498.0,517.0
506.0,500.0,501.0,498.0,518.0
503.0,500.0,508.0,509.0,519.0
508.0,503.0,515.0,517.0,515.0
519.0,505.0,519.0,524.0,510.0
514.0,505.0,523.0,525.0,510.0
514.0,504.0,521.0,524.0,514.0
516.0,502.0,519.0,520.0,517.0
512.0,504.0,518.0,522.0,517.0
514.0,504.0,520.0,517.0,516.0
515.0,508.0,517.0,518.0,514.0
520.0,513.0,519.0,519.0,511.0
527.0,516.0,520.0,518.0,511.0
525.0,517.0,517.0,515.0,507.0
521.0,516.0,509.0,512.0,510.0
515.0,510.0,506.0,510.0,512.0
511.0,509.0,502.0,504.0,516.0
501.0,502.0,500.0,504.0,515.0
503.0,500.0,504.0,505.0,516.0
508.0,501.0,508.0,511.0,516.0
509.0,504.0,517.0,521.0,515.0
513.0,505.0,523.0,522.0,515.0
515.0,510.0,525.0,525.0,513.0
515.0,506.0,522.0,523.0,515.0
514.0,508.0,520.0,523.0,517.0
515.0,506.0,518.0,518.0,518.0
522.0,505.0,518.0,516.0,516.0
520.0,509.0,518.0,519.0,511.0
523.0,513.0,516.0,517.0,511.0
525.0,514.0,519.0,517.0,507.0
516.0,511.0,512.0,511.0,512.0
511.0,514.0,510.0,508.0,508.0
505.0,505.0,502.0,503.0,510.0
495.0,498.0,495.0,500.0,519.0
498.0,498.0,497.0,500.0,518.0
502.0,500.0,501.0,506.0,518.0
511.0,502.0,509.0,516.0,517.0
513.0,506.0,514.0,519.0,516.0
513.0,504.0,521.0,523.0,517.0
514.0,505.0,521.0,525.0,517.0
518.0,504.0,520.0,524.0,516.0
514.0,504.0,520.0,522.0,516.0
516.0,505.0,517.0,520.0,516.0
519.0,513.0,520.0,519.0,511.0
522.0,512.0,519.0,517.0,510.0
525.0,514.0,519.0,520.0,507.0
522.0,516.0,522.0,519.0,506.0
520.0,516.0,514.0,517.0,507.0
516.0,512.0,511.0,511.0,508.0
508.0,507.0,503.0,508.0,512.0
504.0,501.0,502.0,505.0,515.0
510.0,501.0,502.0,505.0,520.0
507.0,502.0,507.0,513.0,519.0
507.0,503.0,518.0,515.0,524.0
515.0,504.0,517.0,518.0,519.0
514.0,506.0,523.0,524.0,518.0
513.0,506.0,520.0,521.0,519.0
513.0,505.0,517.0,518.0,519.0
514.0,504.0,518.0,518.0,518.0
516.0,505.0,517.0,516.0,516.0
517.0,509.0,518.0,517.0,514.0
521.0,515.0,520.0,519.0,511.0
521.0,517.0,519.0,518.0,508.0
523.0,519.0,518.0,515.0,508.0
518.0,515.0,510.0,512.0,505.0
514.0,509.0,505.0,506.0,513.0
507.0,508.0,504.0,504.0,516.0
501.0,505.0,498.0,503.0,519.0
500.0,502.0,503.0,505.0,523.0
507.0,502.0,510.0,512.0,515.0
512.0,504.0,516.0,521.0,516.0
515.0,506.0,520.0,524.0,515.0
520.0,509.0,522.0,522.0,511.0
516.0,503.0,520.0,521.0,516.0
515.0,498.0,517.0,519.0,518.0
515.0,505.0,517.0,516.0,515.0
515.0,510.0,518.0,519.0,514.0
518.0,512.0,518.0,517.0,514.0
522.0,517.0,519.0,518.0,512.0
525.0,522.0,522.0,523.0,509.0
519.0,516.0,514.0,514.0,510.0
514.0,514.0,511.0,509.0,510.0
510.0,502.0,504.0,509.0,511.0
506.0,502.0,499.0,501.0,510.0
501.0,499.0,496.0,502.0,518.0
504.0,502.0,506.0,508.0,516.0
509.0,502.0,510.0,516.0,518.0
513.0,507.0,518.0,522.0,520.0
515.0,506.0,521.0,523.0,521.0
515.0,506.0,524.0,524.0,520.0
513.0,503.0,518.0,520.0,514.0
515.0,503.0,518.0,519.0,508.0
516.0,509.0,519.0,516.0,510.0
520.0,510.0,515.0,519.0,509.0
519.0,509.0,517.0,516.0,508.0
524.0,513.0,519.0,518.0,505.0
525.0,516.0,521.0,517.0,503.0
520.0,513.0,514.0,512.0,507.0
512.0,507.0,506.0,507.0,511.0
505.0,506.0,503.0,504.0,517.0
505.0,502.0,498.0,502.0,518.0
501.0,500.0,505.0,503.0,519.0
500.0,501.0,505.0,510.0,524.0
508.0,506.0,509.0,515.0,517.0
510.0,503.0,515.0,519.0,515.0
514.0,505.0,520.0,523.0,513.0
519.0,502.0,520.0,523.0,514.0
515.0,505.0,518.0,520.0,512.0
517.0,504.0,520.0,521.0,514.0
517.0,510.0,517.0,522.0,513.0
518.0,508.0,520.0,516.0,512.0
521.0,513.0,520.0,520.0,506.0
525.0,516.0,521.0,519.0,505.0
524.0,515.0,516.0,512.0,505.0
516.0,513.0,512.0,510.0,504.0
509.0,507.0,505.0,510.0,511.0
507.0,506.0,502.0,504.0,512.0
506.0,496.0,501.0,507.0,517.0
504.0,502.0,502.0,507.0,518.0
507.0,503.0,508.0,511.0,518.0
509.0,503.0,515.0,518.0,519.0
513.0,509.0,518.0,522.0,516.0
518.0,509.0,522.0,525.0,515.0
514.0,506.0,522.0,524.0,517.0
511.0,503.0,517.0,521.0,517.0
513.0,505.0,518.0,521.0,517.0
515.0,507.0,518.0,518.0,516.0
519.0,513.0,518.0,517.0,513.0
523.0,515.0,520.0,519.0,508.0
522.0,517.0,521.0,520.0,509.0
520.0,516.0,518.0,518.0,506.0
513.0,514.0,511.0,513.0,511.0
509.0,508.0,504.0,501.0,509.0
503.0,502.0,500.0,503.0,517.0
505.0,503.0,502.0,505.0,512.0
506.0,502.0,505.0,512.0,515.0
510.0,500.0,513.0,515.0,516.0
517.0,504.0,519.0,522.0,512.0
516.0,506.0,525.0,524.0,518.0
515.0,508.0,521.0,523.0,517.0
514.0,503.0,517.0,518.0,519.0
516.0,504.0,517.0,516.0,519.0
515.0,509.0,518.0,519.0,516.0
520.0,510.0,520.0,518.0,511.0
520.0,514.0,517.0,515.0,512.0
524.0,514.0,522.0,518.0,507.0
521.0,520.0,519.0,520.0,507.0
517.0,515.0,516.0,514.0,506.0
512.0,510.0,512.0,508.0,510.0
507.0,509.0,500.0,504.0,512.0
502.0,501.0,499.0,507.0,515.0
502.0,502.0,502.0,503.0,515.0
500.0,500.0,505.0,507.0,519.0
506.0,502.0,517.0,516.0,519.0
510.0,508.0,519.0,519.0,517.0
513.0,505.0,522.0,524.0,516.0
511.0,501.0,517.0,518.0,519.0
509.0,504.0,515.0,514.0,519.0
512.0,504.0,515.0,519.0,519.0
515.0,504.0,515.0,513.0,521.0
521.0,508.0,516.0,515.0,514.0
526.0,513.0,522.0,518.0,510.0
521.0,519.0,519.0,516.0,507.0
521.0,514.0,516.0,513.0,508.0
514.0,512.0,511.0,515.0,509.0
511.0,509.0,510.0,506.0,509.0
502.0,504.0,500.0,501.0,512.0
501.0,499.0,499.0,501.0,517.0
499.0,499.0,505.0,503.0,520.0
505.0,501.0,509.0,511.0,517.0
511.0,504.0,510.0,518.0,514.0
521.0,506.0,520.0,520.0,515.0
513.0,506.0,524.0,525.0,518.0
514.0,500.0,520.0,522.0,520.0
510.0,504.0,518.0,519.0,521.0
515.0,504.0,518.0,518.0,522.0
516.0,505.0,517.0,517.0,522.0
517.0,510.0,520.0,519.0,517.0
524.0,513.0,519.0,519.0,512.0
524.0,518.0,521.0,517.0,507.0
524.0,517.0,517.0,516.0,509.0
515.0,512.0,508.0,510.0,511.0
510.0,509.0,506.0,505.0,513.0
503.0,503.0,497.0,500.0,513.0
504.0,501.0,500.0,502.0,515.0
502.0,499.0,504.0,507.0,518.0
509.0,502.0,509.0,513.0,518.0
514.0,503.0,517.0,519.0,516.0
518.0,504.0,521.0,524.0,513.0
520.0,508.0,526.0,525.0,514.0
515.0,505.0,522.0,523.0,518.0
514.0,504.0,519.0,519.0,518.0
514.0,511.0,519.0,517.0,516.0
519.0,509.0,517.0,517.0,514.0
520.0,511.0,519.0,517.0,510.0
523.0,514.0,520.0,518.0,506.0
526.0,518.0,519.0,516.0,509.0
518.0,515.0,515.0,512.0,507.0
512.0,514.0,509.0,511.0,510.0
506.0,508.0,503.0,503.0,515.0
506.0,497.0,500.0,497.0,520.0
503.0,501.0,505.0,503.0,522.0
507.0,502.0,505.0,509.0,519.0
510.0,504.0,518.0,517.0,522.0
512.0,506.0,518.0,524.0,519.0
515.0,508.0,521.0,524.0,519.0
515.0,510.0,521.0,522.0,519.0
515.0,507.0,521.0,521.0,520.0
513.0,509.0,518.0,523.0,516.0
518.0,509.0,517.0,520.0,510.0
518.0,508.0,520.0,517.0,508.0
522.0,514.0,520.0,523.0,505.0
523.0,519.0,520.0,519.0,502.0
524.0,516.0,513.0,517.0,497.0
518.0,512.0,510.0,511.0,504.0
508.0,512.0,506.0,508.0,508.0
506.0,508.0,501.0,503.0,514.0
500.0,502.0,499.0,504.0,521.0
502.0,501.0,501.0,503.0,520.0
505.0,501.0,509.0,509.0,519.0
506.0,502.0,513.0,517.0,517.0
513.0,504.0,521.0,519.0,518.0
512.0,504.0,519.0,521.0,517.0
510.0,505.0,520.0,519.0,518.0
509.0,505.0,520.0,518.0,518.0
513.0,506.0,517.0,517.0,516.0
514.0,509.0,517.0,518.0,515.0
522.0,509.0,515.0,514.0,515.0
522.0,512.0,521.0,517.0,512.0
525.0,516.0,519.0,518.0,507.0
520.0,517.0,517.0,511.0,508.0
516.0,510.0,507.0,506.0,510.0
503.0,509.0,501.0,498.0,513.0
503.0,503.0,500.0,506.0,516.0
501.0,502.0,502.0,503.0,516.0
503.0,501.0,506.0,507.0,512.0
509.0,502.0,511.0,513.0,517.0
512.0,506.0,522.0,521.0,517.0
515.0,505.0,520.0,527.0,517.0
519.0,510.0,524.0,518.0,513.0
515.0,507.0,519.0,523.0,517.0
514.0,503.0,517.0,516.0,517.0
518.0,505.0,518.0,518.0,518.0
516.0,509.0,520.0,518.0,514.0
517.0,511.0,523.0,517.0,510.0
522.0,514.0,520.0,518.0,506.0
523.0,516.0,518.0,515.0,503.0
518.0,513.0,514.0,514.0,505.0
511.0,510.0,511.0,509.0,509.0
504.0,502.0,502.0,504.0,513.0
498.0,502.0,502.0,502.0,517.0
499.0,503.0,503.0,503.0,516.0
505.0,504.0,509.0,511.0,514.0
512.0,505.0,513.0,520.0,514.0
519.0,507.0,519.0,522.0,516.0
520.0,512.0,524.0,526.0,511.0
516.0,504.0,520.0,522.0,518.0
515.0,503.0,517.0,517.0,521.0
514.0,504.0,518.0,519.0,518.0
513.0,505.0,518.0,516.0,520.0
515.0,511.0,519.0,516.0,514.0
521.0,513.0,522.0,517.0,510.0
523.0,513.0,521.0,519.0,508.0
522.0,517.0,518.0,515.0,508.0
517.0,514.0,511.0,510.0,509.0
508.0,507.0,506.0,505.0,510.0
505.0,506.0,503.0,506.0,511.0
501.0,502.0,500.0,504.0,515.0
501.0,500.0,504.0,507.0,516.0
507.0,503.0,511.0,513.0,510.0
511.0,507.0,517.0,520.0,512.0
515.0,507.0,523.0,524.0,514.0
518.0,501.0,522.0,526.0,515.0
515.0,503.0,521.0,521.0,514.0
513.0,503.0,518.0,518.0,514.0
515.0,504.0,520.0,517.0,517.0
511.0,506.0,517.0,515.0,517.0
517.0,510.0,518.0,515.0,514.0
521.0,515.0,519.0,512.0,510.0
521.0,515.0,518.0,516.0,508.0
519.0,519.0,514.0,513.0,507.0
515.0,512.0,510.0,506.0,510.0
509.0,511.0,504.0,504.0,510.0
500.0,504.0,501.0,500.0,517.0
497.0,502.0,502.0,501.0,517.0
502.0,503.0,502.0,510.0,515.0
502.0,503.0,507.0,509.0,514.0
513.0,504.0,513.0,520.0,513.0
514.0,506.0,522.0,522.0,513.0
515.0,505.0,524.0,521.0,513.0
514.0,508.0,518.0,518.0,514.0
511.0,501.0,514.0,518.0,518.0
515.0,508.0,519.0,518.0,513.0
518.0,509.0,519.0,517.0,510.0
520.0,506.0,516.0,513.0,508.0
522.0,511.0,521.0,515.0,506.0
519.0,514.0,520.0,515.0,509.0
522.0,514.0,514.0,516.0,502.0
512.0,511.0,508.0,509.0,507.0
507.0,504.0,504.0,504.0,512.0
500.0,504.0,497.0,499.0,517.0
500.0,502.0,502.0,502.0,519.0
502.0,503.0,505.0,511.0,519.0
509.0,505.0,514.0,519.0,519.0
511.0,508.0,520.0,521.0,518.0
513.0,506.0,521.0,528.0,519.0
512.0,504.0,520.0,520.0,522.0
511.0,503.0,518.0,519.0,518.0
513.0,505.0,516.0,519.0,516.0
518.0,509.0,520.0,517.0,513.0
520.0,511.0,519.0,515.0,514.0
522.0,515.0,522.0,517.0,513.0
522.0,517.0,523.0,521.0,507.0
527.0,514.0,517.0,516.0,505.0
516.0,514.0,509.0,509.0,505.0
510.0,511.0,504.0,504.0,511.0
505.0,503.0,504.0,503.0,514.0
500.0,503.0,500.0,500.0,521.0
503.0,505.0,502.0,504.0,517.0
506.0,501.0,508.0,513.0,520.0
514.0,507.0,515.0,518.0,514.0
518.0,506.0,518.0,520.0,510.0
517.0,506.0,525.0,521.0,514.0
514.0,504.0,521.0,519.0,517.0
510.0,504.0,520.0,517.0,520.0
513.0,504.0,515.0,514.0,517.0
516.0,504.0,516.0,515.0,517.0
515.0,508.0,518.0,517.0,512.0
519.0,514.0,519.0,519.0,511.0
521.0,516.0,519.0,517.0,510.0
516.0,517.0,515.0,511.0,508.0
517.0,513.0,509.0,509.0,509.0
507.0,511.0,506.0,509.0,511.0
502.0,506.0,501.0,501.0,517.0
499.0,503.0,500.0,506.0,520.0
505.0,503.0,509.0,506.0,516.0
507.0,500.0,509.0,512.0,519.0
506.0,504.0,519.0,520.0,513.0
514.0,508.0,522.0,522.0,515.0
518.0,509.0,521.0,526.0,508.0
516.0,503.0,523.0,519.0,515.0
512.0,504.0,517.0,516.0,511.0
516.0,505.0,517.0,515.0,513.0
521.0,508.0,519.0,516.0,513.0
520.0,510.0,518.0,516.0,514.0
526.0,515.0,519.0,517.0,506.0
526.0,516.0,518.0,517.0,501.0
520.0,514.0,514.0,513.0,505.0
510.0,508.0,507.0,506.0,511.0
507.0,505.0,504.0,501.0,512.0
499.0,500.0,498.0,506.0,516.0
503.0,501.0,501.0,504.0,516.0
504.0,506.0,508.0,514.0,516.0
507.0,501.0,512.0,513.0,516.0
512.0,502.0,515.0,518.0,517.0
515.0,506.0,523.0,523.0,520.0
516.0,504.0,519.0,520.0,520.0
511.0,504.0,519.0,516.0,521.0
511.0,502.0,514.0,514.0,519.0
515.0,504.0,516.0,515.0,518.0
518.0,504.0,516.0,517.0,515.0
520.0,512.0,519.0,518.0,510.0
521.0,516.0,520.0,518.0,509.0
518.0,516.0,519.0,516.0,509.0
515.0,514.0,512.0,513.0,508.0
509.0,508.0,507.0,506.0,507.0
509.0,506.0,502.0,504.0,508.0
503.0,502.0,502.0,503.0,511.0
502.0,498.0,501.0,507.0,518.0
510.0,503.0,508.0,513.0,516.0
511.0,503.0,516.0,516.0,513.0
516.0,503.0,519.0,522.0,512.0
516.0,505.0,520.0,525.0,513.0
517.0,504.0,519.0,519.0,516.0
513.0,503.0,517.0,517.0,517.0
514.0,504.0,518.0,516.0,514.0
513.0,506.0,522.0,520.0,513.0
517.0,510.0,520.0,519.0,514.0
522.0,515.0,520.0,518.0,512.0
519.0,517.0,516.0,514.0,508.0
517.0,513.0,515.0,511.0,511.0
510.0,511.0,510.0,510.0,509.0
506.0,510.0,505.0,503.0,512.0
511.0,505.0,501.0,502.0,515.0
513.0,502.0,503.0,502.0,515.0
509.0,500.0,507.0,508.0,516.0
512.0,507.0,511.0,518.0,515.0
513.0,506.0,519.0,521.0,515.0
515.0,504.0,523.0,522.0,516.0
520.0,505.0,524.0,519.0,515.0
516.0,502.0,519.0,518.0,515.0
514.0,505.0,518.0,510.0,515.0
516.0,506.0,518.0,516.0,514.0
519.0,507.0,519.0,516.0,513.0
519.0,510.0,519.0,519.0,510.0
524.0,514.0,522.0,517.0,506.0
525.0,517.0,521.0,518.0,505.0
521.0,514.0,518.0,513.0,508.0
513.0,513.0,511.0,507.0,511.0
508.0,506.0,509.0,504.0,511.0
502.0,500.0,500.0,501.0,516.0
501.0,500.0,505.0,504.0,518.0
505.0,502.0,507.0,515.0,516.0
509.0,502.0,513.0,516.0,514.0
513.0,505.0,519.0,520.0,514.0
517.0,504.0,524.0,524.0,516.0
517.0,507.0,521.0,524.0,515.0
511.0,504.0,520.0,517.0,519.0
510.0,506.0,519.0,520.0,518.0
512.0,508.0,519.0,515.0,519.0
520.0,511.0,520.0,516.0,513.0
522.0,513.0,521.0,519.0,511.0
524.0,512.0,517.0,516.0,506.0
520.0,513.0,514.0,513.0,507.0
516.0,510.0,509.0,508.0,513.0
512.0,510.0,509.0,502.0,509.0
503.0,505.0,503.0,502.0,514.0
498.0,498.0,497.0,500.0,521.0
498.0,498.0,500.0,501.0,519.0
505.0,502.0,508.0,515.0,516.0
510.0,505.0,519.0,520.0,518.0
513.0,505.0,518.0,517.0,516.0
514.0,504.0,520.0,521.0,519.0
512.0,504.0,519.0,523.0,518.0
512.0,503.0,518.0,518.0,518.0
512.0,503.0,518.0,519.0,518.0
515.0,508.0,519.0,520.0,515.0
518.0,510.0,518.0,518.0,513.0
521.0,514.0,520.0,520.0,510.0
525.0,517.0,521.0,516.0,508.0
517.0,515.0,521.0,516.0,506.0
517.0,518.0,514.0,512.0,507.0
509.0,510.0,503.0,505.0,510.0
507.0,503.0,503.0,503.0,514.0
506.0,501.0,501.0,506.0,516.0
504.0,503.0,505.0,508.0,522.0
508.0,504.0,511.0,514.0,520.0
511.0,505.0,516.0,520.0,518.0
517.0,506.0,520.0,522.0,518.0
518.0,506.0,525.0,522.0,519.0
518.0,506.0,520.0,520.0,520.0
513.0,505.0,518.0,519.0,519.0
516.0,509.0,518.0,521.0,515.0
520.0,510.0,520.0,518.0,512.0
520.0,510.0,517.0,517.0,507.0
523.0,514.0,518.0,515.0,504.0
523.0,521.0,518.0,515.0,501.0
519.0,515.0,513.0,515.0,503.0
511.0,509.0,508.0,508.0,509.0
507.0,507.0,502.0,503.0,511.0
502.0,502.0,502.0,504.0,516.0
503.0,500.0,501.0,504.0,513.0
507.0,502.0,507.0,511.0,518.0
512.0,503.0,511.0,512.0,516.0
515.0,510.0,518.0,526.0,515.0
518.0,507.0,524.0,524.0,515.0
517.0,506.0,526.0,524.0,515.0
516.0,503.0,517.0,519.0,516.0
514.0,506.0,517.0,518.0,515.0
516.0,501.0,518.0,520.0,517.0
518.0,512.0,519.0,516.0,514.0
520.0,512.0,518.0,517.0,513.0
524.0,518.0,521.0,520.0,507.0
522.0,516.0,519.0,517.0,509.0
522.0,515.0,511.0,515.0,507.0
510.0,508.0,505.0,506.0,510.0
511.0,509.0,500.0,506.0,511.0
505.0,501.0,499.0,501.0,518.0
500.0,501.0,502.0,504.0,517.0
508.0,504.0,506.0,512.0,516.0
511.0,504.0,516.0,521.0,516.0
514.0,505.0,519.0,523.0,513.0
516.0,508.0,521.0,518.0,511.0
516.0,504.0,523.0,522.0,514.0
514.0,505.0,518.0,519.0,515.0
514.0,507.0,517.0,520.0,514.0
516.0,508.0,519.0,515.0,513.0
515.0,510.0,517.0,516.0,511.0
520.0,516.0,521.0,518.0,508.0
518.0,516.0,519.0,515.0,507.0
516.0,513.0,511.0,511.0,509.0
513.0,510.0,506.0,503.0,509.0
507.0,507.0,503.0,504.0,508.0
502.0,503.0,499.0,502.0,514.0
500.0,499.0,497.0,500.0,520.0
502.0,501.0,501.0,504.0,516.0
507.0,501.0,509.0,513.0,512.0
513.0,504.0,516.0,519.0,514.0
513.0,503.0,519.0,520.0,517.0
515.0,506.0,519.0,523.0,515.0
511.0,503.0,517.0,520.0,519.0
512.0,505.0,520.0,519.0,517.0
513.0,504.0,522.0,517.0,519.0
516.0,508.0,520.0,518.0,512.0
520.0,513.0,519.0,520.0,510.0
525.0,514.0,521.0,519.0,506.0
525.0,518.0,518.0,519.0,505.0
522.0,515.0,514.0,513.0,506.0
513.0,511.0,506.0,507.0,509.0
505.0,506.0,503.0,506.0,512.0
500.0,500.0,505.0,502.0,518.0
506.0,502.0,502.0,504.0,517.0
503.0,501.0,505.0,506.0,516.0
509.0,503.0,514.0,517.0,515.0
514.0,510.0,519.0,520.0,513.0
518.0,505.0,521.0,525.0,514.0
518.0,507.0,521.0,522.0,515.0
520.0,504.0,519.0,521.0,516.0
514.0,505.0,522.0,517.0,516.0
521.0,507.0,517.0,515.0,515.0
518.0,507.0,517.0,514.0,515.0
522.0,514.0,520.0,519.0,509.0
522.0,514.0,519.0,517.0,506.0
519.0,515.0,515.0,514.0,510.0
519.0,508.0,511.0,510.0,509.0
512.0,509.0,507.0,504.0,513.0
505.0,505.0,502.0,504.0,514.0
502.0,505.0,501.0,503.0,516.0
504.0,503.0,504.0,504.0,518.0
506.0,500.0,508.0,510.0,516.0
513.0,504.0,516.0,521.0,517.0
513.0,504.0,520.0,521.0,512.0
521.0,505.0,525.0,525.0,512.0
518.0,502.0,523.0,523.0,520.0
512.0,505.0,517.0,517.0,520.0
519.0,506.0,517.0,515.0,518.0
518.0,506.0,514.0,515.0,513.0
520.0,510.0,520.0,517.0,513.0
524.0,512.0,519.0,517.0,509.0
525.0,516.0,520.0,516.0,506.0
519.0,515.0,515.0,513.0,506.0
514.0,512.0,512.0,510.0,509.0
511.0,507.0,505.0,504.0,513.0
503.0,503.0,499.0,501.0,515.0
505.0,499.0,500.0,505.0,518.0
504.0,500.0,504.0,508.0,518.0
507.0,502.0,509.0,518.0,518.0
511.0,504.0,516.0,519.0,517.0
518.0,505.0,520.0,525.0,517.0
522.0,508.0,521.0,522.0,518.0
516.0,504.0,522.0,518.0,515.0
515.0,503.0,519.0,516.0,519.0
516.0,504.0,521.0,516.0,517.0
522.0,509.0,520.0,517.0,515.0
518.0,511.0,519.0,518.0,510.0
521.0,514.0,520.0,518.0,505.0
523.0,516.0,519.0,516.0,504.0
516.0,512.0,513.0,509.0,509.0
515.0,511.0,505.0,506.0,512.0
509.0,504.0,501.0,503.0,513.0
507.0,500.0,497.0,500.0,516.0
501.0,497.0,499.0,503.0,518.0
501.0,501.0,503.0,508.0,520.0
507.0,503.0,511.0,512.0,518.0
511.0,504.0,518.0,519.0,518.0
514.0,506.0,522.0,523.0,517.0
514.0,505.0,521.0,517.0,520.0
510.0,502.0,517.0,516.0,519.0
510.0,503.0,515.0,518.0,518.0
518.0,509.0,518.0,519.0,515.0
516.0,508.0,517.0,515.0,517.0
523.0,514.0,520.0,516.0,515.0
523.0,514.0,521.0,518.0,510.0
521.0,517.0,517.0,520.0,505.0
520.0,514.0,512.0,511.0,509.0
511.0,509.0,505.0,506.0,512.0
504.0,505.0,502.0,510.0,517.0
503.0,502.0,501.0,505.0,518.0
500.0,500.0,502.0,503.0,520.0
504.0,505.0,510.0,512.0,519.0
513.0,506.0,515.0,519.0,515.0
520.0,507.0,520.0,520.0,513.0
520.0,505.0,524.0,526.0,514.0
517.0,505.0,522.0,522.0,515.0
513.0,500.0,518.0,517.0,519.0
516.0,504.0,519.0,515.0,517.0
519.0,502.0,519.0,520.0,516.0
518.0,509.0,518.0,518.0,515.0
520.0,513.0,519.0,520.0,511.0
524.0,517.0,519.0,518.0,507.0
519.0,516.0,518.0,514.0,508.0
510.0,512.0,511.0,510.0,510.0
511.0,511.0,503.0,505.0,513.0
504.0,505.0,498.0,502.0,514.0
500.0,501.0,503.0,505.0,516.0
507.0,502.0,504.0,507.0,516.0
508.0,504.0,510.0,514.0,515.0
511.0,506.0,516.0,520.0,515.0
511.0,506.0,522.0,521.0,515.0
514.0,505.0,521.0,523.0,514.0
512.0,504.0,519.0,521.0,516.0
514.0,505.0,521.0,519.0,519.0
511.0,502.0,516.0,516.0,517.0
512.0,512.0,519.0,517.0,514.0
519.0,511.0,519.0,519.0,511.0
524.0,516.0,525.0,520.0,507.0
522.0,520.0,522.0,519.0,509.0
512.0,516.0,515.0,515.0,510.0
512.0,511.0,509.0,507.0,508.0
504.0,506.0,504.0,504.0,514.0
504.0,503.0,499.0,499.0,520.0
504.0,500.0,499.0,505.0,517.0
506.0,499.0,506.0,508.0,519.0
512.0,503.0,512.0,518.0,516.0
513.0,505.0,517.0,519.0,515.0
517.0,508.0,522.0,522.0,515.0
519.0,507.0,524.0,522.0,519.0
517.0,504.0,520.0,519.0,522.0
514.0,504.0,510.0,514.0,523.0
516.0,506.0,517.0,513.0,524.0
518.0,510.0,518.0,516.0,521.0
521.0,516.0,522.0,521.0,514.0
523.0,514.0,522.0,518.0,508.0
518.0,514.0,515.0,514.0,504.0
517.0,510.0,508.0,505.0,505.0
510.0,508.0,508.0,505.0,509.0
507.0,508.0,503.0,501.0,513.0
503.0,504.0,500.0,500.0,516.0
500.0,501.0,502.0,504.0,522.0
503.0,502.0,508.0,510.0,520.0
513.0,506.0,516.0,517.0,514.0
514.0,507.0,520.0,525.0,512.0
514.0,507.0,522.0,529.0,515.0
520.0,508.0,523.0,521.0,514.0
515.0,504.0,518.0,517.0,515.0
515.0,507.0,521.0,519.0,514.0
517.0,510.0,522.0,519.0,514.0
522.0,513.0,520.0,519.0,511.0
524.0,516.0,522.0,520.0,510.0
525.0,517.0,518.0,515.0,506.0
521.0,517.0,515.0,513.0,504.0
514.0,517.0,511.0,509.0,510.0
510.0,509.0,505.0,503.0,509.0
501.0,502.0,501.0,501.0,516.0
500.0,502.0,503.0,504.0,518.0
502.0,503.0,504.0,507.0,518.0
506.0,506.0,509.0,512.0,516.0
514.0,504.0,517.0,519.0,516.0
516.0,508.0,522.0,523.0,513.0
516.0,508.0,523.0,525.0,515.0
515.0,508.0,519.0,521.0,516.0
512.0,503.0,518.0,517.0,520.0
512.0,506.0,519.0,513.0,517.0
517.0,511.0,518.0,519.0,514.0
523.0,509.0,519.0,518.0,510.0
521.0,515.0,521.0,517.0,510.0
524.0,517.0,518.0,519.0,506.0
519.0,516.0,517.0,515.0,507.0
516.0,511.0,508.0,507.0,511.0
508.0,507.0,504.0,505.0,511.0
502.0,503.0,501.0,502.0,518.0
501.0,500.0,500.0,503.0,517.0
501.0,500.0,506.0,506.0,523.0
508.0,506.0,514.0,515.0,518.0
516.0,507.0,520.0,521.0,511.0
516.0,507.0,523.0,530.0,515.0
516.0,505.0,522.0,523.0,516.0
512.0,502.0,518.0,516.0,521.0
516.0,503.0,516.0,514.0,519.0
516.0,507.0,515.0,514.0,515.0
513.0,508.0,517.0,517.0,515.0
519.0,513.0,521.0,518.0,511.0
521.0,519.0,521.0,521.0,507.0
521.0,516.0,519.0,515.0,508.0
519.0,511.0,512.0,509.0,509.0
509.0,508.0,506.0,506.0,512.0
505.0,505.0,501.0,502.0,513.0
498.0,500.0,497.0,500.0,519.0
503.0,499.0,497.0,504.0,515.0
506.0,500.0,504.0,505.0,519.0
507.0,504.0,516.0,515.0,519.0
511.0,504.0,519.0,521.0,517.0
515.0,505.0,523.0,524.0,517.0
515.0,505.0,520.0,521.0,518.0
507.0,501.0,517.0,516.0,523.0
512.0,506.0,514.0,514.0,520.0
513.0,505.0,521.0,515.0,516.0
521.0,511.0,517.0,516.0,515.0
522.0,516.0,516.0,516.0,512.0
525.0,517.0,516.0,520.0,508.0
523.0,514.0,512.0,513.0,508.0
515.0,515.0,508.0,511.0,510.0
507.0,508.0,506.0,506.0,513.0
506.0,505.0,502.0,502.0,518.0
501.0,500.0,499.0,496.0,516.0
501.0,498.0,502.0,505.0,517.0
506.0,501.0,510.0,514.0,520.0
516.0,501.0,518.0,520.0,520.0
518.0,508.0,520.0,521.0,518.0
517.0,506.0,519.0,524.0,517.0
514.0,503.0,518.0,519.0,519.0
513.0,502.0,516.0,516.0,518.0
515.0,503.0,517.0,515.0,518.0
515.0,507.0,520.0,516.0,515.0
519.0,511.0,519.0,516.0,507.0
524.0,516.0,521.0,518.0,509.0
523.0,514.0,518.0,517.0,509.0
522.0,510.0,512.0,511.0,506.0
514.0,509.0,507.0,507.0,513.0
506.0,507.0,503.0,500.0,512.0
500.0,501.0,502.0,500.0,516.0
497.0,499.0,502.0,504.0,519.0
504.0,500.0,506.0,508.0,518.0
510.0,502.0,512.0,513.0,517.0
516.0,503.0,517.0,520.0,512.0
518.0,504.0,521.0,522.0,520.0
518.0,506.0,521.0,522.0,518.0
512.0,503.0,518.0,518.0,519.0
516.0,506.0,519.0,516.0,518.0
516.0,508.0,517.0,514.0,514.0
519.0,510.0,516.0,515.0,514.0
524.0,512.0,519.0,518.0,508.0
524.0,515.0,521.0,517.0,507.0
520.0,516.0,516.0,514.0,504.0
515.0,515.0,512.0,511.0,506.0
509.0,507.0,505.0,507.0,510.0
504.0,506.0,503.0,506.0,514.0
502.0,502.0,500.0,501.0,520.0
499.0,499.0,502.0,503.0,517.0
511.0,503.0,509.0,515.0,517.0
517.0,504.0,515.0,518.0,516.0
518.0,506.0,518.0,522.0,516.0
522.0,508.0,521.0,523.0,514.0
520.0,504.0,521.0,522.0,513.0
515.0,507.0,518.0,522.0,512.0
512.0,505.0,519.0,516.0,514.0
520.0,506.0,519.0,518.0,516.0
519.0,515.0,520.0,515.0,513.0
521.0,513.0,521.0,519.0,508.0
523.0,515.0,521.0,517.0,508.0
524.0,514.0,515.0,514.0,507.0
515.0,514.0,509.0,509.0,509.0
506.0,506.0,502.0,507.0,514.0
503.0,502.0,500.0,500.0,516.0
499.0,499.0,503.0,504.0,517.0
504.0,502.0,507.0,511.0,515.0
506.0,503.0,512.0,516.0,517.0
515.0,504.0,516.0,515.0,520.0
513.0,503.0,519.0,520.0,516.0
513.0,506.0,522.0,519.0,517.0
515.0,503.0,519.0,520.0,518.0
512.0,503.0,516.0,516.0,516.0
512.0,504.0,519.0,514.0,512.0
511.0,506.0,518.0,512.0,515.0
518.0,511.0,516.0,514.0,513.0
522.0,513.0,522.0,518.0,508.0
522.0,517.0,520.0,519.0,503.0
519.0,515.0,515.0,514.0,506.0
515.0,509.0,507.0,511.0,510.0
510.0,504.0,503.0,508.0,507.0
502.0,499.0,503.0,502.0,508.0
501.0,500.0,504.0,506.0,513.0
505.0,505.0,508.0,509.0,516.0
505.0,503.0,518.0,515.0,517.0
514.0,503.0,520.0,520.0,520.0
522.0,507.0,523.0,522.0,516.0
518.0,507.0,524.0,525.0,518.0
516.0,505.0,516.0,517.0,519.0
517.0,505.0,521.0,516.0,518.0
518.0,507.0,518.0,513.0,518.0
515.0,508.0,518.0,513.0,515.0
522.0,513.0,520.0,515.0,511.0
520.0,516.0,520.0,521.0,507.0
518.0,519.0,516.0,513.0,505.0
514.0,515.0,514.0,510.0,509.0
508.0,509.0,509.0,507.0,512.0
510.0,507.0,505.0,503.0,512.0
504.0,501.0,502.0,502.0,515.0
503.0,500.0,504.0,503.0,520.0
505.0,500.0,508.0,513.0,518.0
511.0,505.0,521.0,517.0,515.0
520.0,508.0,521.0,522.0,516.0
521.0,507.0,522.0,522.0,518.0
519.0,505.0,521.0,521.0,518.0
511.0,504.0,520.0,517.0,521.0
516.0,506.0,523.0,516.0,519.0
516.0,512.0,522.0,516.0,516.0
514.0,509.0,519.0,516.0,516.0
520.0,517.0,520.0,517.0,512.0
522.0,514.0,520.0,517.0,509.0
522.0,515.0,515.0,512.0,512.0
517.0,513.0,509.0,511.0,510.0
508.0,506.0,506.0,502.0,514.0
503.0,504.0,502.0,503.0,516.0
500.0,505.0,501.0,500.0,518.0
500.0,501.0,505.0,506.0,520.0
505.0,501.0,511.0,513.0,519.0
511.0,504.0,519.0,520.0,517.0
515.0,506.0,521.0,521.0,515.0
517.0,507.0,522.0,522.0,519.0
518.0,504.0,520.0,523.0,518.0
517.0,504.0,519.0,516.0,512.0
520.0,509.0,518.0,521.0,515.0
520.0,509.0,518.0,516.0,517.0
522.0,512.0,522.0,518.0,513.0
526.0,515.0,520.0,522.0,507.0
526.0,516.0,517.0,516.0,506.0
518.0,516.0,513.0,511.0,508.0
514.0,507.0,500.0,506.0,509.0
504.0,504.0,501.0,503.0,517.0
503.0,500.0,495.0,498.0,522.0
502.0,500.0,503.0,504.0,518.0
504.0,502.0,507.0,509.0,518.0
507.0,501.0,509.0,514.0,515.0
512.0,503.0,515.0,518.0,517.0
515.0,503.0,518.0,521.0,516.0
517.0,505.0,520.0,523.0,519.0
510.0,504.0,523.0,520.0,524.0
510.0,503.0,517.0,515.0,521.0
513.0,506.0,516.0,518.0,521.0
516.0,509.0,518.0,515.0,511.0
521.0,514.0,521.0,519.0,508.0
521.0,515.0,520.0,519.0,509.0
521.0,517.0,517.0,516.0,507.0
516.0,513.0,512.0,512.0,515.0
513.0,510.0,507.0,507.0,515.0
510.0,506.0,503.0,504.0,514.0
504.0,503.0,500.0,503.0,516.0
500.0,502.0,498.0,506.0,519.0
504.0,502.0,509.0,513.0,519.0
505.0,506.0,516.0,522.0,520.0
512.0,507.0,521.0,525.0,521.0
511.0,507.0,522.0,523.0,519.0
515.0,507.0,522.0,522.0,518.0
515.0,504.0,518.0,520.0,517.0
516.0,509.0,516.0,520.0,512.0
517.0,511.0,517.0,520.0,510.0
520.0,510.0,517.0,518.0,508.0
524.0,515.0,520.0,520.0,509.0
521.0,515.0,518.0,518.0,504.0
522.0,518.0,516.0,515.0,508.0
515.0,514.0,510.0,514.0,507.0
508.0,508.0,502.0,509.0,512.0
505.0,504.0,501.0,503.0,514.0
501.0,501.0,499.0,504.0,516.0
503.0,502.0,505.0,510.0,518.0
506.0,501.0,510.0,514.0,521.0
511.0,505.0,516.0,519.0,519.0
518.0,505.0,520.0,521.0,521.0
521.0,507.0,523.0,523.0,519.0
516.0,507.0,522.0,518.0,519.0
513.0,506.0,518.0,521.0,521.0
515.0,506.0,517.0,517.0,520.0
518.0,509.0,520.0,516.0,512.0
527.0,514.0,524.0,520.0,517.0
525.0,516.0,522.0,518.0,509.0
522.0,518.0,520.0,522.0,508.0
517.0,516.0,515.0,514.0,517.0
510.0,509.0,507.0,505.0,516.0
508.0,509.0,505.0,503.0,512.0
505.0,505.0,500.0,502.0,517.0
502.0,501.0,505.0,504.0,520.0
503.0,501.0,502.0,510.0,518.0
510.0,508.0,514.0,516.0,516.0
513.0,506.0,520.0,522.0,513.0
519.0,506.0,522.0,524.0,514.0
520.0,506.0,522.0,525.0,516.0
513.0,504.0,521.0,520.0,518.0
512.0,503.0,517.0,516.0,520.0
511.0,504.0,517.0,512.0,518.0
519.0,503.0,516.0,514.0,514.0
516.0,511.0,516.0,517.0,511.0
515.0,515.0,518.0,515.0,509.0
516.0,515.0,518.0,516.0,507.0
510.0,511.0,515.0,511.0,511.0
509.0,504.0,502.0,503.0,514.0
501.0,502.0,501.0,498.0,519.0
505.0,505.0,500.0,506.0,517.0
504.0,500.0,497.0,502.0,518.0
505.0,500.0,509.0,513.0,518.0
509.0,502.0,517.0,516.0,518.0
516.0,503.0,521.0,517.0,519.0
514.0,506.0,522.0,527.0,518.0
514.0,504.0,520.0,519.0,517.0
514.0,505.0,520.0,519.0,519.0
517.0,506.0,519.0,516.0,521.0
516.0,508.0,520.0,517.0,516.0
523.0,512.0,519.0,517.0,514.0
524.0,515.0,520.0,519.0,509.0
528.0,518.0,523.0,519.0,505.0
519.0,514.0,521.0,514.0,510.0
515.0,513.0,511.0,508.0,512.0
506.0,504.0,504.0,504.0,511.0
502.0,504.0,502.0,503.0,518.0
502.0,504.0,503.0,503.0,516.0
505.0,499.0,506.0,508.0,515.0
507.0,504.0,511.0,514.0,516.0
513.0,506.0,520.0,521.0,515.0
516.0,506.0,521.0,523.0,514.0
520.0,507.0,527.0,525.0,516.0
514.0,502.0,523.0,522.0,518.0
513.0,508.0,520.0,518.0,517.0
514.0,506.0,520.0,517.0,517.0
519.0,512.0,520.0,517.0,515.0
520.0,511.0,523.0,516.0,514.0
521.0,514.0,521.0,519.0,510.0
521.0,517.0,519.0,516.0,505.0
519.0,513.0,515.0,513.0,506.0
512.0,509.0,509.0,507.0,512.0
505.0,506.0,501.0,505.0,514.0
502.0,504.0,505.0,503.0,517.0
502.0,502.0,503.0,502.0,520.0
507.0,500.0,509.0,508.0,517.0
510.0,504.0,512.0,515.0,516.0
512.0,503.0,518.0,522.0,516.0
516.0,508.0,524.0,527.0,516.0
514.0,505.0,522.0,522.0,518.0
511.0,507.0,517.0,518.0,519.0
512.0,507.0,518.0,516.0,519.0
514.0,506.0,514.0,516.0,516.0
519.0,507.0,518.0,517.0,512.0
524.0,515.0,525.0,518.0,509.0
528.0,517.0,525.0,519.0,510.0
521.0,517.0,518.0,519.0,506.0
517.0,513.0,511.0,511.0,509.0
506.0,508.0,508.0,505.0,510.0
502.0,505.0,503.0,507.0,514.0
500.0,501.0,503.0,501.0,519.0
502.0,499.0,502.0,505.0,520.0
506.0,502.0,507.0,512.0,518.0
515.0,505.0,517.0,519.0,518.0
515.0,508.0,522.0,524.0,516.0
518.0,502.0,521.0,523.0,516.0
521.0,508.0,520.0,524.0,517.0
515.0,507.0,520.0,520.0,516.0
516.0,505.0,517.0,516.0,515.0
516.0,507.0,517.0,517.0,514.0
514.0,513.0,517.0,515.0,514.0
519.0,512.0,523.0,517.0,515.0
522.0,523.0,520.0,518.0,507.0
520.0,518.0,517.0,515.0,505.0
513.0,512.0,510.0,509.0,512.0
506.0,506.0,505.0,501.0,513.0
500.0,503.0,502.0,503.0,514.0
502.0,503.0,501.0,507.0,511.0
503.0,500.0,504.0,514.0,512.0
505.0,504.0,507.0,511.0,513.0
511.0,503.0,514.0,516.0,520.0
514.0,503.0,520.0,520.0,516.0
515.0,504.0,522.0,523.0,515.0
513.0,503.0,519.0,524.0,517.0
510.0,502.0,519.0,518.0,517.0
515.0,509.0,518.0,520.0,514.0
518.0,511.0,520.0,518.0,512.0
517.0,511.0,518.0,516.0,513.0
519.0,516.0,521.0,521.0,508.0
519.0,515.0,518.0,515.0,514.0
520.0,515.0,515.0,515.0,508.0
515.0,510.0,505.0,509.0,512.0
506.0,506.0,505.0,505.0,514.0
504.0,503.0,501.0,504.0,516.0
503.0,502.0,504.0,504.0,515.0
508.0,504.0,507.0,511.0,515.0
511.0,502.0,515.0,516.0,512.0
514.0,505.0,516.0,521.0,511.0
518.0,506.0,522.0,524.0,512.0
517.0,504.0,517.0,522.0,511.0
519.0,504.0,520.0,518.0,516.0
513.0,502.0,521.0,517.0,512.0
518.0,510.0,518.0,517.0,513.0
523.0,507.0,519.0,518.0,510.0
522.0,514.0,521.0,519.0,507.0
526.0,515.0,521.0,518.0,505.0
521.0,514.0,517.0,517.0,505.0
514.0,513.0,515.0,515.0,504.0
512.0,509.0,506.0,508.0,508.0
508.0,505.0,504.0,508.0,509.0
501.0,501.0,505.0,503.0,514.0
498.0,499.0,503.0,503.0,523.0
504.0,502.0,510.0,511.0,519.0
514.0,505.0,519.0,517.0,516.0
514.0,506.0,519.0,520.0,515.0
516.0,504.0,521.0,517.0,516.0
514.0,506.0,521.0,522.0,516.0
514.0,505.0,517.0,518.0,520.0
514.0,506.0,523.0,518.0,518.0
518.0,507.0,520.0,523.0,516.0
520.0,510.0,521.0,518.0,512.0
523.0,514.0,521.0,518.0,507.0
523.0,516.0,519.0,517.0,506.0
520.0,517.0,517.0,514.0,506.0
513.0,513.0,512.0,510.0,509.0
506.0,511.0,505.0,504.0,511.0
503.0,506.0,503.0,506.0,515.0
503.0,501.0,502.0,505.0,517.0
505.0,503.0,505.0,509.0,516.0
508.0,502.0,512.0,515.0,518.0
519.0,503.0,521.0,520.0,512.0
510.0,504.0,526.0,525.0,514.0
514.0,505.0,524.0,521.0,520.0
518.0,503.0,518.0,522.0,517.0
514.0,500.0,516.0,515.0,523.0
517.0,507.0,523.0,517.0,518.0
513.0,507.0,522.0,515.0,516.0
516.0,510.0,515.0,514.0,513.0
521.0,515.0,520.0,523.0,506.0
521.0,515.0,517.0,515.0,508.0
520.0,516.0,513.0,515.0,505.0
514.0,509.0,508.0,508.0,507.0
505.0,503.0,503.0,503.0,510.0
497.0,503.0,498.0,499.0,513.0
498.0,501.0,499.0,502.0,518.0
505.0,503.0,509.0,509.0,517.0
514.0,500.0,514.0,516.0,515.0
515.0,506.0,519.0,522.0,514.0
516.0,508.0,524.0,528.0,513.0
516.0,505.0,520.0,522.0,514.0
518.0,505.0,519.0,520.0,516.0
514.0,508.0,520.0,520.0,518.0
513.0,506.0,518.0,520.0,517.0
520.0,508.0,518.0,518.0,515.0
522.0,513.0,524.0,517.0,510.0
523.0,522.0,522.0,520.0,508.0
524.0,516.0,512.0,516.0,505.0
518.0,516.0,510.0,511.0,507.0
512.0,508.0,507.0,509.0,509.0
510.0,506.0,504.0,505.0,514.0
504.0,505.0,501.0,505.0,516.0
506.0,498.0,502.0,507.0,517.0
509.0,500.0,506.0,511.0,518.0
511.0,504.0,517.0,520.0,519.0
513.0,510.0,521.0,525.0,516.0
518.0,506.0,519.0,525.0,518.0
519.0,510.0,523.0,523.0,518.0
513.0,501.0,516.0,516.0,522.0
518.0,507.0,518.0,517.0,517.0
523.0,509.0,520.0,520.0,514.0
520.0,515.0,521.0,518.0,510.0
521.0,513.0,520.0,521.0,508.0
525.0,517.0,521.0,521.0,503.0
520.0,515.0,515.0,512.0,505.0
514.0,512.0,511.0,511.0,508.0
510.0,508.0,504.0,504.0,510.0
506.0,503.0,503.0,502.0,513.0
500.0,502.0,503.0,505.0,519.0
510.0,501.0,504.0,512.0,516.0
507.0,503.0,512.0,514.0,517.0
511.0,506.0,521.0,519.0,517.0
522.0,508.0,525.0,523.0,520.0
519.0,510.0,523.0,524.0,516.0
514.0,505.0,519.0,525.0,516.0
513.0,508.0,518.0,519.0,513.0
515.0,510.0,518.0,517.0,515.0
519.0,509.0,514.0,519.0,515.0
521.0,513.0,520.0,518.0,514.0
523.0,515.0,521.0,520.0,512.0
526.0,517.0,521.0,520.0,505.0
522.0,517.0,514.0,518.0,506.0
516.0,514.0,507.0,511.0,508.0
508.0,506.0,503.0,506.0,510.0
502.0,506.0,500.0,507.0,515.0
505.0,502.0,503.0,506.0,515.0
506.0,504.0,507.0,512.0,512.0
509.0,502.0,511.0,513.0,513.0
514.0,503.0,514.0,518.0,516.0
521.0,506.0,520.0,522.0,520.0
522.0,507.0,520.0,523.0,517.0
514.0,506.0,518.0,525.0,521.0
510.0,504.0,517.0,515.0,521.0
512.0,503.0,516.0,516.0,518.0
515.0,511.0,518.0,516.0,515.0
522.0,515.0,521.0,521.0,509.0
525.0,518.0,522.0,523.0,505.0
526.0,515.0,515.0,516.0,505.0
516.0,511.0,510.0,508.0,514.0
509.0,508.0,504.0,504.0,513.0
506.0,506.0,501.0,503.0,512.0
507.0,501.0,500.0,503.0,514.0
506.0,501.0,503.0,510.0,517.0
505.0,504.0,510.0,514.0,516.0
509.0,505.0,516.0,518.0,513.0
515.0,506.0,517.0,528.0,517.0
514.0,507.0,520.0,524.0,515.0
517.0,505.0,520.0,521.0,518.0
512.0,504.0,519.0,521.0,520.0
515.0,509.0,517.0,515.0,519.0
517.0,509.0,521.0,518.0,512.0
522.0,511.0,519.0,525.0,511.0
520.0,517.0,526.0,522.0,510.0
523.0,516.0,516.0,515.0,509.0
518.0,515.0,512.0,515.0,506.0
517.0,512.0,508.0,509.0,510.0
512.0,503.0,505.0,506.0,513.0
506.0,505.0,502.0,507.0,514.0
505.0,502.0,502.0,503.0,519.0
505.0,500.0,506.0,508.0,516.0
507.0,504.0,510.0,515.0,515.0
515.0,508.0,523.0,520.0,512.0
514.0,506.0,520.0,529.0,519.0
519.0,506.0,522.0,524.0,517.0
512.0,501.0,518.0,520.0,523.0
513.0,504.0,521.0,517.0,518.0
519.0,506.0,519.0,518.0,516.0
522.0,507.0,519.0,523.0,512.0
521.0,512.0,520.0,519.0,508.0
523.0,516.0,523.0,521.0,508.0
522.0,516.0,519.0,521.0,508.0
517.0,514.0,516.0,514.0,507.0
513.0,512.0,509.0,512.0,509.0
510.0,511.0,504.0,509.0,512.0
502.0,503.0,500.0,501.0,515.0
501.0,502.0,500.0,504.0,518.0
503.0,502.0,508.0,510.0,518.0
517.0,504.0,515.0,516.0,517.0
512.0,506.0,518.0,522.0,518.0
516.0,508.0,526.0,523.0,517.0
517.0,506.0,523.0,522.0,521.0
514.0,504.0,518.0,522.0,520.0
513.0,503.0,518.0,519.0,519.0
517.0,505.0,518.0,517.0,516.0
515.0,509.0,519.0,518.0,514.0
521.0,515.0,526.0,521.0,511.0
525.0,517.0,521.0,519.0,509.0
523.0,516.0,517.0,517.0,509.0
517.0,514.0,511.0,513.0,508.0
509.0,510.0,508.0,507.0,511.0
504.0,507.0,503.0,504.0,515.0
502.0,502.0,500.0,503.0,516.0
499.0,499.0,501.0,509.0,520.0
505.0,498.0,509.0,514.0,519.0
508.0,505.0,515.0,521.0,517.0
512.0,504.0,519.0,520.0,519.0
513.0,504.0,520.0,521.0,523.0
514.0,502.0,519.0,521.0,519.0
514.0,503.0,518.0,519.0,518.0
513.0,506.0,519.0,519.0,518.0
512.0,506.0,516.0,515.0,519.0
514.0,508.0,518.0,517.0,514.0
521.0,515.0,520.0,520.0,508.0
524.0,517.0,520.0,517.0,506.0
522.0,517.0,516.0,516.0,508.0
514.0,512.0,513.0,508.0,510.0
509.0,510.0,504.0,504.0,516.0
503.0,504.0,502.0,503.0,519.0
503.0,503.0,501.0,504.0,519.0
503.0,507.0,507.0,511.0,521.0
509.0,505.0,513.0,514.0,514.0
515.0,505.0,519.0,521.0,516.0
513.0,505.0,521.0,522.0,516.0
515.0,505.0,523.0,523.0,515.0
515.0,503.0,519.0,520.0,516.0
515.0,503.0,518.0,519.0,519.0
519.0,507.0,520.0,521.0,518.0
515.0,510.0,521.0,518.0,515.0
520.0,512.0,522.0,517.0,512.0
523.0,518.0,522.0,516.0,510.0
524.0,516.0,518.0,516.0,506.0
522.0,518.0,515.0,518.0,505.0
511.0,510.0,509.0,507.0,509.0
508.0,506.0,505.0,503.0,514.0
502.0,502.0,503.0,504.0,520.0
504.0,501.0,503.0,506.0,523.0
506.0,500.0,507.0,511.0,522.0
510.0,503.0,516.0,519.0,517.0
518.0,505.0,520.0,525.0,519.0
517.0,507.0,521.0,527.0,515.0
514.0,506.0,523.0,526.0,518.0
510.0,503.0,520.0,519.0,520.0
514.0,505.0,519.0,518.0,518.0
515.0,504.0,517.0,517.0,517.0
517.0,510.0,517.0,517.0,515.0
520.0,513.0,521.0,518.0,512.0
521.0,515.0,517.0,516.0,507.0
522.0,517.0,516.0,515.0,507.0
517.0,512.0,513.0,510.0,508.0
508.0,508.0,510.0,506.0,515.0
504.0,505.0,504.0,504.0,515.0
507.0,503.0,496.0,503.0,518.0
504.0,502.0,505.0,506.0,520.0
505.0,502.0,511.0,511.0,519.0
513.0,508.0,515.0,518.0,516.0
516.0,506.0,522.0,521.0,519.0
520.0,503.0,523.0,525.0,519.0
517.0,504.0,517.0,522.0,517.0
512.0,504.0,517.0,521.0,520.0
516.0,505.0,519.0,517.0,521.0
516.0,508.0,520.0,517.0,513.0
521.0,510.0,518.0,519.0,514.0
523.0,520.0,522.0,520.0,512.0
523.0,516.0,520.0,521.0,511.0
521.0,513.0,515.0,514.0,511.0
512.0,512.0,507.0,511.0,513.0
507.0,506.0,501.0,503.0,512.0
503.0,499.0,499.0,500.0,520.0
500.0,499.0,501.0,503.0,516.0
502.0,501.0,508.0,506.0,518.0
508.0,502.0,509.0,510.0,516.0
510.0,502.0,511.0,516.0,515.0
511.0,503.0,519.0,520.0,515.0
514.0,506.0,523.0,527.0,515.0
518.0,503.0,525.0,520.0,518.0
514.0,502.0,518.0,516.0,517.0
520.0,505.0,516.0,517.0,515.0
523.0,506.0,519.0,517.0,514.0
523.0,512.0,519.0,518.0,509.0
527.0,517.0,521.0,518.0,508.0
529.0,517.0,519.0,516.0,505.0
517.0,513.0,511.0,513.0,509.0
515.0,511.0,510.0,507.0,510.0
508.0,510.0,507.0,505.0,513.0
506.0,504.0,501.0,502.0,515.0
501.0,500.0,501.0,503.0,518.0
504.0,505.0,509.0,509.0,516.0
511.0,504.0,515.0,517.0,515.0
513.0,510.0,522.0,522.0,514.0
515.0,507.0,524.0,522.0,519.0
516.0,505.0,522.0,519.0,517.0
518.0,503.0,518.0,519.0,518.0
515.0,504.0,519.0,520.0,514.0
517.0,505.0,519.0,515.0,511.0
515.0,510.0,519.0,520.0,511.0
516.0,514.0,520.0,516.0,515.0
523.0,513.0,519.0,515.0,507.0
