CH1,CH2,CH3,CH4,CH5
529.0,519.0,517.0,521.0,497.0
518.0,513.0,508.0,514.0,501.0
516.0,512.0,501.0,509.0,508.0
509.0,508.0,500.0,504.0,512.0
501.0,504.0,494.0,501.0,513.0
500.0,502.0,496.0,499.0,515.0
499.0,500.0,502.0,508.0,519.0
504.0,500.0,510.0,513.0,518.0
505.0,504.0,524.0,521.0,516.0
515.0,505.0,533.0,526.0,516.0
513.0,504.0,532.0,528.0,519.0
513.0,502.0,531.0,524.0,519.0
508.0,501.0,529.0,521.0,523.0
513.0,504.0,527.0,520.0,518.0
516.0,509.0,528.0,519.0,514.0
518.0,511.0,519.0,519.0,511.0
523.0,513.0,518.0,520.0,508.0
529.0,516.0,512.0,518.0,499.0
517.0,515.0,507.0,515.0,503.0
508.0,507.0,498.0,505.0,508.0
504.0,504.0,493.0,501.0,507.0
504.0,503.0,491.0,503.0,512.0
499.0,499.0,496.0,501.0,517.0
497.0,497.0,504.0,513.0,519.0
506.0,500.0,517.0,515.0,520.0
513.0,503.0,521.0,521.0,516.0
516.0,505.0,529.0,522.0,518.0
519.0,509.0,533.0,527.0,516.0
513.0,506.0,532.0,524.0,519.0
512.0,506.0,529.0,522.0,518.0
516.0,509.0,525.0,523.0,514.0
516.0,508.0,516.0,517.0,512.0
520.0,511.0,516.0,520.0,509.0
524.0,513.0,516.0,518.0,506.0
521.0,517.0,512.0,517.0,500.0
516.0,516.0,500.0,506.0,502.0
509.0,509.0,495.0,504.0,507.0
504.0,503.0,492.0,501.0,511.0
501.0,501.0,494.0,502.0,514.0
501.0,497.0,496.0,502.0,518.0
499.0,500.0,507.0,508.0,519.0
507.0,500.0,515.0,518.0,519.0
509.0,502.0,524.0,523.0,518.0
517.0,505.0,532.0,528.0,521.0
514.0,504.0,531.0,529.0,516.0
513.0,501.0,524.0,521.0,519.0
512.0,503.0,524.0,519.0,516.0
517.0,506.0,525.0,526.0,512.0
520.0,510.0,525.0,522.0,508.0
525.0,515.0,523.0,521.0,503.0
526.0,516.0,514.0,518.0,502.0
518.0,514.0,508.0,513.0,500.0
508.0,510.0,500.0,508.0,504.0
503.0,507.0,495.0,501.0,506.0
502.0,504.0,493.0,501.0,511.0
499.0,499.0,497.0,500.0,515.0
502.0,502.0,507.0,507.0,521.0
505.0,500.0,514.0,514.0,517.0
509.0,503.0,524.0,524.0,514.0
515.0,506.0,530.0,530.0,511.0
518.0,508.0,533.0,532.0,508.0
515.0,504.0,533.0,522.0,515.0
512.0,504.0,526.0,519.0,516.0
517.0,505.0,525.0,520.0,511.0
518.0,512.0,520.0,519.0,509.0
516.0,510.0,519.0,522.0,509.0
520.0,515.0,518.0,521.0,503.0
522.0,516.0,513.0,519.0,497.0
520.0,512.0,504.0,512.0,498.0
515.0,510.0,501.0,508.0,498.0
503.0,504.0,494.0,503.0,503.0
500.0,500.0,494.0,500.0,512.0
496.0,497.0,491.0,503.0,513.0
498.0,496.0,505.0,507.0,515.0
500.0,500.0,514.0,515.0,521.0
502.0,503.0,525.0,519.0,520.0
511.0,504.0,529.0,524.0,516.0
527.0,506.0,533.0,528.0,516.0
521.0,503.0,529.0,517.0,519.0
520.0,503.0,527.0,518.0,516.0
519.0,505.0,524.0,514.0,515.0
520.0,507.0,521.0,516.0,516.0
518.0,512.0,520.0,519.0,508.0
522.0,516.0,518.0,519.0,502.0
521.0,523.0,512.0,516.0,498.0
522.0,515.0,503.0,510.0,500.0
514.0,508.0,496.0,504.0,504.0
512.0,508.0,493.0,503.0,507.0
499.0,500.0,495.0,497.0,513.0
496.0,498.0,499.0,504.0,518.0
501.0,502.0,510.0,511.0,516.0
508.0,506.0,521.0,517.0,515.0
511.0,505.0,529.0,521.0,517.0
514.0,502.0,534.0,527.0,518.0
511.0,505.0,532.0,523.0,514.0
517.0,505.0,530.0,521.0,518.0
514.0,509.0,529.0,522.0,516.0
518.0,513.0,526.0,521.0,510.0
518.0,511.0,521.0,519.0,512.0
518.0,513.0,517.0,515.0,507.0
516.0,514.0,514.0,512.0,506.0
519.0,516.0,507.0,512.0,507.0
513.0,512.0,501.0,507.0,504.0
508.0,508.0,491.0,500.0,507.0
504.0,502.0,494.0,498.0,512.0
505.0,498.0,493.0,500.0,516.0
501.0,500.0,502.0,505.0,517.0
502.0,501.0,509.0,510.0,518.0
510.0,502.0,520.0,518.0,518.0
517.0,503.0,528.0,524.0,516.0
515.0,506.0,532.0,526.0,517.0
514.0,505.0,530.0,524.0,518.0
512.0,505.0,529.0,524.0,520.0
515.0,508.0,524.0,517.0,515.0
514.0,508.0,518.0,513.0,514.0
516.0,510.0,518.0,513.0,513.0
522.0,515.0,516.0,516.0,503.0
523.0,516.0,512.0,516.0,502.0
517.0,517.0,506.0,511.0,501.0
510.0,510.0,499.0,506.0,510.0
505.0,507.0,497.0,501.0,507.0
503.0,501.0,493.0,500.0,514.0
500.0,499.0,497.0,503.0,517.0
504.0,502.0,510.0,508.0,522.0
510.0,500.0,515.0,514.0,522.0
512.0,505.0,528.0,525.0,518.0
514.0,504.0,531.0,526.0,518.0
515.0,506.0,534.0,526.0,517.0
513.0,507.0,531.0,521.0,519.0
511.0,504.0,529.0,521.0,519.0
515.0,507.0,525.0,520.0,517.0
518.0,508.0,524.0,519.0,513.0
522.0,516.0,524.0,519.0,513.0
528.0,518.0,517.0,522.0,503.0
528.0,517.0,511.0,515.0,501.0
525.0,514.0,504.0,514.0,498.0
513.0,510.0,497.0,504.0,505.0
506.0,504.0,495.0,502.0,510.0
503.0,503.0,494.0,505.0,510.0
502.0,499.0,499.0,504.0,517.0
501.0,502.0,514.0,515.0,515.0
506.0,503.0,525.0,519.0,513.0
513.0,506.0,527.0,523.0,513.0
509.0,505.0,531.0,525.0,522.0
513.0,504.0,532.0,522.0,521.0
510.0,504.0,526.0,518.0,521.0
516.0,506.0,528.0,519.0,515.0
519.0,509.0,526.0,519.0,512.0
519.0,511.0,521.0,520.0,512.0
522.0,517.0,520.0,518.0,506.0
522.0,517.0,514.0,515.0,505.0
521.0,515.0,507.0,509.0,503.0
518.0,514.0,500.0,507.0,505.0
509.0,503.0,494.0,502.0,511.0
508.0,506.0,492.0,497.0,513.0
505.0,500.0,495.0,504.0,518.0
503.0,497.0,501.0,505.0,519.0
507.0,502.0,519.0,513.0,524.0
513.0,506.0,523.0,519.0,518.0
514.0,507.0,532.0,526.0,520.0
518.0,507.0,532.0,523.0,520.0
516.0,506.0,531.0,522.0,516.0
512.0,503.0,527.0,520.0,518.0
519.0,513.0,527.0,521.0,516.0
519.0,509.0,520.0,520.0,513.0
523.0,512.0,521.0,517.0,509.0
520.0,511.0,513.0,514.0,515.0
519.0,518.0,509.0,515.0,506.0
517.0,515.0,505.0,508.0,502.0
513.0,513.0,499.0,508.0,506.0
510.0,506.0,493.0,506.0,511.0
500.0,500.0,492.0,498.0,515.0
497.0,498.0,493.0,499.0,520.0
499.0,498.0,503.0,507.0,521.0
508.0,507.0,516.0,519.0,516.0
516.0,505.0,528.0,522.0,516.0
516.0,510.0,531.0,527.0,517.0
516.0,507.0,532.0,528.0,519.0
512.0,503.0,527.0,522.0,520.0
511.0,503.0,522.0,518.0,513.0
512.0,510.0,524.0,519.0,512.0
518.0,509.0,519.0,516.0,512.0
521.0,514.0,519.0,522.0,508.0
524.0,519.0,516.0,518.0,504.0
524.0,519.0,510.0,513.0,503.0
519.0,513.0,501.0,507.0,509.0
509.0,508.0,495.0,506.0,507.0
504.0,506.0,492.0,500.0,514.0
505.0,500.0,493.0,500.0,516.0
504.0,499.0,500.0,503.0,518.0
506.0,502.0,511.0,513.0,519.0
514.0,504.0,521.0,519.0,516.0
512.0,504.0,528.0,527.0,515.0
515.0,507.0,531.0,529.0,516.0
516.0,502.0,530.0,523.0,520.0
509.0,508.0,528.0,521.0,518.0
509.0,508.0,526.0,520.0,517.0
509.0,509.0,526.0,520.0,515.0
516.0,513.0,519.0,518.0,511.0
524.0,515.0,518.0,517.0,506.0
527.0,515.0,513.0,515.0,507.0
521.0,516.0,510.0,512.0,503.0
532.0,517.0,500.0,509.0,506.0
518.0,507.0,493.0,501.0,515.0
510.0,505.0,492.0,497.0,511.0
505.0,505.0,497.0,501.0,517.0
508.0,500.0,504.0,510.0,520.0
515.0,505.0,514.0,515.0,518.0
516.0,510.0,523.0,524.0,517.0
517.0,504.0,525.0,524.0,517.0
519.0,506.0,534.0,525.0,523.0
515.0,503.0,529.0,521.0,526.0
515.0,507.0,526.0,519.0,521.0
514.0,509.0,523.0,517.0,521.0
520.0,508.0,522.0,517.0,519.0
522.0,517.0,520.0,520.0,512.0
527.0,515.0,516.0,517.0,506.0
523.0,517.0,510.0,515.0,503.0
519.0,517.0,506.0,513.0,501.0
512.0,510.0,499.0,506.0,505.0
507.0,506.0,495.0,499.0,509.0
502.0,501.0,493.0,501.0,515.0
503.0,496.0,496.0,499.0,524.0
505.0,500.0,508.0,508.0,519.0
505.0,501.0,517.0,516.0,521.0
512.0,504.0,528.0,524.0,518.0
516.0,506.0,533.0,525.0,520.0
516.0,504.0,531.0,522.0,523.0
515.0,503.0,529.0,522.0,520.0
522.0,506.0,529.0,521.0,517.0
519.0,506.0,523.0,517.0,514.0
516.0,509.0,519.0,517.0,515.0
518.0,514.0,516.0,517.0,513.0
523.0,517.0,510.0,516.0,506.0
522.0,517.0,507.0,512.0,510.0
510.0,508.0,498.0,505.0,510.0
508.0,508.0,492.0,501.0,511.0
503.0,504.0,491.0,497.0,517.0
505.0,500.0,493.0,500.0,515.0
509.0,500.0,500.0,505.0,519.0
504.0,499.0,508.0,513.0,522.0
507.0,501.0,519.0,519.0,523.0
512.0,502.0,525.0,525.0,523.0
516.0,503.0,532.0,526.0,521.0
518.0,504.0,531.0,522.0,520.0
517.0,504.0,526.0,521.0,520.0
518.0,504.0,525.0,519.0,518.0
516.0,506.0,522.0,518.0,517.0
519.0,516.0,522.0,518.0,514.0
524.0,514.0,521.0,519.0,507.0
525.0,518.0,515.0,518.0,503.0
524.0,516.0,506.0,514.0,507.0
518.0,512.0,499.0,507.0,504.0
509.0,506.0,493.0,508.0,508.0
501.0,502.0,492.0,502.0,515.0
505.0,500.0,495.0,503.0,516.0
504.0,500.0,509.0,511.0,518.0
507.0,504.0,515.0,514.0,522.0
513.0,504.0,528.0,521.0,518.0
524.0,510.0,533.0,530.0,516.0
522.0,504.0,532.0,530.0,519.0
518.0,502.0,529.0,522.0,521.0
520.0,505.0,528.0,520.0,524.0
519.0,506.0,528.0,522.0,516.0
520.0,512.0,524.0,521.0,511.0
523.0,510.0,519.0,518.0,510.0
523.0,517.0,517.0,518.0,505.0
524.0,523.0,510.0,512.0,499.0
522.0,515.0,508.0,513.0,508.0
512.0,510.0,495.0,505.0,512.0
510.0,511.0,492.0,504.0,513.0
500.0,500.0,490.0,499.0,521.0
504.0,501.0,495.0,502.0,526.0
505.0,500.0,503.0,509.0,522.0
508.0,505.0,519.0,518.0,521.0
515.0,506.0,531.0,525.0,520.0
515.0,505.0,531.0,527.0,522.0
516.0,507.0,530.0,525.0,520.0
515.0,504.0,530.0,521.0,521.0
517.0,506.0,528.0,522.0,518.0
516.0,507.0,525.0,518.0,517.0
518.0,509.0,519.0,520.0,514.0
522.0,511.0,520.0,520.0,508.0
528.0,517.0,516.0,518.0,505.0
523.0,517.0,508.0,515.0,504.0
518.0,514.0,498.0,508.0,504.0
509.0,507.0,495.0,503.0,509.0
510.0,500.0,493.0,502.0,509.0
501.0,502.0,498.0,502.0,519.0
504.0,501.0,499.0,503.0,521.0
506.0,502.0,512.0,515.0,520.0
514.0,502.0,521.0,522.0,517.0
518.0,505.0,531.0,527.0,517.0
518.0,505.0,533.0,527.0,521.0
519.0,503.0,530.0,523.0,521.0
519.0,500.0,524.0,519.0,518.0
511.0,504.0,522.0,516.0,524.0
515.0,507.0,521.0,516.0,519.0
521.0,514.0,517.0,516.0,508.0
524.0,512.0,515.0,517.0,505.0
522.0,517.0,513.0,517.0,501.0
514.0,512.0,500.0,510.0,506.0
512.0,508.0,494.0,503.0,511.0
506.0,506.0,491.0,500.0,512.0
500.0,501.0,489.0,503.0,516.0
504.0,502.0,495.0,501.0,520.0
500.0,500.0,505.0,509.0,518.0
500.0,499.0,510.0,511.0,521.0
503.0,501.0,516.0,520.0,521.0
509.0,502.0,532.0,523.0,523.0
511.0,505.0,531.0,527.0,519.0
507.0,503.0,528.0,523.0,520.0
514.0,503.0,526.0,520.0,523.0
532.0,507.0,524.0,519.0,511.0
533.0,516.0,523.0,522.0,508.0
528.0,515.0,520.0,519.0,505.0
529.0,519.0,518.0,518.0,502.0
530.0,518.0,511.0,519.0,499.0
521.0,520.0,504.0,515.0,501.0
514.0,510.0,496.0,510.0,506.0
509.0,505.0,496.0,500.0,508.0
502.0,500.0,495.0,499.0,513.0
500.0,503.0,499.0,503.0,513.0
510.0,497.0,508.0,510.0,521.0
513.0,504.0,519.0,517.0,518.0
517.0,503.0,527.0,522.0,519.0
520.0,510.0,531.0,526.0,518.0
520.0,511.0,532.0,525.0,516.0
516.0,505.0,528.0,517.0,518.0
519.0,510.0,527.0,523.0,516.0
517.0,507.0,525.0,518.0,515.0
523.0,507.0,521.0,522.0,513.0
526.0,513.0,517.0,521.0,508.0
524.0,515.0,514.0,517.0,505.0
522.0,515.0,509.0,514.0,504.0
522.0,515.0,500.0,505.0,502.0
513.0,508.0,497.0,505.0,506.0
505.0,507.0,491.0,500.0,511.0
501.0,500.0,494.0,502.0,511.0
502.0,505.0,502.0,509.0,512.0
505.0,501.0,511.0,517.0,516.0
511.0,503.0,522.0,520.0,517.0
516.0,507.0,529.0,524.0,519.0
524.0,507.0,533.0,528.0,515.0
518.0,505.0,527.0,524.0,518.0
514.0,504.0,527.0,522.0,520.0
516.0,504.0,525.0,518.0,524.0
521.0,510.0,525.0,520.0,513.0
519.0,511.0,519.0,516.0,513.0
521.0,514.0,519.0,519.0,507.0
521.0,516.0,510.0,514.0,504.0
522.0,515.0,505.0,510.0,502.0
499.0,499.0,485.0,489.0,516.0
493.0,489.0,476.0,483.0,520.0
483.0,486.0,476.0,481.0,524.0
481.0,491.0,482.0,486.0,527.0
527.0,517.0,539.0,533.0,512.0
533.0,519.0,536.0,534.0,506.0
540.0,523.0,536.0,534.0,495.0
541.0,527.0,538.0,535.0,492.0
535.0,527.0,538.0,536.0,492.0
541.0,526.0,531.0,532.0,497.0
540.0,525.0,526.0,527.0,506.0
527.0,519.0,517.0,516.0,508.0
517.0,513.0,513.0,518.0,508.0
510.0,510.0,512.0,515.0,510.0
517.0,503.0,513.0,518.0,511.0
519.0,511.0,519.0,524.0,512.0
527.0,516.0,529.0,536.0,511.0
530.0,518.0,536.0,537.0,513.0
528.0,515.0,537.0,535.0,508.0
529.0,512.0,537.0,533.0,510.0
525.0,511.0,530.0,527.0,499.0
530.0,515.0,531.0,528.0,498.0
523.0,514.0,526.0,526.0,502.0
522.0,515.0,526.0,530.0,505.0
525.0,521.0,534.0,528.0,503.0
534.0,524.0,528.0,528.0,499.0
524.0,522.0,523.0,523.0,504.0
520.0,513.0,513.0,517.0,507.0
512.0,513.0,509.0,512.0,505.0
519.0,509.0,506.0,511.0,505.0
516.0,505.0,505.0,512.0,513.0
508.0,504.0,511.0,514.0,513.0
515.0,507.0,517.0,524.0,509.0
521.0,508.0,525.0,528.0,515.0
524.0,511.0,529.0,531.0,514.0
526.0,513.0,531.0,532.0,509.0
526.0,510.0,529.0,532.0,508.0
523.0,508.0,526.0,525.0,511.0
527.0,511.0,526.0,524.0,508.0
527.0,516.0,526.0,524.0,506.0
526.0,519.0,529.0,527.0,509.0
532.0,520.0,528.0,527.0,507.0
528.0,521.0,526.0,526.0,505.0
527.0,519.0,518.0,518.0,506.0
521.0,515.0,511.0,512.0,509.0
514.0,513.0,506.0,508.0,512.0
506.0,508.0,503.0,505.0,512.0
504.0,506.0,506.0,507.0,517.0
509.0,507.0,511.0,516.0,514.0
515.0,506.0,520.0,524.0,512.0
517.0,508.0,524.0,530.0,507.0
520.0,509.0,527.0,533.0,512.0
520.0,508.0,531.0,527.0,514.0
516.0,506.0,524.0,525.0,515.0
517.0,508.0,526.0,521.0,512.0
522.0,511.0,524.0,521.0,510.0
524.0,511.0,523.0,516.0,516.0
526.0,518.0,525.0,524.0,516.0
530.0,519.0,526.0,522.0,506.0
524.0,517.0,520.0,519.0,499.0
521.0,515.0,517.0,515.0,488.0
512.0,510.0,509.0,510.0,491.0
510.0,507.0,506.0,508.0,494.0
507.0,508.0,501.0,505.0,508.0
504.0,500.0,504.0,506.0,532.0
507.0,503.0,517.0,515.0,530.0
514.0,506.0,521.0,519.0,521.0
517.0,507.0,528.0,526.0,517.0
521.0,512.0,528.0,530.0,513.0
519.0,509.0,530.0,525.0,514.0
514.0,507.0,525.0,520.0,514.0
516.0,506.0,522.0,520.0,515.0
519.0,510.0,525.0,518.0,511.0
523.0,515.0,523.0,520.0,513.0
524.0,519.0,522.0,515.0,506.0
525.0,519.0,522.0,520.0,501.0
522.0,516.0,515.0,514.0,503.0
519.0,513.0,509.0,511.0,504.0
511.0,506.0,504.0,507.0,514.0
504.0,500.0,500.0,504.0,524.0
502.0,500.0,502.0,505.0,521.0
505.0,502.0,507.0,509.0,518.0
508.0,503.0,516.0,518.0,517.0
513.0,505.0,519.0,523.0,513.0
521.0,507.0,523.0,526.0,508.0
519.0,508.0,526.0,525.0,513.0
514.0,504.0,522.0,517.0,524.0
513.0,508.0,520.0,517.0,525.0
520.0,505.0,519.0,522.0,514.0
521.0,510.0,524.0,516.0,511.0
526.0,516.0,524.0,520.0,508.0
530.0,518.0,521.0,516.0,504.0
524.0,515.0,517.0,516.0,507.0
519.0,517.0,511.0,513.0,505.0
506.0,510.0,507.0,512.0,511.0
502.0,507.0,502.0,504.0,517.0
501.0,501.0,498.0,499.0,530.0
498.0,497.0,499.0,500.0,529.0
502.0,500.0,507.0,511.0,517.0
513.0,504.0,519.0,520.0,512.0
517.0,506.0,522.0,523.0,511.0
517.0,508.0,527.0,527.0,514.0
517.0,506.0,525.0,522.0,512.0
518.0,505.0,522.0,524.0,512.0
513.0,506.0,520.0,521.0,511.0
520.0,509.0,525.0,520.0,505.0
521.0,512.0,520.0,518.0,506.0
523.0,515.0,526.0,521.0,505.0
527.0,518.0,521.0,520.0,504.0
523.0,517.0,516.0,511.0,503.0
517.0,515.0,515.0,512.0,508.0
512.0,505.0,505.0,506.0,514.0
510.0,504.0,502.0,503.0,518.0
505.0,501.0,502.0,503.0,521.0
503.0,499.0,504.0,507.0,523.0
511.0,505.0,510.0,513.0,518.0
513.0,503.0,518.0,521.0,519.0
517.0,510.0,522.0,525.0,517.0
518.0,510.0,527.0,526.0,512.0
519.0,506.0,523.0,523.0,511.0
518.0,504.0,525.0,519.0,515.0
519.0,508.0,522.0,518.0,513.0
523.0,509.0,522.0,518.0,514.0
526.0,514.0,522.0,520.0,514.0
531.0,516.0,518.0,519.0,508.0
530.0,512.0,520.0,515.0,509.0
525.0,515.0,513.0,514.0,509.0
514.0,509.0,509.0,507.0,511.0
510.0,506.0,503.0,510.0,521.0
503.0,503.0,500.0,506.0,521.0
499.0,502.0,503.0,504.0,517.0
498.0,502.0,507.0,508.0,516.0
500.0,503.0,513.0,513.0,517.0
509.0,510.0,521.0,524.0,516.0
513.0,504.0,525.0,524.0,508.0
513.0,506.0,524.0,524.0,515.0
524.0,504.0,523.0,520.0,512.0
526.0,507.0,522.0,517.0,515.0
519.0,508.0,521.0,517.0,514.0
520.0,509.0,521.0,519.0,507.0
519.0,511.0,522.0,518.0,506.0
524.0,516.0,519.0,519.0,503.0
517.0,517.0,520.0,518.0,506.0
514.0,516.0,514.0,512.0,513.0
511.0,509.0,505.0,506.0,516.0
502.0,504.0,503.0,503.0,515.0
511.0,504.0,499.0,501.0,516.0
511.0,501.0,501.0,505.0,514.0
510.0,501.0,509.0,511.0,516.0
512.0,504.0,514.0,518.0,511.0
516.0,506.0,518.0,520.0,518.0
521.0,506.0,522.0,524.0,516.0
517.0,505.0,521.0,517.0,515.0
517.0,503.0,519.0,516.0,519.0
521.0,507.0,523.0,515.0,515.0
524.0,508.0,525.0,517.0,519.0
519.0,509.0,517.0,513.0,522.0
520.0,516.0,519.0,517.0,517.0
519.0,518.0,521.0,519.0,495.0
515.0,515.0,517.0,517.0,492.0
512.0,512.0,511.0,513.0,493.0
507.0,506.0,503.0,509.0,494.0
498.0,500.0,497.0,503.0,518.0
496.0,498.0,493.0,499.0,531.0
504.0,498.0,502.0,510.0,524.0
508.0,504.0,510.0,514.0,517.0
516.0,503.0,520.0,519.0,519.0
515.0,506.0,523.0,524.0,517.0
517.0,505.0,523.0,523.0,522.0
520.0,506.0,523.0,521.0,515.0
516.0,504.0,527.0,520.0,521.0
517.0,505.0,519.0,518.0,517.0
518.0,505.0,520.0,518.0,514.0
518.0,507.0,519.0,519.0,514.0
520.0,515.0,519.0,518.0,512.0
523.0,519.0,519.0,520.0,510.0
531.0,516.0,515.0,515.0,512.0
521.0,511.0,509.0,512.0,512.0
509.0,507.0,500.0,507.0,514.0
501.0,504.0,501.0,502.0,514.0
500.0,502.0,505.0,504.0,515.0
502.0,503.0,507.0,507.0,519.0
507.0,502.0,513.0,513.0,518.0
515.0,505.0,519.0,521.0,516.0
517.0,508.0,530.0,524.0,514.0
517.0,507.0,524.0,522.0,513.0
516.0,505.0,521.0,518.0,516.0
513.0,504.0,520.0,519.0,519.0
516.0,505.0,520.0,517.0,519.0
521.0,511.0,520.0,518.0,512.0
522.0,513.0,520.0,519.0,507.0
523.0,513.0,522.0,519.0,509.0
523.0,515.0,521.0,517.0,507.0
517.0,514.0,512.0,515.0,511.0
515.0,510.0,507.0,503.0,519.0
510.0,507.0,503.0,506.0,523.0
498.0,502.0,500.0,503.0,529.0
500.0,499.0,500.0,503.0,531.0
504.0,502.0,509.0,509.0,524.0
513.0,506.0,514.0,516.0,512.0
513.0,504.0,519.0,523.0,502.0
518.0,510.0,529.0,526.0,505.0
515.0,507.0,523.0,523.0,510.0
513.0,506.0,522.0,519.0,514.0
516.0,502.0,520.0,520.0,520.0
514.0,506.0,519.0,514.0,514.0
517.0,511.0,520.0,515.0,508.0
524.0,515.0,521.0,517.0,513.0
527.0,515.0,520.0,518.0,512.0
525.0,518.0,516.0,513.0,512.0
520.0,513.0,509.0,510.0,517.0
516.0,509.0,502.0,503.0,520.0
509.0,502.0,499.0,500.0,520.0
507.0,501.0,499.0,501.0,513.0
502.0,498.0,503.0,503.0,514.0
506.0,502.0,507.0,510.0,512.0
505.0,501.0,515.0,521.0,509.0
506.0,507.0,520.0,521.0,507.0
509.0,507.0,525.0,522.0,509.0
507.0,504.0,524.0,522.0,511.0
511.0,503.0,515.0,515.0,517.0
509.0,507.0,517.0,513.0,516.0
513.0,506.0,520.0,515.0,514.0
516.0,510.0,519.0,518.0,516.0
519.0,515.0,519.0,516.0,511.0
520.0,518.0,518.0,516.0,511.0
513.0,512.0,509.0,506.0,512.0
517.0,510.0,507.0,510.0,514.0
510.0,506.0,505.0,506.0,515.0
504.0,504.0,500.0,505.0,519.0
498.0,502.0,501.0,504.0,523.0
503.0,501.0,509.0,512.0,516.0
508.0,503.0,513.0,519.0,508.0
514.0,504.0,518.0,522.0,506.0
516.0,505.0,519.0,525.0,512.0
515.0,505.0,528.0,523.0,525.0
514.0,507.0,520.0,521.0,521.0
513.0,502.0,518.0,519.0,521.0
516.0,508.0,519.0,518.0,521.0
518.0,510.0,518.0,517.0,515.0
519.0,514.0,522.0,521.0,514.0
521.0,515.0,523.0,520.0,514.0
523.0,514.0,517.0,518.0,512.0
520.0,514.0,511.0,511.0,510.0
509.0,510.0,506.0,506.0,511.0
508.0,505.0,503.0,508.0,517.0
502.0,500.0,499.0,501.0,522.0
501.0,499.0,501.0,504.0,525.0
506.0,503.0,506.0,511.0,520.0
511.0,505.0,515.0,518.0,513.0
518.0,505.0,519.0,522.0,515.0
517.0,506.0,524.0,528.0,513.0
515.0,508.0,522.0,520.0,514.0
513.0,500.0,522.0,520.0,514.0
518.0,508.0,520.0,519.0,513.0
515.0,507.0,520.0,521.0,513.0
519.0,512.0,521.0,517.0,510.0
521.0,513.0,521.0,520.0,514.0
522.0,519.0,522.0,519.0,511.0
523.0,514.0,514.0,514.0,513.0
515.0,512.0,510.0,512.0,513.0
510.0,509.0,505.0,512.0,518.0
505.0,500.0,502.0,506.0,522.0
499.0,504.0,498.0,502.0,525.0
506.0,498.0,502.0,506.0,520.0
508.0,504.0,510.0,514.0,515.0
510.0,504.0,518.0,523.0,516.0
513.0,508.0,528.0,526.0,517.0
512.0,508.0,526.0,522.0,519.0
511.0,504.0,524.0,523.0,518.0
524.0,505.0,521.0,517.0,503.0
527.0,510.0,521.0,521.0,498.0
521.0,509.0,521.0,521.0,503.0
520.0,513.0,521.0,519.0,499.0
517.0,512.0,520.0,518.0,527.0
520.0,518.0,526.0,519.0,522.0
523.0,517.0,514.0,514.0,510.0
513.0,510.0,506.0,506.0,520.0
506.0,505.0,502.0,501.0,521.0
501.0,501.0,496.0,496.0,524.0
499.0,497.0,498.0,501.0,528.0
505.0,501.0,509.0,507.0,519.0
510.0,503.0,512.0,518.0,514.0
517.0,506.0,520.0,524.0,513.0
516.0,503.0,520.0,520.0,522.0
514.0,508.0,522.0,522.0,523.0
516.0,503.0,521.0,520.0,526.0
515.0,504.0,521.0,518.0,524.0
510.0,510.0,519.0,515.0,524.0
516.0,510.0,519.0,518.0,518.0
517.0,511.0,524.0,517.0,515.0
528.0,515.0,520.0,524.0,507.0
521.0,515.0,514.0,518.0,503.0
516.0,513.0,512.0,515.0,508.0
512.0,510.0,506.0,508.0,509.0
505.0,506.0,503.0,504.0,512.0
499.0,501.0,500.0,501.0,516.0
503.0,501.0,501.0,507.0,513.0
507.0,500.0,506.0,511.0,518.0
510.0,503.0,519.0,518.0,520.0
513.0,507.0,522.0,521.0,522.0
517.0,508.0,525.0,519.0,515.0
514.0,506.0,528.0,524.0,517.0
513.0,505.0,520.0,517.0,518.0
514.0,510.0,522.0,517.0,519.0
516.0,505.0,519.0,516.0,519.0
523.0,512.0,519.0,519.0,516.0
523.0,516.0,521.0,520.0,514.0
522.0,517.0,523.0,521.0,514.0
521.0,516.0,516.0,514.0,511.0
518.0,513.0,511.0,509.0,516.0
508.0,508.0,504.0,505.0,520.0
503.0,504.0,502.0,501.0,522.0
499.0,499.0,500.0,502.0,525.0
500.0,499.0,504.0,504.0,521.0
498.0,500.0,511.0,518.0,515.0
505.0,502.0,524.0,520.0,509.0
516.0,506.0,522.0,522.0,510.0
523.0,507.0,528.0,523.0,511.0
521.0,505.0,525.0,520.0,509.0
517.0,502.0,520.0,517.0,515.0
513.0,505.0,520.0,516.0,516.0
515.0,508.0,520.0,515.0,514.0
517.0,510.0,524.0,516.0,514.0
522.0,515.0,526.0,519.0,512.0
521.0,517.0,521.0,516.0,511.0
519.0,514.0,514.0,513.0,514.0
511.0,511.0,505.0,506.0,507.0
512.0,506.0,502.0,504.0,509.0
503.0,505.0,498.0,499.0,514.0
501.0,503.0,502.0,505.0,522.0
505.0,501.0,506.0,510.0,524.0
511.0,502.0,513.0,515.0,521.0
518.0,505.0,520.0,523.0,516.0
516.0,508.0,525.0,523.0,513.0
518.0,507.0,525.0,523.0,514.0
519.0,498.0,521.0,519.0,519.0
514.0,502.0,520.0,519.0,517.0
515.0,504.0,522.0,517.0,516.0
513.0,508.0,521.0,517.0,508.0
518.0,511.0,520.0,520.0,508.0
519.0,517.0,520.0,519.0,505.0
518.0,515.0,515.0,511.0,505.0
511.0,513.0,510.0,507.0,510.0
504.0,508.0,508.0,504.0,515.0
506.0,506.0,502.0,501.0,514.0
503.0,498.0,500.0,502.0,521.0
500.0,497.0,498.0,502.0,521.0
503.0,499.0,505.0,512.0,518.0
510.0,503.0,513.0,516.0,515.0
515.0,505.0,517.0,520.0,510.0
518.0,511.0,525.0,526.0,510.0
514.0,502.0,519.0,517.0,515.0
513.0,504.0,518.0,513.0,517.0
511.0,505.0,524.0,516.0,522.0
515.0,507.0,520.0,520.0,516.0
519.0,511.0,520.0,520.0,511.0
521.0,513.0,523.0,519.0,512.0
521.0,519.0,520.0,519.0,503.0
517.0,515.0,517.0,517.0,510.0
511.0,512.0,517.0,511.0,521.0
514.0,510.0,503.0,506.0,521.0
504.0,503.0,499.0,500.0,515.0
502.0,502.0,502.0,502.0,517.0
502.0,499.0,509.0,508.0,521.0
500.0,500.0,513.0,514.0,518.0
504.0,502.0,517.0,523.0,512.0
510.0,503.0,522.0,523.0,506.0
512.0,504.0,529.0,525.0,512.0
514.0,505.0,521.0,521.0,512.0
511.0,502.0,520.0,519.0,514.0
518.0,506.0,520.0,521.0,514.0
512.0,512.0,521.0,519.0,512.0
520.0,506.0,518.0,514.0,509.0
529.0,517.0,522.0,520.0,505.0
534.0,519.0,521.0,519.0,499.0
525.0,516.0,512.0,514.0,501.0
514.0,509.0,506.0,508.0,507.0
509.0,506.0,502.0,503.0,513.0
503.0,501.0,501.0,499.0,523.0
499.0,500.0,500.0,503.0,529.0
510.0,497.0,505.0,507.0,520.0
511.0,502.0,514.0,514.0,514.0
516.0,505.0,522.0,521.0,509.0
514.0,505.0,523.0,525.0,516.0
519.0,506.0,524.0,526.0,513.0
511.0,505.0,522.0,519.0,518.0
511.0,503.0,522.0,519.0,516.0
519.0,503.0,518.0,515.0,513.0
519.0,508.0,519.0,515.0,507.0
522.0,512.0,522.0,519.0,504.0
526.0,514.0,520.0,519.0,504.0
524.0,516.0,520.0,516.0,512.0
524.0,514.0,510.0,508.0,512.0
515.0,507.0,504.0,505.0,512.0
512.0,504.0,502.0,505.0,514.0
505.0,503.0,500.0,499.0,520.0
502.0,497.0,502.0,502.0,527.0
507.0,501.0,512.0,509.0,526.0
513.0,505.0,519.0,518.0,517.0
517.0,505.0,521.0,519.0,516.0
516.0,504.0,520.0,524.0,516.0
515.0,504.0,521.0,521.0,507.0
508.0,502.0,523.0,519.0,506.0
511.0,505.0,522.0,519.0,509.0
508.0,510.0,521.0,517.0,512.0
509.0,508.0,520.0,513.0,513.0
524.0,514.0,522.0,514.0,511.0
522.0,518.0,520.0,515.0,512.0
518.0,511.0,511.0,508.0,516.0
513.0,512.0,506.0,506.0,507.0
510.0,506.0,503.0,504.0,505.0
509.0,503.0,499.0,498.0,507.0
503.0,501.0,501.0,504.0,503.0
499.0,498.0,499.0,506.0,511.0
506.0,501.0,508.0,506.0,532.0
513.0,503.0,516.0,518.0,523.0
523.0,507.0,520.0,520.0,506.0
521.0,505.0,520.0,521.0,505.0
516.0,502.0,518.0,520.0,516.0
511.0,502.0,519.0,515.0,521.0
519.0,508.0,519.0,520.0,515.0
519.0,507.0,518.0,518.0,513.0
521.0,512.0,520.0,516.0,510.0
524.0,514.0,520.0,518.0,508.0
524.0,518.0,520.0,519.0,504.0
522.0,517.0,514.0,514.0,507.0
518.0,511.0,507.0,506.0,517.0
513.0,507.0,503.0,503.0,518.0
500.0,500.0,498.0,503.0,525.0
499.0,500.0,502.0,504.0,523.0
502.0,502.0,508.0,509.0,521.0
507.0,503.0,514.0,521.0,510.0
512.0,504.0,520.0,524.0,509.0
514.0,507.0,526.0,525.0,513.0
513.0,505.0,524.0,524.0,513.0
512.0,502.0,521.0,520.0,519.0
511.0,504.0,518.0,519.0,520.0
511.0,506.0,525.0,519.0,519.0
519.0,509.0,517.0,517.0,506.0
521.0,516.0,522.0,521.0,505.0
525.0,519.0,521.0,520.0,504.0
519.0,516.0,518.0,519.0,507.0
516.0,512.0,511.0,512.0,514.0
508.0,506.0,506.0,507.0,513.0
504.0,505.0,501.0,501.0,516.0
500.0,500.0,502.0,501.0,518.0
499.0,499.0,501.0,504.0,518.0
506.0,502.0,508.0,508.0,519.0
518.0,504.0,518.0,520.0,515.0
526.0,505.0,522.0,521.0,516.0
525.0,505.0,523.0,524.0,515.0
524.0,505.0,523.0,522.0,515.0
515.0,508.0,522.0,524.0,514.0
517.0,505.0,522.0,519.0,511.0
516.0,512.0,521.0,519.0,510.0
514.0,509.0,519.0,519.0,514.0
521.0,516.0,520.0,519.0,512.0
522.0,517.0,519.0,518.0,511.0
521.0,516.0,515.0,517.0,513.0
518.0,512.0,512.0,510.0,513.0
518.0,507.0,503.0,505.0,512.0
513.0,503.0,502.0,501.0,511.0
502.0,500.0,504.0,503.0,509.0
502.0,501.0,504.0,510.0,506.0
504.0,501.0,516.0,515.0,511.0
505.0,503.0,513.0,521.0,511.0
518.0,508.0,523.0,524.0,503.0
518.0,507.0,524.0,524.0,504.0
515.0,503.0,520.0,519.0,511.0
510.0,504.0,518.0,515.0,519.0
515.0,505.0,518.0,515.0,517.0
514.0,508.0,518.0,519.0,513.0
518.0,511.0,524.0,517.0,508.0
521.0,515.0,516.0,515.0,512.0
520.0,516.0,516.0,514.0,513.0
519.0,509.0,511.0,515.0,514.0
510.0,510.0,509.0,507.0,515.0
505.0,507.0,502.0,502.0,516.0
496.0,498.0,494.0,499.0,522.0
496.0,499.0,498.0,501.0,511.0
505.0,503.0,505.0,510.0,510.0
518.0,503.0,513.0,518.0,506.0
516.0,505.0,521.0,523.0,514.0
518.0,507.0,520.0,525.0,513.0
517.0,505.0,525.0,521.0,517.0
509.0,506.0,522.0,520.0,521.0
510.0,505.0,524.0,518.0,521.0
516.0,507.0,520.0,518.0,518.0
514.0,510.0,520.0,516.0,514.0
516.0,512.0,515.0,519.0,504.0
520.0,518.0,522.0,520.0,500.0
518.0,515.0,517.0,515.0,510.0
517.0,514.0,514.0,511.0,506.0
515.0,509.0,508.0,507.0,511.0
508.0,506.0,503.0,502.0,515.0
509.0,504.0,499.0,500.0,514.0
503.0,501.0,501.0,504.0,507.0
504.0,503.0,508.0,515.0,517.0
511.0,506.0,515.0,521.0,516.0
515.0,504.0,520.0,521.0,522.0
518.0,503.0,525.0,525.0,519.0
513.0,507.0,527.0,523.0,517.0
512.0,503.0,521.0,518.0,516.0
514.0,505.0,516.0,518.0,512.0
518.0,511.0,521.0,519.0,507.0
519.0,513.0,520.0,517.0,512.0
521.0,513.0,520.0,519.0,507.0
528.0,519.0,521.0,518.0,506.0
523.0,516.0,515.0,515.0,504.0
514.0,512.0,513.0,511.0,505.0
510.0,508.0,505.0,503.0,510.0
504.0,502.0,501.0,502.0,512.0
503.0,505.0,501.0,507.0,517.0
503.0,499.0,504.0,507.0,516.0
506.0,501.0,513.0,514.0,510.0
511.0,508.0,520.0,527.0,510.0
514.0,510.0,521.0,524.0,511.0
516.0,507.0,526.0,525.0,512.0
513.0,503.0,522.0,522.0,524.0
512.0,509.0,522.0,518.0,529.0
520.0,506.0,520.0,518.0,525.0
517.0,506.0,519.0,514.0,522.0
521.0,513.0,520.0,516.0,510.0
524.0,517.0,522.0,520.0,503.0
527.0,516.0,520.0,517.0,498.0
521.0,515.0,513.0,515.0,505.0
511.0,512.0,510.0,508.0,512.0
502.0,509.0,503.0,505.0,508.0
499.0,500.0,499.0,505.0,515.0
505.0,500.0,502.0,507.0,517.0
502.0,503.0,509.0,509.0,518.0
505.0,505.0,516.0,517.0,510.0
514.0,505.0,521.0,523.0,507.0
511.0,508.0,524.0,523.0,507.0
511.0,510.0,524.0,525.0,512.0
510.0,501.0,519.0,516.0,516.0
511.0,504.0,520.0,515.0,513.0
517.0,506.0,523.0,516.0,514.0
517.0,510.0,520.0,516.0,513.0
515.0,509.0,517.0,515.0,517.0
520.0,514.0,521.0,516.0,509.0
518.0,518.0,518.0,514.0,511.0
513.0,516.0,511.0,510.0,506.0
510.0,510.0,506.0,506.0,507.0
503.0,504.0,503.0,501.0,506.0
497.0,501.0,500.0,500.0,511.0
495.0,498.0,505.0,504.0,513.0
500.0,500.0,507.0,509.0,515.0
508.0,504.0,517.0,518.0,512.0
511.0,503.0,523.0,524.0,507.0
514.0,504.0,526.0,520.0,509.0
527.0,506.0,523.0,526.0,507.0
526.0,500.0,522.0,516.0,510.0
516.0,504.0,522.0,517.0,515.0
511.0,508.0,524.0,520.0,516.0
512.0,512.0,521.0,519.0,509.0
520.0,514.0,526.0,519.0,507.0
520.0,517.0,520.0,523.0,508.0
521.0,516.0,516.0,514.0,504.0
521.0,513.0,510.0,511.0,506.0
516.0,508.0,507.0,505.0,507.0
506.0,504.0,499.0,502.0,516.0
499.0,501.0,503.0,504.0,519.0
497.0,500.0,507.0,511.0,519.0
504.0,501.0,511.0,514.0,522.0
512.0,504.0,522.0,520.0,509.0
516.0,508.0,522.0,523.0,502.0
515.0,506.0,526.0,527.0,508.0
515.0,504.0,523.0,521.0,512.0
511.0,504.0,526.0,519.0,519.0
510.0,506.0,524.0,518.0,511.0
515.0,511.0,523.0,518.0,507.0
523.0,511.0,519.0,518.0,508.0
523.0,516.0,523.0,521.0,512.0
520.0,517.0,518.0,516.0,510.0
516.0,514.0,515.0,511.0,512.0
510.0,509.0,509.0,508.0,516.0
504.0,504.0,502.0,504.0,518.0
498.0,500.0,503.0,503.0,523.0
499.0,501.0,501.0,504.0,524.0
508.0,501.0,507.0,514.0,523.0
512.0,505.0,517.0,520.0,519.0
514.0,503.0,519.0,521.0,514.0
520.0,506.0,522.0,526.0,513.0
514.0,505.0,525.0,524.0,511.0
506.0,502.0,523.0,523.0,517.0
506.0,506.0,520.0,518.0,514.0
517.0,505.0,524.0,517.0,510.0
520.0,508.0,523.0,518.0,515.0
528.0,514.0,522.0,518.0,507.0
524.0,516.0,524.0,522.0,508.0
522.0,516.0,520.0,516.0,512.0
519.0,513.0,513.0,512.0,511.0
512.0,510.0,505.0,509.0,514.0
506.0,507.0,503.0,503.0,515.0
502.0,499.0,500.0,507.0,515.0
494.0,497.0,503.0,510.0,516.0
498.0,498.0,508.0,513.0,510.0
501.0,500.0,515.0,521.0,509.0
504.0,502.0,519.0,521.0,503.0
518.0,505.0,525.0,524.0,504.0
522.0,504.0,523.0,523.0,509.0
509.0,500.0,519.0,517.0,514.0
511.0,501.0,520.0,515.0,511.0
513.0,504.0,518.0,515.0,513.0
517.0,512.0,523.0,516.0,512.0
522.0,515.0,522.0,519.0,508.0
521.0,520.0,521.0,516.0,508.0
521.0,514.0,513.0,511.0,508.0
514.0,512.0,511.0,508.0,509.0
510.0,507.0,504.0,509.0,512.0
507.0,508.0,502.0,503.0,513.0
501.0,502.0,501.0,504.0,519.0
502.0,501.0,505.0,509.0,521.0
504.0,503.0,513.0,514.0,519.0
513.0,508.0,518.0,523.0,516.0
514.0,504.0,523.0,522.0,517.0
519.0,508.0,526.0,525.0,513.0
516.0,506.0,522.0,524.0,506.0
516.0,507.0,520.0,519.0,511.0
517.0,506.0,524.0,517.0,513.0
514.0,508.0,520.0,518.0,511.0
520.0,512.0,521.0,517.0,506.0
529.0,515.0,521.0,520.0,505.0
525.0,517.0,519.0,515.0,506.0
519.0,515.0,513.0,511.0,509.0
513.0,508.0,507.0,510.0,512.0
508.0,505.0,503.0,504.0,515.0
500.0,501.0,497.0,502.0,513.0
503.0,501.0,501.0,504.0,517.0
511.0,502.0,507.0,509.0,517.0
511.0,502.0,514.0,518.0,520.0
516.0,509.0,523.0,525.0,515.0
519.0,509.0,526.0,530.0,514.0
520.0,507.0,524.0,523.0,512.0
515.0,502.0,519.0,517.0,517.0
515.0,504.0,519.0,515.0,518.0
518.0,505.0,519.0,519.0,513.0
515.0,507.0,518.0,514.0,507.0
519.0,513.0,524.0,519.0,514.0
526.0,515.0,523.0,517.0,513.0
524.0,515.0,516.0,517.0,503.0
517.0,514.0,511.0,514.0,501.0
508.0,508.0,507.0,507.0,503.0
505.0,506.0,502.0,507.0,504.0
499.0,501.0,502.0,503.0,510.0
499.0,502.0,502.0,506.0,518.0
507.0,503.0,511.0,512.0,513.0
512.0,504.0,518.0,527.0,508.0
519.0,504.0,521.0,527.0,506.0
518.0,503.0,524.0,523.0,510.0
519.0,504.0,522.0,526.0,521.0
514.0,505.0,520.0,519.0,518.0
510.0,506.0,521.0,517.0,521.0
516.0,508.0,522.0,520.0,516.0
519.0,510.0,513.0,515.0,517.0
523.0,514.0,524.0,520.0,507.0
525.0,516.0,518.0,515.0,505.0
522.0,517.0,515.0,513.0,509.0
514.0,511.0,508.0,509.0,511.0
511.0,508.0,502.0,504.0,506.0
503.0,502.0,498.0,499.0,515.0
497.0,500.0,499.0,504.0,521.0
497.0,500.0,508.0,505.0,542.0
501.0,501.0,508.0,510.0,536.0
509.0,504.0,517.0,519.0,520.0
518.0,507.0,524.0,525.0,506.0
521.0,507.0,521.0,526.0,507.0
513.0,501.0,522.0,518.0,516.0
513.0,502.0,521.0,515.0,522.0
512.0,504.0,519.0,517.0,515.0
511.0,505.0,515.0,516.0,512.0
512.0,511.0,520.0,522.0,508.0
517.0,512.0,517.0,514.0,503.0
519.0,517.0,519.0,518.0,504.0
523.0,516.0,513.0,518.0,505.0
520.0,509.0,505.0,510.0,510.0
510.0,500.0,503.0,504.0,514.0
499.0,499.0,499.0,502.0,527.0
499.0,499.0,502.0,504.0,523.0
503.0,502.0,510.0,512.0,516.0
508.0,503.0,516.0,517.0,510.0
516.0,506.0,520.0,521.0,509.0
528.0,507.0,529.0,526.0,508.0
527.0,507.0,527.0,528.0,503.0
517.0,505.0,520.0,523.0,506.0
515.0,508.0,520.0,521.0,510.0
517.0,503.0,518.0,516.0,509.0
523.0,509.0,514.0,517.0,508.0
525.0,515.0,522.0,522.0,506.0
523.0,516.0,522.0,519.0,509.0
517.0,519.0,519.0,519.0,510.0
519.0,514.0,509.0,511.0,518.0
512.0,508.0,505.0,508.0,519.0
501.0,505.0,503.0,505.0,521.0
497.0,498.0,501.0,499.0,518.0
503.0,499.0,504.0,506.0,514.0
509.0,502.0,512.0,513.0,514.0
511.0,504.0,519.0,521.0,509.0
523.0,506.0,522.0,524.0,504.0
520.0,510.0,528.0,526.0,513.0
518.0,504.0,522.0,526.0,518.0
517.0,505.0,519.0,523.0,516.0
515.0,503.0,518.0,517.0,520.0
518.0,510.0,523.0,517.0,516.0
516.0,510.0,522.0,519.0,508.0
522.0,508.0,519.0,518.0,506.0
523.0,514.0,522.0,521.0,508.0
520.0,512.0,514.0,515.0,511.0
513.0,512.0,507.0,509.0,513.0
506.0,506.0,505.0,502.0,521.0
505.0,502.0,498.0,498.0,520.0
503.0,499.0,501.0,505.0,519.0
508.0,501.0,505.0,508.0,518.0
509.0,502.0,511.0,514.0,521.0
514.0,504.0,516.0,520.0,521.0
517.0,503.0,521.0,522.0,523.0
523.0,504.0,522.0,522.0,521.0
519.0,502.0,522.0,519.0,518.0
513.0,505.0,522.0,521.0,514.0
515.0,510.0,518.0,517.0,503.0
516.0,507.0,520.0,514.0,506.0
515.0,510.0,520.0,518.0,507.0
519.0,518.0,520.0,522.0,503.0
520.0,515.0,519.0,518.0,506.0
515.0,516.0,509.0,512.0,506.0
510.0,508.0,505.0,505.0,515.0
511.0,503.0,498.0,499.0,517.0
500.0,500.0,498.0,502.0,521.0
503.0,501.0,501.0,503.0,529.0
501.0,499.0,505.0,511.0,520.0
508.0,503.0,511.0,516.0,509.0
509.0,504.0,519.0,522.0,505.0
515.0,503.0,522.0,524.0,502.0
520.0,505.0,522.0,523.0,523.0
516.0,505.0,519.0,517.0,535.0
514.0,503.0,522.0,515.0,533.0
509.0,505.0,519.0,516.0,524.0
516.0,507.0,519.0,517.0,512.0
522.0,512.0,523.0,518.0,511.0
520.0,516.0,520.0,521.0,511.0
516.0,517.0,519.0,516.0,512.0
513.0,514.0,509.0,509.0,511.0
505.0,508.0,504.0,507.0,511.0
504.0,505.0,500.0,504.0,510.0
501.0,499.0,498.0,503.0,515.0
502.0,500.0,502.0,508.0,525.0
508.0,499.0,506.0,511.0,533.0
514.0,503.0,515.0,522.0,525.0
514.0,503.0,519.0,522.0,519.0
524.0,507.0,521.0,524.0,506.0
528.0,503.0,522.0,524.0,506.0
518.0,504.0,525.0,521.0,514.0
514.0,504.0,520.0,520.0,509.0
519.0,507.0,519.0,517.0,508.0
522.0,511.0,519.0,521.0,508.0
520.0,513.0,521.0,519.0,507.0
526.0,515.0,522.0,517.0,507.0
524.0,516.0,514.0,519.0,505.0
523.0,510.0,507.0,509.0,507.0
513.0,506.0,505.0,505.0,514.0
506.0,501.0,501.0,501.0,524.0
501.0,500.0,500.0,505.0,522.0
502.0,501.0,504.0,508.0,523.0
506.0,502.0,513.0,516.0,518.0
513.0,507.0,517.0,521.0,518.0
517.0,507.0,523.0,524.0,512.0
511.0,506.0,522.0,520.0,507.0
509.0,503.0,521.0,521.0,513.0
505.0,502.0,520.0,522.0,511.0
510.0,506.0,518.0,519.0,511.0
513.0,509.0,520.0,519.0,512.0
515.0,517.0,521.0,521.0,514.0
536.0,517.0,521.0,520.0,511.0
531.0,517.0,520.0,517.0,510.0
524.0,516.0,514.0,518.0,511.0
518.0,509.0,506.0,509.0,514.0
510.0,506.0,502.0,503.0,515.0
502.0,499.0,498.0,504.0,517.0
501.0,496.0,498.0,504.0,520.0
505.0,500.0,505.0,511.0,515.0
513.0,501.0,514.0,519.0,516.0
513.0,507.0,519.0,526.0,513.0
515.0,511.0,526.0,528.0,514.0
519.0,505.0,523.0,523.0,514.0
518.0,504.0,521.0,521.0,516.0
517.0,505.0,520.0,516.0,518.0
519.0,508.0,520.0,516.0,521.0
520.0,506.0,517.0,514.0,517.0
525.0,513.0,520.0,515.0,513.0
525.0,516.0,519.0,520.0,508.0
511.0,513.0,511.0,511.0,512.0
509.0,512.0,511.0,508.0,513.0
502.0,509.0,506.0,508.0,517.0
502.0,503.0,499.0,500.0,521.0
500.0,498.0,498.0,505.0,515.0
499.0,499.0,502.0,507.0,514.0
508.0,502.0,511.0,515.0,510.0
506.0,503.0,512.0,517.0,517.0
507.0,503.0,519.0,516.0,528.0
510.0,502.0,525.0,522.0,520.0
512.0,502.0,518.0,520.0,516.0
512.0,506.0,520.0,519.0,520.0
517.0,506.0,523.0,517.0,516.0
520.0,510.0,521.0,519.0,507.0
516.0,509.0,518.0,515.0,512.0
523.0,516.0,518.0,517.0,508.0
521.0,514.0,517.0,517.0,518.0
525.0,515.0,514.0,513.0,511.0
519.0,514.0,512.0,514.0,509.0
510.0,508.0,505.0,507.0,514.0
505.0,502.0,504.0,502.0,518.0
500.0,500.0,504.0,506.0,517.0
512.0,502.0,510.0,510.0,517.0
514.0,504.0,514.0,516.0,515.0
515.0,505.0,520.0,528.0,524.0
518.0,511.0,524.0,525.0,526.0
515.0,507.0,524.0,521.0,526.0
517.0,505.0,522.0,520.0,519.0
516.0,502.0,518.0,514.0,522.0
519.0,503.0,519.0,519.0,518.0
515.0,507.0,520.0,518.0,524.0
518.0,517.0,521.0,518.0,514.0
527.0,520.0,525.0,521.0,508.0
529.0,521.0,520.0,515.0,509.0
526.0,519.0,512.0,512.0,508.0
510.0,508.0,506.0,505.0,518.0
509.0,507.0,504.0,504.0,513.0
504.0,506.0,502.0,503.0,511.0
501.0,504.0,504.0,504.0,514.0
496.0,505.0,513.0,511.0,507.0
501.0,501.0,518.0,518.0,500.0
509.0,503.0,517.0,524.0,505.0
513.0,506.0,530.0,526.0,507.0
518.0,505.0,524.0,522.0,515.0
521.0,505.0,522.0,520.0,514.0
523.0,504.0,521.0,522.0,503.0
515.0,507.0,521.0,517.0,501.0
518.0,508.0,519.0,514.0,515.0
521.0,510.0,522.0,515.0,516.0
526.0,517.0,522.0,516.0,520.0
531.0,517.0,517.0,512.0,527.0
521.0,515.0,514.0,509.0,533.0
515.0,507.0,504.0,505.0,535.0
504.0,507.0,502.0,508.0,527.0
503.0,502.0,503.0,512.0,525.0
497.0,501.0,504.0,510.0,520.0
496.0,501.0,515.0,513.0,512.0
502.0,506.0,519.0,516.0,500.0
509.0,507.0,523.0,519.0,499.0
514.0,505.0,530.0,522.0,504.0
523.0,502.0,522.0,518.0,513.0
523.0,501.0,519.0,517.0,506.0
526.0,505.0,519.0,519.0,512.0
527.0,509.0,519.0,513.0,516.0
522.0,510.0,522.0,513.0,510.0
520.0,514.0,522.0,519.0,520.0
514.0,516.0,521.0,514.0,532.0
511.0,511.0,513.0,516.0,517.0
506.0,513.0,510.0,510.0,513.0
502.0,505.0,505.0,509.0,515.0
497.0,500.0,499.0,503.0,516.0
504.0,497.0,501.0,503.0,514.0
499.0,497.0,505.0,505.0,518.0
512.0,500.0,515.0,512.0,515.0
519.0,504.0,518.0,519.0,509.0
529.0,506.0,524.0,522.0,506.0
520.0,506.0,522.0,526.0,510.0
511.0,503.0,518.0,520.0,508.0
516.0,500.0,521.0,519.0,503.0
515.0,507.0,521.0,518.0,507.0
522.0,508.0,522.0,519.0,507.0
525.0,515.0,524.0,521.0,504.0
527.0,514.0,518.0,519.0,502.0
529.0,517.0,517.0,514.0,498.0
521.0,513.0,512.0,506.0,508.0
515.0,509.0,508.0,509.0,513.0
508.0,506.0,509.0,506.0,518.0
503.0,502.0,500.0,501.0,529.0
494.0,501.0,502.0,503.0,528.0
498.0,502.0,510.0,514.0,522.0
504.0,505.0,522.0,525.0,503.0
514.0,506.0,523.0,526.0,507.0
517.0,509.0,525.0,526.0,505.0
514.0,504.0,524.0,529.0,501.0
511.0,504.0,522.0,522.0,503.0
515.0,507.0,521.0,524.0,504.0
518.0,508.0,524.0,519.0,509.0
520.0,508.0,522.0,518.0,509.0
521.0,513.0,523.0,521.0,508.0
527.0,518.0,524.0,525.0,505.0
522.0,517.0,519.0,520.0,508.0
519.0,512.0,512.0,512.0,509.0
514.0,510.0,506.0,509.0,509.0
513.0,505.0,507.0,504.0,518.0
508.0,504.0,503.0,502.0,529.0
510.0,501.0,500.0,505.0,534.0
511.0,503.0,511.0,514.0,539.0
514.0,504.0,519.0,518.0,517.0
515.0,503.0,522.0,523.0,516.0
516.0,503.0,524.0,524.0,514.0
506.0,503.0,525.0,525.0,515.0
508.0,496.0,521.0,524.0,512.0
504.0,501.0,514.0,516.0,509.0
516.0,508.0,521.0,523.0,505.0
519.0,512.0,523.0,520.0,499.0
522.0,517.0,521.0,522.0,523.0
524.0,521.0,521.0,521.0,529.0
521.0,517.0,517.0,516.0,533.0
519.0,514.0,509.0,507.0,513.0
514.0,503.0,503.0,504.0,506.0
499.0,498.0,497.0,500.0,509.0
506.0,503.0,499.0,504.0,507.0
500.0,498.0,503.0,505.0,515.0
508.0,502.0,512.0,512.0,518.0
509.0,510.0,523.0,522.0,512.0
510.0,503.0,523.0,521.0,510.0
508.0,502.0,523.0,522.0,505.0
508.0,495.0,516.0,518.0,499.0
512.0,501.0,517.0,514.0,495.0
512.0,503.0,518.0,518.0,508.0
533.0,513.0,521.0,516.0,516.0
532.0,517.0,520.0,514.0,518.0
537.0,517.0,520.0,514.0,519.0
536.0,523.0,519.0,516.0,520.0
537.0,519.0,514.0,514.0,522.0
528.0,509.0,507.0,512.0,521.0
506.0,501.0,504.0,508.0,515.0
498.0,498.0,499.0,509.0,477.0
498.0,499.0,501.0,511.0,485.0
502.0,499.0,508.0,513.0,493.0
506.0,505.0,518.0,519.0,498.0
507.0,510.0,521.0,521.0,528.0
522.0,511.0,527.0,523.0,524.0
531.0,512.0,527.0,521.0,536.0
521.0,507.0,524.0,515.0,538.0
513.0,510.0,522.0,520.0,536.0
505.0,504.0,519.0,513.0,524.0
495.0,503.0,518.0,515.0,501.0
486.0,504.0,519.0,515.0,498.0
494.0,510.0,518.0,513.0,506.0
516.0,512.0,516.0,510.0,491.0
515.0,513.0,514.0,510.0,507.0
515.0,509.0,505.0,508.0,533.0
516.0,504.0,502.0,501.0,531.0
503.0,498.0,498.0,504.0,529.0
512.0,501.0,507.0,509.0,497.0
530.0,503.0,511.0,523.0,449.0
528.0,507.0,520.0,524.0,480.0
522.0,506.0,523.0,525.0,481.0
518.0,503.0,522.0,519.0,511.0
517.0,507.0,520.0,521.0,513.0
525.0,507.0,524.0,522.0,509.0
527.0,505.0,521.0,519.0,497.0
529.0,511.0,523.0,524.0,485.0
531.0,513.0,521.0,524.0,483.0
530.0,516.0,525.0,529.0,484.0
524.0,517.0,522.0,530.0,508.0
515.0,515.0,516.0,518.0,525.0
511.0,516.0,511.0,511.0,548.0
510.0,513.0,511.0,507.0,541.0
504.0,507.0,502.0,503.0,535.0
506.0,506.0,505.0,505.0,551.0
509.0,505.0,513.0,512.0,558.0
522.0,500.0,508.0,514.0,556.0
522.0,499.0,513.0,524.0,521.0
520.0,501.0,520.0,529.0,498.0
508.0,503.0,523.0,529.0,488.0
510.0,501.0,524.0,523.0,461.0
508.0,500.0,520.0,519.0,471.0
511.0,506.0,521.0,513.0,503.0
515.0,507.0,519.0,515.0,495.0
518.0,512.0,523.0,518.0,485.0
525.0,514.0,519.0,521.0,481.0
531.0,512.0,515.0,513.0,492.0
531.0,513.0,511.0,507.0,505.0
526.0,508.0,502.0,501.0,512.0
524.0,505.0,501.0,502.0,508.0
507.0,499.0,496.0,501.0,512.0
493.0,500.0,503.0,507.0,508.0
496.0,503.0,513.0,520.0,496.0
513.0,506.0,521.0,529.0,501.0
517.0,504.0,522.0,527.0,513.0
512.0,499.0,520.0,524.0,520.0
515.0,500.0,522.0,520.0,525.0
522.0,502.0,519.0,515.0,515.0
517.0,510.0,524.0,518.0,519.0
515.0,512.0,527.0,518.0,515.0
512.0,513.0,522.0,513.0,511.0
510.0,516.0,521.0,517.0,521.0
522.0,517.0,518.0,504.0,519.0
513.0,510.0,514.0,509.0,528.0
511.0,510.0,512.0,513.0,537.0
510.0,506.0,506.0,505.0,544.0
499.0,502.0,501.0,498.0,554.0
495.0,497.0,497.0,498.0,522.0
490.0,494.0,501.0,507.0,482.0
504.0,498.0,508.0,513.0,489.0
511.0,506.0,520.0,520.0,519.0
495.0,507.0,525.0,518.0,530.0
492.0,508.0,530.0,526.0,520.0
499.0,504.0,528.0,530.0,531.0
501.0,499.0,518.0,523.0,490.0
513.0,502.0,516.0,522.0,500.0
534.0,510.0,521.0,525.0,487.0
545.0,513.0,522.0,526.0,526.0
530.0,517.0,524.0,518.0,589.0
530.0,526.0,532.0,518.0,569.0
523.0,526.0,525.0,514.0,539.0
505.0,526.0,521.0,509.0,527.0
530.0,528.0,524.0,520.0,504.0
529.0,520.0,510.0,510.0,513.0
513.0,501.0,501.0,497.0,526.0
496.0,492.0,501.0,503.0,450.0
499.0,493.0,504.0,512.0,451.0
511.0,500.0,524.0,514.0,485.0
503.0,505.0,525.0,520.0,546.0
516.0,509.0,528.0,529.0,538.0
551.0,507.0,527.0,525.0,515.0
559.0,508.0,522.0,521.0,533.0
513.0,501.0,517.0,517.0,557.0
512.0,510.0,522.0,527.0,517.0
514.0,500.0,513.0,511.0,510.0
517.0,503.0,513.0,511.0,483.0
516.0,512.0,518.0,506.0,483.0
530.0,515.0,515.0,506.0,505.0
503.0,510.0,511.0,509.0,499.0
490.0,507.0,511.0,507.0,531.0
491.0,499.0,501.0,493.0,581.0
498.0,501.0,504.0,504.0,518.0
513.0,503.0,510.0,513.0,511.0
529.0,504.0,515.0,524.0,513.0
543.0,504.0,517.0,520.0,536.0
514.0,498.0,518.0,514.0,536.0
500.0,498.0,518.0,518.0,495.0
508.0,501.0,518.0,516.0,492.0
518.0,506.0,525.0,528.0,533.0
528.0,513.0,527.0,535.0,580.0
524.0,515.0,525.0,524.0,541.0
508.0,516.0,522.0,519.0,496.0
532.0,524.0,528.0,519.0,508.0
507.0,508.0,514.0,504.0,495.0
485.0,502.0,507.0,505.0,487.0
492.0,500.0,503.0,510.0,479.0
483.0,488.0,490.0,494.0,503.0
498.0,485.0,488.0,494.0,470.0
481.0,484.0,493.0,488.0,531.0
520.0,496.0,505.0,505.0,537.0
540.0,508.0,518.0,511.0,548.0
542.0,517.0,530.0,531.0,530.0
525.0,512.0,531.0,539.0,527.0
504.0,505.0,526.0,530.0,536.0
502.0,505.0,520.0,531.0,544.0
512.0,512.0,528.0,530.0,551.0
518.0,512.0,521.0,511.0,566.0
496.0,505.0,517.0,504.0,543.0
465.0,508.0,518.0,509.0,460.0
496.0,520.0,533.0,529.0,425.0
522.0,519.0,523.0,527.0,443.0
509.0,518.0,513.0,509.0,465.0
484.0,502.0,501.0,500.0,486.0
469.0,500.0,502.0,507.0,503.0
428.0,493.0,498.0,511.0,509.0
400.0,486.0,505.0,519.0,493.0
417.0,491.0,512.0,533.0,572.0
471.0,496.0,513.0,530.0,576.0
518.0,507.0,520.0,515.0,587.0
582.0,506.0,524.0,523.0,565.0
556.0,502.0,519.0,518.0,549.0
497.0,493.0,517.0,519.0,509.0
468.0,491.0,514.0,522.0,483.0
477.0,500.0,517.0,502.0,509.0
510.0,512.0,523.0,498.0,587.0
529.0,513.0,521.0,512.0,579.0
590.0,524.0,523.0,517.0,440.0
549.0,524.0,524.0,533.0,391.0
420.0,499.0,513.0,523.0,389.0
360.0,492.0,503.0,517.0,481.0
420.0,501.0,508.0,508.0,625.0
417.0,504.0,515.0,503.0,678.0
324.0,491.0,512.0,511.0,720.0
321.0,479.0,509.0,541.0,651.0
522.0,498.0,515.0,575.0,444.0
634.0,508.0,521.0,553.0,300.0
516.0,488.0,509.0,516.0,328.0
565.0,513.0,528.0,506.0,474.0
621.0,524.0,531.0,496.0,513.0
577.0,514.0,520.0,498.0,570.0
580.0,509.0,513.0,491.0,638.0
556.0,514.0,523.0,517.0,592.0
528.0,514.0,521.0,522.0,502.0
508.0,505.0,517.0,524.0,349.0
509.0,496.0,501.0,499.0,475.0
452.0,495.0,497.0,491.0,599.0
435.0,505.0,508.0,506.0,632.0
381.0,492.0,508.0,518.0,662.0
374.0,496.0,506.0,506.0,662.0
373.0,490.0,510.0,547.0,460.0
458.0,484.0,506.0,527.0,532.0
518.0,477.0,505.0,526.0,372.0
525.0,487.0,509.0,495.0,408.0
413.0,490.0,515.0,490.0,485.0
353.0,489.0,518.0,510.0,554.0
380.0,498.0,521.0,518.0,546.0
326.0,487.0,513.0,510.0,544.0
384.0,493.0,516.0,517.0,511.0
526.0,525.0,530.0,523.0,491.0
611.0,537.0,531.0,513.0,537.0
665.0,534.0,526.0,519.0,452.0
641.0,516.0,504.0,505.0,414.0
625.0,508.0,494.0,485.0,524.0
605.0,512.0,496.0,480.0,541.0
597.0,514.0,503.0,489.0,577.0
592.0,509.0,507.0,493.0,638.0
600.0,519.0,522.0,525.0,533.0
633.0,532.0,534.0,534.0,458.0
633.0,534.0,539.0,539.0,537.0
572.0,513.0,528.0,519.0,629.0
416.0,483.0,515.0,512.0,599.0
418.0,487.0,506.0,508.0,533.0
472.0,504.0,521.0,559.0,444.0
502.0,509.0,524.0,589.0,475.0
453.0,493.0,509.0,531.0,364.0
518.0,521.0,529.0,512.0,354.0
629.0,543.0,536.0,488.0,440.0
634.0,533.0,523.0,478.0,551.0
559.0,517.0,514.0,502.0,542.0
460.0,500.0,508.0,505.0,529.0
306.0,465.0,491.0,500.0,454.0
250.0,453.0,486.0,491.0,480.0
335.0,457.0,488.0,494.0,480.0
403.0,474.0,496.0,495.0,535.0
493.0,494.0,510.0,504.0,574.0
653.0,528.0,531.0,515.0,522.0
719.0,538.0,537.0,532.0,434.0
632.0,515.0,524.0,523.0,505.0
511.0,505.0,519.0,529.0,479.0
486.0,509.0,525.0,524.0,581.0
523.0,520.0,531.0,519.0,634.0
537.0,526.0,527.0,515.0,527.0
514.0,523.0,527.0,513.0,493.0
552.0,518.0,518.0,505.0,484.0
542.0,519.0,515.0,501.0,530.0
509.0,502.0,499.0,490.0,530.0
507.0,494.0,493.0,495.0,524.0
502.0,499.0,501.0,498.0,593.0
552.0,509.0,502.0,495.0,647.0
555.0,509.0,514.0,502.0,596.0
600.0,508.0,512.0,486.0,555.0
595.0,504.0,518.0,537.0,490.0
543.0,496.0,514.0,524.0,486.0
505.0,510.0,522.0,529.0,415.0
460.0,517.0,537.0,538.0,480.0
470.0,507.0,524.0,543.0,608.0
514.0,497.0,510.0,531.0,536.0
499.0,491.0,500.0,497.0,532.0
592.0,529.0,531.0,505.0,425.0
630.0,534.0,534.0,524.0,423.0
547.0,510.0,510.0,493.0,523.0
518.0,515.0,508.0,492.0,570.0
526.0,512.0,511.0,509.0,503.0
480.0,490.0,500.0,506.0,459.0
500.0,494.0,500.0,502.0,462.0
412.0,482.0,500.0,495.0,567.0
304.0,465.0,500.0,505.0,601.0
360.0,486.0,521.0,549.0,600.0
463.0,494.0,523.0,558.0,525.0
485.0,501.0,522.0,546.0,479.0
489.0,501.0,515.0,506.0,467.0
510.0,517.0,526.0,512.0,587.0
515.0,512.0,525.0,510.0,707.0
523.0,488.0,504.0,511.0,454.0
587.0,513.0,515.0,502.0,368.0
517.0,525.0,529.0,526.0,472.0
516.0,526.0,527.0,506.0,497.0
591.0,525.0,517.0,503.0,451.0
553.0,516.0,505.0,498.0,487.0
499.0,503.0,504.0,500.0,486.0
474.0,488.0,491.0,477.0,543.0
531.0,487.0,493.0,478.0,546.0
627.0,510.0,509.0,506.0,495.0
585.0,514.0,521.0,519.0,491.0
509.0,510.0,518.0,514.0,571.0
536.0,504.0,515.0,505.0,597.0
536.0,516.0,522.0,516.0,601.0
592.0,535.0,533.0,526.0,635.0
512.0,517.0,527.0,524.0,568.0
431.0,496.0,521.0,525.0,533.0
392.0,495.0,517.0,518.0,535.0
460.0,500.0,515.0,513.0,427.0
549.0,511.0,517.0,507.0,422.0
586.0,518.0,522.0,513.0,486.0
542.0,511.0,514.0,511.0,569.0
415.0,483.0,496.0,503.0,602.0
454.0,493.0,498.0,514.0,471.0
622.0,525.0,513.0,523.0,479.0
566.0,506.0,498.0,487.0,687.0
531.0,502.0,512.0,534.0,565.0
472.0,505.0,519.0,521.0,370.0
503.0,526.0,542.0,543.0,374.0
517.0,523.0,533.0,508.0,498.0
537.0,514.0,527.0,508.0,473.0
507.0,494.0,507.0,487.0,498.0
484.0,486.0,503.0,492.0,518.0
527.0,497.0,507.0,503.0,531.0
523.0,501.0,509.0,503.0,519.0
543.0,517.0,524.0,533.0,496.0
595.0,535.0,531.0,539.0,463.0
563.0,530.0,536.0,547.0,441.0
497.0,515.0,517.0,529.0,486.0
446.0,502.0,503.0,510.0,551.0
396.0,488.0,499.0,508.0,540.0
360.0,476.0,493.0,468.0,596.0
413.0,482.0,496.0,484.0,489.0
524.0,501.0,506.0,496.0,553.0
660.0,537.0,531.0,521.0,596.0
675.0,533.0,531.0,515.0,650.0
597.0,526.0,535.0,520.0,609.0
484.0,505.0,525.0,525.0,547.0
473.0,506.0,521.0,522.0,530.0
517.0,507.0,519.0,525.0,584.0
651.0,523.0,528.0,546.0,394.0
616.0,514.0,515.0,505.0,440.0
495.0,491.0,501.0,482.0,503.0
443.0,513.0,523.0,513.0,484.0
526.0,525.0,532.0,521.0,437.0
498.0,510.0,516.0,530.0,414.0
499.0,496.0,499.0,515.0,432.0
446.0,474.0,492.0,489.0,498.0
419.0,484.0,497.0,491.0,538.0
444.0,505.0,512.0,511.0,548.0
618.0,531.0,532.0,546.0,409.0
555.0,499.0,513.0,523.0,487.0
472.0,496.0,507.0,493.0,616.0
463.0,507.0,522.0,506.0,593.0
498.0,502.0,517.0,501.0,543.0
521.0,506.0,519.0,515.0,486.0
513.0,506.0,522.0,505.0,514.0
507.0,509.0,522.0,527.0,501.0
492.0,517.0,527.0,542.0,471.0
535.0,526.0,526.0,532.0,543.0
572.0,520.0,520.0,501.0,650.0
556.0,510.0,514.0,503.0,697.0
516.0,507.0,513.0,515.0,684.0
460.0,479.0,489.0,503.0,537.0
431.0,478.0,489.0,488.0,365.0
506.0,493.0,503.0,531.0,297.0
533.0,511.0,513.0,513.0,479.0
468.0,512.0,523.0,505.0,470.0
421.0,508.0,527.0,508.0,467.0
430.0,489.0,516.0,500.0,594.0
433.0,482.0,504.0,495.0,504.0
418.0,477.0,509.0,508.0,501.0
467.0,497.0,516.0,514.0,518.0
576.0,539.0,533.0,520.0,550.0
656.0,546.0,535.0,504.0,482.0
640.0,530.0,530.0,514.0,431.0
614.0,531.0,526.0,519.0,501.0
610.0,533.0,522.0,517.0,528.0
642.0,520.0,511.0,512.0,505.0
574.0,503.0,500.0,501.0,496.0
487.0,492.0,494.0,494.0,493.0
467.0,497.0,499.0,500.0,544.0
541.0,504.0,506.0,511.0,508.0
540.0,505.0,511.0,516.0,492.0
505.0,497.0,513.0,517.0,459.0
472.0,493.0,515.0,515.0,507.0
481.0,501.0,514.0,507.0,534.0
518.0,495.0,507.0,503.0,532.0
534.0,507.0,514.0,512.0,534.0
511.0,504.0,517.0,520.0,516.0
457.0,502.0,516.0,513.0,532.0
422.0,506.0,520.0,512.0,504.0
422.0,508.0,526.0,529.0,517.0
485.0,519.0,522.0,523.0,481.0
555.0,534.0,529.0,519.0,520.0
591.0,528.0,520.0,516.0,535.0
621.0,514.0,504.0,501.0,558.0
608.0,510.0,500.0,508.0,585.0
497.0,495.0,497.0,511.0,458.0
538.0,505.0,509.0,512.0,470.0
582.0,518.0,523.0,519.0,563.0
606.0,507.0,516.0,515.0,535.0
557.0,501.0,515.0,499.0,544.0
490.0,495.0,510.0,503.0,485.0
466.0,494.0,519.0,523.0,419.0
496.0,501.0,518.0,519.0,472.0
516.0,507.0,521.0,502.0,580.0
500.0,518.0,533.0,522.0,521.0
448.0,517.0,532.0,525.0,553.0
381.0,502.0,522.0,510.0,624.0
420.0,492.0,502.0,498.0,630.0
538.0,514.0,508.0,516.0,667.0
563.0,510.0,496.0,492.0,424.0
510.0,494.0,495.0,494.0,477.0
539.0,502.0,504.0,505.0,498.0
572.0,511.0,510.0,522.0,525.0
505.0,486.0,500.0,512.0,474.0
515.0,493.0,511.0,506.0,502.0
533.0,501.0,520.0,521.0,455.0
520.0,504.0,520.0,524.0,471.0
522.0,495.0,516.0,529.0,482.0
505.0,503.0,516.0,522.0,481.0
530.0,509.0,518.0,515.0,500.0
539.0,525.0,528.0,508.0,508.0
525.0,513.0,517.0,491.0,524.0
545.0,524.0,525.0,513.0,516.0
517.0,524.0,525.0,518.0,546.0
531.0,522.0,524.0,518.0,524.0
530.0,516.0,513.0,506.0,515.0
519.0,511.0,512.0,519.0,484.0
485.0,503.0,502.0,513.0,547.0
471.0,493.0,503.0,511.0,535.0
530.0,497.0,514.0,518.0,539.0
511.0,503.0,510.0,517.0,516.0
571.0,515.0,522.0,520.0,470.0
582.0,526.0,532.0,519.0,515.0
557.0,534.0,541.0,527.0,555.0
461.0,503.0,524.0,521.0,541.0
434.0,481.0,505.0,503.0,517.0
486.0,477.0,500.0,489.0,534.0
473.0,490.0,508.0,505.0,491.0
609.0,522.0,522.0,519.0,485.0
608.0,525.0,527.0,520.0,474.0
569.0,523.0,524.0,512.0,500.0
530.0,524.0,525.0,514.0,493.0
483.0,509.0,511.0,510.0,456.0
477.0,502.0,502.0,506.0,524.0
502.0,507.0,509.0,505.0,490.0
511.0,503.0,510.0,506.0,516.0
509.0,502.0,514.0,519.0,515.0
508.0,516.0,526.0,532.0,506.0
492.0,509.0,525.0,542.0,492.0
467.0,503.0,519.0,534.0,499.0
505.0,509.0,524.0,533.0,541.0
530.0,504.0,519.0,506.0,625.0
466.0,482.0,508.0,501.0,511.0
448.0,486.0,510.0,503.0,490.0
435.0,495.0,513.0,515.0,512.0
456.0,512.0,525.0,508.0,569.0
509.0,521.0,528.0,527.0,523.0
505.0,511.0,514.0,503.0,479.0
538.0,523.0,520.0,513.0,480.0
523.0,513.0,511.0,508.0,501.0
450.0,501.0,503.0,503.0,527.0
485.0,496.0,503.0,503.0,525.0
549.0,499.0,499.0,505.0,514.0
603.0,516.0,512.0,514.0,505.0
546.0,513.0,521.0,519.0,514.0
507.0,513.0,529.0,526.0,552.0
506.0,499.0,520.0,522.0,519.0
509.0,495.0,515.0,521.0,541.0
507.0,499.0,514.0,510.0,530.0
540.0,511.0,514.0,508.0,503.0
584.0,516.0,518.0,508.0,509.0
624.0,521.0,526.0,515.0,513.0
548.0,514.0,521.0,528.0,506.0
531.0,505.0,519.0,525.0,475.0
541.0,515.0,518.0,513.0,464.0
458.0,497.0,509.0,497.0,508.0
425.0,491.0,498.0,497.0,535.0
430.0,498.0,500.0,499.0,611.0
434.0,504.0,507.0,508.0,555.0
550.0,515.0,513.0,512.0,465.0
572.0,510.0,514.0,513.0,477.0
533.0,505.0,516.0,530.0,421.0
512.0,512.0,524.0,525.0,525.0
506.0,500.0,514.0,502.0,547.0
575.0,498.0,510.0,503.0,538.0
578.0,509.0,518.0,516.0,509.0
582.0,511.0,521.0,520.0,517.0
517.0,509.0,514.0,519.0,522.0
515.0,507.0,522.0,533.0,495.0
519.0,515.0,521.0,535.0,528.0
515.0,512.0,512.0,496.0,600.0
521.0,510.0,511.0,505.0,512.0
495.0,509.0,510.0,516.0,488.0
456.0,511.0,508.0,517.0,506.0
454.0,510.0,510.0,509.0,532.0
466.0,501.0,505.0,503.0,507.0
511.0,507.0,512.0,509.0,532.0
512.0,496.0,512.0,514.0,536.0
483.0,491.0,511.0,516.0,482.0
538.0,501.0,516.0,522.0,497.0
536.0,508.0,522.0,521.0,503.0
526.0,502.0,518.0,527.0,483.0
500.0,496.0,515.0,516.0,476.0
498.0,506.0,519.0,512.0,506.0
489.0,506.0,514.0,506.0,528.0
520.0,512.0,516.0,505.0,480.0
545.0,525.0,523.0,510.0,465.0
552.0,521.0,515.0,509.0,573.0
534.0,517.0,514.0,525.0,650.0
501.0,505.0,507.0,533.0,506.0
499.0,507.0,506.0,521.0,411.0
513.0,510.0,508.0,502.0,506.0
521.0,510.0,515.0,493.0,543.0
542.0,518.0,519.0,516.0,471.0
524.0,510.0,519.0,522.0,486.0
520.0,500.0,515.0,515.0,514.0
506.0,495.0,510.0,518.0,502.0
540.0,509.0,519.0,519.0,473.0
552.0,516.0,526.0,529.0,489.0
525.0,511.0,528.0,524.0,521.0
539.0,514.0,523.0,515.0,535.0
534.0,517.0,518.0,502.0,527.0
531.0,514.0,519.0,515.0,498.0
564.0,515.0,519.0,510.0,522.0
526.0,505.0,508.0,501.0,507.0
486.0,505.0,508.0,508.0,470.0
458.0,491.0,497.0,501.0,515.0
476.0,491.0,499.0,506.0,528.0
459.0,487.0,500.0,507.0,571.0
477.0,496.0,506.0,516.0,554.0
499.0,509.0,517.0,545.0,511.0
493.0,506.0,516.0,519.0,569.0
582.0,516.0,521.0,512.0,538.0
605.0,515.0,520.0,506.0,519.0
547.0,504.0,513.0,502.0,530.0
516.0,506.0,518.0,516.0,496.0
498.0,504.0,516.0,510.0,473.0
532.0,513.0,519.0,507.0,478.0
563.0,519.0,525.0,515.0,496.0
579.0,525.0,529.0,530.0,459.0
548.0,517.0,519.0,516.0,499.0
478.0,507.0,520.0,508.0,560.0
499.0,511.0,511.0,501.0,609.0
521.0,509.0,508.0,512.0,506.0
497.0,502.0,507.0,521.0,401.0
466.0,504.0,510.0,530.0,430.0
447.0,489.0,506.0,510.0,543.0
458.0,492.0,507.0,499.0,545.0
497.0,490.0,511.0,505.0,549.0
480.0,498.0,517.0,506.0,554.0
514.0,510.0,521.0,523.0,531.0
523.0,516.0,527.0,523.0,525.0
483.0,508.0,524.0,523.0,497.0
530.0,503.0,514.0,513.0,481.0
546.0,510.0,519.0,516.0,542.0
538.0,505.0,515.0,509.0,499.0
555.0,517.0,521.0,512.0,505.0
493.0,512.0,519.0,522.0,556.0
485.0,510.0,515.0,516.0,590.0
515.0,519.0,511.0,509.0,517.0
545.0,512.0,503.0,501.0,480.0
561.0,503.0,498.0,496.0,503.0
527.0,510.0,513.0,520.0,504.0
503.0,507.0,520.0,530.0,490.0
415.0,481.0,507.0,525.0,528.0
429.0,483.0,504.0,524.0,549.0
514.0,507.0,520.0,530.0,520.0
562.0,514.0,524.0,520.0,464.0
527.0,500.0,514.0,489.0,522.0
495.0,503.0,520.0,518.0,485.0
491.0,498.0,515.0,514.0,514.0
560.0,514.0,520.0,522.0,502.0
561.0,523.0,528.0,520.0,496.0
551.0,523.0,525.0,524.0,496.0
518.0,521.0,522.0,515.0,547.0
498.0,512.0,517.0,514.0,628.0
537.0,513.0,512.0,516.0,537.0
551.0,504.0,500.0,505.0,359.0
523.0,497.0,506.0,510.0,465.0
472.0,492.0,501.0,501.0,503.0
470.0,496.0,508.0,509.0,515.0
485.0,504.0,514.0,519.0,528.0
546.0,511.0,522.0,521.0,536.0
556.0,512.0,521.0,512.0,608.0
561.0,508.0,524.0,511.0,581.0
499.0,498.0,516.0,516.0,466.0
519.0,505.0,519.0,523.0,427.0
523.0,510.0,522.0,529.0,477.0
553.0,524.0,532.0,529.0,516.0
516.0,517.0,526.0,526.0,520.0
486.0,513.0,517.0,514.0,532.0
473.0,510.0,515.0,505.0,494.0
456.0,517.0,512.0,518.0,464.0
534.0,518.0,512.0,527.0,460.0
547.0,513.0,507.0,527.0,638.0
535.0,510.0,510.0,519.0,629.0
514.0,490.0,495.0,478.0,508.0
528.0,498.0,511.0,508.0,402.0
511.0,501.0,515.0,505.0,519.0
529.0,506.0,519.0,515.0,513.0
531.0,505.0,519.0,513.0,539.0
536.0,507.0,515.0,519.0,564.0
510.0,505.0,517.0,511.0,523.0
499.0,518.0,528.0,527.0,481.0
508.0,524.0,532.0,528.0,501.0
551.0,517.0,521.0,514.0,480.0
532.0,509.0,517.0,512.0,492.0
497.0,513.0,515.0,516.0,586.0
515.0,511.0,511.0,511.0,560.0
549.0,504.0,498.0,491.0,520.0
522.0,494.0,495.0,498.0,421.0
427.0,494.0,499.0,509.0,417.0
441.0,492.0,498.0,504.0,494.0
454.0,485.0,505.0,532.0,493.0
510.0,491.0,511.0,530.0,509.0
500.0,503.0,520.0,531.0,495.0
499.0,503.0,517.0,499.0,557.0
485.0,499.0,517.0,517.0,533.0
566.0,513.0,519.0,516.0,495.0
575.0,515.0,528.0,529.0,537.0
538.0,515.0,526.0,521.0,561.0
477.0,500.0,508.0,497.0,522.0
445.0,505.0,513.0,497.0,535.0
482.0,520.0,522.0,513.0,568.0
579.0,530.0,524.0,527.0,507.0
610.0,530.0,526.0,535.0,436.0
540.0,504.0,501.0,505.0,500.0
502.0,503.0,501.0,517.0,468.0
514.0,495.0,496.0,489.0,551.0
509.0,498.0,503.0,499.0,497.0
486.0,504.0,513.0,512.0,506.0
454.0,493.0,512.0,514.0,518.0
448.0,496.0,516.0,519.0,534.0
491.0,502.0,518.0,519.0,544.0
511.0,513.0,523.0,525.0,548.0
536.0,515.0,523.0,514.0,532.0
604.0,517.0,521.0,519.0,475.0
568.0,513.0,522.0,521.0,468.0
570.0,519.0,525.0,532.0,479.0
494.0,505.0,519.0,530.0,507.0
433.0,490.0,507.0,499.0,551.0
453.0,505.0,514.0,506.0,509.0
497.0,511.0,507.0,504.0,545.0
559.0,518.0,508.0,508.0,549.0
538.0,507.0,505.0,504.0,520.0
455.0,492.0,499.0,509.0,545.0
435.0,497.0,510.0,524.0,506.0
489.0,495.0,517.0,510.0,545.0
532.0,512.0,518.0,504.0,630.0
511.0,506.0,519.0,523.0,523.0
433.0,496.0,521.0,521.0,472.0
476.0,505.0,522.0,525.0,461.0
536.0,511.0,520.0,518.0,538.0
619.0,525.0,523.0,511.0,516.0
624.0,519.0,517.0,509.0,470.0
564.0,517.0,518.0,519.0,388.0
534.0,512.0,513.0,527.0,423.0
568.0,520.0,519.0,527.0,481.0
543.0,518.0,518.0,511.0,511.0
537.0,519.0,512.0,499.0,549.0
548.0,515.0,507.0,514.0,482.0
579.0,517.0,510.0,513.0,557.0
531.0,505.0,507.0,509.0,595.0
497.0,503.0,513.0,508.0,578.0
478.0,501.0,513.0,510.0,505.0
484.0,509.0,521.0,522.0,506.0
496.0,506.0,523.0,535.0,432.0
538.0,508.0,519.0,527.0,423.0
565.0,503.0,514.0,506.0,522.0
535.0,502.0,515.0,496.0,587.0
483.0,501.0,516.0,504.0,564.0
475.0,501.0,517.0,513.0,512.0
503.0,518.0,523.0,520.0,493.0
513.0,518.0,516.0,520.0,486.0
528.0,517.0,515.0,514.0,455.0
521.0,504.0,503.0,509.0,476.0
526.0,501.0,495.0,501.0,541.0
514.0,497.0,493.0,494.0,540.0
527.0,498.0,499.0,497.0,499.0
522.0,498.0,503.0,512.0,527.0
509.0,499.0,511.0,507.0,567.0
477.0,497.0,509.0,497.0,592.0
507.0,505.0,519.0,517.0,536.0
487.0,503.0,517.0,526.0,438.0
489.0,504.0,520.0,525.0,474.0
485.0,509.0,521.0,521.0,512.0
455.0,499.0,509.0,512.0,511.0
543.0,509.0,513.0,506.0,499.0
629.0,528.0,519.0,509.0,518.0
621.0,531.0,527.0,516.0,540.0
502.0,526.0,525.0,517.0,537.0
438.0,523.0,527.0,532.0,484.0
444.0,516.0,521.0,524.0,567.0
455.0,497.0,500.0,501.0,555.0
498.0,493.0,493.0,501.0,507.0
529.0,498.0,494.0,508.0,489.0
550.0,495.0,499.0,509.0,482.0
529.0,495.0,511.0,508.0,503.0
471.0,499.0,518.0,524.0,495.0
460.0,496.0,520.0,518.0,504.0
482.0,499.0,515.0,506.0,563.0
508.0,495.0,514.0,525.0,458.0
562.0,512.0,526.0,542.0,443.0
562.0,513.0,521.0,521.0,505.0
526.0,515.0,522.0,509.0,555.0
515.0,516.0,518.0,514.0,541.0
516.0,520.0,526.0,530.0,562.0
513.0,517.0,521.0,521.0,478.0
506.0,509.0,514.0,507.0,443.0
581.0,517.0,505.0,501.0,474.0
490.0,505.0,500.0,500.0,480.0
484.0,505.0,505.0,507.0,499.0
475.0,497.0,507.0,502.0,543.0
546.0,510.0,513.0,519.0,523.0
529.0,503.0,512.0,509.0,525.0
523.0,498.0,513.0,508.0,520.0
512.0,500.0,515.0,521.0,516.0
527.0,502.0,512.0,520.0,524.0
561.0,507.0,513.0,513.0,581.0
512.0,505.0,521.0,528.0,549.0
517.0,510.0,519.0,513.0,567.0
525.0,510.0,523.0,518.0,520.0
504.0,512.0,522.0,512.0,518.0
486.0,508.0,518.0,510.0,472.0
490.0,508.0,514.0,521.0,456.0
449.0,509.0,514.0,515.0,498.0
431.0,503.0,503.0,501.0,509.0
457.0,503.0,500.0,498.0,516.0
539.0,510.0,507.0,509.0,504.0
557.0,511.0,514.0,513.0,489.0
584.0,507.0,512.0,512.0,488.0
559.0,512.0,524.0,517.0,553.0
524.0,513.0,529.0,525.0,622.0
506.0,505.0,526.0,530.0,590.0
516.0,492.0,508.0,513.0,500.0
532.0,497.0,511.0,517.0,448.0
469.0,500.0,514.0,504.0,495.0
413.0,486.0,511.0,506.0,512.0
450.0,497.0,511.0,504.0,523.0
542.0,514.0,518.0,518.0,509.0
588.0,524.0,524.0,523.0,495.0
550.0,523.0,515.0,522.0,487.0
560.0,516.0,504.0,517.0,466.0
518.0,507.0,501.0,510.0,498.0
515.0,497.0,499.0,498.0,462.0
519.0,503.0,504.0,500.0,512.0
531.0,511.0,512.0,497.0,552.0
533.0,509.0,515.0,506.0,522.0
505.0,508.0,522.0,522.0,516.0
470.0,499.0,520.0,528.0,502.0
492.0,499.0,517.0,517.0,498.0
548.0,505.0,517.0,518.0,514.0
583.0,517.0,525.0,517.0,550.0
574.0,518.0,525.0,517.0,554.0
547.0,500.0,511.0,507.0,474.0
472.0,501.0,513.0,511.0,469.0
524.0,522.0,524.0,523.0,475.0
528.0,515.0,516.0,510.0,500.0
533.0,508.0,510.0,504.0,509.0
506.0,506.0,504.0,506.0,497.0
472.0,498.0,499.0,500.0,550.0
480.0,495.0,500.0,501.0,554.0
506.0,501.0,503.0,505.0,525.0
521.0,512.0,515.0,518.0,483.0
505.0,514.0,526.0,534.0,506.0
511.0,512.0,528.0,531.0,519.0
539.0,511.0,525.0,529.0,508.0
535.0,503.0,517.0,516.0,522.0
513.0,496.0,512.0,511.0,533.0
508.0,507.0,520.0,513.0,478.0
510.0,513.0,520.0,521.0,491.0
502.0,509.0,519.0,514.0,524.0
511.0,511.0,526.0,520.0,536.0
499.0,516.0,523.0,522.0,513.0
495.0,506.0,510.0,510.0,514.0
530.0,509.0,502.0,501.0,496.0
521.0,504.0,501.0,497.0,522.0
510.0,495.0,499.0,502.0,550.0
528.0,501.0,500.0,503.0,553.0
473.0,496.0,505.0,514.0,517.0
481.0,501.0,515.0,516.0,535.0
482.0,499.0,521.0,519.0,524.0
528.0,501.0,519.0,525.0,432.0
526.0,504.0,518.0,528.0,466.0
506.0,501.0,514.0,512.0,540.0
501.0,501.0,516.0,507.0,553.0
467.0,497.0,512.0,514.0,530.0
534.0,508.0,515.0,523.0,521.0
579.0,530.0,529.0,520.0,487.0
526.0,520.0,529.0,518.0,477.0
507.0,515.0,517.0,518.0,488.0
511.0,514.0,509.0,505.0,529.0
506.0,507.0,507.0,512.0,532.0
555.0,515.0,507.0,520.0,490.0
546.0,511.0,506.0,511.0,509.0
498.0,500.0,505.0,501.0,520.0
470.0,498.0,512.0,508.0,538.0
464.0,503.0,525.0,518.0,544.0
547.0,515.0,526.0,527.0,538.0
532.0,516.0,527.0,518.0,527.0
515.0,507.0,522.0,532.0,494.0
503.0,498.0,513.0,507.0,512.0
516.0,500.0,509.0,501.0,510.0
535.0,504.0,510.0,501.0,491.0
533.0,508.0,509.0,506.0,497.0
531.0,515.0,520.0,523.0,530.0
527.0,517.0,520.0,521.0,512.0
522.0,513.0,518.0,513.0,495.0
519.0,514.0,513.0,505.0,511.0
514.0,514.0,510.0,507.0,501.0
508.0,499.0,500.0,497.0,523.0
482.0,496.0,499.0,503.0,519.0
491.0,496.0,505.0,506.0,495.0
499.0,500.0,511.0,516.0,492.0
521.0,505.0,515.0,516.0,497.0
525.0,511.0,520.0,519.0,541.0
532.0,506.0,520.0,523.0,527.0
516.0,504.0,521.0,517.0,519.0
517.0,505.0,519.0,515.0,519.0
525.0,508.0,519.0,508.0,535.0
537.0,510.0,519.0,514.0,510.0
521.0,513.0,522.0,520.0,492.0
505.0,516.0,526.0,520.0,485.0
515.0,518.0,523.0,520.0,493.0
511.0,521.0,521.0,526.0,499.0
500.0,513.0,517.0,513.0,512.0
503.0,512.0,504.0,497.0,548.0
512.0,506.0,504.0,496.0,553.0
494.0,501.0,505.0,503.0,568.0
484.0,494.0,502.0,510.0,550.0
496.0,499.0,509.0,521.0,507.0
533.0,507.0,518.0,515.0,480.0
530.0,505.0,523.0,528.0,471.0
530.0,502.0,520.0,521.0,486.0
524.0,509.0,519.0,516.0,516.0
524.0,508.0,524.0,517.0,522.0
521.0,512.0,520.0,521.0,533.0
524.0,507.0,518.0,513.0,513.0
535.0,514.0,525.0,521.0,521.0
513.0,516.0,526.0,519.0,525.0
518.0,520.0,522.0,519.0,504.0
515.0,513.0,516.0,515.0,496.0
504.0,512.0,508.0,507.0,501.0
492.0,507.0,506.0,506.0,511.0
497.0,499.0,501.0,503.0,513.0
522.0,501.0,503.0,502.0,513.0
525.0,500.0,509.0,510.0,517.0
493.0,497.0,513.0,523.0,519.0
492.0,502.0,519.0,524.0,534.0
511.0,504.0,522.0,518.0,527.0
501.0,504.0,518.0,519.0,517.0
507.0,504.0,519.0,513.0,507.0
502.0,505.0,521.0,516.0,521.0
529.0,512.0,526.0,511.0,543.0
515.0,509.0,521.0,515.0,546.0
530.0,516.0,524.0,524.0,486.0
530.0,516.0,520.0,519.0,492.0
539.0,514.0,517.0,518.0,458.0
547.0,512.0,512.0,515.0,471.0
531.0,504.0,504.0,504.0,508.0
500.0,502.0,500.0,500.0,539.0
491.0,495.0,497.0,497.0,503.0
505.0,494.0,502.0,504.0,509.0
506.0,499.0,514.0,516.0,546.0
516.0,506.0,515.0,509.0,532.0
510.0,503.0,520.0,520.0,525.0
511.0,506.0,523.0,522.0,503.0
500.0,502.0,517.0,511.0,519.0
501.0,503.0,518.0,514.0,519.0
513.0,506.0,522.0,516.0,522.0
509.0,507.0,519.0,519.0,508.0
515.0,514.0,521.0,518.0,502.0
522.0,512.0,521.0,518.0,499.0
512.0,516.0,520.0,517.0,497.0
515.0,515.0,517.0,521.0,501.0
519.0,513.0,509.0,507.0,507.0
502.0,507.0,506.0,505.0,512.0
489.0,500.0,503.0,503.0,519.0
480.0,497.0,501.0,507.0,525.0
498.0,501.0,508.0,505.0,523.0
521.0,502.0,515.0,518.0,524.0
532.0,508.0,520.0,524.0,531.0
522.0,505.0,521.0,522.0,532.0
508.0,506.0,521.0,522.0,534.0
496.0,504.0,523.0,517.0,524.0
515.0,508.0,521.0,520.0,526.0
574.0,517.0,527.0,519.0,488.0
530.0,513.0,521.0,522.0,493.0
523.0,516.0,521.0,514.0,519.0
516.0,517.0,519.0,517.0,522.0
520.0,515.0,520.0,513.0,509.0
518.0,513.0,512.0,515.0,471.0
504.0,508.0,510.0,513.0,509.0
495.0,502.0,504.0,504.0,531.0
490.0,506.0,501.0,501.0,530.0
499.0,497.0,502.0,501.0,506.0
522.0,497.0,507.0,507.0,500.0
526.0,503.0,516.0,515.0,507.0
521.0,506.0,521.0,521.0,511.0
519.0,507.0,528.0,522.0,512.0
517.0,502.0,519.0,519.0,515.0
522.0,501.0,517.0,516.0,512.0
523.0,505.0,518.0,521.0,510.0
524.0,514.0,521.0,516.0,505.0
522.0,515.0,526.0,519.0,500.0
519.0,524.0,527.0,523.0,496.0
514.0,521.0,530.0,523.0,506.0
506.0,514.0,518.0,515.0,504.0
514.0,511.0,513.0,511.0,504.0
509.0,509.0,505.0,509.0,510.0
508.0,507.0,502.0,504.0,513.0
508.0,503.0,500.0,499.0,510.0
512.0,498.0,505.0,506.0,517.0
511.0,501.0,511.0,511.0,524.0
512.0,505.0,515.0,513.0,519.0
524.0,504.0,519.0,520.0,518.0
520.0,502.0,514.0,521.0,514.0
514.0,505.0,519.0,517.0,519.0
523.0,505.0,519.0,517.0,517.0
513.0,504.0,520.0,514.0,517.0
527.0,512.0,519.0,514.0,512.0
524.0,518.0,521.0,518.0,506.0
522.0,516.0,520.0,519.0,502.0
519.0,514.0,521.0,520.0,504.0
514.0,509.0,514.0,518.0,511.0
514.0,508.0,509.0,503.0,508.0
509.0,508.0,504.0,497.0,510.0
502.0,500.0,502.0,502.0,514.0
500.0,498.0,501.0,500.0,519.0
502.0,497.0,505.0,507.0,524.0
511.0,504.0,514.0,518.0,515.0
512.0,504.0,518.0,521.0,515.0
516.0,505.0,524.0,527.0,512.0
511.0,503.0,521.0,525.0,510.0
511.0,502.0,515.0,514.0,521.0
520.0,503.0,515.0,515.0,519.0
518.0,509.0,520.0,517.0,517.0
518.0,510.0,520.0,513.0,517.0
515.0,510.0,521.0,514.0,513.0
517.0,519.0,521.0,516.0,505.0
518.0,517.0,516.0,513.0,501.0
516.0,511.0,512.0,511.0,501.0
509.0,505.0,506.0,505.0,507.0
505.0,503.0,501.0,502.0,505.0
501.0,499.0,501.0,503.0,516.0
499.0,499.0,506.0,505.0,518.0
508.0,503.0,513.0,513.0,517.0
515.0,507.0,516.0,517.0,517.0
517.0,506.0,521.0,521.0,513.0
520.0,508.0,521.0,523.0,514.0
515.0,503.0,520.0,523.0,517.0
513.0,508.0,521.0,521.0,514.0
519.0,508.0,518.0,515.0,514.0
522.0,509.0,519.0,520.0,506.0
520.0,512.0,521.0,523.0,503.0
520.0,518.0,523.0,521.0,498.0
526.0,517.0,529.0,524.0,497.0
517.0,515.0,517.0,516.0,501.0
515.0,511.0,509.0,504.0,510.0
509.0,508.0,507.0,506.0,514.0
499.0,505.0,502.0,507.0,513.0
501.0,500.0,504.0,507.0,516.0
503.0,499.0,505.0,509.0,517.0
510.0,501.0,513.0,511.0,516.0
513.0,507.0,520.0,524.0,519.0
514.0,507.0,526.0,525.0,518.0
513.0,506.0,520.0,525.0,517.0
513.0,508.0,520.0,519.0,517.0
518.0,505.0,519.0,517.0,513.0
517.0,506.0,519.0,519.0,515.0
523.0,510.0,521.0,520.0,509.0
528.0,514.0,521.0,519.0,505.0
528.0,517.0,523.0,520.0,502.0
530.0,517.0,520.0,519.0,500.0
517.0,513.0,518.0,515.0,501.0
512.0,508.0,507.0,510.0,507.0
507.0,506.0,505.0,508.0,517.0
505.0,500.0,502.0,501.0,517.0
502.0,504.0,502.0,503.0,519.0
506.0,502.0,510.0,512.0,517.0
515.0,504.0,515.0,520.0,513.0
514.0,505.0,517.0,522.0,512.0
518.0,507.0,522.0,523.0,513.0
508.0,506.0,524.0,522.0,516.0
511.0,505.0,519.0,517.0,516.0
519.0,505.0,516.0,515.0,514.0
522.0,507.0,519.0,517.0,514.0
525.0,514.0,521.0,516.0,505.0
527.0,513.0,520.0,518.0,502.0
533.0,521.0,520.0,518.0,501.0
526.0,515.0,516.0,514.0,499.0
520.0,514.0,513.0,512.0,501.0
507.0,507.0,505.0,503.0,511.0
499.0,499.0,498.0,498.0,515.0
498.0,499.0,500.0,504.0,514.0
505.0,503.0,505.0,509.0,510.0
513.0,504.0,511.0,516.0,506.0
521.0,507.0,518.0,524.0,502.0
518.0,501.0,517.0,518.0,512.0
519.0,502.0,520.0,517.0,516.0
513.0,503.0,515.0,514.0,522.0
506.0,506.0,520.0,517.0,522.0
507.0,507.0,519.0,519.0,522.0
510.0,506.0,522.0,526.0,525.0
520.0,511.0,519.0,509.0,515.0
529.0,519.0,523.0,513.0,501.0
525.0,520.0,523.0,517.0,503.0
519.0,516.0,519.0,513.0,504.0
510.0,516.0,512.0,510.0,508.0
505.0,507.0,506.0,507.0,511.0
512.0,506.0,502.0,504.0,513.0
507.0,504.0,504.0,506.0,516.0
503.0,502.0,503.0,510.0,515.0
505.0,507.0,514.0,519.0,516.0
509.0,503.0,518.0,522.0,512.0
511.0,508.0,520.0,522.0,515.0
531.0,507.0,524.0,520.0,513.0
523.0,504.0,520.0,519.0,510.0
518.0,505.0,514.0,517.0,515.0
517.0,505.0,518.0,514.0,519.0
523.0,513.0,520.0,516.0,511.0
530.0,516.0,521.0,521.0,505.0
530.0,520.0,522.0,523.0,503.0
530.0,519.0,519.0,515.0,501.0
521.0,515.0,511.0,511.0,504.0
514.0,510.0,506.0,510.0,506.0
509.0,505.0,503.0,506.0,507.0
506.0,502.0,499.0,501.0,513.0
507.0,498.0,502.0,508.0,517.0
510.0,502.0,507.0,510.0,514.0
514.0,508.0,517.0,519.0,517.0
519.0,511.0,519.0,521.0,514.0
520.0,506.0,525.0,523.0,512.0
517.0,504.0,525.0,520.0,513.0
511.0,502.0,517.0,515.0,524.0
516.0,507.0,521.0,519.0,516.0
521.0,509.0,522.0,516.0,510.0
524.0,511.0,517.0,514.0,510.0
524.0,515.0,519.0,515.0,510.0
527.0,517.0,515.0,516.0,510.0
522.0,517.0,516.0,516.0,506.0
518.0,515.0,509.0,508.0,501.0
510.0,513.0,505.0,504.0,509.0
503.0,500.0,499.0,502.0,515.0
508.0,500.0,500.0,503.0,513.0
508.0,502.0,504.0,507.0,515.0
509.0,499.0,509.0,511.0,519.0
516.0,507.0,516.0,523.0,513.0
517.0,506.0,522.0,521.0,513.0
522.0,508.0,523.0,525.0,515.0
514.0,505.0,521.0,518.0,516.0
513.0,504.0,518.0,521.0,515.0
517.0,506.0,520.0,520.0,513.0
523.0,512.0,520.0,520.0,511.0
526.0,515.0,521.0,517.0,507.0
528.0,518.0,521.0,523.0,501.0
528.0,517.0,518.0,515.0,500.0
521.0,513.0,512.0,510.0,508.0
512.0,508.0,506.0,502.0,508.0
506.0,507.0,506.0,501.0,509.0
502.0,501.0,499.0,499.0,513.0
504.0,501.0,501.0,504.0,512.0
504.0,501.0,507.0,507.0,515.0
509.0,501.0,512.0,512.0,517.0
511.0,503.0,522.0,518.0,520.0
516.0,509.0,525.0,524.0,520.0
516.0,508.0,524.0,521.0,516.0
514.0,503.0,520.0,515.0,519.0
514.0,503.0,517.0,511.0,519.0
517.0,506.0,521.0,518.0,515.0
520.0,511.0,523.0,515.0,514.0
522.0,516.0,523.0,519.0,506.0
528.0,520.0,526.0,521.0,500.0
526.0,520.0,521.0,521.0,501.0
526.0,515.0,513.0,514.0,502.0
511.0,510.0,510.0,508.0,508.0
511.0,505.0,504.0,502.0,508.0
505.0,500.0,499.0,503.0,516.0
504.0,499.0,498.0,504.0,515.0
510.0,504.0,508.0,512.0,516.0
514.0,503.0,517.0,519.0,512.0
530.0,507.0,525.0,524.0,508.0
530.0,511.0,526.0,530.0,506.0
515.0,508.0,525.0,524.0,514.0
510.0,504.0,519.0,515.0,515.0
512.0,507.0,519.0,514.0,515.0
518.0,508.0,522.0,513.0,514.0
521.0,508.0,518.0,514.0,510.0
526.0,512.0,520.0,516.0,506.0
528.0,521.0,524.0,518.0,508.0
520.0,516.0,517.0,511.0,508.0
518.0,514.0,511.0,508.0,511.0
509.0,509.0,503.0,504.0,511.0
504.0,502.0,500.0,503.0,515.0
502.0,499.0,500.0,502.0,523.0
506.0,502.0,503.0,508.0,516.0
511.0,505.0,514.0,514.0,517.0
516.0,507.0,519.0,522.0,512.0
515.0,503.0,521.0,520.0,517.0
515.0,505.0,524.0,525.0,518.0
517.0,505.0,522.0,521.0,518.0
516.0,507.0,527.0,518.0,517.0
519.0,509.0,521.0,517.0,516.0
521.0,512.0,523.0,517.0,511.0
526.0,516.0,524.0,519.0,506.0
525.0,517.0,524.0,524.0,502.0
523.0,519.0,521.0,518.0,500.0
522.0,516.0,516.0,517.0,501.0
514.0,509.0,507.0,507.0,513.0
508.0,507.0,508.0,502.0,511.0
502.0,503.0,499.0,506.0,518.0
503.0,502.0,502.0,506.0,519.0
502.0,502.0,513.0,511.0,517.0
516.0,505.0,515.0,517.0,513.0
515.0,506.0,521.0,521.0,513.0
517.0,508.0,524.0,523.0,515.0
517.0,507.0,525.0,520.0,520.0
514.0,506.0,520.0,515.0,524.0
516.0,506.0,521.0,513.0,519.0
517.0,507.0,521.0,516.0,515.0
520.0,509.0,518.0,507.0,515.0
519.0,514.0,521.0,514.0,512.0
522.0,517.0,519.0,517.0,509.0
523.0,518.0,515.0,515.0,507.0
516.0,513.0,511.0,507.0,509.0
508.0,507.0,504.0,505.0,512.0
504.0,505.0,505.0,500.0,515.0
500.0,500.0,496.0,499.0,518.0
501.0,500.0,503.0,502.0,519.0
506.0,500.0,509.0,512.0,518.0
509.0,505.0,515.0,516.0,512.0
514.0,505.0,522.0,520.0,514.0
517.0,506.0,527.0,523.0,511.0
517.0,505.0,522.0,519.0,513.0
515.0,505.0,521.0,518.0,516.0
516.0,507.0,521.0,515.0,512.0
517.0,508.0,520.0,518.0,514.0
522.0,511.0,523.0,516.0,509.0
528.0,515.0,521.0,521.0,506.0
525.0,522.0,521.0,517.0,503.0
520.0,517.0,516.0,515.0,504.0
517.0,517.0,509.0,510.0,508.0
513.0,511.0,504.0,508.0,512.0
502.0,504.0,495.0,501.0,519.0
506.0,503.0,499.0,502.0,518.0
504.0,502.0,505.0,514.0,517.0
508.0,504.0,512.0,511.0,512.0
512.0,505.0,518.0,521.0,517.0
513.0,505.0,521.0,522.0,520.0
514.0,507.0,523.0,524.0,519.0
514.0,506.0,522.0,520.0,518.0
513.0,507.0,522.0,520.0,518.0
516.0,507.0,523.0,517.0,515.0
520.0,513.0,521.0,519.0,511.0
521.0,515.0,522.0,523.0,508.0
525.0,518.0,525.0,521.0,504.0
525.0,522.0,518.0,516.0,503.0
519.0,516.0,511.0,511.0,506.0
514.0,513.0,508.0,508.0,507.0
508.0,506.0,504.0,506.0,510.0
500.0,506.0,500.0,502.0,510.0
497.0,500.0,505.0,502.0,521.0
502.0,501.0,508.0,505.0,518.0
512.0,505.0,518.0,517.0,516.0
516.0,507.0,520.0,520.0,513.0
519.0,507.0,524.0,524.0,510.0
517.0,508.0,524.0,523.0,513.0
515.0,505.0,521.0,519.0,519.0
512.0,506.0,521.0,519.0,517.0
511.0,508.0,520.0,516.0,516.0
515.0,510.0,520.0,518.0,512.0
522.0,519.0,524.0,520.0,510.0
525.0,518.0,521.0,520.0,505.0
523.0,519.0,518.0,517.0,502.0
519.0,517.0,511.0,513.0,504.0
512.0,511.0,509.0,506.0,512.0
510.0,502.0,500.0,506.0,504.0
502.0,500.0,500.0,505.0,509.0
494.0,501.0,502.0,505.0,519.0
502.0,504.0,510.0,509.0,512.0
514.0,505.0,517.0,521.0,516.0
513.0,505.0,521.0,522.0,521.0
515.0,508.0,525.0,523.0,513.0
520.0,508.0,527.0,523.0,513.0
510.0,505.0,522.0,520.0,515.0
513.0,508.0,520.0,518.0,513.0
514.0,508.0,517.0,513.0,517.0
516.0,508.0,516.0,510.0,514.0
527.0,518.0,520.0,514.0,507.0
522.0,517.0,522.0,515.0,508.0
520.0,517.0,511.0,509.0,509.0
513.0,512.0,507.0,506.0,510.0
511.0,506.0,501.0,502.0,511.0
502.0,503.0,499.0,500.0,518.0
499.0,503.0,497.0,501.0,516.0
501.0,506.0,506.0,509.0,518.0
504.0,501.0,508.0,510.0,516.0
513.0,506.0,519.0,520.0,519.0
514.0,507.0,524.0,524.0,516.0
522.0,508.0,526.0,524.0,514.0
518.0,505.0,523.0,521.0,516.0
518.0,502.0,521.0,514.0,519.0
516.0,507.0,522.0,518.0,516.0
519.0,508.0,522.0,517.0,514.0
526.0,516.0,522.0,518.0,504.0
529.0,520.0,522.0,521.0,503.0
524.0,520.0,518.0,516.0,505.0
519.0,517.0,510.0,511.0,505.0
511.0,512.0,507.0,506.0,511.0
510.0,507.0,503.0,505.0,514.0
504.0,504.0,500.0,501.0,513.0
501.0,501.0,508.0,505.0,521.0
505.0,504.0,507.0,512.0,517.0
509.0,505.0,517.0,516.0,522.0
513.0,512.0,523.0,520.0,516.0
518.0,510.0,530.0,527.0,515.0
520.0,508.0,525.0,524.0,520.0
514.0,509.0,521.0,519.0,519.0
516.0,505.0,522.0,519.0,518.0
514.0,508.0,520.0,518.0,520.0
517.0,510.0,520.0,516.0,517.0
522.0,517.0,525.0,518.0,512.0
522.0,517.0,521.0,518.0,508.0
523.0,517.0,515.0,517.0,505.0
514.0,514.0,509.0,511.0,507.0
509.0,512.0,502.0,508.0,511.0
504.0,506.0,500.0,506.0,514.0
503.0,503.0,502.0,503.0,514.0
501.0,503.0,510.0,508.0,519.0
507.0,503.0,511.0,515.0,515.0
516.0,508.0,516.0,519.0,517.0
513.0,507.0,520.0,517.0,517.0
516.0,507.0,524.0,522.0,517.0
515.0,507.0,524.0,523.0,518.0
514.0,507.0,522.0,520.0,517.0
520.0,505.0,520.0,517.0,515.0
519.0,510.0,525.0,517.0,513.0
520.0,514.0,520.0,518.0,510.0
524.0,515.0,522.0,517.0,508.0
523.0,516.0,517.0,519.0,506.0
520.0,513.0,511.0,511.0,508.0
513.0,513.0,509.0,510.0,507.0
507.0,506.0,501.0,504.0,516.0
502.0,505.0,498.0,499.0,516.0
504.0,501.0,499.0,505.0,517.0
508.0,501.0,504.0,507.0,516.0
507.0,505.0,513.0,516.0,515.0
514.0,507.0,519.0,520.0,515.0
517.0,509.0,520.0,521.0,512.0
512.0,502.0,520.0,517.0,516.0
509.0,502.0,517.0,517.0,519.0
511.0,503.0,518.0,522.0,518.0
521.0,507.0,520.0,517.0,513.0
514.0,506.0,518.0,515.0,514.0
521.0,507.0,517.0,517.0,505.0
523.0,511.0,516.0,525.0,502.0
526.0,522.0,520.0,519.0,503.0
517.0,518.0,515.0,511.0,508.0
503.0,509.0,501.0,505.0,518.0
500.0,505.0,495.0,499.0,516.0
501.0,500.0,496.0,498.0,515.0
502.0,501.0,500.0,503.0,509.0
507.0,503.0,508.0,510.0,512.0
510.0,504.0,517.0,516.0,508.0
514.0,506.0,522.0,523.0,509.0
522.0,507.0,524.0,524.0,515.0
515.0,505.0,524.0,522.0,528.0
515.0,506.0,522.0,520.0,520.0
515.0,505.0,523.0,521.0,518.0
516.0,505.0,522.0,521.0,519.0
517.0,513.0,521.0,518.0,513.0
523.0,516.0,521.0,517.0,515.0
525.0,518.0,520.0,523.0,510.0
522.0,516.0,514.0,514.0,509.0
515.0,512.0,511.0,512.0,510.0
513.0,501.0,502.0,505.0,513.0
506.0,508.0,500.0,503.0,515.0
503.0,500.0,500.0,505.0,518.0
504.0,499.0,502.0,508.0,520.0
505.0,502.0,511.0,517.0,516.0
510.0,506.0,517.0,518.0,520.0
518.0,506.0,520.0,521.0,517.0
514.0,507.0,524.0,523.0,516.0
509.0,505.0,526.0,522.0,517.0
515.0,503.0,519.0,519.0,513.0
512.0,504.0,520.0,517.0,515.0
514.0,508.0,520.0,519.0,514.0
516.0,511.0,523.0,518.0,511.0
518.0,513.0,519.0,518.0,511.0
524.0,518.0,517.0,514.0,505.0
520.0,514.0,514.0,513.0,508.0
511.0,512.0,510.0,510.0,509.0
507.0,509.0,503.0,504.0,511.0
502.0,502.0,500.0,500.0,515.0
500.0,501.0,500.0,502.0,519.0
503.0,501.0,505.0,512.0,516.0
508.0,505.0,511.0,516.0,513.0
514.0,506.0,519.0,518.0,513.0
516.0,511.0,524.0,520.0,511.0
516.0,505.0,523.0,522.0,515.0
514.0,504.0,522.0,519.0,514.0
512.0,503.0,522.0,516.0,517.0
517.0,505.0,518.0,517.0,515.0
515.0,508.0,519.0,521.0,514.0
519.0,517.0,521.0,520.0,511.0
528.0,516.0,520.0,519.0,508.0
523.0,517.0,519.0,515.0,507.0
516.0,516.0,510.0,510.0,509.0
511.0,510.0,510.0,508.0,515.0
506.0,506.0,501.0,506.0,513.0
501.0,500.0,497.0,502.0,515.0
500.0,500.0,501.0,503.0,516.0
503.0,501.0,507.0,510.0,518.0
507.0,505.0,515.0,518.0,517.0
513.0,506.0,518.0,523.0,517.0
515.0,507.0,520.0,523.0,515.0
515.0,503.0,520.0,520.0,517.0
514.0,504.0,520.0,518.0,518.0
519.0,502.0,519.0,518.0,516.0
513.0,506.0,518.0,517.0,517.0
514.0,512.0,518.0,516.0,515.0
515.0,511.0,514.0,515.0,510.0
518.0,514.0,518.0,517.0,509.0
523.0,517.0,516.0,516.0,506.0
519.0,515.0,508.0,511.0,507.0
502.0,509.0,501.0,504.0,513.0
503.0,506.0,497.0,505.0,516.0
501.0,503.0,501.0,504.0,515.0
501.0,503.0,500.0,507.0,516.0
509.0,506.0,509.0,514.0,514.0
515.0,504.0,516.0,521.0,515.0
514.0,507.0,522.0,525.0,514.0
515.0,506.0,523.0,530.0,515.0
513.0,506.0,525.0,523.0,514.0
514.0,506.0,518.0,521.0,516.0
512.0,508.0,517.0,514.0,512.0
518.0,506.0,519.0,515.0,517.0
520.0,511.0,519.0,519.0,510.0
522.0,516.0,520.0,522.0,506.0
525.0,517.0,519.0,519.0,505.0
524.0,515.0,519.0,517.0,502.0
514.0,511.0,509.0,511.0,505.0
506.0,511.0,505.0,506.0,513.0
502.0,503.0,496.0,498.0,516.0
500.0,502.0,501.0,500.0,517.0
501.0,503.0,503.0,505.0,520.0
506.0,502.0,511.0,513.0,519.0
515.0,504.0,517.0,520.0,515.0
517.0,506.0,524.0,523.0,515.0
518.0,504.0,522.0,520.0,515.0
520.0,501.0,520.0,518.0,513.0
513.0,505.0,518.0,517.0,515.0
512.0,506.0,519.0,516.0,513.0
517.0,509.0,518.0,522.0,512.0
522.0,517.0,521.0,518.0,509.0
523.0,516.0,520.0,521.0,508.0
526.0,510.0,517.0,519.0,508.0
515.0,514.0,510.0,510.0,511.0
513.0,504.0,503.0,505.0,513.0
506.0,504.0,499.0,507.0,515.0
506.0,500.0,497.0,501.0,517.0
498.0,502.0,502.0,506.0,520.0
504.0,499.0,506.0,510.0,518.0
507.0,501.0,516.0,518.0,516.0
518.0,504.0,521.0,522.0,512.0
523.0,505.0,523.0,525.0,515.0
520.0,503.0,528.0,527.0,512.0
512.0,503.0,522.0,523.0,515.0
512.0,510.0,522.0,517.0,519.0
514.0,511.0,521.0,517.0,516.0
516.0,509.0,522.0,515.0,516.0
525.0,513.0,520.0,515.0,512.0
523.0,515.0,517.0,514.0,511.0
522.0,514.0,518.0,513.0,508.0
514.0,512.0,507.0,512.0,510.0
509.0,506.0,507.0,505.0,516.0
501.0,502.0,499.0,501.0,519.0
499.0,497.0,495.0,501.0,521.0
496.0,496.0,499.0,502.0,523.0
506.0,500.0,511.0,509.0,522.0
512.0,504.0,518.0,518.0,517.0
514.0,508.0,520.0,522.0,513.0
508.0,502.0,521.0,519.0,515.0
510.0,500.0,519.0,517.0,521.0
511.0,502.0,516.0,515.0,521.0
514.0,503.0,518.0,516.0,518.0
519.0,507.0,519.0,517.0,513.0
520.0,509.0,519.0,516.0,512.0
523.0,516.0,518.0,517.0,509.0
524.0,520.0,518.0,517.0,505.0
518.0,511.0,516.0,513.0,506.0
510.0,511.0,507.0,508.0,507.0
509.0,507.0,504.0,508.0,512.0
503.0,502.0,503.0,502.0,516.0
501.0,500.0,501.0,504.0,518.0
504.0,501.0,506.0,507.0,516.0
509.0,503.0,512.0,515.0,519.0
514.0,506.0,520.0,522.0,516.0
517.0,506.0,525.0,521.0,514.0
518.0,506.0,523.0,522.0,516.0
514.0,503.0,523.0,520.0,516.0
512.0,505.0,524.0,520.0,516.0
513.0,504.0,524.0,516.0,519.0
518.0,507.0,518.0,516.0,513.0
518.0,511.0,521.0,518.0,508.0
523.0,515.0,520.0,519.0,507.0
526.0,512.0,516.0,515.0,506.0
516.0,514.0,514.0,514.0,509.0
509.0,511.0,506.0,506.0,509.0
505.0,506.0,508.0,506.0,512.0
501.0,502.0,499.0,502.0,515.0
502.0,502.0,503.0,507.0,517.0
505.0,501.0,509.0,511.0,516.0
508.0,504.0,513.0,517.0,514.0
513.0,506.0,522.0,524.0,513.0
514.0,506.0,523.0,524.0,515.0
514.0,505.0,523.0,522.0,515.0
513.0,505.0,522.0,520.0,515.0
518.0,507.0,521.0,521.0,510.0
515.0,507.0,520.0,519.0,511.0
517.0,511.0,524.0,517.0,512.0
520.0,516.0,522.0,518.0,517.0
524.0,519.0,519.0,519.0,508.0
519.0,515.0,517.0,516.0,509.0
516.0,512.0,510.0,509.0,507.0
511.0,508.0,508.0,506.0,513.0
502.0,503.0,498.0,503.0,517.0
501.0,500.0,498.0,501.0,518.0
502.0,501.0,505.0,510.0,518.0
509.0,504.0,512.0,520.0,515.0
512.0,509.0,517.0,519.0,515.0
511.0,505.0,521.0,525.0,518.0
515.0,506.0,523.0,523.0,514.0
513.0,503.0,523.0,520.0,514.0
515.0,502.0,519.0,517.0,515.0
516.0,500.0,519.0,518.0,516.0
514.0,508.0,520.0,519.0,516.0
516.0,512.0,521.0,518.0,510.0
523.0,516.0,520.0,519.0,505.0
526.0,517.0,520.0,516.0,501.0
512.0,511.0,512.0,510.0,506.0
507.0,510.0,506.0,507.0,511.0
506.0,506.0,500.0,503.0,514.0
501.0,501.0,493.0,499.0,516.0
499.0,499.0,501.0,501.0,520.0
498.0,500.0,505.0,507.0,518.0
505.0,501.0,514.0,512.0,520.0
513.0,503.0,515.0,517.0,515.0
516.0,505.0,522.0,524.0,515.0
515.0,505.0,527.0,523.0,515.0
510.0,504.0,518.0,517.0,519.0
506.0,503.0,517.0,513.0,518.0
510.0,505.0,521.0,515.0,517.0
518.0,507.0,517.0,516.0,515.0
521.0,515.0,519.0,518.0,511.0
527.0,517.0,519.0,519.0,509.0
525.0,515.0,515.0,511.0,508.0
521.0,514.0,511.0,515.0,509.0
511.0,508.0,509.0,507.0,510.0
504.0,504.0,501.0,504.0,514.0
500.0,500.0,500.0,504.0,517.0
505.0,499.0,500.0,507.0,511.0
504.0,501.0,509.0,515.0,511.0
511.0,505.0,516.0,521.0,510.0
511.0,506.0,522.0,519.0,513.0
516.0,505.0,519.0,522.0,512.0
516.0,505.0,525.0,521.0,513.0
516.0,506.0,519.0,520.0,514.0
513.0,505.0,520.0,525.0,514.0
517.0,507.0,515.0,518.0,512.0
518.0,509.0,519.0,518.0,510.0
520.0,514.0,520.0,519.0,509.0
519.0,517.0,523.0,518.0,510.0
518.0,513.0,513.0,513.0,508.0
510.0,510.0,507.0,510.0,509.0
500.0,508.0,500.0,503.0,515.0
493.0,501.0,501.0,502.0,516.0
493.0,498.0,501.0,501.0,521.0
501.0,501.0,508.0,508.0,517.0
518.0,502.0,512.0,514.0,513.0
519.0,505.0,519.0,522.0,514.0
519.0,507.0,524.0,523.0,516.0
520.0,510.0,522.0,528.0,515.0
514.0,508.0,521.0,521.0,513.0
512.0,501.0,519.0,518.0,520.0
519.0,506.0,520.0,522.0,511.0
515.0,508.0,520.0,519.0,509.0
518.0,515.0,520.0,521.0,507.0
520.0,513.0,520.0,520.0,507.0
527.0,511.0,518.0,519.0,506.0
526.0,514.0,514.0,512.0,508.0
517.0,513.0,513.0,507.0,509.0
511.0,511.0,505.0,507.0,511.0
507.0,501.0,499.0,503.0,516.0
502.0,501.0,499.0,503.0,517.0
505.0,503.0,507.0,509.0,516.0
508.0,501.0,513.0,512.0,517.0
514.0,506.0,518.0,519.0,518.0
519.0,506.0,524.0,523.0,512.0
519.0,506.0,524.0,524.0,509.0
516.0,504.0,521.0,520.0,515.0
516.0,506.0,523.0,520.0,515.0
513.0,506.0,517.0,520.0,514.0
520.0,510.0,519.0,516.0,514.0
522.0,513.0,519.0,518.0,512.0
527.0,521.0,520.0,520.0,505.0
523.0,516.0,514.0,512.0,505.0
516.0,513.0,510.0,516.0,508.0
512.0,509.0,504.0,507.0,510.0
504.0,507.0,501.0,502.0,513.0
502.0,500.0,498.0,501.0,515.0
499.0,497.0,493.0,504.0,517.0
505.0,501.0,507.0,512.0,516.0
510.0,505.0,513.0,519.0,516.0
512.0,506.0,517.0,521.0,516.0
514.0,509.0,521.0,527.0,516.0
516.0,506.0,521.0,524.0,514.0
514.0,506.0,518.0,521.0,510.0
514.0,504.0,522.0,519.0,511.0
513.0,506.0,515.0,514.0,510.0
513.0,505.0,517.0,513.0,509.0
525.0,511.0,519.0,517.0,514.0
522.0,516.0,519.0,523.0,509.0
521.0,516.0,517.0,516.0,510.0
515.0,512.0,508.0,511.0,509.0
505.0,507.0,504.0,505.0,512.0
502.0,502.0,498.0,501.0,518.0
500.0,502.0,501.0,509.0,516.0
508.0,501.0,503.0,510.0,514.0
509.0,502.0,510.0,520.0,514.0
512.0,505.0,516.0,518.0,515.0
514.0,506.0,522.0,522.0,519.0
518.0,504.0,525.0,525.0,511.0
516.0,508.0,522.0,525.0,511.0
511.0,504.0,520.0,519.0,518.0
512.0,508.0,519.0,516.0,517.0
515.0,508.0,518.0,518.0,514.0
518.0,511.0,517.0,514.0,513.0
521.0,513.0,518.0,515.0,506.0
526.0,515.0,517.0,514.0,506.0
519.0,514.0,513.0,516.0,508.0
510.0,509.0,508.0,504.0,511.0
509.0,507.0,502.0,503.0,516.0
503.0,501.0,498.0,501.0,518.0
500.0,500.0,502.0,505.0,520.0
502.0,500.0,506.0,511.0,519.0
502.0,500.0,513.0,518.0,516.0
512.0,506.0,521.0,526.0,515.0
515.0,505.0,523.0,530.0,514.0
516.0,503.0,522.0,523.0,516.0
510.0,504.0,521.0,521.0,514.0
512.0,503.0,521.0,517.0,515.0
516.0,504.0,518.0,516.0,514.0
517.0,508.0,520.0,523.0,514.0
519.0,513.0,520.0,522.0,516.0
522.0,515.0,522.0,518.0,510.0
521.0,515.0,516.0,522.0,508.0
518.0,517.0,512.0,511.0,510.0
511.0,507.0,504.0,507.0,515.0
503.0,504.0,503.0,505.0,510.0
498.0,500.0,499.0,502.0,515.0
501.0,498.0,499.0,506.0,517.0
502.0,499.0,507.0,511.0,520.0
507.0,502.0,511.0,518.0,518.0
509.0,505.0,521.0,524.0,519.0
515.0,505.0,520.0,524.0,515.0
514.0,502.0,519.0,519.0,520.0
511.0,502.0,519.0,519.0,518.0
510.0,503.0,519.0,517.0,516.0
517.0,507.0,520.0,517.0,512.0
516.0,510.0,517.0,515.0,517.0
520.0,510.0,517.0,514.0,513.0
523.0,519.0,519.0,516.0,504.0
518.0,513.0,518.0,513.0,505.0
511.0,510.0,510.0,506.0,510.0
504.0,504.0,501.0,501.0,516.0
500.0,500.0,497.0,501.0,516.0
502.0,500.0,499.0,502.0,519.0
500.0,501.0,503.0,500.0,517.0
503.0,500.0,513.0,510.0,514.0
507.0,505.0,515.0,515.0,512.0
511.0,503.0,521.0,524.0,513.0
514.0,504.0,523.0,525.0,512.0
513.0,501.0,523.0,522.0,512.0
515.0,504.0,521.0,518.0,514.0
514.0,505.0,520.0,516.0,511.0
517.0,507.0,518.0,517.0,509.0
518.0,511.0,518.0,520.0,508.0
522.0,515.0,523.0,521.0,503.0
523.0,515.0,519.0,519.0,502.0
522.0,513.0,514.0,514.0,509.0
514.0,509.0,511.0,509.0,510.0
505.0,505.0,501.0,504.0,514.0
502.0,501.0,501.0,501.0,515.0
500.0,499.0,501.0,503.0,516.0
501.0,500.0,508.0,512.0,516.0
508.0,505.0,517.0,519.0,509.0
518.0,507.0,523.0,525.0,507.0
516.0,506.0,525.0,534.0,512.0
515.0,506.0,527.0,523.0,514.0
511.0,502.0,517.0,514.0,517.0
515.0,502.0,519.0,518.0,514.0
516.0,504.0,521.0,517.0,514.0
514.0,510.0,518.0,516.0,513.0
520.0,512.0,522.0,517.0,508.0
525.0,516.0,522.0,519.0,503.0
521.0,516.0,517.0,517.0,505.0
514.0,515.0,511.0,510.0,507.0
511.0,507.0,505.0,506.0,514.0
505.0,505.0,502.0,502.0,520.0
501.0,502.0,500.0,507.0,515.0
500.0,499.0,501.0,510.0,518.0
508.0,500.0,514.0,512.0,514.0
513.0,504.0,514.0,518.0,513.0
514.0,505.0,522.0,522.0,514.0
515.0,509.0,524.0,522.0,512.0
514.0,504.0,523.0,522.0,513.0
514.0,502.0,523.0,518.0,514.0
513.0,504.0,520.0,516.0,516.0
513.0,506.0,523.0,518.0,515.0
518.0,508.0,521.0,519.0,512.0
520.0,517.0,522.0,523.0,509.0
520.0,515.0,517.0,519.0,507.0
520.0,514.0,517.0,515.0,510.0
513.0,509.0,510.0,509.0,508.0
505.0,506.0,504.0,507.0,512.0
502.0,505.0,499.0,505.0,515.0
500.0,500.0,503.0,506.0,518.0
502.0,500.0,500.0,509.0,520.0
505.0,503.0,511.0,520.0,518.0
510.0,503.0,520.0,522.0,519.0
512.0,504.0,522.0,528.0,518.0
515.0,507.0,523.0,523.0,518.0
508.0,501.0,519.0,520.0,520.0
506.0,502.0,516.0,513.0,520.0
513.0,504.0,520.0,517.0,515.0
514.0,506.0,521.0,518.0,513.0
520.0,509.0,520.0,518.0,514.0
514.0,512.0,520.0,516.0,507.0
519.0,517.0,519.0,514.0,500.0
517.0,514.0,511.0,512.0,504.0
512.0,512.0,508.0,509.0,509.0
507.0,505.0,499.0,498.0,519.0
504.0,498.0,495.0,497.0,519.0
502.0,500.0,499.0,501.0,523.0
505.0,499.0,505.0,509.0,518.0
509.0,506.0,517.0,516.0,521.0
517.0,503.0,518.0,523.0,515.0
518.0,505.0,524.0,527.0,511.0
521.0,507.0,524.0,523.0,512.0
515.0,501.0,522.0,520.0,512.0
510.0,503.0,520.0,519.0,513.0
511.0,506.0,521.0,517.0,516.0
515.0,506.0,522.0,517.0,512.0
521.0,510.0,521.0,520.0,508.0
524.0,515.0,523.0,525.0,503.0
524.0,517.0,518.0,518.0,505.0
516.0,509.0,509.0,509.0,511.0
512.0,506.0,507.0,504.0,514.0
506.0,504.0,501.0,506.0,517.0
504.0,502.0,499.0,506.0,518.0
499.0,501.0,501.0,507.0,518.0
507.0,501.0,509.0,517.0,513.0
510.0,504.0,515.0,519.0,515.0
507.0,502.0,518.0,523.0,517.0
513.0,507.0,525.0,528.0,514.0
516.0,508.0,527.0,523.0,520.0
514.0,504.0,519.0,516.0,520.0
520.0,506.0,519.0,517.0,519.0
518.0,507.0,518.0,518.0,513.0
518.0,509.0,519.0,513.0,511.0
524.0,511.0,520.0,519.0,507.0
526.0,516.0,517.0,519.0,505.0
524.0,514.0,515.0,516.0,506.0
515.0,510.0,510.0,512.0,508.0
514.0,507.0,503.0,506.0,513.0
503.0,501.0,499.0,503.0,521.0
503.0,501.0,501.0,503.0,520.0
504.0,503.0,501.0,505.0,519.0
509.0,504.0,508.0,513.0,517.0
512.0,506.0,518.0,524.0,517.0
512.0,506.0,521.0,526.0,518.0
512.0,503.0,521.0,523.0,516.0
512.0,504.0,521.0,521.0,516.0
516.0,504.0,519.0,517.0,519.0
517.0,505.0,518.0,517.0,514.0
513.0,507.0,522.0,515.0,513.0
518.0,508.0,519.0,519.0,512.0
522.0,516.0,522.0,520.0,508.0
524.0,517.0,518.0,516.0,509.0
519.0,513.0,512.0,511.0,507.0
505.0,509.0,511.0,508.0,514.0
505.0,506.0,500.0,503.0,510.0
500.0,500.0,502.0,501.0,518.0
502.0,499.0,500.0,503.0,519.0
502.0,500.0,506.0,510.0,518.0
509.0,502.0,515.0,516.0,515.0
510.0,503.0,518.0,517.0,517.0
514.0,505.0,522.0,521.0,515.0
514.0,507.0,522.0,523.0,514.0
516.0,504.0,520.0,519.0,516.0
511.0,504.0,514.0,516.0,515.0
514.0,504.0,517.0,515.0,518.0
513.0,507.0,516.0,516.0,516.0
518.0,511.0,518.0,513.0,512.0
520.0,518.0,520.0,516.0,504.0
521.0,514.0,516.0,515.0,507.0
515.0,511.0,510.0,511.0,511.0
504.0,504.0,502.0,499.0,515.0
501.0,502.0,499.0,504.0,515.0
500.0,501.0,500.0,501.0,519.0
508.0,498.0,502.0,505.0,522.0
511.0,503.0,509.0,509.0,519.0
513.0,504.0,515.0,518.0,516.0
512.0,504.0,519.0,518.0,519.0
509.0,502.0,520.0,520.0,521.0
512.0,502.0,521.0,521.0,515.0
508.0,505.0,520.0,518.0,513.0
509.0,503.0,519.0,517.0,507.0
513.0,504.0,519.0,517.0,514.0
533.0,509.0,520.0,517.0,507.0
540.0,515.0,521.0,518.0,508.0
531.0,515.0,520.0,519.0,505.0
522.0,513.0,515.0,516.0,505.0
517.0,512.0,512.0,513.0,504.0
508.0,504.0,500.0,506.0,504.0
509.0,501.0,498.0,506.0,511.0
501.0,500.0,501.0,500.0,516.0
500.0,500.0,503.0,504.0,522.0
507.0,501.0,510.0,514.0,519.0
516.0,506.0,516.0,516.0,516.0
515.0,504.0,523.0,522.0,516.0
517.0,505.0,525.0,523.0,516.0
516.0,506.0,522.0,519.0,515.0
515.0,503.0,518.0,516.0,517.0
513.0,505.0,518.0,513.0,516.0
519.0,507.0,518.0,515.0,513.0
522.0,512.0,520.0,522.0,510.0
528.0,515.0,522.0,515.0,506.0
527.0,516.0,518.0,517.0,503.0
516.0,513.0,513.0,515.0,505.0
517.0,507.0,506.0,507.0,509.0
513.0,505.0,502.0,503.0,513.0
500.0,503.0,498.0,498.0,517.0
498.0,498.0,500.0,498.0,519.0
507.0,496.0,505.0,510.0,519.0
512.0,503.0,513.0,514.0,518.0
513.0,505.0,521.0,521.0,511.0
517.0,505.0,523.0,523.0,515.0
517.0,504.0,525.0,523.0,515.0
516.0,503.0,521.0,521.0,516.0
516.0,505.0,522.0,516.0,516.0
516.0,509.0,517.0,518.0,515.0
516.0,508.0,517.0,516.0,514.0
522.0,513.0,520.0,518.0,509.0
524.0,516.0,521.0,517.0,504.0
527.0,515.0,519.0,515.0,506.0
516.0,511.0,511.0,509.0,509.0
512.0,506.0,504.0,510.0,510.0
507.0,504.0,499.0,503.0,514.0
500.0,500.0,501.0,503.0,520.0
497.0,499.0,502.0,506.0,520.0
504.0,503.0,509.0,515.0,519.0
505.0,501.0,518.0,516.0,518.0
510.0,503.0,519.0,520.0,518.0
519.0,504.0,521.0,521.0,515.0
513.0,507.0,522.0,521.0,515.0
510.0,503.0,519.0,517.0,518.0
508.0,503.0,519.0,517.0,523.0
510.0,506.0,519.0,516.0,515.0
518.0,507.0,519.0,515.0,513.0
523.0,514.0,520.0,516.0,508.0
522.0,517.0,521.0,516.0,505.0
523.0,514.0,513.0,513.0,501.0
517.0,510.0,506.0,506.0,510.0
508.0,507.0,505.0,503.0,511.0
503.0,501.0,498.0,502.0,517.0
500.0,499.0,501.0,504.0,517.0
507.0,502.0,510.0,512.0,515.0
510.0,501.0,512.0,516.0,514.0
515.0,504.0,517.0,519.0,515.0
513.0,507.0,523.0,521.0,516.0
515.0,505.0,524.0,527.0,516.0
514.0,503.0,522.0,521.0,516.0
518.0,506.0,521.0,518.0,516.0
517.0,504.0,516.0,516.0,516.0
519.0,509.0,520.0,516.0,517.0
521.0,510.0,520.0,517.0,511.0
527.0,515.0,520.0,516.0,508.0
524.0,516.0,520.0,516.0,507.0
517.0,513.0,514.0,511.0,509.0
510.0,514.0,508.0,508.0,513.0
507.0,507.0,501.0,503.0,515.0
500.0,500.0,501.0,503.0,518.0
508.0,500.0,501.0,499.0,518.0
505.0,503.0,507.0,509.0,514.0
515.0,502.0,513.0,515.0,516.0
516.0,506.0,519.0,519.0,515.0
515.0,507.0,527.0,523.0,515.0
519.0,506.0,523.0,523.0,514.0
515.0,504.0,520.0,519.0,519.0
517.0,503.0,519.0,522.0,514.0
514.0,508.0,518.0,520.0,512.0
518.0,508.0,515.0,515.0,510.0
519.0,513.0,523.0,518.0,501.0
522.0,516.0,520.0,518.0,508.0
521.0,514.0,515.0,513.0,508.0
515.0,513.0,509.0,508.0,510.0
511.0,508.0,504.0,504.0,511.0
504.0,506.0,500.0,502.0,513.0
498.0,500.0,502.0,503.0,517.0
501.0,499.0,508.0,507.0,517.0
508.0,501.0,512.0,513.0,516.0
512.0,503.0,513.0,520.0,512.0
516.0,504.0,522.0,520.0,513.0
520.0,505.0,526.0,523.0,514.0
513.0,505.0,522.0,520.0,515.0
512.0,502.0,520.0,519.0,517.0
511.0,506.0,517.0,521.0,516.0
513.0,505.0,521.0,516.0,514.0
515.0,507.0,519.0,512.0,511.0
521.0,507.0,520.0,518.0,509.0
516.0,516.0,521.0,520.0,504.0
512.0,512.0,514.0,513.0,508.0
525.0,514.0,508.0,511.0,508.0
514.0,506.0,502.0,504.0,512.0
500.0,504.0,504.0,502.0,520.0
500.0,502.0,500.0,501.0,518.0
505.0,503.0,502.0,512.0,517.0
510.0,500.0,512.0,513.0,517.0
514.0,505.0,517.0,521.0,517.0
519.0,506.0,521.0,521.0,518.0
516.0,506.0,520.0,521.0,519.0
513.0,504.0,519.0,516.0,518.0
511.0,506.0,519.0,515.0,518.0
510.0,503.0,524.0,516.0,516.0
525.0,510.0,520.0,517.0,506.0
522.0,508.0,523.0,518.0,507.0
521.0,512.0,520.0,520.0,506.0
519.0,514.0,512.0,515.0,506.0
520.0,516.0,513.0,512.0,510.0
511.0,509.0,507.0,505.0,508.0
504.0,505.0,504.0,505.0,513.0
502.0,501.0,501.0,501.0,520.0
500.0,500.0,505.0,505.0,518.0
502.0,505.0,506.0,512.0,516.0
518.0,503.0,513.0,515.0,517.0
521.0,503.0,518.0,521.0,513.0
520.0,505.0,524.0,524.0,509.0
520.0,504.0,525.0,523.0,510.0
520.0,503.0,520.0,518.0,513.0
518.0,502.0,520.0,518.0,509.0
514.0,510.0,521.0,517.0,510.0
519.0,513.0,520.0,520.0,506.0
521.0,514.0,524.0,518.0,509.0
521.0,517.0,521.0,517.0,508.0
523.0,514.0,518.0,514.0,508.0
521.0,508.0,511.0,510.0,508.0
508.0,507.0,507.0,507.0,511.0
507.0,504.0,504.0,503.0,514.0
502.0,499.0,499.0,500.0,520.0
503.0,497.0,502.0,503.0,519.0
503.0,500.0,512.0,511.0,516.0
513.0,502.0,522.0,519.0,518.0
513.0,505.0,522.0,522.0,518.0
517.0,503.0,523.0,522.0,519.0
511.0,502.0,521.0,520.0,517.0
513.0,501.0,520.0,516.0,520.0
515.0,504.0,520.0,518.0,517.0
515.0,508.0,526.0,517.0,514.0
519.0,512.0,522.0,517.0,512.0
521.0,517.0,522.0,517.0,509.0
523.0,516.0,521.0,520.0,507.0
522.0,513.0,515.0,513.0,507.0
515.0,512.0,508.0,507.0,509.0
507.0,507.0,505.0,506.0,511.0
505.0,502.0,501.0,503.0,513.0
501.0,505.0,501.0,505.0,517.0
501.0,501.0,502.0,509.0,517.0
507.0,506.0,513.0,513.0,519.0
513.0,505.0,522.0,519.0,517.0
516.0,507.0,523.0,522.0,516.0
516.0,504.0,523.0,523.0,518.0
517.0,502.0,520.0,518.0,515.0
517.0,503.0,518.0,516.0,518.0
516.0,505.0,518.0,514.0,516.0
520.0,508.0,520.0,515.0,513.0
521.0,508.0,521.0,518.0,512.0
526.0,515.0,519.0,516.0,510.0
522.0,515.0,515.0,513.0,508.0
522.0,513.0,511.0,511.0,508.0
510.0,507.0,504.0,505.0,513.0
514.0,506.0,502.0,503.0,513.0
503.0,501.0,500.0,501.0,516.0
497.0,495.0,496.0,500.0,517.0
501.0,494.0,505.0,508.0,519.0
506.0,502.0,514.0,517.0,516.0
514.0,505.0,520.0,519.0,514.0
513.0,504.0,520.0,522.0,515.0
512.0,504.0,521.0,521.0,514.0
508.0,501.0,521.0,516.0,520.0
514.0,505.0,520.0,517.0,515.0
516.0,505.0,518.0,517.0,514.0
521.0,509.0,519.0,517.0,514.0
526.0,515.0,521.0,521.0,509.0
524.0,517.0,521.0,517.0,507.0
523.0,515.0,518.0,516.0,506.0
517.0,513.0,512.0,512.0,505.0
512.0,506.0,508.0,507.0,507.0
508.0,502.0,501.0,503.0,518.0
504.0,502.0,502.0,505.0,519.0
503.0,499.0,501.0,507.0,520.0
506.0,498.0,504.0,511.0,518.0
509.0,502.0,515.0,521.0,518.0
513.0,504.0,521.0,524.0,518.0
515.0,504.0,523.0,523.0,516.0
519.0,503.0,518.0,521.0,515.0
518.0,503.0,519.0,519.0,517.0
516.0,504.0,521.0,518.0,519.0
524.0,510.0,520.0,516.0,514.0
522.0,511.0,518.0,514.0,514.0
524.0,513.0,519.0,516.0,509.0
530.0,516.0,520.0,513.0,512.0
520.0,515.0,514.0,511.0,503.0
512.0,505.0,507.0,508.0,510.0
509.0,501.0,502.0,505.0,515.0
507.0,502.0,498.0,500.0,519.0
508.0,499.0,501.0,503.0,517.0
508.0,500.0,507.0,506.0,516.0
511.0,501.0,514.0,512.0,516.0
512.0,504.0,518.0,518.0,515.0
517.0,508.0,521.0,525.0,517.0
516.0,507.0,524.0,522.0,515.0
517.0,503.0,520.0,520.0,519.0
512.0,503.0,522.0,519.0,518.0
514.0,505.0,515.0,517.0,517.0
518.0,508.0,521.0,517.0,514.0
523.0,511.0,521.0,518.0,514.0
521.0,513.0,520.0,523.0,509.0
520.0,517.0,517.0,520.0,510.0
518.0,514.0,512.0,511.0,511.0
506.0,507.0,505.0,506.0,515.0
505.0,505.0,503.0,503.0,518.0
500.0,501.0,498.0,500.0,518.0
502.0,498.0,500.0,504.0,524.0
504.0,502.0,507.0,512.0,522.0
526.0,504.0,514.0,519.0,513.0
522.0,506.0,520.0,528.0,513.0
518.0,506.0,524.0,524.0,516.0
519.0,505.0,524.0,522.0,518.0
515.0,503.0,524.0,519.0,517.0
517.0,506.0,522.0,520.0,515.0
515.0,505.0,517.0,517.0,516.0
514.0,507.0,519.0,515.0,519.0
523.0,514.0,519.0,517.0,514.0
523.0,517.0,522.0,518.0,515.0
521.0,514.0,513.0,517.0,511.0
512.0,511.0,508.0,512.0,515.0
504.0,503.0,499.0,499.0,520.0
501.0,503.0,498.0,499.0,523.0
499.0,501.0,497.0,500.0,526.0
503.0,498.0,500.0,504.0,521.0
506.0,499.0,508.0,509.0,520.0
511.0,502.0,517.0,517.0,517.0
514.0,504.0,524.0,525.0,517.0
519.0,505.0,521.0,524.0,513.0
522.0,505.0,521.0,529.0,513.0
512.0,504.0,519.0,521.0,520.0
514.0,509.0,519.0,515.0,518.0
519.0,510.0,524.0,517.0,515.0
519.0,510.0,520.0,517.0,512.0
521.0,513.0,520.0,520.0,509.0
527.0,516.0,520.0,518.0,499.0
521.0,517.0,513.0,515.0,506.0
515.0,511.0,505.0,507.0,509.0
508.0,506.0,502.0,510.0,512.0
503.0,502.0,500.0,500.0,516.0
501.0,497.0,501.0,504.0,522.0
504.0,503.0,506.0,509.0,517.0
510.0,502.0,511.0,514.0,515.0
513.0,504.0,519.0,521.0,513.0
516.0,504.0,521.0,524.0,512.0
517.0,505.0,522.0,523.0,508.0
516.0,505.0,522.0,522.0,515.0
514.0,503.0,520.0,519.0,514.0
512.0,504.0,518.0,516.0,512.0
517.0,509.0,517.0,516.0,510.0
521.0,507.0,519.0,518.0,510.0
524.0,515.0,522.0,519.0,505.0
521.0,514.0,522.0,517.0,509.0
515.0,513.0,514.0,513.0,508.0
514.0,507.0,506.0,506.0,516.0
515.0,507.0,502.0,504.0,512.0
507.0,498.0,498.0,502.0,517.0
506.0,499.0,501.0,505.0,524.0
507.0,502.0,513.0,513.0,517.0
512.0,504.0,515.0,522.0,515.0
515.0,502.0,518.0,520.0,512.0
516.0,503.0,524.0,522.0,511.0
518.0,503.0,520.0,522.0,510.0
513.0,503.0,519.0,518.0,510.0
514.0,503.0,515.0,518.0,510.0
516.0,507.0,523.0,518.0,511.0
519.0,512.0,518.0,520.0,510.0
522.0,512.0,520.0,523.0,507.0
524.0,514.0,520.0,519.0,509.0
521.0,513.0,514.0,519.0,510.0
520.0,512.0,509.0,511.0,507.0
510.0,509.0,502.0,505.0,510.0
506.0,504.0,501.0,505.0,513.0
503.0,500.0,502.0,504.0,516.0
505.0,499.0,502.0,503.0,518.0
508.0,503.0,511.0,514.0,515.0
515.0,504.0,518.0,519.0,513.0
517.0,505.0,519.0,522.0,514.0
516.0,506.0,525.0,526.0,513.0
515.0,504.0,522.0,523.0,515.0
510.0,501.0,520.0,517.0,517.0
515.0,503.0,517.0,514.0,520.0
515.0,505.0,515.0,515.0,515.0
519.0,509.0,519.0,516.0,513.0
525.0,514.0,519.0,519.0,508.0
523.0,514.0,516.0,518.0,506.0
520.0,512.0,510.0,515.0,507.0
515.0,510.0,506.0,512.0,507.0
506.0,505.0,501.0,508.0,512.0
501.0,497.0,495.0,499.0,518.0
499.0,496.0,497.0,504.0,516.0
502.0,501.0,502.0,506.0,519.0
513.0,505.0,511.0,516.0,514.0
516.0,503.0,519.0,523.0,510.0
516.0,506.0,521.0,524.0,516.0
519.0,505.0,524.0,524.0,513.0
518.0,502.0,518.0,519.0,517.0
516.0,504.0,522.0,516.0,519.0
513.0,507.0,516.0,519.0,514.0
517.0,503.0,517.0,515.0,512.0
519.0,511.0,518.0,518.0,510.0
522.0,514.0,518.0,518.0,508.0
522.0,518.0,516.0,519.0,509.0
522.0,513.0,510.0,507.0,506.0
513.0,510.0,505.0,511.0,512.0
508.0,505.0,500.0,506.0,513.0
505.0,506.0,499.0,505.0,515.0
502.0,503.0,500.0,500.0,514.0
503.0,504.0,504.0,510.0,518.0
507.0,504.0,509.0,519.0,518.0
513.0,505.0,518.0,522.0,515.0
515.0,508.0,522.0,524.0,517.0
514.0,505.0,522.0,518.0,517.0
513.0,502.0,518.0,518.0,516.0
514.0,504.0,516.0,516.0,515.0
515.0,505.0,518.0,518.0,513.0
515.0,509.0,516.0,518.0,512.0
520.0,513.0,519.0,520.0,508.0
522.0,516.0,519.0,518.0,508.0
518.0,515.0,513.0,516.0,508.0
517.0,512.0,508.0,515.0,507.0
507.0,507.0,502.0,511.0,512.0
506.0,503.0,500.0,505.0,512.0
505.0,501.0,499.0,505.0,520.0
503.0,501.0,503.0,508.0,517.0
506.0,502.0,508.0,514.0,517.0
514.0,504.0,516.0,522.0,516.0
513.0,506.0,525.0,526.0,511.0
518.0,506.0,523.0,524.0,510.0
519.0,507.0,519.0,523.0,513.0
510.0,503.0,517.0,516.0,516.0
510.0,506.0,516.0,516.0,516.0
513.0,507.0,520.0,518.0,515.0
518.0,510.0,519.0,517.0,512.0
523.0,516.0,519.0,519.0,508.0
523.0,518.0,519.0,516.0,506.0
520.0,514.0,512.0,514.0,505.0
511.0,509.0,505.0,510.0,510.0
506.0,506.0,505.0,504.0,515.0
501.0,501.0,498.0,503.0,517.0
501.0,502.0,499.0,504.0,515.0
502.0,500.0,505.0,509.0,519.0
509.0,503.0,511.0,516.0,520.0
512.0,502.0,516.0,522.0,517.0
513.0,503.0,519.0,521.0,517.0
513.0,503.0,524.0,521.0,511.0
515.0,502.0,518.0,520.0,516.0
513.0,502.0,519.0,516.0,512.0
513.0,502.0,516.0,514.0,515.0
515.0,505.0,516.0,516.0,513.0
518.0,509.0,515.0,518.0,510.0
523.0,514.0,524.0,521.0,508.0
521.0,518.0,517.0,517.0,505.0
515.0,508.0,508.0,507.0,506.0
507.0,505.0,503.0,506.0,510.0
508.0,505.0,500.0,504.0,511.0
501.0,500.0,498.0,507.0,517.0
507.0,499.0,500.0,509.0,516.0
507.0,499.0,507.0,512.0,516.0
509.0,504.0,520.0,520.0,514.0
513.0,504.0,523.0,524.0,518.0
513.0,504.0,526.0,526.0,515.0
512.0,506.0,526.0,523.0,519.0
511.0,508.0,519.0,520.0,515.0
514.0,508.0,518.0,522.0,514.0
514.0,506.0,516.0,517.0,513.0
517.0,509.0,517.0,516.0,514.0
527.0,517.0,518.0,523.0,507.0
530.0,518.0,519.0,523.0,505.0
525.0,515.0,514.0,519.0,506.0
514.0,512.0,508.0,512.0,508.0
509.0,508.0,501.0,506.0,508.0
504.0,505.0,500.0,505.0,515.0
503.0,501.0,499.0,503.0,514.0
504.0,498.0,503.0,511.0,516.0
507.0,501.0,508.0,513.0,513.0
508.0,501.0,514.0,519.0,516.0
514.0,505.0,519.0,522.0,517.0
516.0,506.0,522.0,524.0,514.0
516.0,507.0,517.0,522.0,515.0
516.0,500.0,516.0,517.0,514.0
515.0,505.0,518.0,514.0,513.0
516.0,507.0,519.0,519.0,511.0
525.0,511.0,517.0,518.0,508.0
523.0,513.0,519.0,518.0,503.0
522.0,517.0,518.0,516.0,505.0
524.0,514.0,512.0,513.0,503.0
513.0,513.0,504.0,508.0,507.0
509.0,506.0,501.0,509.0,508.0
505.0,499.0,496.0,501.0,514.0
503.0,504.0,501.0,504.0,515.0
503.0,499.0,501.0,506.0,514.0
510.0,501.0,511.0,517.0,514.0
516.0,503.0,515.0,523.0,508.0
522.0,505.0,522.0,522.0,506.0
520.0,505.0,519.0,523.0,508.0
511.0,501.0,520.0,518.0,514.0
514.0,504.0,517.0,519.0,512.0
515.0,506.0,519.0,519.0,504.0
521.0,507.0,519.0,521.0,502.0
526.0,511.0,519.0,520.0,499.0
518.0,512.0,516.0,516.0,500.0
514.0,511.0,512.0,510.0,502.0
513.0,512.0,508.0,509.0,502.0
508.0,508.0,500.0,501.0,508.0
505.0,506.0,499.0,500.0,511.0
504.0,500.0,498.0,500.0,513.0
500.0,497.0,501.0,500.0,515.0
504.0,500.0,502.0,508.0,513.0
508.0,501.0,511.0,517.0,513.0
513.0,503.0,518.0,521.0,511.0
516.0,504.0,520.0,522.0,512.0
518.0,503.0,519.0,517.0,513.0
514.0,503.0,513.0,516.0,516.0
513.0,505.0,514.0,516.0,514.0
517.0,505.0,518.0,513.0,510.0
524.0,510.0,517.0,517.0,506.0
523.0,517.0,517.0,517.0,503.0
521.0,516.0,516.0,511.0,501.0
517.0,513.0,514.0,511.0,503.0
513.0,510.0,506.0,510.0,508.0
509.0,507.0,502.0,504.0,505.0
507.0,505.0,498.0,503.0,510.0
504.0,504.0,501.0,501.0,515.0
506.0,497.0,501.0,507.0,514.0
511.0,501.0,505.0,513.0,513.0
512.0,504.0,515.0,518.0,511.0
516.0,505.0,520.0,522.0,510.0
517.0,506.0,521.0,524.0,513.0
508.0,504.0,523.0,519.0,518.0
511.0,503.0,516.0,518.0,518.0
510.0,504.0,516.0,514.0,517.0
513.0,507.0,516.0,515.0,511.0
514.0,508.0,517.0,515.0,507.0
524.0,513.0,517.0,515.0,506.0
525.0,515.0,515.0,519.0,502.0
521.0,513.0,510.0,511.0,507.0
512.0,509.0,503.0,504.0,514.0
506.0,506.0,496.0,502.0,514.0
502.0,500.0,495.0,499.0,519.0
501.0,498.0,498.0,502.0,519.0
505.0,501.0,504.0,507.0,517.0
510.0,504.0,509.0,514.0,514.0
515.0,504.0,516.0,522.0,513.0
516.0,506.0,519.0,520.0,513.0
514.0,504.0,521.0,522.0,515.0
515.0,502.0,516.0,518.0,519.0
515.0,505.0,516.0,516.0,514.0
519.0,504.0,516.0,517.0,515.0
519.0,508.0,517.0,516.0,514.0
521.0,512.0,518.0,516.0,510.0
524.0,515.0,521.0,516.0,507.0
520.0,516.0,514.0,513.0,501.0
517.0,511.0,508.0,509.0,511.0
510.0,508.0,504.0,503.0,510.0
510.0,506.0,500.0,500.0,516.0
502.0,499.0,494.0,500.0,517.0
502.0,498.0,501.0,506.0,518.0
508.0,497.0,504.0,511.0,516.0
510.0,502.0,513.0,516.0,512.0
514.0,503.0,515.0,520.0,515.0
516.0,507.0,519.0,524.0,513.0
514.0,503.0,519.0,520.0,518.0
513.0,505.0,519.0,518.0,515.0
519.0,507.0,516.0,517.0,512.0
520.0,509.0,517.0,516.0,508.0
518.0,506.0,516.0,515.0,511.0
522.0,511.0,518.0,517.0,505.0
522.0,515.0,523.0,518.0,506.0
519.0,518.0,514.0,514.0,503.0
512.0,509.0,507.0,508.0,501.0
503.0,503.0,499.0,503.0,510.0
500.0,500.0,495.0,499.0,513.0
496.0,498.0,496.0,503.0,517.0
510.0,498.0,499.0,505.0,515.0
513.0,501.0,508.0,513.0,511.0
518.0,502.0,512.0,515.0,512.0
515.0,500.0,521.0,518.0,515.0
519.0,504.0,518.0,519.0,519.0
516.0,500.0,520.0,521.0,516.0
514.0,501.0,516.0,521.0,517.0
516.0,505.0,514.0,513.0,515.0
516.0,506.0,518.0,513.0,513.0
519.0,511.0,517.0,510.0,507.0
524.0,512.0,519.0,517.0,501.0
525.0,519.0,519.0,518.0,498.0
519.0,512.0,512.0,514.0,502.0
512.0,508.0,504.0,506.0,507.0
506.0,504.0,502.0,500.0,510.0
504.0,500.0,497.0,502.0,515.0
504.0,501.0,500.0,506.0,516.0
508.0,501.0,505.0,509.0,514.0
513.0,502.0,514.0,517.0,513.0
514.0,506.0,518.0,522.0,515.0
517.0,505.0,522.0,525.0,518.0
516.0,503.0,519.0,519.0,516.0
515.0,502.0,516.0,515.0,517.0
513.0,501.0,520.0,514.0,514.0
513.0,504.0,516.0,517.0,514.0
519.0,507.0,518.0,513.0,510.0
524.0,514.0,518.0,522.0,506.0
526.0,516.0,521.0,518.0,508.0
525.0,514.0,516.0,517.0,503.0
519.0,512.0,511.0,510.0,509.0
510.0,508.0,502.0,500.0,512.0
506.0,503.0,503.0,501.0,519.0
503.0,499.0,500.0,498.0,519.0
499.0,495.0,500.0,501.0,524.0
509.0,500.0,510.0,511.0,517.0
512.0,502.0,515.0,516.0,514.0
514.0,502.0,520.0,520.0,519.0
517.0,504.0,520.0,520.0,516.0
516.0,503.0,521.0,519.0,518.0
515.0,501.0,515.0,516.0,517.0
512.0,503.0,517.0,516.0,517.0
516.0,508.0,523.0,518.0,513.0
520.0,512.0,518.0,515.0,507.0
524.0,514.0,517.0,516.0,506.0
525.0,513.0,517.0,515.0,506.0
521.0,515.0,513.0,518.0,505.0
519.0,513.0,508.0,507.0,506.0
510.0,505.0,502.0,503.0,510.0
503.0,504.0,499.0,500.0,514.0
505.0,500.0,500.0,500.0,511.0
505.0,501.0,503.0,506.0,516.0
517.0,502.0,510.0,518.0,510.0
515.0,504.0,516.0,520.0,510.0
515.0,503.0,515.0,519.0,514.0
518.0,503.0,521.0,521.0,514.0
513.0,503.0,519.0,520.0,513.0
515.0,503.0,518.0,517.0,515.0
517.0,504.0,515.0,513.0,519.0
518.0,508.0,517.0,513.0,515.0
521.0,511.0,517.0,518.0,513.0
526.0,514.0,518.0,515.0,509.0
523.0,514.0,518.0,513.0,509.0
518.0,511.0,509.0,508.0,511.0
512.0,509.0,504.0,502.0,511.0
510.0,505.0,500.0,500.0,511.0
503.0,500.0,496.0,496.0,518.0
501.0,502.0,497.0,505.0,519.0
503.0,498.0,501.0,508.0,517.0
507.0,497.0,508.0,512.0,517.0
516.0,506.0,519.0,520.0,514.0
519.0,506.0,520.0,522.0,516.0
521.0,502.0,518.0,520.0,517.0
511.0,504.0,514.0,517.0,514.0
515.0,502.0,514.0,516.0,517.0
516.0,508.0,518.0,517.0,515.0
521.0,511.0,517.0,515.0,511.0
529.0,514.0,519.0,518.0,507.0
526.0,515.0,518.0,517.0,507.0
524.0,518.0,515.0,513.0,503.0
519.0,511.0,508.0,508.0,512.0
513.0,509.0,506.0,506.0,511.0
510.0,504.0,501.0,503.0,514.0
505.0,505.0,498.0,501.0,517.0
503.0,497.0,498.0,502.0,518.0
509.0,501.0,506.0,509.0,517.0
514.0,503.0,515.0,516.0,514.0
514.0,503.0,518.0,521.0,519.0
516.0,506.0,516.0,523.0,515.0
520.0,507.0,520.0,518.0,515.0
517.0,504.0,517.0,516.0,520.0
514.0,506.0,517.0,515.0,518.0
520.0,506.0,513.0,514.0,515.0
519.0,509.0,516.0,513.0,511.0
527.0,515.0,516.0,516.0,509.0
523.0,514.0,516.0,516.0,507.0
518.0,514.0,511.0,516.0,507.0
513.0,510.0,507.0,507.0,507.0
512.0,505.0,502.0,504.0,513.0
507.0,501.0,496.0,497.0,518.0
506.0,502.0,496.0,502.0,517.0
507.0,498.0,501.0,505.0,518.0
508.0,502.0,509.0,513.0,514.0
518.0,504.0,514.0,517.0,513.0
522.0,506.0,518.0,520.0,514.0
524.0,504.0,519.0,522.0,515.0
517.0,506.0,519.0,521.0,514.0
517.0,506.0,515.0,520.0,511.0
514.0,507.0,516.0,522.0,512.0
518.0,506.0,515.0,515.0,514.0
518.0,511.0,521.0,515.0,515.0
522.0,514.0,519.0,515.0,508.0
526.0,517.0,514.0,512.0,507.0
532.0,518.0,512.0,510.0,507.0
518.0,511.0,506.0,504.0,513.0
509.0,504.0,497.0,500.0,515.0
504.0,500.0,494.0,503.0,515.0
503.0,500.0,498.0,504.0,517.0
508.0,499.0,502.0,506.0,514.0
512.0,501.0,509.0,516.0,514.0
517.0,507.0,517.0,520.0,514.0
517.0,506.0,522.0,524.0,510.0
516.0,507.0,520.0,520.0,513.0
517.0,504.0,517.0,516.0,520.0
516.0,508.0,518.0,517.0,515.0
514.0,506.0,515.0,513.0,516.0
518.0,505.0,512.0,513.0,512.0
517.0,511.0,516.0,513.0,510.0
522.0,512.0,515.0,514.0,508.0
521.0,513.0,512.0,512.0,508.0
518.0,511.0,507.0,509.0,507.0
514.0,507.0,501.0,506.0,509.0
504.0,503.0,493.0,496.0,515.0
497.0,496.0,495.0,497.0,517.0
504.0,498.0,497.0,502.0,517.0
505.0,500.0,505.0,511.0,517.0
513.0,505.0,512.0,519.0,514.0
509.0,501.0,509.0,514.0,518.0
512.0,501.0,513.0,518.0,517.0
515.0,505.0,518.0,518.0,522.0
512.0,503.0,515.0,522.0,519.0
515.0,504.0,519.0,517.0,516.0
518.0,509.0,518.0,521.0,514.0
520.0,516.0,516.0,518.0,510.0
521.0,514.0,518.0,515.0,508.0
528.0,515.0,518.0,517.0,500.0
523.0,516.0,511.0,514.0,505.0
514.0,510.0,505.0,511.0,508.0
508.0,510.0,502.0,507.0,508.0
504.0,505.0,498.0,501.0,514.0
503.0,503.0,499.0,501.0,514.0
506.0,500.0,501.0,503.0,516.0
508.0,502.0,506.0,510.0,516.0
512.0,504.0,511.0,516.0,515.0
515.0,507.0,516.0,519.0,515.0
519.0,503.0,518.0,522.0,511.0
520.0,500.0,518.0,520.0,512.0
516.0,507.0,514.0,520.0,515.0
510.0,506.0,515.0,511.0,519.0
516.0,507.0,515.0,510.0,519.0
523.0,511.0,517.0,514.0,514.0
525.0,516.0,519.0,517.0,511.0
524.0,514.0,515.0,514.0,506.0
517.0,514.0,511.0,513.0,506.0
515.0,509.0,505.0,507.0,510.0
508.0,509.0,499.0,502.0,514.0
501.0,500.0,496.0,499.0,519.0
500.0,497.0,496.0,500.0,521.0
503.0,500.0,508.0,509.0,518.0
510.0,502.0,511.0,515.0,516.0
515.0,504.0,515.0,522.0,515.0
521.0,498.0,518.0,516.0,516.0
514.0,503.0,518.0,519.0,521.0
512.0,500.0,516.0,516.0,520.0
514.0,502.0,515.0,520.0,517.0
516.0,505.0,515.0,514.0,514.0
522.0,510.0,515.0,515.0,512.0
523.0,511.0,516.0,516.0,512.0
525.0,515.0,519.0,516.0,505.0
524.0,515.0,511.0,512.0,506.0
518.0,512.0,508.0,510.0,507.0
512.0,506.0,501.0,502.0,510.0
505.0,509.0,499.0,501.0,514.0
507.0,496.0,496.0,494.0,514.0
505.0,499.0,497.0,503.0,519.0
507.0,500.0,507.0,511.0,517.0
517.0,505.0,512.0,518.0,513.0
516.0,508.0,517.0,519.0,513.0
520.0,506.0,515.0,522.0,514.0
518.0,507.0,518.0,521.0,517.0
519.0,505.0,513.0,516.0,519.0
519.0,503.0,512.0,512.0,518.0
515.0,507.0,513.0,516.0,515.0
519.0,509.0,514.0,514.0,512.0
521.0,513.0,515.0,516.0,508.0
521.0,514.0,516.0,515.0,508.0
519.0,514.0,509.0,510.0,509.0
510.0,507.0,505.0,502.0,512.0
507.0,506.0,498.0,506.0,513.0
509.0,502.0,495.0,499.0,515.0
502.0,498.0,497.0,499.0,518.0
502.0,498.0,500.0,502.0,518.0
505.0,501.0,505.0,512.0,517.0
513.0,506.0,517.0,518.0,515.0
519.0,509.0,519.0,522.0,511.0
525.0,505.0,519.0,523.0,508.0
515.0,504.0,517.0,517.0,510.0
517.0,504.0,515.0,518.0,514.0
519.0,507.0,516.0,517.0,512.0
525.0,510.0,515.0,515.0,508.0
522.0,513.0,516.0,517.0,506.0
526.0,520.0,517.0,517.0,504.0
527.0,515.0,514.0,515.0,502.0
524.0,518.0,509.0,511.0,499.0
519.0,507.0,502.0,508.0,508.0
512.0,503.0,498.0,503.0,510.0
506.0,499.0,495.0,503.0,512.0
501.0,499.0,498.0,500.0,514.0
505.0,502.0,505.0,508.0,515.0
513.0,502.0,510.0,515.0,507.0
517.0,505.0,516.0,519.0,512.0
516.0,505.0,518.0,523.0,511.0
515.0,508.0,517.0,516.0,512.0
517.0,502.0,514.0,515.0,513.0
517.0,506.0,517.0,518.0,512.0
518.0,507.0,515.0,517.0,512.0
522.0,510.0,515.0,515.0,508.0
522.0,513.0,518.0,516.0,505.0
520.0,513.0,515.0,514.0,507.0
522.0,515.0,516.0,513.0,505.0
519.0,512.0,506.0,507.0,504.0
514.0,506.0,499.0,504.0,511.0
508.0,503.0,497.0,500.0,511.0
503.0,504.0,496.0,500.0,512.0
504.0,498.0,499.0,507.0,514.0
507.0,501.0,505.0,511.0,515.0
513.0,507.0,512.0,519.0,511.0
517.0,505.0,517.0,521.0,517.0
516.0,506.0,519.0,519.0,516.0
518.0,507.0,517.0,519.0,514.0
511.0,503.0,515.0,515.0,519.0
513.0,508.0,517.0,516.0,517.0
520.0,512.0,515.0,516.0,513.0
519.0,509.0,513.0,515.0,511.0
522.0,513.0,515.0,515.0,506.0
523.0,515.0,517.0,515.0,503.0
526.0,515.0,511.0,513.0,505.0
516.0,512.0,505.0,506.0,511.0
508.0,506.0,500.0,500.0,512.0
504.0,504.0,497.0,499.0,516.0
504.0,500.0,497.0,500.0,512.0
506.0,501.0,501.0,506.0,518.0
512.0,503.0,511.0,514.0,517.0
514.0,505.0,515.0,515.0,514.0
518.0,505.0,519.0,524.0,516.0
519.0,506.0,522.0,521.0,520.0
512.0,502.0,514.0,519.0,518.0
509.0,501.0,517.0,514.0,517.0
514.0,503.0,518.0,514.0,515.0
524.0,508.0,516.0,518.0,510.0
521.0,510.0,516.0,517.0,508.0
523.0,513.0,515.0,516.0,506.0
522.0,513.0,516.0,511.0,506.0
521.0,513.0,510.0,511.0,507.0
511.0,509.0,505.0,505.0,511.0
507.0,505.0,498.0,499.0,514.0
504.0,497.0,495.0,497.0,517.0
505.0,497.0,497.0,500.0,519.0
507.0,500.0,507.0,508.0,516.0
514.0,503.0,512.0,515.0,518.0
515.0,505.0,522.0,520.0,516.0
516.0,505.0,522.0,522.0,514.0
518.0,504.0,520.0,522.0,515.0
513.0,508.0,519.0,517.0,518.0
516.0,510.0,521.0,517.0,515.0
519.0,506.0,518.0,516.0,519.0
521.0,508.0,514.0,515.0,514.0
527.0,513.0,519.0,519.0,508.0
528.0,516.0,518.0,519.0,507.0
527.0,515.0,512.0,511.0,511.0
521.0,511.0,507.0,507.0,510.0
512.0,506.0,498.0,500.0,512.0
504.0,503.0,499.0,499.0,517.0
503.0,501.0,498.0,499.0,519.0
505.0,499.0,494.0,501.0,518.0
506.0,500.0,506.0,510.0,519.0
512.0,505.0,516.0,517.0,512.0
519.0,505.0,523.0,521.0,517.0
518.0,505.0,519.0,523.0,517.0
516.0,502.0,517.0,518.0,516.0
518.0,501.0,516.0,514.0,519.0
516.0,504.0,511.0,515.0,516.0
521.0,509.0,518.0,514.0,513.0
520.0,511.0,516.0,513.0,512.0
523.0,512.0,521.0,515.0,507.0
525.0,520.0,518.0,517.0,501.0
521.0,514.0,512.0,511.0,502.0
519.0,509.0,506.0,510.0,509.0
508.0,508.0,501.0,502.0,510.0
505.0,502.0,499.0,499.0,516.0
502.0,499.0,498.0,499.0,516.0
505.0,498.0,502.0,505.0,514.0
511.0,503.0,513.0,514.0,514.0
514.0,507.0,519.0,520.0,518.0
517.0,511.0,522.0,522.0,513.0
518.0,505.0,520.0,524.0,515.0
519.0,503.0,513.0,516.0,516.0
514.0,507.0,516.0,511.0,516.0
516.0,505.0,516.0,514.0,513.0
518.0,512.0,518.0,518.0,510.0
521.0,513.0,519.0,518.0,506.0
524.0,514.0,521.0,517.0,502.0
523.0,516.0,513.0,511.0,508.0
521.0,513.0,504.0,507.0,509.0
512.0,509.0,502.0,498.0,513.0
507.0,505.0,498.0,500.0,518.0
503.0,499.0,495.0,499.0,518.0
499.0,499.0,500.0,502.0,521.0
503.0,499.0,506.0,506.0,519.0
507.0,502.0,515.0,514.0,519.0
509.0,501.0,514.0,517.0,522.0
518.0,506.0,519.0,520.0,518.0
518.0,508.0,518.0,520.0,517.0
517.0,503.0,515.0,519.0,517.0
513.0,507.0,515.0,512.0,517.0
514.0,505.0,513.0,510.0,517.0
519.0,507.0,515.0,513.0,518.0
521.0,512.0,517.0,516.0,513.0
524.0,514.0,515.0,515.0,511.0
520.0,513.0,511.0,513.0,510.0
516.0,512.0,511.0,509.0,508.0
513.0,510.0,501.0,507.0,508.0
509.0,504.0,498.0,499.0,510.0
505.0,500.0,497.0,503.0,515.0
501.0,501.0,501.0,505.0,516.0
510.0,506.0,506.0,514.0,514.0
517.0,504.0,517.0,517.0,513.0
516.0,506.0,518.0,524.0,511.0
518.0,507.0,522.0,526.0,515.0
517.0,506.0,520.0,520.0,516.0
512.0,504.0,517.0,518.0,518.0
515.0,507.0,518.0,517.0,516.0
518.0,509.0,517.0,514.0,514.0
517.0,510.0,520.0,514.0,510.0
525.0,513.0,518.0,517.0,507.0
524.0,519.0,516.0,519.0,503.0
522.0,515.0,513.0,515.0,501.0
518.0,510.0,509.0,509.0,504.0
520.0,506.0,500.0,505.0,505.0
509.0,501.0,495.0,500.0,516.0
503.0,501.0,494.0,503.0,518.0
510.0,503.0,502.0,507.0,516.0
511.0,503.0,510.0,519.0,517.0
512.0,506.0,515.0,517.0,515.0
516.0,510.0,519.0,521.0,512.0
520.0,505.0,520.0,519.0,515.0
518.0,502.0,516.0,517.0,515.0
517.0,503.0,515.0,514.0,514.0
517.0,506.0,515.0,514.0,512.0
517.0,509.0,519.0,514.0,515.0
523.0,515.0,517.0,520.0,508.0
525.0,516.0,521.0,520.0,506.0
525.0,515.0,514.0,513.0,508.0
519.0,514.0,509.0,511.0,510.0
509.0,510.0,504.0,504.0,511.0
506.0,505.0,500.0,502.0,514.0
502.0,501.0,496.0,505.0,516.0
501.0,501.0,497.0,504.0,515.0
504.0,500.0,505.0,509.0,520.0
513.0,506.0,511.0,522.0,513.0
519.0,505.0,518.0,523.0,511.0
523.0,507.0,521.0,528.0,512.0
519.0,502.0,518.0,519.0,518.0
516.0,502.0,517.0,517.0,519.0
513.0,504.0,519.0,518.0,516.0
514.0,506.0,518.0,518.0,513.0
515.0,511.0,517.0,513.0,513.0
521.0,513.0,519.0,517.0,509.0
524.0,515.0,520.0,517.0,507.0
521.0,515.0,514.0,515.0,507.0
518.0,511.0,508.0,505.0,508.0
509.0,506.0,501.0,501.0,512.0
505.0,503.0,497.0,500.0,514.0
500.0,498.0,495.0,498.0,518.0
503.0,498.0,499.0,505.0,518.0
508.0,500.0,507.0,511.0,520.0
511.0,501.0,513.0,513.0,516.0
512.0,503.0,516.0,519.0,514.0
517.0,504.0,523.0,522.0,519.0
517.0,505.0,518.0,518.0,521.0
508.0,503.0,515.0,513.0,518.0
508.0,505.0,516.0,513.0,517.0
512.0,506.0,516.0,513.0,514.0
520.0,511.0,518.0,516.0,509.0
525.0,514.0,520.0,517.0,506.0
525.0,518.0,515.0,515.0,507.0
525.0,513.0,510.0,508.0,507.0
517.0,508.0,503.0,504.0,511.0
510.0,507.0,502.0,500.0,516.0
507.0,502.0,500.0,498.0,521.0
504.0,501.0,500.0,501.0,518.0
506.0,501.0,504.0,504.0,518.0
513.0,505.0,511.0,512.0,519.0
516.0,504.0,513.0,517.0,511.0
515.0,507.0,521.0,521.0,515.0
519.0,504.0,521.0,521.0,510.0
515.0,502.0,522.0,517.0,516.0
515.0,503.0,517.0,514.0,512.0
519.0,507.0,517.0,513.0,516.0
520.0,509.0,517.0,513.0,512.0
525.0,513.0,520.0,516.0,506.0
528.0,516.0,521.0,518.0,504.0
522.0,518.0,515.0,515.0,505.0
520.0,514.0,513.0,510.0,507.0
511.0,507.0,503.0,504.0,511.0
510.0,506.0,500.0,500.0,513.0
503.0,499.0,497.0,499.0,515.0
504.0,496.0,498.0,501.0,520.0
507.0,501.0,505.0,508.0,517.0
511.0,501.0,514.0,515.0,514.0
518.0,506.0,519.0,521.0,514.0
518.0,512.0,522.0,521.0,514.0
518.0,508.0,521.0,519.0,515.0
515.0,503.0,517.0,521.0,519.0
516.0,504.0,518.0,518.0,518.0
516.0,506.0,515.0,516.0,517.0
519.0,509.0,519.0,513.0,513.0
523.0,513.0,524.0,517.0,512.0
522.0,514.0,519.0,518.0,505.0
519.0,519.0,515.0,513.0,503.0
512.0,512.0,506.0,506.0,507.0
507.0,507.0,499.0,505.0,513.0
505.0,502.0,500.0,500.0,515.0
501.0,499.0,497.0,500.0,517.0
503.0,498.0,500.0,504.0,518.0
505.0,499.0,507.0,512.0,519.0
511.0,504.0,516.0,518.0,517.0
515.0,504.0,518.0,522.0,510.0
521.0,503.0,523.0,522.0,508.0
519.0,505.0,520.0,519.0,514.0
511.0,502.0,516.0,515.0,513.0
513.0,502.0,516.0,514.0,513.0
517.0,507.0,514.0,514.0,513.0
518.0,513.0,517.0,517.0,511.0
523.0,514.0,517.0,518.0,508.0
524.0,514.0,515.0,514.0,505.0
517.0,512.0,510.0,512.0,507.0
513.0,507.0,504.0,503.0,509.0
505.0,502.0,499.0,504.0,512.0
501.0,502.0,497.0,499.0,515.0
506.0,498.0,497.0,500.0,517.0
501.0,498.0,500.0,503.0,516.0
509.0,501.0,507.0,510.0,517.0
514.0,508.0,515.0,520.0,513.0
521.0,504.0,520.0,522.0,512.0
518.0,503.0,518.0,519.0,515.0
514.0,500.0,517.0,514.0,516.0
513.0,502.0,515.0,515.0,517.0
516.0,504.0,518.0,515.0,512.0
520.0,508.0,517.0,515.0,513.0
524.0,511.0,518.0,516.0,510.0
527.0,514.0,518.0,516.0,513.0
524.0,516.0,516.0,516.0,509.0
523.0,516.0,510.0,509.0,509.0
514.0,510.0,504.0,503.0,509.0
509.0,506.0,504.0,504.0,508.0
508.0,503.0,497.0,501.0,515.0
501.0,500.0,498.0,504.0,517.0
504.0,500.0,503.0,505.0,517.0
512.0,499.0,512.0,517.0,515.0
514.0,504.0,517.0,519.0,513.0
523.0,505.0,520.0,522.0,512.0
516.0,504.0,519.0,519.0,513.0
515.0,501.0,518.0,518.0,516.0
514.0,502.0,518.0,515.0,518.0
515.0,509.0,517.0,512.0,515.0
520.0,512.0,518.0,512.0,513.0
523.0,515.0,519.0,513.0,508.0
525.0,517.0,514.0,516.0,506.0
520.0,516.0,515.0,513.0,508.0
516.0,511.0,507.0,506.0,510.0
510.0,510.0,499.0,501.0,511.0
507.0,504.0,499.0,501.0,515.0
505.0,500.0,500.0,501.0,517.0
502.0,499.0,499.0,502.0,518.0
507.0,499.0,507.0,511.0,517.0
511.0,504.0,514.0,524.0,515.0
518.0,502.0,520.0,525.0,513.0
518.0,505.0,525.0,523.0,515.0
517.0,504.0,519.0,517.0,511.0
513.0,500.0,515.0,514.0,516.0
512.0,507.0,518.0,515.0,516.0
520.0,508.0,516.0,514.0,510.0
520.0,512.0,517.0,515.0,508.0
521.0,514.0,518.0,518.0,507.0
524.0,515.0,515.0,516.0,506.0
520.0,512.0,506.0,509.0,511.0
515.0,511.0,507.0,506.0,509.0
510.0,501.0,501.0,498.0,510.0
505.0,500.0,498.0,502.0,514.0
503.0,499.0,501.0,501.0,518.0
506.0,500.0,501.0,506.0,513.0
513.0,504.0,510.0,517.0,513.0
516.0,506.0,518.0,521.0,513.0
518.0,505.0,520.0,522.0,518.0
515.0,508.0,517.0,518.0,516.0
511.0,508.0,517.0,516.0,518.0
514.0,504.0,517.0,515.0,517.0
514.0,507.0,517.0,514.0,515.0
519.0,507.0,511.0,514.0,514.0
524.0,512.0,518.0,517.0,512.0
523.0,516.0,518.0,518.0,501.0
521.0,516.0,515.0,513.0,507.0
520.0,512.0,507.0,507.0,510.0
508.0,506.0,504.0,501.0,520.0
504.0,506.0,499.0,498.0,519.0
502.0,498.0,494.0,497.0,517.0
501.0,498.0,497.0,502.0,518.0
504.0,499.0,504.0,512.0,516.0
506.0,503.0,509.0,511.0,517.0
510.0,503.0,515.0,516.0,519.0
509.0,503.0,522.0,521.0,518.0
513.0,504.0,522.0,521.0,518.0
515.0,500.0,514.0,514.0,521.0
513.0,500.0,514.0,513.0,522.0
512.0,505.0,516.0,519.0,517.0
519.0,510.0,516.0,510.0,511.0
523.0,514.0,517.0,515.0,511.0
526.0,518.0,519.0,518.0,506.0
522.0,514.0,515.0,512.0,507.0
520.0,510.0,508.0,511.0,509.0
511.0,506.0,500.0,503.0,510.0
505.0,502.0,498.0,506.0,513.0
500.0,499.0,496.0,499.0,518.0
500.0,502.0,502.0,505.0,519.0
506.0,500.0,507.0,511.0,517.0
511.0,509.0,516.0,519.0,517.0
517.0,506.0,521.0,521.0,517.0
526.0,506.0,525.0,523.0,513.0
516.0,503.0,520.0,520.0,517.0
518.0,504.0,516.0,513.0,519.0
520.0,507.0,516.0,515.0,515.0
521.0,507.0,516.0,513.0,515.0
523.0,507.0,516.0,514.0,512.0
523.0,513.0,519.0,516.0,509.0
526.0,517.0,516.0,514.0,503.0
522.0,514.0,513.0,511.0,507.0
515.0,510.0,508.0,508.0,511.0
511.0,506.0,501.0,506.0,511.0
504.0,499.0,496.0,500.0,516.0
503.0,499.0,499.0,504.0,517.0
510.0,500.0,504.0,509.0,513.0
