CH1,CH2,CH3,CH4,CH5
513.0,503.0,513.0,517.0,520.0
515.0,499.0,512.0,513.0,518.0
511.0,498.0,512.0,514.0,520.0
514.0,501.0,513.0,510.0,517.0
512.0,505.0,511.0,510.0,516.0
516.0,510.0,515.0,511.0,514.0
519.0,510.0,514.0,509.0,510.0
522.0,516.0,512.0,510.0,509.0
518.0,511.0,505.0,503.0,509.0
504.0,504.0,497.0,501.0,511.0
501.0,499.0,493.0,498.0,517.0
503.0,500.0,491.0,494.0,517.0
499.0,496.0,495.0,499.0,522.0
504.0,498.0,501.0,505.0,520.0
512.0,502.0,509.0,514.0,518.0
515.0,497.0,514.0,516.0,517.0
515.0,503.0,517.0,521.0,517.0
515.0,502.0,517.0,523.0,522.0
514.0,501.0,518.0,519.0,520.0
521.0,503.0,515.0,517.0,522.0
516.0,505.0,514.0,514.0,518.0
521.0,503.0,512.0,507.0,514.0
523.0,509.0,516.0,514.0,508.0
526.0,514.0,515.0,514.0,511.0
522.0,516.0,512.0,509.0,508.0
517.0,507.0,505.0,504.0,509.0
509.0,509.0,499.0,499.0,512.0
506.0,503.0,498.0,502.0,514.0
500.0,497.0,493.0,498.0,516.0
503.0,500.0,498.0,503.0,520.0
507.0,502.0,503.0,508.0,520.0
512.0,507.0,512.0,516.0,521.0
515.0,502.0,515.0,522.0,517.0
518.0,503.0,518.0,521.0,516.0
514.0,501.0,516.0,515.0,519.0
513.0,501.0,515.0,517.0,524.0
516.0,505.0,515.0,516.0,518.0
516.0,509.0,514.0,514.0,516.0
517.0,506.0,514.0,513.0,513.0
521.0,509.0,514.0,512.0,504.0
525.0,517.0,513.0,512.0,505.0
525.0,516.0,511.0,509.0,506.0
515.0,510.0,505.0,507.0,508.0
511.0,504.0,500.0,498.0,513.0
503.0,498.0,492.0,495.0,521.0
501.0,497.0,494.0,499.0,522.0
506.0,498.0,500.0,504.0,518.0
509.0,505.0,508.0,514.0,521.0
513.0,502.0,511.0,516.0,517.0
516.0,501.0,516.0,520.0,517.0
516.0,504.0,517.0,526.0,519.0
517.0,502.0,517.0,517.0,520.0
516.0,501.0,516.0,516.0,521.0
511.0,502.0,513.0,514.0,521.0
520.0,507.0,518.0,512.0,517.0
519.0,508.0,514.0,513.0,510.0
524.0,514.0,517.0,514.0,509.0
523.0,518.0,512.0,511.0,506.0
519.0,513.0,505.0,503.0,511.0
511.0,506.0,500.0,500.0,517.0
509.0,502.0,498.0,496.0,514.0
503.0,499.0,493.0,495.0,518.0
503.0,499.0,493.0,494.0,520.0
501.0,498.0,499.0,504.0,521.0
504.0,498.0,505.0,510.0,520.0
509.0,499.0,506.0,515.0,519.0
518.0,503.0,517.0,521.0,521.0
518.0,502.0,515.0,520.0,519.0
515.0,501.0,512.0,513.0,525.0
510.0,500.0,513.0,513.0,522.0
514.0,501.0,514.0,510.0,521.0
522.0,506.0,513.0,511.0,514.0
526.0,511.0,515.0,513.0,510.0
519.0,512.0,512.0,510.0,513.0
519.0,513.0,508.0,505.0,504.0
515.0,509.0,503.0,502.0,506.0
511.0,507.0,501.0,502.0,512.0
509.0,503.0,495.0,497.0,513.0
502.0,499.0,495.0,496.0,522.0
503.0,498.0,495.0,500.0,521.0
507.0,500.0,504.0,508.0,518.0
512.0,502.0,511.0,515.0,518.0
519.0,503.0,515.0,519.0,519.0
518.0,502.0,518.0,515.0,518.0
516.0,502.0,515.0,518.0,519.0
513.0,502.0,516.0,524.0,520.0
519.0,503.0,519.0,519.0,516.0
523.0,507.0,518.0,514.0,517.0
520.0,508.0,512.0,508.0,518.0
527.0,512.0,520.0,514.0,508.0
528.0,513.0,515.0,517.0,506.0
527.0,515.0,511.0,509.0,512.0
507.0,512.0,504.0,505.0,514.0
504.0,505.0,499.0,496.0,514.0
501.0,504.0,495.0,495.0,521.0
502.0,498.0,493.0,499.0,519.0
503.0,499.0,500.0,503.0,521.0
505.0,500.0,507.0,515.0,523.0
511.0,502.0,513.0,517.0,519.0
515.0,502.0,517.0,520.0,519.0
514.0,502.0,517.0,518.0,521.0
521.0,503.0,516.0,518.0,518.0
512.0,502.0,514.0,514.0,520.0
515.0,503.0,514.0,513.0,521.0
519.0,508.0,516.0,516.0,517.0
520.0,510.0,514.0,510.0,513.0
525.0,513.0,514.0,510.0,515.0
523.0,516.0,513.0,508.0,508.0
522.0,511.0,508.0,503.0,505.0
517.0,509.0,503.0,500.0,514.0
507.0,504.0,497.0,497.0,516.0
504.0,501.0,493.0,491.0,519.0
499.0,497.0,494.0,499.0,525.0
509.0,500.0,505.0,506.0,518.0
511.0,503.0,514.0,515.0,521.0
516.0,502.0,512.0,518.0,520.0
519.0,504.0,520.0,521.0,518.0
521.0,502.0,518.0,520.0,517.0
516.0,505.0,513.0,515.0,522.0
513.0,503.0,513.0,514.0,521.0
516.0,507.0,512.0,514.0,518.0
519.0,501.0,512.0,511.0,518.0
525.0,512.0,514.0,511.0,512.0
524.0,513.0,511.0,510.0,509.0
521.0,517.0,511.0,508.0,512.0
518.0,507.0,503.0,502.0,511.0
515.0,508.0,503.0,499.0,513.0
504.0,504.0,494.0,498.0,519.0
502.0,498.0,491.0,496.0,520.0
502.0,495.0,495.0,499.0,523.0
506.0,498.0,503.0,507.0,524.0
512.0,502.0,510.0,515.0,521.0
518.0,506.0,515.0,520.0,520.0
520.0,507.0,518.0,527.0,517.0
514.0,505.0,513.0,511.0,523.0
509.0,500.0,512.0,513.0,527.0
519.0,504.0,511.0,512.0,522.0
517.0,506.0,513.0,512.0,519.0
518.0,507.0,513.0,511.0,517.0
517.0,511.0,512.0,509.0,514.0
523.0,513.0,511.0,510.0,508.0
522.0,512.0,504.0,505.0,508.0
515.0,509.0,502.0,503.0,512.0
509.0,509.0,497.0,498.0,515.0
504.0,501.0,493.0,497.0,519.0
505.0,498.0,494.0,498.0,518.0
506.0,498.0,500.0,506.0,519.0
510.0,502.0,512.0,513.0,520.0
518.0,504.0,513.0,520.0,520.0
518.0,502.0,518.0,521.0,517.0
519.0,503.0,512.0,519.0,517.0
516.0,502.0,515.0,519.0,519.0
515.0,502.0,514.0,516.0,522.0
516.0,503.0,513.0,514.0,516.0
522.0,506.0,513.0,512.0,516.0
523.0,513.0,517.0,514.0,512.0
531.0,515.0,518.0,513.0,509.0
528.0,514.0,512.0,509.0,506.0
525.0,511.0,507.0,506.0,505.0
510.0,505.0,500.0,503.0,512.0
505.0,504.0,498.0,499.0,518.0
503.0,500.0,494.0,496.0,518.0
502.0,496.0,495.0,498.0,518.0
506.0,499.0,506.0,507.0,520.0
513.0,503.0,512.0,513.0,518.0
513.0,500.0,513.0,519.0,516.0
516.0,504.0,518.0,522.0,521.0
517.0,503.0,518.0,522.0,520.0
515.0,502.0,516.0,515.0,519.0
516.0,503.0,515.0,516.0,516.0
520.0,503.0,514.0,512.0,518.0
523.0,505.0,512.0,510.0,515.0
523.0,509.0,517.0,515.0,507.0
529.0,517.0,518.0,515.0,504.0
528.0,515.0,513.0,510.0,500.0
520.0,513.0,505.0,507.0,507.0
505.0,505.0,498.0,502.0,517.0
502.0,501.0,495.0,494.0,516.0
501.0,498.0,493.0,495.0,517.0
499.0,497.0,497.0,501.0,522.0
504.0,499.0,502.0,507.0,519.0
512.0,502.0,511.0,512.0,523.0
515.0,500.0,513.0,513.0,520.0
517.0,506.0,516.0,514.0,518.0
515.0,503.0,516.0,523.0,520.0
513.0,500.0,515.0,513.0,520.0
515.0,499.0,513.0,511.0,519.0
521.0,506.0,514.0,511.0,514.0
519.0,507.0,511.0,508.0,515.0
520.0,512.0,514.0,509.0,514.0
524.0,514.0,514.0,510.0,507.0
519.0,512.0,511.0,506.0,509.0
514.0,507.0,501.0,500.0,513.0
508.0,505.0,498.0,498.0,518.0
504.0,500.0,492.0,489.0,516.0
502.0,497.0,493.0,496.0,520.0
503.0,497.0,497.0,500.0,519.0
506.0,497.0,503.0,508.0,520.0
515.0,501.0,512.0,516.0,518.0
516.0,501.0,517.0,520.0,519.0
519.0,500.0,515.0,517.0,519.0
516.0,499.0,512.0,515.0,519.0
513.0,500.0,511.0,510.0,524.0
519.0,502.0,511.0,510.0,520.0
521.0,505.0,517.0,513.0,513.0
520.0,509.0,517.0,516.0,512.0
523.0,515.0,512.0,514.0,510.0
526.0,513.0,511.0,505.0,510.0
517.0,507.0,503.0,499.0,513.0
510.0,510.0,501.0,498.0,512.0
506.0,502.0,496.0,496.0,515.0
502.0,499.0,494.0,497.0,518.0
503.0,495.0,495.0,498.0,518.0
503.0,501.0,499.0,507.0,521.0
509.0,499.0,507.0,513.0,521.0
515.0,504.0,512.0,518.0,518.0
519.0,503.0,520.0,522.0,518.0
518.0,507.0,519.0,522.0,520.0
516.0,501.0,516.0,518.0,521.0
518.0,500.0,514.0,515.0,522.0
518.0,503.0,510.0,513.0,519.0
516.0,505.0,512.0,512.0,517.0
524.0,511.0,517.0,513.0,508.0
525.0,513.0,514.0,513.0,507.0
524.0,514.0,512.0,512.0,508.0
517.0,511.0,505.0,504.0,507.0
509.0,505.0,500.0,504.0,512.0
507.0,501.0,495.0,497.0,513.0
505.0,500.0,496.0,496.0,515.0
502.0,497.0,494.0,503.0,520.0
506.0,498.0,501.0,508.0,519.0
508.0,501.0,511.0,515.0,515.0
515.0,505.0,515.0,521.0,517.0
522.0,505.0,517.0,522.0,517.0
519.0,504.0,522.0,520.0,515.0
516.0,500.0,513.0,515.0,518.0
520.0,502.0,514.0,515.0,517.0
521.0,509.0,516.0,515.0,514.0
519.0,508.0,513.0,516.0,511.0
518.0,512.0,514.0,510.0,511.0
524.0,514.0,518.0,510.0,506.0
520.0,513.0,507.0,507.0,504.0
516.0,510.0,504.0,506.0,509.0
507.0,504.0,498.0,498.0,517.0
504.0,501.0,493.0,495.0,517.0
501.0,496.0,492.0,496.0,520.0
505.0,499.0,499.0,502.0,520.0
505.0,498.0,504.0,510.0,518.0
515.0,504.0,513.0,519.0,517.0
517.0,500.0,515.0,519.0,516.0
519.0,506.0,518.0,520.0,517.0
517.0,502.0,515.0,516.0,520.0
511.0,500.0,512.0,514.0,522.0
516.0,504.0,516.0,516.0,518.0
518.0,508.0,514.0,513.0,516.0
517.0,508.0,512.0,513.0,513.0
525.0,512.0,515.0,511.0,510.0
524.0,517.0,511.0,508.0,509.0
523.0,516.0,511.0,509.0,512.0
512.0,506.0,500.0,500.0,513.0
507.0,502.0,494.0,496.0,515.0
500.0,498.0,494.0,496.0,521.0
504.0,499.0,495.0,497.0,520.0
503.0,498.0,500.0,509.0,522.0
509.0,498.0,506.0,510.0,521.0
512.0,499.0,509.0,514.0,520.0
513.0,502.0,511.0,519.0,521.0
518.0,504.0,518.0,522.0,521.0
520.0,502.0,517.0,517.0,523.0
514.0,502.0,512.0,512.0,523.0
514.0,501.0,512.0,510.0,521.0
517.0,504.0,511.0,511.0,517.0
524.0,508.0,513.0,514.0,510.0
528.0,513.0,515.0,517.0,505.0
526.0,513.0,512.0,511.0,508.0
521.0,511.0,506.0,507.0,507.0
513.0,505.0,504.0,499.0,509.0
505.0,499.0,500.0,498.0,515.0
504.0,499.0,496.0,496.0,517.0
506.0,499.0,497.0,501.0,517.0
507.0,498.0,505.0,510.0,518.0
518.0,503.0,511.0,516.0,514.0
520.0,499.0,514.0,521.0,520.0
515.0,502.0,517.0,520.0,526.0
515.0,502.0,516.0,519.0,528.0
516.0,501.0,517.0,513.0,525.0
514.0,502.0,515.0,515.0,522.0
520.0,503.0,513.0,511.0,519.0
520.0,506.0,514.0,512.0,515.0
522.0,511.0,515.0,513.0,513.0
523.0,510.0,513.0,511.0,507.0
525.0,514.0,510.0,509.0,513.0
511.0,509.0,503.0,504.0,512.0
507.0,503.0,498.0,497.0,510.0
502.0,497.0,499.0,497.0,519.0
500.0,499.0,496.0,495.0,521.0
506.0,497.0,499.0,502.0,524.0
520.0,501.0,505.0,509.0,521.0
519.0,503.0,512.0,516.0,520.0
521.0,503.0,517.0,520.0,521.0
518.0,504.0,518.0,527.0,521.0
516.0,502.0,517.0,519.0,521.0
517.0,505.0,514.0,513.0,524.0
515.0,502.0,513.0,512.0,522.0
517.0,505.0,513.0,515.0,519.0
526.0,509.0,514.0,513.0,512.0
528.0,513.0,518.0,513.0,513.0
532.0,515.0,517.0,510.0,508.0
521.0,512.0,510.0,505.0,509.0
521.0,509.0,505.0,502.0,514.0
510.0,508.0,496.0,498.0,515.0
504.0,499.0,494.0,497.0,520.0
506.0,497.0,493.0,500.0,522.0
504.0,496.0,499.0,504.0,521.0
512.0,503.0,506.0,513.0,520.0
516.0,502.0,508.0,517.0,519.0
519.0,505.0,516.0,522.0,518.0
518.0,503.0,517.0,522.0,519.0
516.0,501.0,514.0,516.0,521.0
516.0,501.0,512.0,515.0,519.0
516.0,504.0,510.0,511.0,520.0
513.0,505.0,516.0,512.0,518.0
523.0,509.0,514.0,514.0,511.0
530.0,513.0,516.0,516.0,511.0
524.0,507.0,512.0,510.0,509.0
515.0,500.0,500.0,500.0,512.0
511.0,502.0,497.0,496.0,514.0
505.0,505.0,496.0,496.0,519.0
504.0,497.0,492.0,498.0,518.0
503.0,497.0,496.0,501.0,523.0
501.0,495.0,501.0,503.0,522.0
509.0,495.0,509.0,511.0,523.0
520.0,501.0,513.0,516.0,520.0
516.0,500.0,515.0,519.0,520.0
524.0,499.0,518.0,516.0,520.0
515.0,496.0,512.0,514.0,523.0
517.0,506.0,516.0,516.0,519.0
518.0,501.0,514.0,514.0,511.0
522.0,504.0,515.0,514.0,512.0
523.0,509.0,515.0,517.0,514.0
522.0,511.0,513.0,509.0,513.0
523.0,514.0,509.0,502.0,509.0
517.0,510.0,505.0,503.0,516.0
510.0,505.0,497.0,497.0,516.0
509.0,498.0,493.0,495.0,519.0
502.0,493.0,492.0,495.0,523.0
501.0,494.0,497.0,504.0,523.0
510.0,498.0,505.0,509.0,519.0
514.0,501.0,513.0,518.0,523.0
521.0,498.0,515.0,518.0,520.0
521.0,501.0,516.0,519.0,521.0
519.0,503.0,518.0,518.0,523.0
498.0,493.0,502.0,501.0,533.0
498.0,491.0,500.0,497.0,527.0
500.0,495.0,497.0,500.0,529.0
504.0,497.0,502.0,498.0,526.0
531.0,519.0,537.0,534.0,509.0
534.0,524.0,535.0,532.0,503.0
536.0,524.0,535.0,533.0,502.0
538.0,527.0,535.0,534.0,502.0
538.0,529.0,532.0,533.0,496.0
537.0,525.0,524.0,527.0,497.0
525.0,520.0,518.0,522.0,502.0
520.0,519.0,513.0,519.0,505.0
515.0,510.0,509.0,515.0,509.0
514.0,514.0,513.0,520.0,512.0
518.0,511.0,523.0,525.0,511.0
524.0,511.0,528.0,529.0,510.0
528.0,513.0,532.0,534.0,508.0
529.0,513.0,535.0,534.0,504.0
528.0,513.0,534.0,534.0,503.0
527.0,510.0,531.0,530.0,508.0
526.0,513.0,533.0,530.0,513.0
530.0,516.0,533.0,527.0,511.0
528.0,515.0,523.0,526.0,510.0
530.0,519.0,528.0,528.0,509.0
532.0,522.0,527.0,533.0,501.0
530.0,523.0,526.0,526.0,500.0
524.0,519.0,517.0,520.0,504.0
517.0,516.0,511.0,516.0,506.0
514.0,510.0,507.0,511.0,508.0
509.0,506.0,506.0,514.0,517.0
513.0,509.0,513.0,515.0,519.0
517.0,507.0,517.0,520.0,511.0
520.0,510.0,526.0,528.0,509.0
523.0,512.0,532.0,528.0,507.0
525.0,511.0,530.0,529.0,514.0
523.0,509.0,529.0,527.0,509.0
514.0,508.0,527.0,525.0,509.0
520.0,509.0,525.0,524.0,510.0
520.0,511.0,526.0,522.0,509.0
523.0,518.0,524.0,523.0,505.0
527.0,516.0,526.0,525.0,507.0
527.0,521.0,523.0,523.0,514.0
523.0,521.0,519.0,520.0,508.0
517.0,518.0,511.0,517.0,506.0
511.0,510.0,504.0,507.0,511.0
502.0,505.0,500.0,503.0,514.0
503.0,504.0,501.0,508.0,508.0
506.0,503.0,511.0,511.0,515.0
515.0,505.0,516.0,519.0,512.0
523.0,508.0,523.0,526.0,513.0
516.0,508.0,526.0,526.0,516.0
520.0,506.0,526.0,525.0,517.0
516.0,508.0,522.0,523.0,517.0
519.0,504.0,523.0,522.0,513.0
518.0,508.0,529.0,521.0,511.0
517.0,509.0,520.0,516.0,512.0
522.0,514.0,519.0,516.0,513.0
527.0,518.0,523.0,522.0,505.0
530.0,520.0,518.0,520.0,507.0
527.0,519.0,516.0,514.0,506.0
521.0,513.0,506.0,515.0,509.0
511.0,508.0,505.0,507.0,512.0
509.0,504.0,501.0,506.0,514.0
501.0,504.0,505.0,509.0,516.0
503.0,501.0,510.0,514.0,517.0
510.0,508.0,520.0,526.0,511.0
512.0,506.0,525.0,525.0,513.0
518.0,506.0,526.0,525.0,515.0
521.0,507.0,526.0,524.0,521.0
519.0,505.0,524.0,521.0,520.0
519.0,506.0,523.0,525.0,516.0
516.0,506.0,519.0,522.0,510.0
516.0,512.0,521.0,520.0,503.0
520.0,515.0,521.0,518.0,502.0
523.0,518.0,519.0,523.0,501.0
523.0,521.0,516.0,522.0,502.0
519.0,516.0,510.0,514.0,508.0
508.0,510.0,506.0,509.0,512.0
509.0,507.0,503.0,506.0,515.0
504.0,501.0,498.0,503.0,516.0
507.0,500.0,506.0,506.0,512.0
509.0,507.0,512.0,514.0,505.0
517.0,504.0,521.0,520.0,511.0
520.0,509.0,522.0,518.0,511.0
519.0,509.0,525.0,525.0,511.0
518.0,505.0,526.0,521.0,516.0
512.0,505.0,522.0,520.0,516.0
511.0,506.0,521.0,520.0,514.0
516.0,512.0,522.0,518.0,508.0
521.0,513.0,521.0,518.0,509.0
522.0,516.0,519.0,520.0,507.0
524.0,518.0,519.0,520.0,506.0
519.0,516.0,512.0,519.0,504.0
520.0,513.0,507.0,510.0,506.0
510.0,509.0,504.0,507.0,509.0
502.0,505.0,500.0,504.0,514.0
504.0,501.0,499.0,503.0,517.0
504.0,500.0,505.0,508.0,518.0
513.0,502.0,513.0,520.0,512.0
517.0,507.0,519.0,520.0,514.0
516.0,504.0,522.0,521.0,516.0
519.0,505.0,528.0,522.0,514.0
515.0,504.0,523.0,518.0,512.0
514.0,504.0,520.0,516.0,514.0
518.0,505.0,519.0,513.0,513.0
517.0,508.0,517.0,517.0,514.0
518.0,511.0,524.0,518.0,512.0
521.0,516.0,518.0,516.0,505.0
521.0,518.0,514.0,515.0,511.0
518.0,516.0,508.0,512.0,511.0
514.0,509.0,505.0,512.0,514.0
506.0,505.0,501.0,506.0,510.0
503.0,499.0,495.0,498.0,518.0
497.0,500.0,501.0,501.0,521.0
503.0,505.0,507.0,509.0,518.0
511.0,503.0,518.0,516.0,517.0
514.0,504.0,521.0,518.0,519.0
517.0,502.0,523.0,518.0,517.0
515.0,504.0,522.0,519.0,514.0
510.0,504.0,520.0,511.0,514.0
513.0,507.0,521.0,518.0,516.0
518.0,506.0,520.0,517.0,516.0
517.0,508.0,518.0,517.0,516.0
526.0,514.0,518.0,516.0,514.0
523.0,516.0,512.0,515.0,510.0
517.0,514.0,514.0,514.0,510.0
514.0,513.0,512.0,514.0,508.0
507.0,507.0,503.0,506.0,511.0
503.0,504.0,500.0,503.0,517.0
499.0,502.0,499.0,499.0,517.0
499.0,500.0,502.0,504.0,518.0
504.0,502.0,510.0,511.0,518.0
509.0,506.0,520.0,519.0,515.0
513.0,505.0,526.0,522.0,515.0
517.0,506.0,525.0,518.0,516.0
517.0,504.0,523.0,518.0,518.0
519.0,504.0,521.0,517.0,518.0
516.0,505.0,525.0,516.0,518.0
522.0,511.0,523.0,518.0,517.0
520.0,509.0,519.0,518.0,518.0
522.0,512.0,519.0,515.0,513.0
523.0,518.0,519.0,520.0,507.0
518.0,520.0,512.0,513.0,509.0
510.0,512.0,506.0,511.0,511.0
503.0,508.0,501.0,504.0,512.0
501.0,500.0,497.0,500.0,518.0
497.0,499.0,499.0,503.0,517.0
505.0,503.0,504.0,507.0,515.0
507.0,501.0,514.0,512.0,512.0
509.0,504.0,519.0,518.0,511.0
514.0,505.0,524.0,521.0,513.0
514.0,507.0,525.0,522.0,508.0
513.0,504.0,523.0,518.0,514.0
514.0,505.0,520.0,516.0,524.0
514.0,505.0,519.0,516.0,521.0
522.0,510.0,519.0,516.0,524.0
524.0,514.0,521.0,517.0,519.0
525.0,516.0,520.0,517.0,517.0
530.0,524.0,518.0,522.0,511.0
522.0,514.0,513.0,511.0,511.0
517.0,510.0,505.0,507.0,510.0
504.0,507.0,501.0,503.0,514.0
500.0,500.0,498.0,502.0,519.0
504.0,501.0,501.0,504.0,522.0
504.0,501.0,506.0,511.0,515.0
509.0,505.0,516.0,518.0,513.0
519.0,506.0,521.0,519.0,519.0
520.0,510.0,525.0,523.0,512.0
518.0,504.0,519.0,521.0,514.0
517.0,504.0,521.0,520.0,510.0
512.0,507.0,522.0,518.0,505.0
513.0,505.0,519.0,511.0,509.0
515.0,507.0,518.0,514.0,510.0
524.0,512.0,516.0,517.0,509.0
524.0,518.0,519.0,525.0,507.0
526.0,516.0,513.0,512.0,507.0
513.0,513.0,503.0,508.0,512.0
506.0,505.0,500.0,505.0,516.0
500.0,503.0,494.0,504.0,518.0
496.0,501.0,499.0,505.0,514.0
503.0,501.0,501.0,503.0,514.0
504.0,500.0,507.0,510.0,515.0
512.0,503.0,514.0,515.0,515.0
515.0,502.0,522.0,522.0,513.0
519.0,508.0,526.0,525.0,512.0
516.0,504.0,523.0,519.0,515.0
516.0,505.0,523.0,516.0,518.0
520.0,504.0,515.0,516.0,516.0
524.0,504.0,519.0,516.0,512.0
522.0,510.0,522.0,515.0,513.0
529.0,519.0,525.0,521.0,511.0
527.0,516.0,516.0,519.0,509.0
520.0,514.0,512.0,514.0,507.0
511.0,512.0,507.0,511.0,508.0
504.0,508.0,501.0,507.0,512.0
505.0,505.0,498.0,506.0,513.0
503.0,501.0,500.0,504.0,515.0
505.0,500.0,504.0,506.0,515.0
512.0,503.0,512.0,518.0,514.0
509.0,504.0,520.0,521.0,509.0
514.0,505.0,525.0,522.0,510.0
514.0,504.0,523.0,523.0,512.0
515.0,503.0,520.0,518.0,514.0
514.0,506.0,518.0,515.0,515.0
517.0,506.0,522.0,514.0,514.0
519.0,511.0,518.0,515.0,511.0
524.0,513.0,519.0,517.0,512.0
523.0,515.0,518.0,520.0,510.0
522.0,515.0,515.0,517.0,507.0
518.0,517.0,510.0,513.0,505.0
509.0,510.0,507.0,509.0,510.0
507.0,507.0,501.0,506.0,513.0
501.0,503.0,500.0,500.0,516.0
502.0,503.0,501.0,508.0,517.0
507.0,504.0,507.0,511.0,513.0
507.0,504.0,514.0,516.0,512.0
512.0,504.0,519.0,518.0,516.0
517.0,505.0,523.0,525.0,515.0
516.0,505.0,525.0,521.0,516.0
512.0,503.0,522.0,518.0,518.0
513.0,505.0,524.0,517.0,520.0
516.0,507.0,521.0,515.0,514.0
521.0,509.0,519.0,517.0,508.0
521.0,513.0,517.0,516.0,507.0
532.0,518.0,522.0,519.0,506.0
526.0,516.0,514.0,516.0,511.0
519.0,515.0,509.0,510.0,513.0
514.0,510.0,503.0,505.0,513.0
503.0,507.0,499.0,503.0,512.0
500.0,501.0,498.0,500.0,516.0
501.0,501.0,507.0,505.0,519.0
510.0,503.0,508.0,509.0,514.0
509.0,501.0,515.0,516.0,519.0
512.0,503.0,520.0,521.0,518.0
515.0,507.0,525.0,524.0,519.0
514.0,503.0,520.0,517.0,520.0
508.0,501.0,517.0,513.0,521.0
510.0,502.0,515.0,511.0,519.0
518.0,508.0,517.0,515.0,510.0
518.0,510.0,517.0,513.0,507.0
521.0,510.0,514.0,513.0,507.0
522.0,515.0,516.0,516.0,504.0
521.0,515.0,511.0,510.0,510.0
511.0,512.0,507.0,507.0,512.0
509.0,505.0,499.0,503.0,514.0
503.0,499.0,491.0,498.0,519.0
501.0,504.0,500.0,506.0,520.0
503.0,505.0,504.0,507.0,517.0
509.0,503.0,512.0,510.0,514.0
512.0,504.0,521.0,517.0,513.0
517.0,504.0,522.0,518.0,512.0
515.0,505.0,523.0,522.0,514.0
513.0,504.0,522.0,518.0,509.0
509.0,505.0,522.0,517.0,520.0
515.0,508.0,523.0,517.0,518.0
518.0,510.0,522.0,515.0,511.0
519.0,513.0,520.0,516.0,515.0
523.0,518.0,517.0,517.0,512.0
524.0,517.0,512.0,516.0,512.0
521.0,515.0,511.0,512.0,511.0
513.0,513.0,506.0,510.0,509.0
506.0,506.0,502.0,505.0,516.0
498.0,502.0,503.0,502.0,519.0
496.0,502.0,502.0,502.0,519.0
503.0,508.0,509.0,508.0,524.0
510.0,507.0,517.0,516.0,524.0
519.0,505.0,521.0,519.0,518.0
517.0,505.0,525.0,521.0,509.0
512.0,506.0,525.0,523.0,515.0
510.0,502.0,522.0,518.0,513.0
509.0,504.0,525.0,517.0,509.0
508.0,505.0,521.0,515.0,519.0
514.0,509.0,520.0,514.0,518.0
519.0,517.0,521.0,518.0,522.0
520.0,515.0,518.0,516.0,519.0
522.0,519.0,514.0,514.0,510.0
517.0,514.0,510.0,510.0,504.0
516.0,510.0,502.0,507.0,506.0
503.0,506.0,501.0,504.0,515.0
502.0,498.0,499.0,503.0,514.0
500.0,500.0,501.0,506.0,517.0
510.0,502.0,508.0,509.0,517.0
513.0,506.0,517.0,517.0,514.0
512.0,504.0,521.0,521.0,512.0
515.0,506.0,526.0,522.0,510.0
514.0,506.0,528.0,520.0,512.0
513.0,507.0,523.0,519.0,512.0
513.0,506.0,521.0,515.0,515.0
519.0,509.0,520.0,516.0,514.0
517.0,515.0,522.0,518.0,517.0
519.0,514.0,520.0,516.0,517.0
524.0,517.0,519.0,517.0,510.0
522.0,517.0,513.0,517.0,507.0
513.0,515.0,505.0,508.0,511.0
511.0,507.0,504.0,505.0,510.0
503.0,500.0,496.0,500.0,508.0
500.0,502.0,500.0,502.0,516.0
505.0,499.0,504.0,505.0,518.0
507.0,500.0,512.0,512.0,515.0
512.0,501.0,516.0,516.0,518.0
516.0,500.0,520.0,519.0,518.0
517.0,505.0,526.0,520.0,516.0
516.0,505.0,523.0,518.0,521.0
510.0,502.0,520.0,515.0,514.0
511.0,504.0,518.0,510.0,511.0
511.0,506.0,514.0,512.0,508.0
516.0,511.0,519.0,522.0,507.0
524.0,514.0,520.0,518.0,508.0
520.0,515.0,516.0,516.0,512.0
514.0,517.0,509.0,510.0,515.0
508.0,510.0,502.0,504.0,517.0
506.0,504.0,500.0,504.0,520.0
500.0,502.0,498.0,502.0,521.0
502.0,502.0,503.0,505.0,517.0
505.0,500.0,506.0,507.0,517.0
506.0,501.0,514.0,513.0,526.0
510.0,505.0,521.0,520.0,518.0
515.0,507.0,525.0,522.0,519.0
518.0,508.0,531.0,524.0,521.0
515.0,504.0,523.0,516.0,514.0
518.0,505.0,523.0,515.0,520.0
520.0,506.0,523.0,513.0,521.0
518.0,508.0,519.0,514.0,519.0
518.0,513.0,520.0,519.0,517.0
522.0,517.0,517.0,518.0,505.0
525.0,519.0,515.0,517.0,502.0
513.0,516.0,510.0,512.0,504.0
504.0,507.0,503.0,508.0,518.0
503.0,506.0,500.0,503.0,518.0
499.0,502.0,499.0,503.0,516.0
499.0,499.0,502.0,506.0,519.0
505.0,503.0,511.0,513.0,513.0
510.0,505.0,518.0,519.0,510.0
510.0,505.0,523.0,520.0,513.0
515.0,505.0,525.0,523.0,516.0
515.0,503.0,522.0,520.0,513.0
511.0,503.0,520.0,515.0,514.0
516.0,505.0,519.0,516.0,516.0
516.0,507.0,521.0,515.0,516.0
523.0,509.0,519.0,515.0,514.0
525.0,513.0,519.0,518.0,514.0
529.0,519.0,519.0,516.0,511.0
525.0,517.0,514.0,512.0,512.0
519.0,513.0,512.0,510.0,515.0
504.0,510.0,503.0,504.0,519.0
495.0,506.0,499.0,501.0,519.0
498.0,503.0,501.0,504.0,516.0
498.0,501.0,503.0,507.0,515.0
503.0,502.0,511.0,518.0,514.0
506.0,505.0,524.0,522.0,509.0
516.0,507.0,524.0,523.0,511.0
518.0,505.0,525.0,522.0,513.0
519.0,506.0,523.0,515.0,514.0
515.0,506.0,522.0,518.0,511.0
516.0,507.0,524.0,518.0,509.0
518.0,509.0,520.0,518.0,506.0
520.0,510.0,518.0,518.0,509.0
520.0,515.0,519.0,519.0,517.0
521.0,516.0,518.0,515.0,517.0
519.0,515.0,511.0,514.0,512.0
510.0,512.0,505.0,506.0,515.0
506.0,505.0,502.0,505.0,519.0
502.0,500.0,497.0,501.0,524.0
500.0,501.0,504.0,503.0,521.0
499.0,499.0,506.0,508.0,523.0
506.0,502.0,513.0,518.0,520.0
508.0,503.0,519.0,520.0,521.0
514.0,506.0,523.0,522.0,525.0
509.0,503.0,523.0,522.0,522.0
512.0,505.0,520.0,516.0,524.0
513.0,505.0,520.0,514.0,525.0
518.0,504.0,518.0,514.0,523.0
518.0,508.0,514.0,515.0,513.0
522.0,511.0,518.0,518.0,515.0
521.0,514.0,517.0,517.0,514.0
522.0,514.0,514.0,513.0,512.0
516.0,514.0,509.0,509.0,511.0
509.0,507.0,504.0,507.0,511.0
514.0,507.0,501.0,499.0,513.0
506.0,502.0,499.0,504.0,517.0
500.0,498.0,501.0,505.0,516.0
506.0,501.0,508.0,514.0,516.0
516.0,506.0,518.0,518.0,518.0
515.0,506.0,522.0,520.0,520.0
513.0,504.0,525.0,522.0,518.0
513.0,504.0,522.0,521.0,515.0
512.0,503.0,520.0,520.0,518.0
515.0,507.0,525.0,518.0,514.0
514.0,507.0,520.0,518.0,517.0
517.0,511.0,519.0,516.0,517.0
527.0,515.0,518.0,516.0,516.0
523.0,517.0,517.0,517.0,517.0
523.0,515.0,512.0,515.0,519.0
511.0,511.0,504.0,511.0,518.0
505.0,508.0,504.0,508.0,521.0
508.0,505.0,500.0,503.0,523.0
505.0,501.0,504.0,504.0,518.0
505.0,499.0,504.0,509.0,520.0
506.0,502.0,512.0,515.0,517.0
508.0,504.0,519.0,521.0,511.0
511.0,503.0,523.0,523.0,507.0
512.0,504.0,524.0,526.0,504.0
512.0,504.0,521.0,519.0,510.0
516.0,504.0,521.0,514.0,515.0
517.0,506.0,521.0,516.0,511.0
522.0,503.0,517.0,511.0,510.0
521.0,510.0,521.0,516.0,512.0
523.0,519.0,520.0,521.0,507.0
523.0,518.0,515.0,519.0,508.0
523.0,511.0,512.0,516.0,513.0
512.0,508.0,507.0,507.0,518.0
511.0,506.0,501.0,507.0,521.0
505.0,500.0,496.0,499.0,519.0
505.0,496.0,500.0,500.0,520.0
508.0,500.0,507.0,509.0,525.0
507.0,503.0,516.0,514.0,524.0
507.0,504.0,521.0,521.0,518.0
509.0,505.0,526.0,525.0,517.0
514.0,506.0,524.0,525.0,519.0
508.0,504.0,521.0,521.0,520.0
510.0,508.0,519.0,519.0,514.0
512.0,505.0,517.0,518.0,503.0
519.0,510.0,519.0,519.0,507.0
523.0,513.0,519.0,518.0,505.0
526.0,518.0,519.0,516.0,503.0
528.0,518.0,515.0,516.0,509.0
521.0,516.0,509.0,516.0,506.0
506.0,505.0,500.0,498.0,509.0
504.0,503.0,498.0,503.0,516.0
497.0,503.0,499.0,500.0,518.0
501.0,501.0,503.0,508.0,517.0
504.0,502.0,508.0,511.0,517.0
508.0,502.0,517.0,517.0,515.0
511.0,502.0,519.0,519.0,517.0
514.0,504.0,527.0,522.0,518.0
515.0,506.0,524.0,520.0,518.0
512.0,502.0,520.0,517.0,521.0
515.0,505.0,523.0,517.0,523.0
521.0,503.0,518.0,515.0,523.0
520.0,510.0,521.0,515.0,519.0
525.0,514.0,519.0,518.0,513.0
523.0,518.0,519.0,521.0,504.0
522.0,516.0,513.0,517.0,500.0
518.0,512.0,506.0,512.0,502.0
505.0,506.0,505.0,504.0,509.0
497.0,501.0,498.0,504.0,516.0
500.0,503.0,502.0,505.0,521.0
504.0,501.0,505.0,506.0,525.0
508.0,501.0,511.0,516.0,522.0
516.0,506.0,518.0,519.0,519.0
518.0,506.0,522.0,524.0,519.0
519.0,505.0,524.0,522.0,520.0
517.0,505.0,520.0,513.0,518.0
516.0,503.0,518.0,516.0,516.0
515.0,506.0,522.0,518.0,513.0
519.0,509.0,518.0,522.0,509.0
521.0,510.0,520.0,517.0,508.0
522.0,514.0,521.0,520.0,506.0
523.0,517.0,514.0,516.0,508.0
518.0,517.0,508.0,512.0,510.0
513.0,509.0,504.0,507.0,510.0
514.0,507.0,500.0,505.0,510.0
503.0,502.0,497.0,500.0,517.0
502.0,501.0,499.0,504.0,519.0
505.0,503.0,506.0,511.0,515.0
515.0,504.0,512.0,515.0,516.0
519.0,509.0,519.0,524.0,512.0
519.0,506.0,524.0,522.0,518.0
517.0,503.0,523.0,517.0,526.0
517.0,505.0,521.0,517.0,529.0
515.0,503.0,517.0,518.0,529.0
513.0,504.0,517.0,513.0,526.0
510.0,509.0,518.0,518.0,514.0
515.0,513.0,520.0,519.0,509.0
519.0,517.0,518.0,516.0,509.0
520.0,515.0,512.0,515.0,504.0
514.0,513.0,507.0,512.0,498.0
509.0,509.0,502.0,503.0,504.0
502.0,507.0,507.0,506.0,510.0
501.0,504.0,499.0,503.0,512.0
502.0,502.0,502.0,504.0,515.0
506.0,504.0,513.0,513.0,516.0
513.0,506.0,516.0,518.0,516.0
516.0,506.0,521.0,520.0,515.0
517.0,502.0,524.0,523.0,513.0
518.0,501.0,522.0,518.0,512.0
514.0,500.0,521.0,517.0,511.0
520.0,507.0,520.0,517.0,515.0
518.0,507.0,519.0,517.0,516.0
519.0,509.0,518.0,513.0,518.0
518.0,515.0,519.0,519.0,515.0
518.0,515.0,515.0,516.0,503.0
519.0,516.0,509.0,511.0,506.0
512.0,509.0,504.0,507.0,513.0
503.0,509.0,506.0,508.0,513.0
503.0,507.0,500.0,503.0,514.0
501.0,501.0,499.0,502.0,515.0
502.0,499.0,500.0,505.0,518.0
503.0,500.0,507.0,510.0,521.0
509.0,504.0,516.0,519.0,518.0
512.0,504.0,523.0,523.0,516.0
515.0,503.0,521.0,520.0,516.0
518.0,498.0,518.0,518.0,516.0
518.0,502.0,518.0,518.0,515.0
522.0,505.0,519.0,517.0,510.0
518.0,508.0,519.0,519.0,511.0
518.0,511.0,519.0,521.0,509.0
520.0,514.0,519.0,520.0,505.0
525.0,517.0,514.0,513.0,501.0
524.0,513.0,505.0,513.0,505.0
514.0,512.0,507.0,509.0,514.0
499.0,509.0,501.0,504.0,525.0
495.0,503.0,499.0,502.0,533.0
498.0,499.0,502.0,504.0,527.0
502.0,501.0,511.0,508.0,520.0
506.0,502.0,512.0,510.0,520.0
507.0,505.0,521.0,526.0,512.0
520.0,506.0,522.0,521.0,515.0
527.0,504.0,524.0,519.0,514.0
524.0,502.0,520.0,518.0,511.0
518.0,508.0,520.0,516.0,514.0
519.0,506.0,520.0,515.0,516.0
522.0,513.0,519.0,515.0,517.0
527.0,515.0,520.0,516.0,523.0
531.0,516.0,519.0,517.0,523.0
526.0,516.0,515.0,515.0,517.0
521.0,516.0,512.0,514.0,511.0
512.0,507.0,504.0,506.0,516.0
506.0,506.0,504.0,503.0,517.0
497.0,501.0,497.0,506.0,513.0
494.0,498.0,502.0,505.0,514.0
497.0,501.0,504.0,513.0,515.0
510.0,506.0,515.0,522.0,508.0
516.0,504.0,521.0,520.0,513.0
515.0,506.0,521.0,519.0,515.0
516.0,503.0,518.0,520.0,513.0
512.0,501.0,520.0,516.0,526.0
507.0,507.0,521.0,518.0,534.0
510.0,509.0,519.0,517.0,528.0
515.0,510.0,522.0,516.0,527.0
515.0,513.0,518.0,516.0,516.0
520.0,517.0,516.0,517.0,506.0
518.0,516.0,518.0,514.0,511.0
517.0,511.0,507.0,510.0,511.0
509.0,509.0,502.0,504.0,513.0
498.0,505.0,498.0,502.0,514.0
497.0,503.0,502.0,507.0,508.0
494.0,499.0,503.0,506.0,510.0
506.0,503.0,510.0,513.0,509.0
514.0,504.0,516.0,519.0,503.0
517.0,506.0,522.0,520.0,510.0
523.0,500.0,523.0,520.0,510.0
520.0,505.0,522.0,515.0,517.0
516.0,505.0,521.0,516.0,518.0
514.0,505.0,519.0,520.0,516.0
512.0,506.0,518.0,514.0,511.0
516.0,509.0,517.0,514.0,515.0
528.0,513.0,520.0,513.0,514.0
529.0,520.0,519.0,516.0,512.0
519.0,519.0,516.0,512.0,510.0
514.0,510.0,503.0,508.0,516.0
509.0,506.0,498.0,501.0,523.0
504.0,501.0,495.0,503.0,522.0
502.0,500.0,498.0,502.0,509.0
505.0,503.0,507.0,511.0,499.0
508.0,502.0,509.0,510.0,512.0
513.0,504.0,517.0,517.0,515.0
513.0,508.0,525.0,524.0,511.0
511.0,503.0,524.0,522.0,502.0
508.0,503.0,521.0,516.0,504.0
501.0,502.0,521.0,512.0,504.0
507.0,504.0,520.0,513.0,513.0
513.0,508.0,519.0,513.0,522.0
518.0,511.0,519.0,517.0,518.0
529.0,519.0,519.0,518.0,504.0
527.0,518.0,515.0,516.0,506.0
520.0,514.0,509.0,512.0,514.0
512.0,511.0,503.0,507.0,516.0
508.0,507.0,497.0,504.0,516.0
503.0,505.0,498.0,502.0,512.0
502.0,499.0,504.0,503.0,514.0
507.0,504.0,511.0,507.0,514.0
507.0,502.0,514.0,515.0,510.0
507.0,502.0,518.0,520.0,507.0
513.0,501.0,522.0,522.0,511.0
511.0,504.0,521.0,520.0,513.0
505.0,501.0,523.0,518.0,512.0
512.0,509.0,519.0,514.0,513.0
520.0,506.0,518.0,516.0,516.0
521.0,509.0,517.0,516.0,516.0
520.0,516.0,523.0,518.0,519.0
526.0,517.0,516.0,516.0,517.0
529.0,517.0,515.0,512.0,526.0
520.0,513.0,506.0,510.0,522.0
513.0,507.0,503.0,504.0,519.0
513.0,506.0,499.0,502.0,527.0
503.0,503.0,501.0,501.0,532.0
502.0,504.0,508.0,505.0,532.0
508.0,505.0,511.0,515.0,524.0
512.0,507.0,522.0,522.0,523.0
515.0,511.0,522.0,520.0,527.0
519.0,508.0,524.0,522.0,521.0
515.0,506.0,522.0,519.0,509.0
508.0,503.0,516.0,514.0,513.0
511.0,498.0,514.0,511.0,511.0
518.0,507.0,521.0,517.0,499.0
521.0,513.0,524.0,523.0,501.0
523.0,515.0,520.0,520.0,501.0
521.0,522.0,518.0,519.0,501.0
516.0,515.0,516.0,513.0,504.0
511.0,513.0,507.0,509.0,503.0
508.0,507.0,501.0,505.0,515.0
500.0,505.0,497.0,500.0,521.0
495.0,500.0,497.0,502.0,526.0
496.0,501.0,508.0,508.0,526.0
509.0,505.0,513.0,511.0,521.0
500.0,503.0,517.0,516.0,511.0
512.0,506.0,519.0,520.0,504.0
517.0,497.0,521.0,519.0,506.0
513.0,503.0,522.0,520.0,509.0
516.0,501.0,514.0,517.0,509.0
515.0,501.0,514.0,513.0,514.0
517.0,507.0,515.0,514.0,517.0
524.0,512.0,518.0,516.0,519.0
531.0,516.0,522.0,515.0,517.0
533.0,517.0,517.0,515.0,507.0
528.0,514.0,507.0,509.0,512.0
516.0,510.0,502.0,508.0,509.0
508.0,505.0,497.0,501.0,506.0
504.0,499.0,496.0,502.0,517.0
488.0,498.0,501.0,502.0,529.0
493.0,503.0,507.0,513.0,516.0
501.0,504.0,519.0,523.0,509.0
510.0,508.0,522.0,529.0,502.0
513.0,508.0,531.0,530.0,505.0
512.0,504.0,523.0,527.0,514.0
512.0,500.0,520.0,518.0,522.0
513.0,503.0,519.0,515.0,520.0
505.0,507.0,520.0,513.0,515.0
508.0,509.0,519.0,510.0,525.0
524.0,517.0,522.0,516.0,513.0
531.0,520.0,522.0,521.0,513.0
531.0,522.0,518.0,521.0,517.0
525.0,520.0,512.0,511.0,522.0
525.0,512.0,504.0,505.0,511.0
507.0,502.0,498.0,500.0,497.0
504.0,496.0,495.0,497.0,487.0
507.0,496.0,501.0,502.0,494.0
506.0,497.0,510.0,509.0,505.0
510.0,500.0,510.0,516.0,524.0
514.0,502.0,523.0,520.0,516.0
518.0,504.0,524.0,524.0,511.0
516.0,509.0,525.0,520.0,510.0
510.0,505.0,521.0,522.0,514.0
504.0,506.0,522.0,518.0,522.0
512.0,509.0,522.0,520.0,522.0
516.0,513.0,521.0,519.0,512.0
518.0,513.0,521.0,518.0,499.0
519.0,516.0,518.0,518.0,497.0
518.0,513.0,514.0,516.0,505.0
515.0,516.0,508.0,513.0,512.0
507.0,509.0,499.0,504.0,511.0
499.0,501.0,497.0,503.0,516.0
504.0,502.0,501.0,503.0,521.0
510.0,502.0,504.0,506.0,523.0
512.0,500.0,509.0,514.0,514.0
512.0,502.0,517.0,524.0,509.0
514.0,504.0,522.0,527.0,512.0
519.0,503.0,518.0,521.0,514.0
514.0,501.0,519.0,519.0,514.0
513.0,503.0,520.0,517.0,515.0
514.0,504.0,518.0,515.0,515.0
517.0,507.0,517.0,519.0,519.0
521.0,511.0,519.0,517.0,518.0
526.0,515.0,518.0,517.0,506.0
524.0,516.0,514.0,517.0,499.0
515.0,509.0,510.0,510.0,497.0
504.0,507.0,504.0,512.0,506.0
504.0,508.0,503.0,508.0,521.0
495.0,501.0,496.0,505.0,532.0
489.0,499.0,501.0,505.0,536.0
496.0,501.0,514.0,512.0,535.0
513.0,505.0,516.0,516.0,527.0
516.0,504.0,522.0,527.0,526.0
521.0,505.0,522.0,523.0,509.0
520.0,499.0,520.0,518.0,500.0
527.0,504.0,518.0,516.0,498.0
520.0,500.0,517.0,519.0,501.0
513.0,499.0,513.0,512.0,511.0
521.0,506.0,515.0,513.0,508.0
523.0,512.0,519.0,516.0,505.0
522.0,513.0,516.0,514.0,502.0
514.0,515.0,510.0,511.0,507.0
518.0,510.0,508.0,507.0,503.0
509.0,505.0,501.0,498.0,510.0
505.0,504.0,496.0,492.0,518.0
499.0,497.0,500.0,498.0,522.0
501.0,496.0,500.0,504.0,513.0
510.0,503.0,513.0,517.0,505.0
514.0,502.0,517.0,517.0,518.0
523.0,500.0,521.0,517.0,515.0
524.0,504.0,524.0,524.0,511.0
525.0,508.0,526.0,521.0,519.0
518.0,502.0,521.0,517.0,519.0
517.0,500.0,521.0,520.0,513.0
509.0,510.0,523.0,520.0,508.0
508.0,512.0,521.0,516.0,507.0
519.0,517.0,523.0,518.0,508.0
528.0,519.0,519.0,523.0,497.0
525.0,516.0,514.0,518.0,496.0
515.0,513.0,506.0,507.0,517.0
507.0,508.0,504.0,506.0,527.0
498.0,502.0,500.0,502.0,542.0
502.0,500.0,502.0,508.0,530.0
512.0,502.0,505.0,512.0,516.0
510.0,499.0,511.0,513.0,507.0
510.0,502.0,515.0,521.0,492.0
507.0,504.0,525.0,526.0,513.0
510.0,507.0,526.0,524.0,510.0
500.0,505.0,524.0,520.0,508.0
500.0,503.0,517.0,516.0,524.0
504.0,504.0,516.0,513.0,521.0
516.0,504.0,516.0,511.0,518.0
523.0,510.0,519.0,515.0,521.0
534.0,514.0,518.0,515.0,516.0
537.0,517.0,516.0,517.0,511.0
518.0,516.0,516.0,509.0,508.0
516.0,514.0,508.0,507.0,495.0
511.0,509.0,503.0,506.0,504.0
504.0,504.0,499.0,502.0,517.0
502.0,499.0,498.0,500.0,523.0
498.0,493.0,502.0,509.0,527.0
494.0,496.0,512.0,516.0,526.0
509.0,501.0,517.0,523.0,504.0
525.0,506.0,525.0,528.0,490.0
514.0,506.0,527.0,522.0,512.0
513.0,505.0,520.0,517.0,536.0
524.0,510.0,524.0,515.0,540.0
528.0,509.0,521.0,515.0,539.0
518.0,505.0,517.0,514.0,507.0
528.0,512.0,519.0,520.0,492.0
514.0,513.0,514.0,514.0,494.0
508.0,513.0,512.0,513.0,513.0
516.0,516.0,511.0,514.0,511.0
507.0,510.0,504.0,511.0,511.0
499.0,505.0,500.0,508.0,508.0
489.0,496.0,497.0,504.0,506.0
487.0,494.0,497.0,502.0,494.0
500.0,500.0,508.0,510.0,512.0
517.0,502.0,517.0,518.0,515.0
521.0,505.0,523.0,525.0,517.0
526.0,505.0,522.0,524.0,535.0
517.0,500.0,517.0,516.0,528.0
532.0,501.0,514.0,512.0,537.0
526.0,501.0,514.0,508.0,537.0
512.0,505.0,517.0,511.0,508.0
506.0,507.0,519.0,514.0,501.0
513.0,512.0,518.0,515.0,503.0
524.0,516.0,519.0,520.0,483.0
519.0,516.0,513.0,513.0,485.0
506.0,508.0,505.0,509.0,498.0
505.0,505.0,503.0,508.0,499.0
499.0,502.0,498.0,499.0,516.0
508.0,501.0,500.0,504.0,521.0
515.0,502.0,508.0,506.0,505.0
513.0,503.0,512.0,516.0,513.0
512.0,502.0,521.0,523.0,510.0
506.0,505.0,525.0,527.0,509.0
508.0,508.0,529.0,530.0,520.0
512.0,504.0,524.0,517.0,531.0
514.0,507.0,527.0,515.0,548.0
518.0,507.0,521.0,516.0,562.0
522.0,508.0,521.0,519.0,552.0
529.0,515.0,521.0,522.0,518.0
530.0,513.0,516.0,519.0,491.0
521.0,515.0,518.0,512.0,453.0
507.0,511.0,509.0,505.0,461.0
508.0,509.0,506.0,508.0,468.0
508.0,502.0,503.0,506.0,482.0
491.0,500.0,496.0,503.0,512.0
488.0,498.0,503.0,505.0,526.0
499.0,499.0,508.0,515.0,521.0
502.0,502.0,517.0,518.0,511.0
515.0,504.0,518.0,523.0,503.0
536.0,508.0,525.0,527.0,507.0
535.0,509.0,525.0,518.0,516.0
526.0,509.0,521.0,511.0,530.0
515.0,510.0,521.0,510.0,563.0
501.0,507.0,520.0,514.0,567.0
501.0,508.0,522.0,517.0,534.0
511.0,513.0,520.0,518.0,518.0
522.0,517.0,519.0,517.0,512.0
525.0,518.0,520.0,516.0,510.0
517.0,513.0,507.0,512.0,518.0
508.0,503.0,501.0,504.0,490.0
520.0,499.0,496.0,498.0,457.0
518.0,495.0,494.0,493.0,476.0
507.0,499.0,499.0,496.0,531.0
507.0,502.0,514.0,511.0,527.0
509.0,502.0,518.0,520.0,512.0
514.0,501.0,522.0,523.0,527.0
519.0,503.0,527.0,528.0,505.0
512.0,502.0,526.0,529.0,504.0
510.0,502.0,520.0,516.0,523.0
517.0,503.0,520.0,510.0,520.0
527.0,514.0,522.0,515.0,511.0
529.0,514.0,522.0,515.0,531.0
538.0,519.0,524.0,515.0,525.0
535.0,519.0,517.0,513.0,492.0
522.0,517.0,519.0,514.0,510.0
506.0,514.0,515.0,511.0,523.0
502.0,508.0,503.0,505.0,520.0
491.0,496.0,493.0,497.0,523.0
499.0,495.0,498.0,508.0,457.0
509.0,496.0,505.0,511.0,458.0
514.0,502.0,517.0,518.0,468.0
505.0,508.0,521.0,525.0,486.0
489.0,511.0,527.0,531.0,526.0
501.0,509.0,524.0,518.0,567.0
519.0,508.0,525.0,518.0,567.0
532.0,505.0,519.0,515.0,534.0
540.0,496.0,510.0,505.0,517.0
522.0,491.0,505.0,501.0,495.0
498.0,496.0,514.0,517.0,466.0
500.0,507.0,516.0,523.0,486.0
498.0,514.0,514.0,520.0,510.0
506.0,519.0,515.0,514.0,535.0
489.0,510.0,506.0,503.0,532.0
500.0,507.0,502.0,503.0,542.0
495.0,503.0,502.0,499.0,553.0
505.0,500.0,503.0,498.0,558.0
530.0,502.0,511.0,506.0,575.0
532.0,508.0,520.0,526.0,559.0
529.0,512.0,527.0,531.0,555.0
503.0,505.0,526.0,527.0,567.0
478.0,498.0,520.0,526.0,522.0
463.0,496.0,519.0,518.0,475.0
478.0,499.0,518.0,515.0,447.0
515.0,507.0,520.0,517.0,452.0
531.0,512.0,520.0,512.0,482.0
526.0,520.0,525.0,523.0,506.0
503.0,516.0,519.0,513.0,536.0
510.0,526.0,523.0,515.0,514.0
502.0,514.0,512.0,503.0,526.0
510.0,513.0,506.0,501.0,597.0
502.0,510.0,498.0,494.0,647.0
538.0,506.0,499.0,498.0,630.0
530.0,500.0,500.0,505.0,571.0
525.0,491.0,503.0,524.0,399.0
514.0,490.0,510.0,530.0,336.0
504.0,495.0,512.0,524.0,411.0
504.0,498.0,521.0,523.0,416.0
482.0,496.0,518.0,512.0,483.0
485.0,503.0,519.0,514.0,522.0
499.0,510.0,522.0,520.0,507.0
511.0,516.0,525.0,514.0,541.0
527.0,520.0,523.0,514.0,540.0
534.0,513.0,520.0,518.0,470.0
538.0,511.0,512.0,514.0,490.0
532.0,509.0,508.0,513.0,520.0
517.0,508.0,507.0,513.0,477.0
507.0,512.0,507.0,511.0,545.0
501.0,512.0,508.0,509.0,635.0
492.0,504.0,505.0,500.0,645.0
484.0,495.0,504.0,500.0,582.0
471.0,493.0,506.0,513.0,521.0
441.0,496.0,516.0,529.0,479.0
462.0,511.0,531.0,538.0,526.0
485.0,504.0,524.0,521.0,642.0
475.0,495.0,515.0,514.0,592.0
505.0,498.0,514.0,528.0,518.0
566.0,510.0,519.0,528.0,467.0
546.0,510.0,517.0,511.0,425.0
495.0,512.0,523.0,519.0,449.0
458.0,512.0,519.0,510.0,475.0
461.0,508.0,514.0,507.0,493.0
497.0,505.0,508.0,508.0,445.0
467.0,496.0,496.0,498.0,492.0
532.0,503.0,499.0,495.0,542.0
571.0,507.0,497.0,494.0,592.0
567.0,503.0,499.0,494.0,557.0
545.0,499.0,501.0,518.0,523.0
524.0,502.0,516.0,542.0,516.0
499.0,511.0,524.0,539.0,534.0
519.0,515.0,526.0,531.0,551.0
512.0,515.0,527.0,530.0,439.0
530.0,523.0,531.0,529.0,500.0
558.0,518.0,529.0,518.0,581.0
553.0,507.0,512.0,516.0,552.0
543.0,503.0,511.0,504.0,480.0
557.0,508.0,507.0,498.0,515.0
534.0,504.0,507.0,499.0,442.0
536.0,508.0,506.0,501.0,423.0
489.0,508.0,508.0,505.0,483.0
499.0,512.0,512.0,507.0,584.0
499.0,510.0,508.0,503.0,639.0
504.0,495.0,498.0,496.0,587.0
463.0,480.0,493.0,487.0,499.0
443.0,486.0,504.0,514.0,401.0
445.0,494.0,518.0,526.0,441.0
429.0,494.0,514.0,523.0,495.0
466.0,502.0,518.0,519.0,558.0
544.0,516.0,525.0,513.0,535.0
571.0,516.0,523.0,514.0,539.0
519.0,505.0,515.0,504.0,553.0
515.0,502.0,514.0,512.0,544.0
509.0,507.0,520.0,522.0,456.0
492.0,514.0,523.0,533.0,440.0
503.0,505.0,511.0,521.0,494.0
515.0,506.0,507.0,522.0,522.0
503.0,513.0,506.0,528.0,521.0
484.0,511.0,505.0,515.0,553.0
487.0,499.0,495.0,498.0,500.0
505.0,503.0,497.0,505.0,528.0
492.0,512.0,511.0,501.0,604.0
509.0,513.0,518.0,508.0,576.0
494.0,500.0,514.0,514.0,532.0
498.0,496.0,513.0,514.0,544.0
532.0,511.0,521.0,536.0,461.0
562.0,511.0,517.0,508.0,576.0
556.0,505.0,511.0,501.0,649.0
584.0,502.0,513.0,508.0,666.0
500.0,510.0,526.0,535.0,511.0
454.0,501.0,517.0,510.0,419.0
477.0,499.0,511.0,509.0,414.0
519.0,498.0,502.0,494.0,458.0
520.0,513.0,516.0,510.0,473.0
516.0,512.0,510.0,504.0,520.0
506.0,501.0,499.0,501.0,496.0
498.0,503.0,503.0,509.0,509.0
483.0,501.0,504.0,524.0,471.0
493.0,499.0,514.0,533.0,411.0
469.0,490.0,511.0,526.0,487.0
455.0,490.0,511.0,506.0,577.0
475.0,503.0,526.0,526.0,508.0
456.0,512.0,528.0,516.0,564.0
456.0,510.0,534.0,574.0,527.0
438.0,492.0,523.0,563.0,544.0
461.0,481.0,504.0,538.0,504.0
573.0,513.0,518.0,525.0,377.0
652.0,534.0,523.0,483.0,515.0
621.0,530.0,522.0,487.0,529.0
568.0,503.0,498.0,471.0,579.0
483.0,495.0,497.0,486.0,532.0
490.0,499.0,499.0,490.0,476.0
469.0,503.0,504.0,494.0,530.0
472.0,508.0,504.0,508.0,583.0
472.0,489.0,503.0,505.0,613.0
460.0,486.0,498.0,500.0,447.0
489.0,494.0,509.0,512.0,346.0
506.0,506.0,517.0,513.0,475.0
534.0,511.0,525.0,520.0,581.0
566.0,520.0,525.0,523.0,577.0
517.0,497.0,515.0,519.0,520.0
517.0,498.0,511.0,518.0,411.0
505.0,499.0,519.0,524.0,433.0
489.0,492.0,508.0,493.0,533.0
527.0,500.0,509.0,502.0,500.0
546.0,520.0,517.0,519.0,504.0
524.0,524.0,519.0,540.0,531.0
465.0,508.0,509.0,539.0,472.0
437.0,500.0,502.0,515.0,481.0
425.0,503.0,502.0,497.0,555.0
452.0,501.0,511.0,517.0,528.0
491.0,495.0,506.0,506.0,580.0
543.0,494.0,503.0,496.0,584.0
548.0,498.0,509.0,497.0,602.0
507.0,507.0,521.0,527.0,511.0
499.0,506.0,527.0,538.0,467.0
499.0,507.0,523.0,531.0,521.0
503.0,504.0,514.0,492.0,537.0
564.0,512.0,517.0,503.0,471.0
564.0,514.0,522.0,511.0,515.0
569.0,518.0,523.0,507.0,617.0
539.0,519.0,524.0,506.0,737.0
526.0,531.0,530.0,529.0,739.0
468.0,512.0,513.0,513.0,667.0
467.0,510.0,514.0,538.0,376.0
455.0,509.0,515.0,524.0,305.0
417.0,486.0,494.0,507.0,395.0
435.0,495.0,505.0,522.0,343.0
526.0,502.0,508.0,501.0,461.0
521.0,490.0,501.0,475.0,528.0
543.0,491.0,506.0,495.0,543.0
528.0,503.0,513.0,494.0,474.0
506.0,495.0,519.0,516.0,446.0
564.0,492.0,507.0,505.0,536.0
583.0,501.0,512.0,503.0,580.0
538.0,498.0,511.0,501.0,553.0
545.0,527.0,532.0,527.0,576.0
501.0,548.0,553.0,558.0,594.0
484.0,522.0,531.0,544.0,507.0
480.0,495.0,508.0,536.0,353.0
463.0,488.0,502.0,509.0,448.0
442.0,491.0,496.0,481.0,506.0
438.0,495.0,500.0,487.0,465.0
525.0,511.0,504.0,498.0,508.0
521.0,507.0,504.0,494.0,630.0
504.0,501.0,504.0,499.0,556.0
567.0,513.0,519.0,521.0,557.0
505.0,508.0,515.0,524.0,490.0
464.0,499.0,518.0,504.0,582.0
481.0,511.0,523.0,514.0,487.0
495.0,519.0,526.0,522.0,523.0
512.0,508.0,527.0,538.0,437.0
515.0,493.0,507.0,517.0,463.0
532.0,496.0,506.0,519.0,430.0
560.0,514.0,522.0,528.0,469.0
540.0,511.0,521.0,551.0,504.0
488.0,507.0,509.0,519.0,567.0
571.0,519.0,512.0,493.0,589.0
527.0,512.0,504.0,474.0,557.0
493.0,501.0,493.0,476.0,430.0
561.0,493.0,490.0,489.0,394.0
546.0,505.0,498.0,485.0,505.0
523.0,501.0,510.0,500.0,533.0
516.0,495.0,516.0,507.0,505.0
508.0,500.0,521.0,517.0,561.0
490.0,510.0,527.0,525.0,571.0
461.0,511.0,526.0,517.0,633.0
495.0,504.0,520.0,517.0,588.0
510.0,497.0,513.0,529.0,437.0
494.0,495.0,508.0,517.0,374.0
489.0,499.0,515.0,520.0,407.0
491.0,508.0,515.0,489.0,547.0
564.0,527.0,529.0,523.0,524.0
517.0,517.0,517.0,525.0,546.0
487.0,503.0,505.0,512.0,513.0
460.0,500.0,502.0,490.0,538.0
510.0,498.0,495.0,489.0,493.0
493.0,498.0,495.0,492.0,526.0
609.0,530.0,521.0,517.0,516.0
687.0,538.0,526.0,518.0,541.0
553.0,507.0,520.0,523.0,477.0
473.0,486.0,510.0,505.0,558.0
421.0,485.0,514.0,511.0,557.0
452.0,490.0,514.0,512.0,602.0
460.0,483.0,510.0,514.0,498.0
407.0,478.0,503.0,514.0,432.0
467.0,500.0,519.0,536.0,586.0
580.0,527.0,528.0,533.0,598.0
587.0,522.0,521.0,526.0,501.0
565.0,529.0,524.0,508.0,443.0
502.0,532.0,529.0,524.0,440.0
435.0,527.0,525.0,519.0,508.0
444.0,522.0,519.0,521.0,523.0
510.0,503.0,502.0,496.0,598.0
574.0,509.0,499.0,496.0,588.0
567.0,509.0,509.0,491.0,553.0
570.0,495.0,508.0,505.0,461.0
533.0,485.0,503.0,499.0,470.0
536.0,492.0,514.0,519.0,401.0
509.0,492.0,515.0,512.0,494.0
517.0,494.0,513.0,524.0,517.0
431.0,480.0,511.0,529.0,573.0
368.0,488.0,511.0,526.0,510.0
449.0,508.0,516.0,492.0,559.0
526.0,526.0,528.0,504.0,489.0
497.0,507.0,520.0,510.0,444.0
560.0,507.0,512.0,510.0,473.0
500.0,495.0,499.0,489.0,578.0
536.0,505.0,498.0,497.0,600.0
587.0,526.0,508.0,516.0,449.0
599.0,512.0,502.0,511.0,412.0
504.0,501.0,503.0,499.0,546.0
502.0,502.0,513.0,512.0,495.0
535.0,512.0,528.0,523.0,506.0
536.0,525.0,538.0,540.0,505.0
499.0,509.0,531.0,541.0,506.0
541.0,500.0,511.0,513.0,489.0
546.0,490.0,502.0,488.0,529.0
487.0,500.0,517.0,514.0,515.0
483.0,502.0,510.0,509.0,483.0
599.0,523.0,527.0,519.0,465.0
564.0,518.0,524.0,518.0,477.0
501.0,512.0,520.0,513.0,497.0
500.0,508.0,509.0,500.0,484.0
485.0,487.0,492.0,482.0,504.0
464.0,497.0,500.0,493.0,520.0
538.0,510.0,501.0,499.0,519.0
558.0,511.0,505.0,498.0,579.0
565.0,514.0,514.0,507.0,600.0
544.0,509.0,522.0,522.0,586.0
446.0,492.0,517.0,523.0,523.0
512.0,502.0,522.0,528.0,559.0
500.0,493.0,514.0,512.0,631.0
441.0,493.0,525.0,541.0,688.0
424.0,498.0,528.0,529.0,599.0
483.0,498.0,526.0,520.0,456.0
511.0,505.0,522.0,512.0,419.0
515.0,504.0,518.0,518.0,394.0
420.0,504.0,515.0,522.0,448.0
547.0,527.0,520.0,525.0,446.0
576.0,518.0,519.0,507.0,463.0
528.0,508.0,507.0,490.0,526.0
475.0,492.0,493.0,474.0,535.0
491.0,491.0,495.0,492.0,480.0
541.0,496.0,497.0,491.0,487.0
562.0,503.0,512.0,516.0,487.0
574.0,512.0,521.0,531.0,540.0
505.0,504.0,523.0,530.0,556.0
540.0,523.0,531.0,539.0,556.0
548.0,518.0,528.0,525.0,468.0
589.0,517.0,521.0,512.0,568.0
509.0,498.0,514.0,492.0,524.0
522.0,504.0,517.0,497.0,538.0
539.0,528.0,529.0,515.0,486.0
562.0,527.0,538.0,528.0,449.0
540.0,520.0,527.0,525.0,431.0
518.0,511.0,513.0,508.0,444.0
474.0,503.0,500.0,492.0,520.0
387.0,495.0,495.0,487.0,523.0
450.0,495.0,500.0,499.0,476.0
532.0,509.0,507.0,511.0,478.0
501.0,492.0,501.0,506.0,547.0
530.0,499.0,506.0,501.0,529.0
489.0,498.0,516.0,514.0,498.0
471.0,498.0,520.0,513.0,505.0
528.0,498.0,516.0,509.0,506.0
565.0,501.0,512.0,510.0,563.0
530.0,500.0,512.0,510.0,541.0
564.0,511.0,516.0,506.0,540.0
598.0,523.0,519.0,511.0,552.0
636.0,532.0,526.0,521.0,534.0
634.0,530.0,529.0,525.0,632.0
567.0,523.0,523.0,537.0,738.0
429.0,502.0,516.0,558.0,463.0
460.0,514.0,518.0,556.0,234.0
493.0,517.0,514.0,523.0,376.0
499.0,514.0,511.0,494.0,506.0
490.0,499.0,501.0,499.0,563.0
531.0,497.0,506.0,498.0,528.0
521.0,481.0,493.0,482.0,509.0
522.0,478.0,500.0,490.0,513.0
434.0,482.0,507.0,499.0,509.0
448.0,496.0,521.0,516.0,469.0
521.0,502.0,520.0,511.0,532.0
541.0,523.0,524.0,515.0,524.0
532.0,518.0,526.0,516.0,482.0
522.0,516.0,523.0,522.0,492.0
507.0,509.0,527.0,529.0,524.0
522.0,516.0,523.0,521.0,512.0
489.0,505.0,513.0,513.0,588.0
529.0,511.0,508.0,524.0,541.0
509.0,507.0,503.0,507.0,446.0
532.0,502.0,501.0,499.0,417.0
528.0,495.0,493.0,486.0,533.0
466.0,482.0,490.0,488.0,595.0
448.0,483.0,501.0,507.0,537.0
418.0,490.0,514.0,510.0,503.0
459.0,507.0,522.0,524.0,481.0
548.0,526.0,529.0,524.0,507.0
613.0,529.0,531.0,522.0,509.0
555.0,506.0,519.0,513.0,500.0
533.0,499.0,514.0,509.0,480.0
592.0,520.0,521.0,513.0,524.0
600.0,531.0,532.0,523.0,562.0
595.0,528.0,525.0,522.0,513.0
528.0,513.0,514.0,512.0,521.0
496.0,509.0,513.0,512.0,479.0
493.0,508.0,513.0,509.0,491.0
484.0,502.0,504.0,501.0,505.0
490.0,500.0,500.0,501.0,509.0
489.0,498.0,496.0,500.0,494.0
523.0,498.0,501.0,499.0,534.0
519.0,506.0,513.0,510.0,522.0
497.0,509.0,521.0,525.0,531.0
502.0,519.0,531.0,538.0,517.0
589.0,524.0,535.0,540.0,541.0
591.0,506.0,513.0,488.0,618.0
486.0,489.0,508.0,504.0,499.0
463.0,495.0,519.0,532.0,460.0
443.0,501.0,520.0,527.0,563.0
504.0,512.0,522.0,535.0,483.0
528.0,518.0,524.0,514.0,518.0
516.0,512.0,518.0,521.0,499.0
506.0,518.0,519.0,509.0,549.0
490.0,510.0,509.0,501.0,598.0
498.0,507.0,504.0,498.0,601.0
543.0,505.0,504.0,508.0,482.0
544.0,500.0,501.0,514.0,401.0
515.0,490.0,495.0,503.0,430.0
493.0,483.0,503.0,509.0,541.0
420.0,483.0,516.0,525.0,570.0
427.0,499.0,519.0,526.0,559.0
465.0,504.0,525.0,531.0,484.0
496.0,499.0,514.0,515.0,524.0
509.0,504.0,516.0,515.0,444.0
572.0,522.0,520.0,504.0,510.0
592.0,531.0,529.0,512.0,583.0
592.0,528.0,528.0,524.0,521.0
562.0,505.0,512.0,521.0,493.0
487.0,506.0,510.0,512.0,450.0
535.0,524.0,511.0,491.0,508.0
587.0,522.0,512.0,510.0,465.0
520.0,502.0,497.0,495.0,484.0
441.0,491.0,493.0,494.0,532.0
392.0,480.0,495.0,503.0,516.0
461.0,495.0,505.0,505.0,506.0
515.0,511.0,520.0,516.0,548.0
450.0,503.0,523.0,515.0,673.0
483.0,497.0,516.0,508.0,564.0
522.0,514.0,523.0,529.0,443.0
531.0,509.0,527.0,541.0,422.0
560.0,509.0,514.0,514.0,508.0
591.0,510.0,511.0,500.0,533.0
578.0,516.0,515.0,494.0,525.0
541.0,513.0,513.0,511.0,538.0
523.0,511.0,513.0,511.0,515.0
542.0,524.0,520.0,524.0,478.0
524.0,518.0,516.0,518.0,469.0
536.0,528.0,518.0,514.0,540.0
510.0,521.0,513.0,505.0,548.0
522.0,512.0,507.0,506.0,504.0
508.0,498.0,500.0,501.0,485.0
484.0,494.0,507.0,505.0,499.0
452.0,492.0,513.0,508.0,544.0
407.0,492.0,514.0,506.0,565.0
441.0,493.0,513.0,514.0,504.0
545.0,500.0,514.0,511.0,521.0
567.0,506.0,514.0,506.0,533.0
584.0,516.0,522.0,525.0,514.0
573.0,515.0,521.0,521.0,539.0
519.0,506.0,513.0,515.0,506.0
524.0,522.0,526.0,539.0,460.0
579.0,541.0,539.0,537.0,527.0
560.0,534.0,529.0,528.0,508.0
499.0,512.0,511.0,514.0,498.0
491.0,505.0,506.0,506.0,444.0
491.0,492.0,492.0,481.0,549.0
522.0,501.0,498.0,496.0,568.0
532.0,498.0,503.0,508.0,514.0
490.0,488.0,501.0,497.0,496.0
459.0,487.0,509.0,514.0,515.0
462.0,493.0,514.0,510.0,477.0
563.0,512.0,526.0,517.0,436.0
540.0,506.0,520.0,520.0,470.0
510.0,507.0,521.0,521.0,502.0
517.0,509.0,513.0,521.0,532.0
546.0,515.0,520.0,514.0,528.0
544.0,519.0,524.0,518.0,528.0
589.0,537.0,533.0,524.0,511.0
598.0,539.0,531.0,518.0,528.0
557.0,520.0,525.0,523.0,567.0
483.0,502.0,503.0,514.0,471.0
458.0,493.0,496.0,508.0,516.0
444.0,492.0,495.0,503.0,514.0
435.0,493.0,504.0,514.0,560.0
495.0,500.0,508.0,518.0,489.0
518.0,501.0,512.0,514.0,480.0
506.0,504.0,523.0,517.0,536.0
480.0,502.0,522.0,516.0,512.0
496.0,495.0,516.0,511.0,523.0
507.0,500.0,514.0,507.0,545.0
499.0,501.0,511.0,497.0,575.0
527.0,514.0,521.0,510.0,527.0
544.0,520.0,526.0,522.0,460.0
537.0,520.0,523.0,515.0,494.0
585.0,527.0,524.0,519.0,517.0
550.0,520.0,513.0,514.0,508.0
491.0,502.0,508.0,508.0,497.0
465.0,498.0,501.0,504.0,505.0
478.0,502.0,500.0,498.0,507.0
478.0,498.0,501.0,502.0,522.0
483.0,494.0,494.0,497.0,524.0
441.0,496.0,511.0,512.0,490.0
468.0,498.0,518.0,519.0,502.0
481.0,502.0,522.0,516.0,580.0
565.0,505.0,531.0,523.0,553.0
491.0,508.0,527.0,521.0,618.0
570.0,520.0,527.0,529.0,531.0
599.0,519.0,527.0,521.0,482.0
516.0,516.0,524.0,527.0,465.0
529.0,517.0,528.0,537.0,535.0
564.0,520.0,524.0,524.0,552.0
561.0,513.0,517.0,527.0,449.0
515.0,503.0,509.0,512.0,496.0
444.0,501.0,507.0,502.0,473.0
457.0,502.0,508.0,505.0,433.0
546.0,512.0,509.0,502.0,478.0
458.0,499.0,502.0,492.0,523.0
416.0,492.0,508.0,502.0,518.0
517.0,501.0,512.0,506.0,553.0
556.0,509.0,520.0,512.0,558.0
528.0,504.0,523.0,515.0,550.0
434.0,494.0,515.0,508.0,573.0
435.0,498.0,523.0,537.0,464.0
567.0,517.0,526.0,525.0,516.0
592.0,526.0,528.0,518.0,590.0
612.0,518.0,520.0,507.0,577.0
549.0,505.0,516.0,507.0,416.0
508.0,513.0,521.0,515.0,474.0
517.0,521.0,521.0,513.0,517.0
554.0,524.0,520.0,512.0,532.0
507.0,513.0,511.0,508.0,536.0
488.0,506.0,512.0,526.0,431.0
496.0,502.0,508.0,516.0,481.0
467.0,500.0,505.0,504.0,483.0
482.0,506.0,511.0,502.0,512.0
449.0,498.0,525.0,515.0,544.0
447.0,489.0,514.0,508.0,550.0
553.0,506.0,523.0,519.0,539.0
525.0,500.0,522.0,511.0,508.0
605.0,505.0,518.0,513.0,473.0
541.0,498.0,513.0,507.0,552.0
508.0,511.0,520.0,518.0,566.0
533.0,514.0,519.0,506.0,520.0
519.0,511.0,519.0,515.0,478.0
542.0,517.0,520.0,524.0,450.0
566.0,523.0,522.0,519.0,490.0
547.0,524.0,520.0,512.0,475.0
475.0,513.0,512.0,511.0,472.0
482.0,495.0,504.0,529.0,434.0
488.0,495.0,504.0,528.0,444.0
484.0,482.0,499.0,506.0,531.0
484.0,491.0,503.0,488.0,557.0
419.0,500.0,516.0,501.0,556.0
516.0,505.0,518.0,511.0,551.0
586.0,521.0,527.0,519.0,559.0
602.0,524.0,525.0,516.0,520.0
541.0,503.0,514.0,506.0,513.0
512.0,500.0,515.0,518.0,482.0
512.0,508.0,520.0,525.0,474.0
526.0,514.0,521.0,524.0,467.0
523.0,515.0,522.0,521.0,494.0
488.0,514.0,521.0,512.0,542.0
491.0,512.0,517.0,514.0,550.0
462.0,506.0,506.0,503.0,603.0
483.0,513.0,506.0,503.0,497.0
491.0,505.0,499.0,504.0,484.0
523.0,494.0,493.0,496.0,526.0
505.0,486.0,491.0,486.0,533.0
521.0,499.0,509.0,507.0,499.0
508.0,500.0,513.0,510.0,509.0
565.0,514.0,522.0,519.0,556.0
554.0,510.0,518.0,524.0,530.0
507.0,496.0,517.0,525.0,477.0
504.0,497.0,518.0,526.0,459.0
480.0,500.0,519.0,521.0,483.0
489.0,504.0,522.0,504.0,555.0
497.0,509.0,527.0,520.0,553.0
486.0,511.0,519.0,510.0,539.0
504.0,526.0,523.0,528.0,490.0
644.0,546.0,526.0,529.0,491.0
641.0,525.0,512.0,517.0,468.0
513.0,497.0,494.0,484.0,578.0
476.0,500.0,502.0,504.0,493.0
477.0,495.0,501.0,508.0,466.0
504.0,499.0,508.0,516.0,505.0
490.0,500.0,514.0,512.0,485.0
508.0,509.0,526.0,522.0,452.0
520.0,507.0,521.0,521.0,538.0
531.0,501.0,515.0,505.0,554.0
546.0,503.0,515.0,502.0,520.0
506.0,498.0,516.0,511.0,496.0
452.0,506.0,520.0,515.0,514.0
487.0,517.0,526.0,534.0,477.0
472.0,514.0,528.0,535.0,501.0
504.0,509.0,524.0,527.0,445.0
500.0,501.0,511.0,503.0,542.0
507.0,522.0,514.0,514.0,515.0
558.0,515.0,504.0,507.0,508.0
539.0,506.0,500.0,499.0,533.0
519.0,492.0,496.0,491.0,566.0
530.0,503.0,507.0,507.0,581.0
522.0,499.0,511.0,518.0,577.0
466.0,492.0,509.0,513.0,520.0
458.0,501.0,517.0,502.0,487.0
480.0,506.0,523.0,515.0,485.0
570.0,517.0,528.0,522.0,455.0
551.0,496.0,515.0,503.0,489.0
487.0,484.0,501.0,493.0,539.0
511.0,502.0,513.0,507.0,557.0
539.0,524.0,526.0,521.0,531.0
585.0,528.0,534.0,518.0,538.0
499.0,515.0,521.0,513.0,516.0
425.0,501.0,511.0,512.0,486.0
488.0,503.0,508.0,507.0,501.0
513.0,501.0,507.0,515.0,482.0
503.0,499.0,501.0,501.0,481.0
553.0,513.0,508.0,505.0,488.0
543.0,507.0,510.0,508.0,548.0
546.0,511.0,526.0,529.0,562.0
557.0,514.0,528.0,523.0,617.0
458.0,505.0,527.0,526.0,530.0
422.0,493.0,514.0,504.0,524.0
418.0,483.0,508.0,499.0,498.0
466.0,491.0,512.0,512.0,494.0
505.0,501.0,513.0,504.0,510.0
533.0,509.0,515.0,513.0,518.0
581.0,517.0,524.0,548.0,395.0
585.0,526.0,528.0,534.0,500.0
560.0,526.0,525.0,529.0,483.0
554.0,517.0,511.0,507.0,467.0
526.0,513.0,507.0,510.0,434.0
536.0,517.0,507.0,496.0,557.0
520.0,507.0,499.0,492.0,537.0
555.0,507.0,502.0,488.0,543.0
566.0,507.0,509.0,506.0,510.0
464.0,492.0,507.0,505.0,539.0
412.0,490.0,511.0,513.0,542.0
448.0,503.0,527.0,527.0,461.0
504.0,495.0,517.0,519.0,525.0
545.0,507.0,521.0,508.0,553.0
559.0,512.0,519.0,511.0,501.0
512.0,507.0,518.0,513.0,537.0
511.0,505.0,512.0,503.0,539.0
529.0,523.0,527.0,516.0,570.0
528.0,529.0,531.0,525.0,494.0
516.0,519.0,521.0,516.0,508.0
517.0,509.0,513.0,527.0,459.0
517.0,508.0,508.0,524.0,436.0
504.0,504.0,507.0,514.0,435.0
504.0,498.0,501.0,501.0,493.0
507.0,503.0,505.0,492.0,567.0
500.0,496.0,506.0,498.0,580.0
520.0,503.0,516.0,519.0,487.0
509.0,506.0,521.0,527.0,497.0
495.0,498.0,515.0,515.0,564.0
516.0,503.0,516.0,513.0,524.0
520.0,507.0,519.0,504.0,528.0
513.0,506.0,517.0,507.0,567.0
531.0,514.0,519.0,519.0,529.0
531.0,517.0,525.0,526.0,516.0
538.0,520.0,525.0,522.0,592.0
529.0,513.0,517.0,514.0,573.0
489.0,501.0,504.0,501.0,513.0
489.0,499.0,503.0,517.0,350.0
476.0,502.0,506.0,524.0,415.0
495.0,504.0,504.0,508.0,517.0
523.0,502.0,502.0,488.0,538.0
525.0,509.0,512.0,501.0,534.0
524.0,508.0,515.0,511.0,502.0
507.0,501.0,514.0,509.0,504.0
554.0,508.0,514.0,507.0,509.0
572.0,513.0,522.0,517.0,513.0
560.0,507.0,518.0,513.0,525.0
499.0,493.0,515.0,512.0,521.0
445.0,496.0,518.0,515.0,535.0
527.0,515.0,520.0,521.0,544.0
560.0,519.0,524.0,518.0,580.0
521.0,509.0,518.0,518.0,521.0
452.0,505.0,510.0,517.0,479.0
438.0,500.0,507.0,520.0,473.0
478.0,504.0,503.0,507.0,484.0
506.0,504.0,505.0,502.0,505.0
527.0,506.0,499.0,501.0,519.0
467.0,497.0,499.0,496.0,531.0
467.0,502.0,508.0,509.0,540.0
503.0,512.0,518.0,518.0,522.0
536.0,517.0,524.0,530.0,514.0
554.0,503.0,519.0,517.0,481.0
504.0,498.0,520.0,515.0,519.0
520.0,514.0,521.0,513.0,536.0
500.0,507.0,523.0,513.0,510.0
509.0,501.0,514.0,516.0,497.0
492.0,496.0,508.0,513.0,512.0
477.0,498.0,509.0,510.0,513.0
507.0,503.0,513.0,507.0,509.0
506.0,510.0,513.0,503.0,491.0
505.0,512.0,511.0,512.0,508.0
522.0,506.0,505.0,505.0,520.0
502.0,502.0,499.0,501.0,504.0
496.0,502.0,496.0,498.0,520.0
614.0,518.0,509.0,513.0,495.0
565.0,512.0,513.0,513.0,534.0
566.0,505.0,514.0,511.0,585.0
483.0,501.0,517.0,512.0,569.0
451.0,506.0,525.0,519.0,471.0
488.0,505.0,525.0,532.0,386.0
493.0,503.0,524.0,533.0,495.0
501.0,503.0,518.0,526.0,529.0
553.0,505.0,512.0,518.0,495.0
555.0,511.0,522.0,531.0,454.0
519.0,518.0,524.0,520.0,508.0
476.0,510.0,518.0,516.0,512.0
483.0,512.0,513.0,497.0,559.0
556.0,528.0,527.0,521.0,460.0
521.0,523.0,517.0,516.0,501.0
503.0,518.0,505.0,501.0,563.0
496.0,499.0,501.0,507.0,507.0
496.0,499.0,509.0,503.0,524.0
521.0,497.0,503.0,508.0,516.0
571.0,511.0,521.0,526.0,504.0
532.0,499.0,514.0,507.0,547.0
500.0,499.0,517.0,507.0,557.0
485.0,501.0,518.0,518.0,501.0
518.0,513.0,519.0,516.0,519.0
576.0,518.0,520.0,516.0,517.0
564.0,516.0,522.0,516.0,488.0
547.0,518.0,522.0,520.0,469.0
551.0,516.0,514.0,509.0,502.0
509.0,510.0,515.0,510.0,549.0
477.0,502.0,511.0,516.0,537.0
405.0,491.0,503.0,506.0,526.0
372.0,485.0,500.0,506.0,639.0
431.0,489.0,494.0,512.0,504.0
549.0,513.0,511.0,539.0,496.0
589.0,515.0,516.0,509.0,532.0
577.0,514.0,517.0,500.0,515.0
528.0,506.0,521.0,517.0,465.0
535.0,515.0,526.0,527.0,469.0
541.0,516.0,526.0,521.0,509.0
543.0,508.0,517.0,503.0,540.0
552.0,511.0,520.0,508.0,529.0
536.0,501.0,511.0,508.0,512.0
511.0,499.0,513.0,525.0,421.0
502.0,506.0,518.0,520.0,432.0
503.0,510.0,517.0,510.0,491.0
525.0,514.0,516.0,507.0,521.0
520.0,519.0,516.0,509.0,504.0
523.0,515.0,505.0,508.0,510.0
545.0,514.0,508.0,507.0,540.0
534.0,503.0,505.0,501.0,569.0
478.0,481.0,500.0,500.0,570.0
503.0,509.0,513.0,516.0,468.0
515.0,498.0,512.0,526.0,480.0
497.0,494.0,515.0,520.0,508.0
502.0,496.0,519.0,512.0,558.0
491.0,496.0,512.0,503.0,570.0
552.0,506.0,515.0,512.0,497.0
515.0,497.0,514.0,516.0,475.0
489.0,501.0,518.0,521.0,483.0
477.0,511.0,521.0,523.0,504.0
557.0,533.0,533.0,533.0,476.0
592.0,536.0,530.0,519.0,504.0
572.0,524.0,520.0,512.0,516.0
476.0,510.0,511.0,504.0,540.0
479.0,492.0,493.0,492.0,568.0
483.0,490.0,493.0,497.0,507.0
476.0,497.0,500.0,503.0,481.0
505.0,491.0,504.0,508.0,493.0
513.0,501.0,512.0,517.0,487.0
506.0,500.0,516.0,518.0,521.0
499.0,499.0,517.0,512.0,537.0
507.0,495.0,519.0,512.0,543.0
438.0,488.0,515.0,514.0,561.0
380.0,494.0,522.0,519.0,552.0
484.0,513.0,528.0,521.0,518.0
684.0,539.0,534.0,523.0,542.0
597.0,518.0,532.0,530.0,528.0
535.0,512.0,527.0,530.0,481.0
503.0,504.0,512.0,511.0,553.0
472.0,513.0,512.0,512.0,576.0
496.0,504.0,502.0,511.0,514.0
437.0,486.0,495.0,513.0,456.0
465.0,485.0,486.0,486.0,470.0
471.0,491.0,497.0,495.0,534.0
471.0,509.0,515.0,517.0,462.0
515.0,510.0,521.0,519.0,525.0
598.0,519.0,524.0,513.0,482.0
557.0,516.0,531.0,528.0,518.0
541.0,507.0,523.0,516.0,587.0
528.0,508.0,521.0,511.0,586.0
520.0,500.0,510.0,496.0,465.0
594.0,521.0,522.0,517.0,423.0
584.0,519.0,522.0,518.0,477.0
546.0,519.0,525.0,523.0,508.0
543.0,523.0,522.0,519.0,526.0
515.0,507.0,511.0,508.0,477.0
504.0,508.0,512.0,515.0,461.0
451.0,503.0,504.0,505.0,526.0
433.0,496.0,504.0,503.0,548.0
462.0,499.0,503.0,508.0,484.0
495.0,495.0,501.0,506.0,532.0
569.0,514.0,511.0,519.0,506.0
557.0,511.0,518.0,517.0,505.0
510.0,498.0,516.0,508.0,537.0
505.0,501.0,513.0,505.0,519.0
542.0,505.0,519.0,515.0,503.0
515.0,506.0,516.0,511.0,507.0
543.0,510.0,519.0,516.0,502.0
542.0,519.0,524.0,521.0,523.0
503.0,519.0,529.0,525.0,485.0
531.0,518.0,523.0,522.0,497.0
541.0,519.0,519.0,527.0,514.0
532.0,509.0,508.0,506.0,512.0
512.0,508.0,505.0,504.0,491.0
475.0,497.0,503.0,507.0,490.0
471.0,500.0,504.0,491.0,540.0
528.0,503.0,501.0,496.0,525.0
518.0,500.0,505.0,504.0,551.0
498.0,501.0,508.0,503.0,616.0
509.0,508.0,521.0,512.0,624.0
514.0,503.0,516.0,518.0,502.0
510.0,500.0,520.0,523.0,500.0
517.0,503.0,519.0,541.0,488.0
490.0,491.0,508.0,509.0,480.0
489.0,501.0,515.0,515.0,468.0
536.0,513.0,516.0,500.0,542.0
547.0,517.0,520.0,518.0,502.0
548.0,512.0,519.0,521.0,467.0
528.0,515.0,515.0,511.0,481.0
535.0,522.0,522.0,512.0,510.0
518.0,514.0,509.0,493.0,508.0
480.0,504.0,506.0,504.0,525.0
496.0,496.0,502.0,503.0,521.0
475.0,494.0,503.0,509.0,564.0
499.0,503.0,510.0,506.0,531.0
498.0,506.0,516.0,515.0,489.0
518.0,506.0,521.0,522.0,490.0
484.0,503.0,523.0,519.0,530.0
487.0,506.0,524.0,528.0,473.0
549.0,519.0,529.0,520.0,515.0
544.0,517.0,530.0,530.0,474.0
517.0,506.0,525.0,523.0,478.0
484.0,490.0,505.0,502.0,505.0
555.0,512.0,519.0,516.0,447.0
538.0,514.0,518.0,510.0,517.0
531.0,522.0,519.0,516.0,537.0
498.0,508.0,505.0,508.0,528.0
503.0,507.0,503.0,508.0,523.0
488.0,501.0,501.0,505.0,546.0
507.0,498.0,500.0,505.0,524.0
475.0,492.0,501.0,500.0,546.0
432.0,493.0,505.0,505.0,536.0
473.0,499.0,518.0,516.0,518.0
545.0,511.0,523.0,524.0,513.0
584.0,520.0,526.0,521.0,539.0
540.0,502.0,515.0,516.0,516.0
513.0,499.0,514.0,512.0,501.0
502.0,508.0,523.0,522.0,490.0
506.0,517.0,524.0,527.0,481.0
545.0,516.0,522.0,530.0,466.0
535.0,514.0,523.0,525.0,474.0
537.0,518.0,519.0,517.0,499.0
502.0,510.0,510.0,501.0,565.0
543.0,513.0,508.0,514.0,533.0
513.0,513.0,510.0,520.0,516.0
481.0,503.0,506.0,518.0,490.0
449.0,504.0,515.0,528.0,454.0
403.0,499.0,512.0,521.0,503.0
444.0,498.0,513.0,503.0,614.0
561.0,507.0,513.0,498.0,568.0
598.0,514.0,518.0,510.0,525.0
536.0,508.0,516.0,514.0,474.0
508.0,500.0,515.0,512.0,538.0
504.0,501.0,511.0,506.0,636.0
500.0,505.0,512.0,517.0,543.0
525.0,500.0,516.0,512.0,411.0
553.0,515.0,519.0,522.0,440.0
590.0,523.0,522.0,518.0,536.0
602.0,528.0,526.0,513.0,529.0
535.0,514.0,516.0,507.0,508.0
483.0,512.0,508.0,509.0,461.0
500.0,506.0,501.0,506.0,483.0
486.0,498.0,493.0,498.0,480.0
483.0,498.0,501.0,513.0,482.0
501.0,501.0,507.0,506.0,549.0
518.0,512.0,522.0,528.0,493.0
512.0,509.0,520.0,525.0,508.0
517.0,503.0,520.0,519.0,524.0
499.0,502.0,515.0,515.0,535.0
491.0,499.0,519.0,519.0,515.0
475.0,491.0,513.0,510.0,523.0
441.0,492.0,512.0,505.0,522.0
484.0,505.0,515.0,509.0,538.0
483.0,506.0,516.0,508.0,550.0
554.0,523.0,524.0,515.0,504.0
588.0,529.0,525.0,525.0,491.0
525.0,514.0,516.0,526.0,503.0
544.0,514.0,506.0,503.0,534.0
548.0,508.0,503.0,505.0,487.0
495.0,491.0,497.0,507.0,484.0
480.0,490.0,497.0,511.0,507.0
503.0,496.0,505.0,508.0,532.0
525.0,508.0,513.0,509.0,536.0
530.0,510.0,521.0,517.0,495.0
563.0,516.0,528.0,532.0,479.0
543.0,509.0,518.0,517.0,582.0
495.0,501.0,518.0,508.0,535.0
488.0,500.0,517.0,515.0,486.0
515.0,514.0,519.0,510.0,534.0
510.0,513.0,521.0,521.0,560.0
505.0,507.0,522.0,521.0,504.0
505.0,516.0,524.0,517.0,512.0
524.0,517.0,517.0,507.0,551.0
487.0,504.0,504.0,499.0,504.0
534.0,512.0,507.0,509.0,472.0
512.0,512.0,511.0,510.0,491.0
532.0,507.0,505.0,501.0,506.0
527.0,507.0,506.0,514.0,502.0
512.0,496.0,509.0,511.0,521.0
490.0,502.0,519.0,511.0,520.0
523.0,512.0,524.0,524.0,505.0
523.0,510.0,526.0,532.0,511.0
522.0,503.0,521.0,517.0,541.0
536.0,504.0,518.0,506.0,541.0
534.0,505.0,523.0,511.0,502.0
469.0,497.0,513.0,519.0,500.0
478.0,507.0,524.0,527.0,502.0
507.0,512.0,521.0,515.0,499.0
531.0,520.0,521.0,507.0,489.0
533.0,516.0,516.0,508.0,514.0
516.0,511.0,513.0,511.0,502.0
487.0,507.0,507.0,510.0,513.0
463.0,508.0,507.0,503.0,521.0
476.0,505.0,504.0,507.0,532.0
516.0,500.0,507.0,508.0,545.0
527.0,504.0,515.0,513.0,519.0
503.0,501.0,518.0,515.0,533.0
517.0,501.0,518.0,523.0,493.0
498.0,493.0,515.0,515.0,533.0
500.0,488.0,505.0,506.0,519.0
499.0,497.0,515.0,514.0,471.0
517.0,504.0,516.0,505.0,501.0
553.0,514.0,515.0,501.0,532.0
568.0,519.0,520.0,510.0,518.0
552.0,523.0,524.0,523.0,526.0
512.0,517.0,522.0,534.0,471.0
468.0,506.0,513.0,517.0,528.0
467.0,506.0,509.0,507.0,566.0
491.0,514.0,506.0,499.0,544.0
535.0,504.0,502.0,505.0,527.0
496.0,500.0,502.0,501.0,521.0
511.0,502.0,507.0,507.0,488.0
532.0,502.0,512.0,510.0,491.0
526.0,499.0,519.0,509.0,522.0
519.0,500.0,514.0,518.0,491.0
529.0,505.0,517.0,517.0,501.0
517.0,506.0,516.0,517.0,506.0
555.0,509.0,518.0,508.0,514.0
583.0,517.0,522.0,518.0,526.0
517.0,507.0,516.0,525.0,554.0
482.0,503.0,519.0,520.0,524.0
463.0,508.0,513.0,517.0,502.0
479.0,509.0,519.0,517.0,456.0
503.0,514.0,515.0,514.0,469.0
518.0,505.0,507.0,502.0,512.0
518.0,508.0,504.0,505.0,532.0
485.0,496.0,497.0,495.0,516.0
540.0,504.0,508.0,507.0,507.0
514.0,504.0,510.0,506.0,507.0
512.0,505.0,513.0,515.0,513.0
514.0,502.0,521.0,519.0,507.0
519.0,504.0,524.0,518.0,535.0
539.0,510.0,520.0,512.0,529.0
531.0,506.0,521.0,513.0,515.0
530.0,509.0,517.0,520.0,446.0
524.0,506.0,517.0,519.0,481.0
519.0,504.0,520.0,523.0,519.0
482.0,505.0,518.0,521.0,558.0
474.0,516.0,521.0,517.0,544.0
480.0,519.0,520.0,514.0,519.0
534.0,523.0,516.0,525.0,457.0
523.0,507.0,506.0,504.0,507.0
479.0,499.0,498.0,485.0,562.0
543.0,505.0,502.0,503.0,518.0
538.0,498.0,504.0,509.0,498.0
507.0,496.0,504.0,502.0,514.0
517.0,506.0,520.0,516.0,529.0
502.0,505.0,520.0,518.0,521.0
498.0,503.0,518.0,525.0,539.0
517.0,518.0,526.0,527.0,512.0
549.0,521.0,530.0,529.0,527.0
583.0,527.0,534.0,538.0,528.0
509.0,519.0,525.0,527.0,560.0
462.0,507.0,520.0,519.0,512.0
479.0,504.0,517.0,511.0,549.0
565.0,520.0,517.0,514.0,477.0
556.0,510.0,508.0,504.0,463.0
519.0,500.0,501.0,495.0,485.0
485.0,501.0,500.0,501.0,493.0
468.0,496.0,499.0,507.0,503.0
487.0,498.0,497.0,499.0,513.0
528.0,506.0,510.0,510.0,544.0
539.0,513.0,519.0,524.0,540.0
503.0,500.0,513.0,517.0,516.0
493.0,501.0,514.0,512.0,511.0
516.0,506.0,523.0,525.0,514.0
536.0,505.0,520.0,516.0,505.0
521.0,502.0,516.0,516.0,487.0
520.0,506.0,515.0,511.0,498.0
501.0,508.0,515.0,508.0,509.0
516.0,516.0,522.0,518.0,493.0
533.0,519.0,526.0,522.0,481.0
524.0,518.0,517.0,519.0,469.0
514.0,511.0,510.0,512.0,476.0
484.0,504.0,502.0,502.0,544.0
494.0,503.0,500.0,499.0,547.0
492.0,499.0,499.0,494.0,557.0
503.0,501.0,503.0,504.0,500.0
514.0,503.0,512.0,515.0,482.0
503.0,506.0,518.0,521.0,492.0
508.0,506.0,527.0,527.0,509.0
489.0,498.0,517.0,519.0,526.0
492.0,499.0,513.0,507.0,546.0
493.0,506.0,516.0,508.0,542.0
503.0,506.0,518.0,521.0,518.0
523.0,506.0,519.0,515.0,538.0
560.0,521.0,523.0,519.0,505.0
522.0,520.0,520.0,522.0,514.0
507.0,518.0,519.0,523.0,486.0
514.0,516.0,518.0,520.0,487.0
518.0,513.0,515.0,507.0,523.0
503.0,513.0,511.0,507.0,552.0
494.0,510.0,509.0,514.0,571.0
488.0,498.0,500.0,511.0,544.0
533.0,499.0,504.0,509.0,450.0
539.0,503.0,511.0,513.0,480.0
527.0,501.0,511.0,508.0,486.0
521.0,502.0,519.0,517.0,511.0
497.0,502.0,521.0,516.0,522.0
497.0,505.0,517.0,519.0,512.0
490.0,502.0,515.0,523.0,522.0
479.0,505.0,519.0,517.0,538.0
509.0,512.0,521.0,522.0,533.0
542.0,516.0,523.0,523.0,525.0
546.0,516.0,515.0,511.0,504.0
563.0,524.0,522.0,524.0,484.0
545.0,525.0,517.0,515.0,507.0
496.0,509.0,510.0,508.0,508.0
520.0,504.0,502.0,514.0,487.0
527.0,504.0,501.0,498.0,494.0
507.0,496.0,497.0,496.0,518.0
489.0,496.0,505.0,506.0,522.0
506.0,501.0,515.0,519.0,536.0
526.0,504.0,518.0,524.0,535.0
517.0,506.0,520.0,518.0,529.0
510.0,504.0,521.0,520.0,521.0
499.0,501.0,519.0,522.0,488.0
499.0,502.0,518.0,520.0,500.0
518.0,510.0,520.0,512.0,522.0
531.0,515.0,518.0,513.0,524.0
528.0,517.0,521.0,515.0,523.0
519.0,523.0,525.0,520.0,522.0
545.0,527.0,524.0,523.0,505.0
546.0,520.0,514.0,515.0,498.0
522.0,505.0,502.0,507.0,511.0
497.0,501.0,498.0,498.0,523.0
479.0,499.0,501.0,510.0,505.0
469.0,498.0,505.0,505.0,520.0
499.0,505.0,512.0,515.0,502.0
502.0,505.0,520.0,523.0,510.0
519.0,505.0,521.0,522.0,500.0
510.0,498.0,518.0,515.0,513.0
510.0,496.0,513.0,510.0,522.0
507.0,499.0,514.0,513.0,513.0
513.0,509.0,517.0,512.0,513.0
520.0,514.0,519.0,514.0,507.0
519.0,510.0,521.0,522.0,517.0
515.0,515.0,519.0,518.0,513.0
520.0,515.0,517.0,516.0,506.0
516.0,514.0,514.0,511.0,505.0
520.0,512.0,506.0,509.0,509.0
498.0,504.0,503.0,504.0,520.0
482.0,498.0,499.0,510.0,524.0
495.0,502.0,504.0,511.0,523.0
505.0,503.0,511.0,503.0,516.0
495.0,501.0,512.0,519.0,521.0
508.0,506.0,518.0,523.0,521.0
508.0,506.0,521.0,527.0,522.0
517.0,505.0,522.0,517.0,528.0
533.0,502.0,520.0,514.0,535.0
532.0,515.0,528.0,520.0,545.0
533.0,517.0,523.0,523.0,558.0
503.0,507.0,515.0,513.0,558.0
514.0,512.0,519.0,514.0,485.0
528.0,513.0,521.0,523.0,460.0
524.0,514.0,516.0,513.0,483.0
531.0,514.0,513.0,509.0,503.0
512.0,511.0,509.0,506.0,488.0
509.0,510.0,504.0,501.0,504.0
502.0,499.0,502.0,505.0,538.0
503.0,498.0,503.0,507.0,486.0
512.0,501.0,510.0,511.0,498.0
525.0,505.0,515.0,511.0,509.0
525.0,505.0,519.0,518.0,522.0
536.0,507.0,524.0,523.0,508.0
533.0,504.0,521.0,518.0,532.0
513.0,503.0,518.0,511.0,540.0
512.0,507.0,520.0,522.0,541.0
495.0,507.0,520.0,517.0,534.0
462.0,501.0,517.0,512.0,507.0
532.0,513.0,521.0,518.0,478.0
553.0,523.0,522.0,518.0,481.0
529.0,518.0,519.0,513.0,516.0
512.0,511.0,510.0,511.0,524.0
509.0,511.0,503.0,507.0,511.0
519.0,503.0,501.0,502.0,511.0
490.0,496.0,501.0,511.0,534.0
489.0,501.0,508.0,528.0,505.0
502.0,501.0,514.0,524.0,466.0
500.0,502.0,512.0,517.0,513.0
509.0,503.0,517.0,506.0,523.0
514.0,508.0,519.0,516.0,515.0
525.0,504.0,520.0,518.0,512.0
522.0,507.0,517.0,514.0,516.0
518.0,507.0,519.0,514.0,515.0
516.0,509.0,521.0,516.0,521.0
520.0,512.0,521.0,516.0,518.0
529.0,519.0,524.0,523.0,526.0
529.0,522.0,528.0,520.0,538.0
515.0,517.0,518.0,515.0,526.0
492.0,508.0,508.0,508.0,501.0
481.0,506.0,504.0,504.0,498.0
487.0,500.0,502.0,510.0,518.0
500.0,494.0,503.0,514.0,532.0
505.0,501.0,505.0,504.0,506.0
504.0,500.0,510.0,507.0,513.0
483.0,500.0,518.0,516.0,521.0
525.0,509.0,526.0,524.0,514.0
521.0,508.0,520.0,517.0,520.0
498.0,503.0,521.0,515.0,524.0
520.0,504.0,516.0,511.0,525.0
530.0,503.0,516.0,517.0,511.0
528.0,504.0,516.0,513.0,503.0
532.0,508.0,517.0,515.0,498.0
531.0,516.0,524.0,522.0,491.0
527.0,517.0,521.0,521.0,496.0
517.0,513.0,512.0,511.0,515.0
503.0,503.0,504.0,504.0,530.0
503.0,506.0,503.0,500.0,525.0
495.0,500.0,498.0,497.0,519.0
493.0,499.0,501.0,496.0,522.0
505.0,500.0,508.0,510.0,514.0
511.0,503.0,515.0,517.0,518.0
524.0,505.0,520.0,520.0,515.0
533.0,509.0,521.0,523.0,520.0
522.0,503.0,520.0,519.0,515.0
515.0,499.0,515.0,517.0,520.0
516.0,507.0,516.0,513.0,515.0
510.0,506.0,518.0,512.0,522.0
511.0,509.0,521.0,518.0,523.0
521.0,515.0,521.0,512.0,517.0
528.0,513.0,521.0,518.0,511.0
515.0,514.0,522.0,516.0,508.0
508.0,513.0,511.0,510.0,506.0
510.0,509.0,507.0,507.0,507.0
497.0,502.0,501.0,504.0,519.0
504.0,499.0,503.0,500.0,527.0
502.0,498.0,503.0,505.0,536.0
500.0,499.0,510.0,513.0,528.0
506.0,503.0,517.0,513.0,517.0
507.0,505.0,522.0,522.0,513.0
508.0,507.0,523.0,522.0,510.0
502.0,501.0,519.0,519.0,519.0
518.0,501.0,515.0,514.0,514.0
531.0,507.0,523.0,517.0,515.0
525.0,508.0,519.0,516.0,514.0
525.0,511.0,521.0,516.0,514.0
525.0,511.0,520.0,522.0,505.0
523.0,515.0,523.0,519.0,506.0
521.0,516.0,517.0,513.0,491.0
514.0,511.0,511.0,512.0,502.0
508.0,510.0,507.0,505.0,510.0
503.0,501.0,500.0,502.0,519.0
504.0,500.0,503.0,503.0,530.0
500.0,498.0,507.0,512.0,529.0
508.0,503.0,514.0,518.0,518.0
505.0,506.0,522.0,527.0,513.0
506.0,503.0,522.0,533.0,524.0
522.0,508.0,521.0,515.0,513.0
523.0,508.0,519.0,512.0,521.0
513.0,500.0,515.0,510.0,524.0
522.0,503.0,514.0,510.0,514.0
521.0,505.0,513.0,513.0,511.0
514.0,508.0,519.0,518.0,505.0
518.0,515.0,519.0,520.0,501.0
516.0,513.0,520.0,523.0,509.0
515.0,512.0,509.0,512.0,515.0
517.0,513.0,504.0,503.0,507.0
510.0,508.0,503.0,502.0,509.0
500.0,499.0,502.0,500.0,521.0
497.0,500.0,502.0,505.0,523.0
501.0,501.0,512.0,517.0,512.0
500.0,504.0,516.0,522.0,515.0
506.0,508.0,518.0,519.0,524.0
512.0,507.0,521.0,522.0,525.0
522.0,501.0,513.0,513.0,521.0
526.0,501.0,512.0,511.0,525.0
520.0,501.0,513.0,513.0,528.0
525.0,507.0,516.0,517.0,517.0
522.0,513.0,519.0,516.0,507.0
524.0,518.0,523.0,521.0,506.0
521.0,518.0,521.0,521.0,510.0
523.0,515.0,509.0,512.0,509.0
516.0,510.0,511.0,508.0,503.0
504.0,506.0,504.0,505.0,511.0
505.0,505.0,500.0,504.0,518.0
494.0,499.0,498.0,505.0,514.0
492.0,494.0,505.0,513.0,518.0
502.0,503.0,507.0,511.0,518.0
514.0,504.0,514.0,514.0,517.0
526.0,506.0,520.0,521.0,509.0
515.0,511.0,523.0,522.0,511.0
498.0,499.0,519.0,523.0,521.0
504.0,500.0,516.0,517.0,519.0
521.0,507.0,516.0,509.0,520.0
529.0,511.0,520.0,515.0,506.0
535.0,513.0,522.0,520.0,505.0
534.0,519.0,523.0,519.0,508.0
524.0,518.0,520.0,517.0,506.0
523.0,514.0,515.0,515.0,509.0
517.0,510.0,510.0,507.0,511.0
515.0,509.0,507.0,505.0,517.0
512.0,505.0,498.0,504.0,519.0
510.0,501.0,503.0,503.0,521.0
506.0,501.0,506.0,508.0,515.0
506.0,502.0,512.0,514.0,506.0
508.0,505.0,517.0,519.0,510.0
511.0,505.0,521.0,521.0,514.0
514.0,505.0,520.0,521.0,510.0
516.0,505.0,520.0,519.0,512.0
512.0,504.0,517.0,517.0,512.0
516.0,506.0,519.0,517.0,507.0
516.0,508.0,518.0,516.0,508.0
518.0,516.0,521.0,515.0,512.0
515.0,515.0,521.0,518.0,511.0
518.0,518.0,519.0,517.0,499.0
515.0,514.0,515.0,513.0,506.0
507.0,512.0,507.0,507.0,509.0
502.0,506.0,506.0,502.0,510.0
496.0,506.0,501.0,503.0,514.0
508.0,502.0,504.0,507.0,516.0
507.0,501.0,508.0,510.0,516.0
512.0,504.0,515.0,517.0,513.0
512.0,505.0,520.0,524.0,517.0
519.0,507.0,522.0,523.0,514.0
520.0,505.0,522.0,518.0,518.0
513.0,503.0,517.0,515.0,521.0
511.0,504.0,517.0,516.0,515.0
516.0,511.0,517.0,516.0,511.0
518.0,510.0,516.0,518.0,507.0
525.0,520.0,521.0,518.0,505.0
528.0,519.0,522.0,522.0,499.0
523.0,517.0,518.0,517.0,499.0
517.0,514.0,512.0,514.0,499.0
510.0,507.0,502.0,503.0,504.0
506.0,501.0,498.0,502.0,505.0
503.0,499.0,499.0,502.0,511.0
500.0,503.0,502.0,506.0,513.0
506.0,503.0,513.0,514.0,509.0
511.0,502.0,513.0,513.0,515.0
515.0,501.0,517.0,519.0,519.0
516.0,505.0,521.0,520.0,507.0
517.0,506.0,521.0,518.0,514.0
518.0,505.0,519.0,516.0,518.0
516.0,507.0,523.0,517.0,518.0
516.0,512.0,521.0,517.0,516.0
512.0,514.0,521.0,519.0,516.0
521.0,520.0,525.0,522.0,507.0
516.0,521.0,523.0,522.0,501.0
518.0,513.0,515.0,516.0,500.0
520.0,513.0,506.0,503.0,505.0
519.0,507.0,501.0,502.0,505.0
514.0,504.0,502.0,503.0,505.0
512.0,500.0,501.0,505.0,509.0
506.0,501.0,507.0,512.0,507.0
511.0,504.0,510.0,518.0,509.0
511.0,504.0,518.0,518.0,516.0
513.0,504.0,525.0,525.0,515.0
515.0,504.0,522.0,524.0,515.0
518.0,505.0,519.0,516.0,510.0
520.0,505.0,520.0,520.0,513.0
515.0,510.0,519.0,515.0,512.0
516.0,511.0,521.0,516.0,512.0
523.0,512.0,521.0,516.0,510.0
528.0,515.0,521.0,516.0,507.0
525.0,517.0,519.0,519.0,503.0
519.0,515.0,513.0,513.0,501.0
512.0,510.0,511.0,507.0,506.0
511.0,506.0,503.0,506.0,508.0
500.0,501.0,499.0,503.0,512.0
501.0,503.0,501.0,506.0,512.0
505.0,501.0,507.0,511.0,515.0
512.0,505.0,516.0,517.0,512.0
511.0,504.0,518.0,520.0,513.0
515.0,508.0,528.0,529.0,518.0
518.0,508.0,518.0,521.0,513.0
516.0,504.0,521.0,517.0,513.0
519.0,505.0,519.0,517.0,512.0
520.0,508.0,520.0,513.0,510.0
522.0,510.0,516.0,516.0,504.0
524.0,514.0,521.0,518.0,502.0
527.0,518.0,522.0,518.0,500.0
528.0,518.0,523.0,519.0,499.0
518.0,516.0,512.0,514.0,504.0
512.0,508.0,508.0,510.0,507.0
505.0,506.0,502.0,508.0,509.0
504.0,500.0,503.0,505.0,511.0
503.0,505.0,504.0,507.0,511.0
511.0,500.0,513.0,512.0,511.0
517.0,503.0,516.0,520.0,509.0
519.0,509.0,520.0,524.0,511.0
515.0,505.0,522.0,517.0,516.0
512.0,503.0,519.0,518.0,515.0
513.0,504.0,522.0,517.0,514.0
518.0,507.0,512.0,514.0,512.0
520.0,509.0,520.0,518.0,509.0
523.0,507.0,520.0,518.0,507.0
521.0,516.0,519.0,519.0,506.0
524.0,517.0,519.0,517.0,501.0
519.0,515.0,515.0,514.0,502.0
513.0,512.0,508.0,512.0,504.0
508.0,507.0,503.0,506.0,506.0
503.0,505.0,500.0,502.0,507.0
504.0,499.0,499.0,507.0,509.0
503.0,499.0,504.0,504.0,513.0
505.0,501.0,509.0,513.0,513.0
511.0,505.0,517.0,521.0,514.0
514.0,507.0,521.0,520.0,521.0
514.0,505.0,518.0,516.0,520.0
511.0,504.0,515.0,513.0,518.0
512.0,509.0,518.0,514.0,516.0
516.0,506.0,518.0,516.0,517.0
524.0,509.0,518.0,514.0,509.0
528.0,514.0,520.0,518.0,508.0
530.0,518.0,521.0,521.0,501.0
531.0,520.0,520.0,517.0,503.0
519.0,517.0,515.0,516.0,505.0
511.0,514.0,510.0,510.0,508.0
505.0,513.0,504.0,509.0,514.0
504.0,505.0,501.0,498.0,516.0
503.0,501.0,501.0,504.0,516.0
506.0,501.0,505.0,509.0,513.0
513.0,502.0,512.0,515.0,510.0
519.0,503.0,519.0,518.0,511.0
522.0,505.0,520.0,520.0,510.0
518.0,509.0,521.0,519.0,512.0
520.0,505.0,518.0,519.0,512.0
521.0,509.0,517.0,518.0,507.0
518.0,508.0,518.0,516.0,505.0
523.0,514.0,517.0,514.0,506.0
530.0,514.0,516.0,516.0,505.0
529.0,522.0,520.0,519.0,501.0
530.0,520.0,515.0,515.0,503.0
519.0,514.0,509.0,510.0,504.0
512.0,512.0,506.0,507.0,509.0
503.0,507.0,499.0,503.0,508.0
502.0,506.0,497.0,502.0,514.0
501.0,502.0,503.0,506.0,514.0
510.0,503.0,510.0,514.0,508.0
517.0,504.0,516.0,520.0,506.0
518.0,506.0,521.0,523.0,506.0
519.0,508.0,522.0,523.0,509.0
518.0,504.0,518.0,522.0,512.0
514.0,504.0,520.0,515.0,516.0
513.0,511.0,519.0,517.0,519.0
517.0,512.0,517.0,515.0,516.0
523.0,513.0,520.0,516.0,514.0
526.0,511.0,518.0,516.0,509.0
528.0,520.0,519.0,519.0,505.0
521.0,518.0,513.0,514.0,508.0
514.0,515.0,506.0,509.0,506.0
508.0,513.0,502.0,509.0,506.0
504.0,504.0,498.0,501.0,512.0
504.0,503.0,503.0,505.0,510.0
504.0,503.0,505.0,509.0,512.0
508.0,504.0,513.0,516.0,515.0
513.0,506.0,517.0,520.0,514.0
516.0,506.0,517.0,523.0,514.0
516.0,510.0,523.0,525.0,514.0
514.0,505.0,520.0,520.0,516.0
517.0,507.0,519.0,517.0,515.0
519.0,509.0,520.0,515.0,513.0
515.0,509.0,519.0,514.0,511.0
520.0,513.0,517.0,518.0,508.0
522.0,517.0,520.0,518.0,508.0
523.0,521.0,514.0,516.0,502.0
517.0,519.0,510.0,516.0,506.0
511.0,510.0,504.0,504.0,507.0
507.0,505.0,495.0,504.0,509.0
502.0,501.0,498.0,503.0,509.0
501.0,502.0,501.0,508.0,512.0
506.0,505.0,505.0,514.0,511.0
512.0,506.0,512.0,515.0,512.0
513.0,505.0,521.0,520.0,511.0
519.0,509.0,523.0,528.0,512.0
516.0,506.0,522.0,522.0,513.0
516.0,506.0,517.0,519.0,514.0
516.0,508.0,519.0,518.0,513.0
517.0,509.0,521.0,518.0,510.0
521.0,513.0,519.0,520.0,508.0
524.0,518.0,521.0,521.0,503.0
529.0,521.0,521.0,519.0,503.0
522.0,518.0,515.0,518.0,503.0
516.0,515.0,510.0,512.0,505.0
513.0,510.0,502.0,509.0,508.0
505.0,506.0,502.0,505.0,510.0
504.0,504.0,503.0,507.0,511.0
505.0,502.0,503.0,509.0,512.0
508.0,504.0,509.0,514.0,513.0
514.0,502.0,516.0,522.0,516.0
516.0,508.0,524.0,526.0,510.0
519.0,509.0,524.0,529.0,513.0
514.0,506.0,522.0,522.0,517.0
510.0,506.0,517.0,517.0,520.0
512.0,511.0,515.0,513.0,517.0
518.0,512.0,521.0,516.0,512.0
519.0,518.0,520.0,520.0,510.0
521.0,518.0,520.0,518.0,507.0
523.0,520.0,516.0,518.0,505.0
517.0,517.0,512.0,520.0,509.0
512.0,514.0,505.0,508.0,514.0
506.0,510.0,500.0,505.0,512.0
501.0,503.0,496.0,503.0,518.0
501.0,507.0,501.0,506.0,517.0
507.0,507.0,504.0,515.0,514.0
510.0,503.0,508.0,515.0,508.0
515.0,504.0,514.0,517.0,516.0
517.0,507.0,520.0,525.0,513.0
516.0,509.0,523.0,525.0,512.0
517.0,506.0,519.0,518.0,514.0
518.0,508.0,518.0,524.0,511.0
519.0,510.0,523.0,519.0,513.0
520.0,511.0,520.0,520.0,510.0
520.0,515.0,518.0,525.0,510.0
521.0,522.0,519.0,520.0,509.0
520.0,520.0,514.0,516.0,509.0
518.0,515.0,509.0,515.0,506.0
512.0,511.0,504.0,510.0,504.0
511.0,506.0,499.0,508.0,505.0
505.0,503.0,497.0,506.0,511.0
501.0,500.0,498.0,503.0,519.0
504.0,503.0,506.0,506.0,523.0
509.0,507.0,512.0,514.0,519.0
515.0,506.0,519.0,520.0,516.0
518.0,511.0,523.0,524.0,516.0
518.0,509.0,519.0,521.0,518.0
513.0,504.0,517.0,513.0,519.0
515.0,505.0,514.0,515.0,518.0
513.0,508.0,519.0,517.0,518.0
515.0,511.0,516.0,517.0,513.0
522.0,516.0,520.0,520.0,511.0
518.0,516.0,517.0,516.0,513.0
516.0,515.0,509.0,512.0,512.0
514.0,513.0,506.0,507.0,511.0
509.0,511.0,502.0,505.0,510.0
502.0,505.0,498.0,503.0,515.0
500.0,502.0,494.0,501.0,517.0
500.0,501.0,500.0,506.0,517.0
505.0,502.0,511.0,513.0,516.0
513.0,505.0,517.0,518.0,515.0
517.0,509.0,520.0,527.0,515.0
517.0,504.0,522.0,523.0,520.0
516.0,504.0,520.0,525.0,517.0
513.0,501.0,523.0,518.0,518.0
516.0,506.0,522.0,521.0,516.0
521.0,507.0,520.0,519.0,515.0
521.0,513.0,518.0,518.0,513.0
529.0,518.0,520.0,518.0,508.0
529.0,518.0,517.0,519.0,504.0
520.0,521.0,512.0,512.0,507.0
514.0,513.0,506.0,509.0,516.0
507.0,511.0,500.0,507.0,514.0
501.0,506.0,494.0,504.0,518.0
498.0,503.0,500.0,506.0,520.0
504.0,503.0,509.0,508.0,521.0
509.0,504.0,512.0,515.0,518.0
514.0,506.0,519.0,520.0,515.0
518.0,507.0,523.0,528.0,516.0
520.0,507.0,522.0,523.0,522.0
514.0,507.0,520.0,521.0,517.0
518.0,509.0,520.0,525.0,515.0
516.0,506.0,520.0,519.0,519.0
518.0,511.0,518.0,517.0,515.0
524.0,513.0,518.0,517.0,511.0
526.0,517.0,519.0,518.0,505.0
523.0,519.0,515.0,517.0,504.0
518.0,520.0,510.0,512.0,506.0
518.0,513.0,505.0,511.0,508.0
509.0,509.0,499.0,506.0,511.0
502.0,502.0,496.0,502.0,515.0
501.0,500.0,498.0,504.0,519.0
506.0,503.0,507.0,512.0,517.0
511.0,506.0,520.0,519.0,516.0
514.0,506.0,519.0,526.0,518.0
519.0,506.0,523.0,523.0,510.0
520.0,508.0,521.0,522.0,514.0
514.0,505.0,519.0,524.0,518.0
514.0,507.0,517.0,517.0,517.0
516.0,508.0,520.0,519.0,515.0
518.0,515.0,517.0,518.0,512.0
523.0,516.0,519.0,519.0,512.0
524.0,517.0,519.0,520.0,509.0
519.0,520.0,516.0,515.0,510.0
516.0,512.0,508.0,510.0,509.0
511.0,507.0,501.0,506.0,511.0
507.0,506.0,498.0,502.0,516.0
502.0,502.0,499.0,498.0,514.0
502.0,502.0,502.0,507.0,516.0
505.0,503.0,509.0,514.0,516.0
511.0,504.0,515.0,518.0,515.0
512.0,503.0,519.0,522.0,511.0
513.0,504.0,520.0,522.0,515.0
515.0,504.0,519.0,519.0,514.0
518.0,505.0,520.0,515.0,519.0
517.0,503.0,516.0,516.0,522.0
519.0,510.0,517.0,520.0,518.0
518.0,509.0,517.0,518.0,514.0
520.0,514.0,516.0,519.0,503.0
523.0,520.0,517.0,517.0,498.0
518.0,512.0,510.0,512.0,499.0
513.0,509.0,504.0,509.0,501.0
510.0,508.0,502.0,506.0,509.0
506.0,503.0,497.0,502.0,514.0
508.0,502.0,499.0,506.0,510.0
505.0,500.0,506.0,512.0,511.0
515.0,504.0,513.0,518.0,513.0
514.0,508.0,517.0,524.0,513.0
519.0,506.0,523.0,524.0,515.0
516.0,507.0,525.0,525.0,511.0
514.0,504.0,520.0,519.0,511.0
514.0,506.0,520.0,517.0,511.0
515.0,508.0,520.0,517.0,517.0
515.0,509.0,518.0,521.0,515.0
520.0,513.0,519.0,517.0,513.0
520.0,517.0,519.0,519.0,516.0
521.0,517.0,516.0,515.0,512.0
519.0,514.0,509.0,511.0,510.0
513.0,511.0,502.0,506.0,514.0
505.0,506.0,501.0,505.0,518.0
500.0,503.0,498.0,505.0,511.0
501.0,499.0,501.0,506.0,510.0
504.0,501.0,506.0,510.0,510.0
514.0,505.0,513.0,513.0,509.0
512.0,507.0,522.0,524.0,511.0
516.0,507.0,525.0,529.0,508.0
516.0,507.0,522.0,525.0,510.0
512.0,504.0,520.0,518.0,516.0
515.0,505.0,518.0,517.0,514.0
517.0,506.0,518.0,517.0,514.0
517.0,511.0,523.0,517.0,511.0
520.0,517.0,521.0,523.0,509.0
524.0,513.0,517.0,520.0,509.0
520.0,515.0,513.0,512.0,508.0
516.0,513.0,507.0,511.0,511.0
511.0,506.0,501.0,504.0,516.0
507.0,507.0,499.0,503.0,516.0
501.0,502.0,498.0,503.0,518.0
504.0,503.0,501.0,505.0,518.0
506.0,502.0,509.0,508.0,517.0
513.0,499.0,516.0,518.0,516.0
517.0,510.0,522.0,527.0,513.0
516.0,504.0,523.0,524.0,515.0
514.0,503.0,523.0,521.0,516.0
511.0,504.0,519.0,518.0,520.0
515.0,506.0,520.0,516.0,515.0
517.0,511.0,517.0,515.0,515.0
520.0,511.0,517.0,515.0,512.0
525.0,515.0,520.0,517.0,509.0
522.0,515.0,516.0,517.0,505.0
519.0,516.0,515.0,513.0,510.0
513.0,512.0,505.0,508.0,513.0
509.0,508.0,503.0,505.0,510.0
501.0,504.0,499.0,503.0,521.0
499.0,500.0,496.0,501.0,524.0
505.0,500.0,504.0,509.0,516.0
505.0,500.0,509.0,510.0,514.0
512.0,502.0,516.0,520.0,515.0
515.0,506.0,522.0,523.0,511.0
514.0,504.0,518.0,525.0,514.0
510.0,501.0,516.0,514.0,517.0
511.0,501.0,516.0,514.0,519.0
513.0,506.0,519.0,517.0,515.0
517.0,507.0,517.0,516.0,511.0
521.0,513.0,518.0,515.0,509.0
522.0,518.0,519.0,519.0,510.0
520.0,514.0,515.0,515.0,509.0
518.0,513.0,508.0,511.0,508.0
511.0,509.0,505.0,506.0,507.0
508.0,507.0,501.0,505.0,513.0
501.0,504.0,501.0,504.0,516.0
501.0,500.0,499.0,507.0,517.0
503.0,501.0,509.0,516.0,517.0
514.0,505.0,520.0,519.0,515.0
518.0,506.0,522.0,522.0,518.0
520.0,505.0,527.0,525.0,514.0
515.0,504.0,526.0,525.0,518.0
515.0,504.0,524.0,520.0,516.0
513.0,505.0,524.0,519.0,517.0
517.0,508.0,521.0,519.0,515.0
516.0,509.0,520.0,518.0,517.0
520.0,507.0,518.0,514.0,510.0
524.0,520.0,522.0,520.0,508.0
521.0,516.0,517.0,515.0,510.0
515.0,515.0,513.0,513.0,511.0
511.0,510.0,504.0,505.0,514.0
506.0,506.0,504.0,504.0,519.0
501.0,503.0,503.0,504.0,520.0
501.0,501.0,503.0,506.0,521.0
508.0,504.0,511.0,510.0,519.0
511.0,504.0,517.0,519.0,517.0
514.0,507.0,523.0,525.0,516.0
515.0,506.0,524.0,524.0,519.0
515.0,504.0,525.0,520.0,516.0
513.0,504.0,524.0,518.0,521.0
515.0,507.0,522.0,521.0,520.0
517.0,509.0,521.0,518.0,516.0
520.0,515.0,517.0,517.0,512.0
522.0,515.0,518.0,519.0,508.0
525.0,518.0,518.0,519.0,506.0
521.0,516.0,512.0,515.0,509.0
512.0,512.0,507.0,514.0,515.0
507.0,512.0,503.0,503.0,516.0
503.0,503.0,498.0,500.0,519.0
504.0,504.0,499.0,503.0,516.0
507.0,500.0,505.0,510.0,518.0
508.0,501.0,513.0,516.0,516.0
512.0,505.0,519.0,519.0,518.0
512.0,502.0,524.0,522.0,521.0
517.0,506.0,522.0,521.0,521.0
514.0,505.0,524.0,518.0,520.0
512.0,501.0,521.0,517.0,518.0
515.0,505.0,523.0,517.0,512.0
518.0,508.0,519.0,523.0,507.0
520.0,515.0,520.0,520.0,501.0
524.0,519.0,524.0,520.0,510.0
524.0,516.0,515.0,514.0,515.0
521.0,514.0,509.0,512.0,512.0
510.0,510.0,507.0,507.0,514.0
506.0,504.0,501.0,503.0,513.0
499.0,500.0,495.0,500.0,517.0
500.0,498.0,500.0,501.0,518.0
505.0,501.0,505.0,508.0,515.0
508.0,501.0,513.0,519.0,513.0
511.0,500.0,518.0,518.0,516.0
513.0,504.0,521.0,522.0,514.0
514.0,507.0,523.0,521.0,516.0
515.0,502.0,520.0,517.0,521.0
515.0,507.0,520.0,519.0,517.0
516.0,509.0,518.0,519.0,518.0
514.0,508.0,517.0,514.0,517.0
523.0,514.0,519.0,518.0,509.0
525.0,516.0,515.0,521.0,506.0
520.0,514.0,512.0,516.0,500.0
514.0,511.0,507.0,512.0,502.0
511.0,506.0,501.0,507.0,509.0
508.0,500.0,498.0,502.0,518.0
506.0,503.0,500.0,503.0,516.0
504.0,500.0,503.0,504.0,519.0
506.0,500.0,508.0,511.0,516.0
510.0,503.0,515.0,517.0,514.0
514.0,509.0,522.0,522.0,516.0
517.0,504.0,523.0,523.0,518.0
513.0,504.0,521.0,521.0,514.0
513.0,503.0,521.0,517.0,517.0
514.0,506.0,520.0,517.0,516.0
516.0,507.0,522.0,518.0,514.0
518.0,509.0,517.0,518.0,514.0
524.0,514.0,519.0,518.0,511.0
524.0,517.0,517.0,519.0,507.0
529.0,521.0,514.0,515.0,506.0
517.0,513.0,507.0,508.0,505.0
511.0,505.0,500.0,504.0,514.0
501.0,500.0,497.0,503.0,518.0
499.0,500.0,500.0,507.0,516.0
501.0,502.0,506.0,510.0,516.0
505.0,505.0,512.0,513.0,517.0
509.0,505.0,519.0,518.0,515.0
512.0,508.0,528.0,523.0,513.0
511.0,503.0,524.0,521.0,513.0
513.0,506.0,520.0,521.0,514.0
513.0,506.0,517.0,519.0,517.0
512.0,507.0,521.0,518.0,515.0
513.0,508.0,520.0,517.0,511.0
520.0,512.0,515.0,519.0,509.0
522.0,517.0,519.0,519.0,507.0
521.0,518.0,520.0,517.0,508.0
520.0,516.0,510.0,512.0,509.0
514.0,512.0,506.0,507.0,513.0
511.0,510.0,505.0,506.0,514.0
500.0,502.0,502.0,503.0,516.0
503.0,501.0,501.0,507.0,517.0
506.0,502.0,507.0,514.0,517.0
511.0,509.0,517.0,523.0,516.0
511.0,504.0,524.0,521.0,518.0
514.0,501.0,522.0,522.0,518.0
512.0,505.0,522.0,518.0,520.0
511.0,501.0,519.0,515.0,520.0
511.0,504.0,518.0,516.0,516.0
515.0,507.0,517.0,514.0,515.0
515.0,509.0,518.0,516.0,513.0
520.0,515.0,521.0,518.0,509.0
521.0,516.0,518.0,518.0,510.0
518.0,517.0,512.0,512.0,511.0
513.0,513.0,503.0,506.0,513.0
506.0,508.0,502.0,500.0,517.0
503.0,502.0,496.0,499.0,521.0
502.0,502.0,504.0,504.0,515.0
503.0,501.0,502.0,505.0,520.0
505.0,501.0,509.0,510.0,519.0
509.0,500.0,513.0,512.0,522.0
508.0,503.0,515.0,519.0,517.0
519.0,505.0,523.0,518.0,516.0
514.0,509.0,523.0,525.0,517.0
515.0,504.0,519.0,516.0,519.0
511.0,505.0,518.0,514.0,518.0
515.0,507.0,517.0,514.0,519.0
517.0,513.0,519.0,520.0,513.0
521.0,518.0,519.0,517.0,509.0
525.0,517.0,516.0,517.0,506.0
521.0,519.0,513.0,515.0,507.0
517.0,515.0,510.0,513.0,513.0
506.0,509.0,505.0,507.0,516.0
500.0,504.0,499.0,504.0,519.0
498.0,502.0,501.0,504.0,521.0
502.0,504.0,505.0,506.0,519.0
511.0,502.0,513.0,515.0,512.0
512.0,503.0,520.0,520.0,509.0
513.0,505.0,527.0,522.0,513.0
515.0,505.0,524.0,521.0,514.0
514.0,504.0,522.0,519.0,516.0
511.0,508.0,520.0,518.0,518.0
512.0,505.0,513.0,517.0,518.0
514.0,512.0,518.0,518.0,517.0
522.0,514.0,519.0,515.0,517.0
524.0,514.0,519.0,517.0,508.0
523.0,518.0,515.0,510.0,504.0
517.0,516.0,511.0,513.0,507.0
512.0,509.0,503.0,508.0,506.0
506.0,508.0,500.0,505.0,508.0
501.0,502.0,497.0,501.0,514.0
500.0,500.0,498.0,507.0,516.0
504.0,501.0,505.0,510.0,515.0
509.0,503.0,513.0,515.0,515.0
512.0,505.0,519.0,521.0,512.0
513.0,507.0,524.0,521.0,515.0
513.0,503.0,522.0,521.0,515.0
517.0,506.0,520.0,517.0,518.0
512.0,506.0,521.0,517.0,516.0
514.0,502.0,518.0,516.0,515.0
517.0,509.0,519.0,515.0,513.0
521.0,514.0,523.0,520.0,511.0
524.0,518.0,519.0,521.0,505.0
522.0,518.0,517.0,517.0,506.0
517.0,514.0,506.0,509.0,514.0
510.0,506.0,506.0,505.0,512.0
508.0,506.0,499.0,505.0,510.0
504.0,502.0,500.0,508.0,513.0
502.0,502.0,503.0,509.0,517.0
501.0,502.0,510.0,513.0,517.0
504.0,508.0,516.0,513.0,520.0
508.0,503.0,519.0,518.0,521.0
513.0,506.0,522.0,520.0,516.0
514.0,505.0,522.0,521.0,516.0
511.0,504.0,523.0,516.0,516.0
513.0,506.0,520.0,516.0,518.0
512.0,506.0,517.0,516.0,514.0
516.0,507.0,515.0,514.0,512.0
518.0,516.0,517.0,515.0,509.0
523.0,517.0,519.0,519.0,506.0
521.0,515.0,513.0,513.0,510.0
509.0,510.0,505.0,509.0,513.0
503.0,506.0,499.0,502.0,514.0
502.0,501.0,497.0,502.0,512.0
506.0,501.0,504.0,507.0,512.0
509.0,500.0,505.0,513.0,512.0
503.0,502.0,508.0,511.0,520.0
504.0,504.0,516.0,517.0,521.0
511.0,503.0,520.0,519.0,519.0
510.0,506.0,524.0,521.0,517.0
507.0,504.0,521.0,518.0,516.0
514.0,507.0,522.0,517.0,517.0
516.0,507.0,520.0,512.0,516.0
520.0,509.0,520.0,515.0,513.0
526.0,514.0,524.0,519.0,509.0
523.0,517.0,525.0,521.0,506.0
524.0,519.0,516.0,517.0,506.0
520.0,517.0,512.0,515.0,507.0
511.0,513.0,507.0,509.0,509.0
503.0,509.0,501.0,505.0,514.0
500.0,501.0,498.0,502.0,517.0
498.0,499.0,500.0,504.0,520.0
504.0,502.0,507.0,510.0,516.0
509.0,505.0,516.0,515.0,516.0
513.0,512.0,522.0,520.0,512.0
514.0,507.0,524.0,523.0,514.0
515.0,506.0,523.0,523.0,515.0
510.0,504.0,521.0,519.0,522.0
511.0,506.0,520.0,523.0,518.0
517.0,509.0,523.0,516.0,514.0
521.0,514.0,520.0,519.0,510.0
520.0,516.0,521.0,519.0,508.0
523.0,523.0,518.0,519.0,503.0
524.0,518.0,513.0,514.0,508.0
520.0,515.0,507.0,510.0,506.0
510.0,514.0,501.0,504.0,515.0
504.0,506.0,495.0,501.0,518.0
500.0,503.0,498.0,503.0,520.0
501.0,502.0,503.0,506.0,519.0
504.0,504.0,508.0,510.0,515.0
510.0,505.0,515.0,517.0,521.0
512.0,504.0,522.0,522.0,517.0
514.0,505.0,526.0,521.0,516.0
520.0,507.0,523.0,520.0,518.0
515.0,504.0,524.0,520.0,518.0
514.0,504.0,520.0,515.0,516.0
514.0,509.0,522.0,514.0,512.0
520.0,514.0,520.0,515.0,509.0
524.0,513.0,519.0,520.0,508.0
523.0,517.0,518.0,517.0,510.0
521.0,514.0,511.0,513.0,509.0
515.0,510.0,507.0,509.0,510.0
509.0,507.0,502.0,504.0,513.0
502.0,503.0,497.0,502.0,519.0
506.0,502.0,500.0,506.0,517.0
504.0,500.0,507.0,507.0,520.0
508.0,503.0,513.0,514.0,511.0
512.0,504.0,523.0,519.0,510.0
517.0,506.0,524.0,524.0,513.0
520.0,506.0,526.0,526.0,510.0
513.0,503.0,521.0,522.0,517.0
511.0,502.0,517.0,514.0,522.0
514.0,505.0,517.0,513.0,517.0
518.0,508.0,518.0,512.0,519.0
518.0,514.0,520.0,519.0,517.0
522.0,516.0,519.0,519.0,515.0
527.0,517.0,516.0,514.0,511.0
524.0,517.0,510.0,512.0,509.0
512.0,509.0,507.0,505.0,513.0
510.0,506.0,503.0,504.0,512.0
504.0,501.0,501.0,501.0,517.0
502.0,502.0,499.0,502.0,516.0
506.0,500.0,510.0,509.0,511.0
511.0,502.0,514.0,518.0,512.0
514.0,505.0,520.0,521.0,511.0
521.0,506.0,525.0,522.0,511.0
516.0,505.0,524.0,521.0,514.0
514.0,503.0,521.0,521.0,516.0
514.0,509.0,520.0,518.0,514.0
515.0,508.0,522.0,519.0,514.0
522.0,510.0,517.0,516.0,512.0
521.0,513.0,523.0,518.0,508.0
522.0,517.0,524.0,521.0,507.0
519.0,515.0,518.0,514.0,506.0
517.0,514.0,509.0,510.0,506.0
513.0,510.0,504.0,506.0,513.0
509.0,506.0,500.0,507.0,514.0
506.0,501.0,499.0,504.0,516.0
502.0,502.0,503.0,506.0,517.0
507.0,508.0,510.0,517.0,515.0
511.0,504.0,516.0,521.0,515.0
515.0,504.0,521.0,522.0,514.0
515.0,505.0,524.0,519.0,515.0
511.0,504.0,521.0,518.0,515.0
519.0,504.0,522.0,519.0,516.0
514.0,505.0,521.0,523.0,516.0
516.0,507.0,519.0,516.0,512.0
517.0,512.0,520.0,517.0,512.0
522.0,513.0,519.0,519.0,508.0
523.0,517.0,519.0,520.0,506.0
521.0,518.0,515.0,515.0,507.0
515.0,511.0,506.0,509.0,510.0
511.0,506.0,500.0,506.0,513.0
506.0,505.0,496.0,503.0,516.0
501.0,504.0,499.0,503.0,516.0
501.0,499.0,504.0,512.0,518.0
506.0,501.0,512.0,517.0,516.0
519.0,506.0,520.0,519.0,512.0
517.0,505.0,523.0,525.0,509.0
515.0,503.0,527.0,526.0,511.0
516.0,505.0,526.0,520.0,509.0
516.0,501.0,522.0,520.0,516.0
516.0,508.0,518.0,515.0,515.0
517.0,508.0,520.0,518.0,514.0
521.0,512.0,519.0,522.0,511.0
522.0,516.0,521.0,519.0,507.0
522.0,521.0,517.0,518.0,508.0
519.0,515.0,511.0,517.0,507.0
515.0,513.0,505.0,507.0,512.0
509.0,507.0,498.0,505.0,510.0
506.0,505.0,498.0,505.0,515.0
503.0,502.0,502.0,507.0,518.0
509.0,505.0,510.0,512.0,516.0
510.0,506.0,518.0,520.0,516.0
510.0,500.0,518.0,520.0,518.0
518.0,506.0,523.0,520.0,516.0
516.0,501.0,521.0,516.0,522.0
515.0,504.0,522.0,515.0,516.0
510.0,506.0,521.0,517.0,518.0
511.0,506.0,520.0,514.0,515.0
518.0,508.0,517.0,512.0,514.0
519.0,515.0,517.0,515.0,509.0
525.0,519.0,521.0,517.0,510.0
525.0,516.0,516.0,516.0,508.0
511.0,511.0,506.0,512.0,510.0
507.0,509.0,502.0,506.0,510.0
505.0,509.0,502.0,504.0,513.0
503.0,505.0,500.0,502.0,515.0
509.0,502.0,501.0,506.0,512.0
507.0,502.0,511.0,511.0,513.0
511.0,504.0,517.0,516.0,509.0
514.0,505.0,523.0,521.0,508.0
515.0,506.0,524.0,525.0,513.0
520.0,506.0,527.0,522.0,511.0
512.0,504.0,523.0,520.0,516.0
515.0,506.0,520.0,521.0,516.0
516.0,513.0,522.0,519.0,514.0
519.0,513.0,519.0,517.0,510.0
524.0,518.0,520.0,523.0,506.0
528.0,517.0,515.0,518.0,504.0
523.0,516.0,516.0,515.0,504.0
512.0,511.0,512.0,510.0,510.0
509.0,507.0,502.0,507.0,511.0
504.0,503.0,497.0,501.0,514.0
505.0,501.0,504.0,505.0,515.0
507.0,497.0,505.0,506.0,516.0
508.0,503.0,512.0,517.0,514.0
512.0,505.0,520.0,522.0,513.0
516.0,506.0,523.0,521.0,511.0
517.0,508.0,527.0,523.0,516.0
519.0,501.0,524.0,522.0,515.0
512.0,504.0,520.0,517.0,515.0
514.0,508.0,520.0,516.0,513.0
517.0,512.0,518.0,517.0,514.0
519.0,510.0,521.0,519.0,512.0
523.0,516.0,516.0,519.0,509.0
523.0,518.0,518.0,516.0,506.0
520.0,516.0,513.0,513.0,512.0
512.0,509.0,505.0,509.0,512.0
506.0,507.0,499.0,505.0,514.0
502.0,502.0,498.0,502.0,518.0
504.0,501.0,500.0,507.0,515.0
506.0,503.0,509.0,510.0,511.0
511.0,503.0,514.0,515.0,512.0
514.0,503.0,519.0,520.0,511.0
521.0,509.0,524.0,526.0,510.0
514.0,504.0,520.0,521.0,514.0
516.0,503.0,521.0,521.0,512.0
512.0,506.0,522.0,518.0,513.0
515.0,505.0,520.0,518.0,515.0
516.0,511.0,519.0,516.0,513.0
519.0,520.0,522.0,518.0,510.0
522.0,517.0,521.0,518.0,505.0
524.0,518.0,515.0,516.0,505.0
517.0,519.0,511.0,512.0,504.0
514.0,511.0,505.0,507.0,511.0
508.0,507.0,501.0,505.0,512.0
502.0,503.0,501.0,502.0,513.0
500.0,497.0,502.0,506.0,514.0
503.0,505.0,509.0,512.0,513.0
510.0,507.0,515.0,518.0,512.0
512.0,507.0,521.0,521.0,513.0
513.0,505.0,522.0,518.0,517.0
513.0,505.0,526.0,523.0,515.0
512.0,507.0,521.0,522.0,515.0
516.0,507.0,520.0,516.0,517.0
512.0,508.0,518.0,514.0,514.0
513.0,508.0,518.0,517.0,513.0
520.0,515.0,524.0,519.0,506.0
522.0,517.0,519.0,517.0,510.0
523.0,514.0,513.0,512.0,507.0
516.0,509.0,505.0,507.0,509.0
510.0,507.0,501.0,505.0,511.0
506.0,506.0,498.0,507.0,515.0
501.0,502.0,500.0,503.0,517.0
506.0,499.0,504.0,506.0,518.0
508.0,502.0,512.0,512.0,516.0
516.0,506.0,521.0,519.0,513.0
516.0,505.0,522.0,523.0,515.0
515.0,505.0,529.0,521.0,515.0
512.0,504.0,521.0,517.0,521.0
515.0,502.0,525.0,517.0,513.0
519.0,504.0,518.0,515.0,513.0
518.0,507.0,519.0,513.0,510.0
520.0,513.0,522.0,518.0,511.0
524.0,516.0,522.0,522.0,505.0
522.0,516.0,517.0,512.0,504.0
525.0,517.0,512.0,512.0,510.0
514.0,509.0,506.0,506.0,511.0
507.0,507.0,500.0,503.0,511.0
500.0,503.0,498.0,502.0,517.0
503.0,500.0,500.0,505.0,517.0
504.0,503.0,506.0,511.0,514.0
508.0,503.0,515.0,516.0,513.0
512.0,505.0,520.0,518.0,512.0
518.0,509.0,525.0,525.0,514.0
520.0,505.0,523.0,522.0,513.0
514.0,505.0,525.0,521.0,516.0
516.0,505.0,522.0,518.0,515.0
520.0,509.0,522.0,519.0,516.0
519.0,508.0,517.0,511.0,514.0
517.0,513.0,514.0,518.0,510.0
521.0,516.0,520.0,519.0,505.0
520.0,516.0,515.0,512.0,505.0
516.0,513.0,510.0,507.0,510.0
513.0,508.0,502.0,507.0,511.0
503.0,507.0,499.0,504.0,512.0
499.0,505.0,496.0,500.0,515.0
501.0,499.0,500.0,503.0,519.0
508.0,502.0,512.0,510.0,520.0
514.0,508.0,516.0,517.0,513.0
517.0,506.0,521.0,520.0,515.0
517.0,504.0,524.0,522.0,515.0
514.0,505.0,524.0,521.0,515.0
514.0,502.0,520.0,518.0,516.0
515.0,505.0,519.0,517.0,515.0
516.0,509.0,520.0,517.0,514.0
521.0,511.0,519.0,518.0,515.0
525.0,516.0,521.0,519.0,508.0
522.0,516.0,518.0,514.0,507.0
522.0,515.0,513.0,514.0,506.0
516.0,511.0,507.0,510.0,508.0
507.0,506.0,501.0,508.0,511.0
499.0,507.0,498.0,502.0,515.0
496.0,499.0,497.0,507.0,518.0
502.0,499.0,503.0,506.0,516.0
507.0,501.0,511.0,516.0,516.0
512.0,502.0,518.0,519.0,514.0
511.0,502.0,518.0,519.0,516.0
513.0,505.0,524.0,523.0,519.0
513.0,505.0,525.0,519.0,515.0
516.0,504.0,520.0,517.0,515.0
511.0,505.0,515.0,513.0,517.0
515.0,509.0,518.0,517.0,515.0
515.0,510.0,519.0,517.0,509.0
522.0,515.0,514.0,518.0,505.0
521.0,521.0,519.0,518.0,505.0
517.0,516.0,513.0,515.0,505.0
513.0,510.0,508.0,509.0,511.0
507.0,512.0,503.0,505.0,513.0
501.0,502.0,498.0,503.0,516.0
504.0,502.0,502.0,507.0,515.0
506.0,503.0,511.0,509.0,513.0
510.0,503.0,509.0,517.0,512.0
514.0,504.0,520.0,521.0,508.0
515.0,506.0,523.0,523.0,513.0
520.0,507.0,524.0,521.0,515.0
514.0,501.0,521.0,519.0,515.0
511.0,504.0,519.0,517.0,517.0
512.0,508.0,518.0,516.0,515.0
518.0,504.0,516.0,515.0,511.0
522.0,515.0,520.0,519.0,507.0
524.0,517.0,522.0,517.0,504.0
522.0,517.0,514.0,518.0,504.0
517.0,512.0,507.0,512.0,507.0
513.0,508.0,502.0,508.0,509.0
508.0,508.0,500.0,503.0,517.0
505.0,503.0,500.0,502.0,516.0
502.0,499.0,500.0,504.0,523.0
504.0,501.0,508.0,510.0,515.0
511.0,504.0,517.0,516.0,514.0
512.0,506.0,518.0,520.0,514.0
514.0,505.0,525.0,524.0,516.0
516.0,504.0,524.0,521.0,513.0
513.0,503.0,520.0,519.0,517.0
517.0,505.0,522.0,517.0,513.0
516.0,507.0,518.0,516.0,514.0
520.0,511.0,520.0,516.0,511.0
520.0,513.0,518.0,518.0,510.0
524.0,516.0,518.0,518.0,507.0
521.0,515.0,512.0,514.0,505.0
515.0,515.0,509.0,512.0,508.0
508.0,508.0,501.0,506.0,510.0
506.0,506.0,502.0,505.0,509.0
500.0,501.0,500.0,502.0,519.0
502.0,502.0,503.0,507.0,517.0
508.0,502.0,508.0,513.0,513.0
512.0,504.0,519.0,526.0,511.0
516.0,505.0,525.0,524.0,510.0
517.0,507.0,525.0,523.0,510.0
514.0,504.0,522.0,521.0,514.0
513.0,506.0,519.0,517.0,516.0
514.0,501.0,519.0,519.0,516.0
520.0,508.0,516.0,517.0,509.0
519.0,509.0,519.0,520.0,511.0
526.0,514.0,524.0,521.0,506.0
520.0,513.0,517.0,515.0,503.0
518.0,516.0,512.0,514.0,506.0
511.0,506.0,505.0,510.0,510.0
506.0,509.0,499.0,504.0,510.0
504.0,504.0,498.0,502.0,513.0
495.0,501.0,504.0,504.0,520.0
502.0,500.0,503.0,506.0,517.0
504.0,500.0,508.0,507.0,517.0
510.0,504.0,519.0,523.0,514.0
517.0,509.0,524.0,526.0,513.0
513.0,502.0,521.0,520.0,516.0
509.0,503.0,519.0,516.0,518.0
513.0,505.0,520.0,515.0,517.0
517.0,506.0,519.0,524.0,515.0
515.0,508.0,518.0,520.0,513.0
518.0,513.0,523.0,521.0,507.0
526.0,518.0,522.0,521.0,502.0
525.0,521.0,516.0,519.0,507.0
518.0,516.0,511.0,513.0,509.0
512.0,510.0,500.0,506.0,512.0
509.0,505.0,499.0,501.0,517.0
501.0,500.0,501.0,501.0,517.0
501.0,505.0,501.0,505.0,513.0
506.0,503.0,508.0,513.0,514.0
504.0,506.0,518.0,520.0,516.0
513.0,506.0,521.0,519.0,515.0
515.0,505.0,524.0,523.0,514.0
514.0,507.0,524.0,522.0,515.0
513.0,503.0,519.0,516.0,516.0
514.0,506.0,522.0,521.0,515.0
515.0,506.0,519.0,513.0,514.0
519.0,512.0,519.0,516.0,515.0
520.0,513.0,520.0,521.0,510.0
523.0,516.0,520.0,518.0,506.0
519.0,516.0,519.0,517.0,507.0
514.0,512.0,511.0,514.0,509.0
506.0,507.0,504.0,508.0,511.0
507.0,502.0,501.0,500.0,517.0
504.0,500.0,501.0,504.0,515.0
505.0,499.0,504.0,507.0,516.0
511.0,498.0,511.0,512.0,517.0
511.0,504.0,519.0,521.0,516.0
513.0,505.0,525.0,523.0,514.0
515.0,501.0,524.0,523.0,514.0
513.0,507.0,524.0,521.0,516.0
511.0,504.0,519.0,518.0,518.0
514.0,507.0,521.0,517.0,517.0
520.0,509.0,516.0,516.0,513.0
523.0,513.0,523.0,516.0,511.0
523.0,516.0,522.0,518.0,512.0
524.0,517.0,518.0,516.0,506.0
523.0,518.0,515.0,517.0,507.0
514.0,513.0,507.0,508.0,509.0
503.0,507.0,501.0,503.0,512.0
502.0,503.0,498.0,502.0,514.0
504.0,502.0,503.0,505.0,516.0
506.0,500.0,506.0,508.0,517.0
509.0,503.0,516.0,516.0,515.0
513.0,504.0,520.0,520.0,514.0
515.0,505.0,527.0,524.0,514.0
516.0,503.0,522.0,523.0,511.0
514.0,502.0,521.0,520.0,513.0
512.0,504.0,524.0,518.0,512.0
515.0,504.0,520.0,516.0,512.0
519.0,510.0,521.0,516.0,514.0
517.0,512.0,520.0,518.0,515.0
521.0,515.0,518.0,517.0,511.0
521.0,517.0,516.0,517.0,508.0
513.0,512.0,511.0,512.0,511.0
512.0,510.0,505.0,509.0,508.0
504.0,504.0,500.0,503.0,514.0
502.0,499.0,497.0,501.0,522.0
500.0,498.0,499.0,503.0,518.0
505.0,500.0,507.0,511.0,516.0
512.0,503.0,519.0,516.0,517.0
513.0,509.0,521.0,521.0,515.0
514.0,507.0,523.0,521.0,512.0
513.0,504.0,523.0,517.0,516.0
513.0,503.0,521.0,519.0,516.0
514.0,507.0,521.0,523.0,514.0
515.0,512.0,521.0,520.0,512.0
517.0,508.0,517.0,517.0,511.0
526.0,516.0,520.0,518.0,511.0
523.0,518.0,521.0,524.0,506.0
521.0,515.0,514.0,518.0,505.0
516.0,513.0,509.0,511.0,505.0
510.0,509.0,507.0,508.0,509.0
507.0,505.0,501.0,500.0,512.0
503.0,502.0,501.0,505.0,516.0
502.0,501.0,505.0,509.0,515.0
509.0,502.0,507.0,514.0,515.0
514.0,505.0,518.0,519.0,514.0
516.0,505.0,524.0,522.0,514.0
518.0,506.0,526.0,525.0,515.0
518.0,504.0,524.0,521.0,515.0
514.0,504.0,523.0,520.0,518.0
515.0,506.0,523.0,521.0,514.0
518.0,511.0,523.0,519.0,512.0
519.0,511.0,520.0,518.0,515.0
522.0,518.0,521.0,523.0,508.0
521.0,520.0,517.0,516.0,505.0
521.0,516.0,512.0,513.0,508.0
514.0,512.0,509.0,510.0,513.0
510.0,506.0,502.0,506.0,513.0
503.0,503.0,502.0,505.0,518.0
502.0,500.0,502.0,506.0,520.0
505.0,501.0,506.0,513.0,519.0
513.0,502.0,515.0,519.0,520.0
514.0,504.0,520.0,522.0,514.0
515.0,506.0,524.0,519.0,514.0
516.0,506.0,525.0,523.0,518.0
513.0,502.0,521.0,518.0,512.0
513.0,503.0,525.0,519.0,512.0
512.0,505.0,514.0,516.0,510.0
516.0,511.0,520.0,518.0,513.0
527.0,514.0,521.0,520.0,506.0
526.0,519.0,520.0,522.0,502.0
520.0,517.0,516.0,521.0,505.0
516.0,514.0,510.0,515.0,508.0
512.0,508.0,504.0,507.0,515.0
505.0,507.0,499.0,503.0,513.0
505.0,497.0,497.0,499.0,516.0
506.0,499.0,500.0,504.0,517.0
513.0,504.0,509.0,514.0,515.0
509.0,504.0,518.0,521.0,514.0
512.0,503.0,521.0,524.0,512.0
515.0,506.0,525.0,525.0,515.0
515.0,506.0,522.0,521.0,515.0
511.0,503.0,519.0,514.0,520.0
512.0,505.0,524.0,517.0,517.0
513.0,505.0,516.0,513.0,514.0
522.0,510.0,521.0,517.0,512.0
524.0,516.0,519.0,518.0,507.0
524.0,518.0,521.0,519.0,508.0
518.0,513.0,512.0,509.0,509.0
516.0,512.0,502.0,510.0,509.0
510.0,511.0,502.0,508.0,511.0
505.0,506.0,500.0,507.0,516.0
501.0,501.0,497.0,504.0,518.0
504.0,495.0,502.0,508.0,519.0
504.0,502.0,508.0,509.0,515.0
509.0,503.0,518.0,523.0,514.0
512.0,507.0,523.0,519.0,510.0
517.0,505.0,525.0,524.0,512.0
514.0,505.0,524.0,521.0,513.0
512.0,504.0,520.0,519.0,518.0
514.0,505.0,522.0,518.0,513.0
520.0,510.0,522.0,519.0,516.0
522.0,511.0,520.0,517.0,511.0
522.0,515.0,520.0,513.0,507.0
520.0,517.0,518.0,517.0,509.0
521.0,517.0,516.0,514.0,507.0
514.0,512.0,508.0,509.0,508.0
506.0,507.0,506.0,506.0,510.0
501.0,499.0,496.0,501.0,514.0
500.0,501.0,500.0,504.0,515.0
504.0,504.0,509.0,509.0,518.0
510.0,502.0,512.0,515.0,517.0
512.0,506.0,521.0,519.0,515.0
515.0,505.0,523.0,525.0,513.0
514.0,505.0,525.0,521.0,513.0
511.0,502.0,522.0,518.0,517.0
513.0,505.0,521.0,517.0,520.0
516.0,506.0,520.0,517.0,513.0
515.0,506.0,520.0,516.0,519.0
519.0,512.0,522.0,519.0,510.0
521.0,521.0,521.0,518.0,510.0
523.0,517.0,517.0,516.0,509.0
517.0,518.0,510.0,516.0,507.0
514.0,511.0,505.0,506.0,510.0
508.0,507.0,502.0,505.0,514.0
500.0,503.0,499.0,501.0,519.0
501.0,500.0,501.0,504.0,520.0
505.0,501.0,512.0,510.0,515.0
512.0,505.0,516.0,523.0,510.0
514.0,505.0,522.0,521.0,512.0
516.0,507.0,525.0,523.0,510.0
519.0,505.0,523.0,521.0,517.0
519.0,504.0,522.0,518.0,514.0
516.0,506.0,521.0,514.0,513.0
515.0,508.0,520.0,517.0,516.0
521.0,510.0,517.0,514.0,510.0
522.0,519.0,521.0,519.0,507.0
523.0,520.0,518.0,516.0,504.0
520.0,516.0,516.0,516.0,504.0
516.0,511.0,504.0,511.0,506.0
511.0,510.0,503.0,508.0,510.0
507.0,506.0,500.0,505.0,518.0
502.0,501.0,500.0,503.0,527.0
505.0,502.0,507.0,507.0,526.0
506.0,504.0,512.0,514.0,521.0
511.0,505.0,519.0,519.0,519.0
514.0,505.0,525.0,525.0,516.0
518.0,506.0,526.0,523.0,513.0
513.0,503.0,520.0,519.0,510.0
512.0,500.0,519.0,518.0,515.0
515.0,504.0,520.0,516.0,514.0
517.0,508.0,520.0,522.0,513.0
522.0,511.0,521.0,519.0,510.0
517.0,510.0,515.0,514.0,510.0
522.0,517.0,518.0,519.0,507.0
518.0,515.0,512.0,520.0,510.0
514.0,509.0,506.0,508.0,513.0
507.0,508.0,501.0,509.0,514.0
499.0,500.0,497.0,500.0,514.0
501.0,502.0,498.0,502.0,515.0
504.0,501.0,508.0,510.0,514.0
508.0,503.0,514.0,517.0,515.0
514.0,506.0,522.0,522.0,516.0
515.0,507.0,525.0,523.0,511.0
517.0,505.0,528.0,525.0,513.0
518.0,508.0,526.0,523.0,514.0
521.0,505.0,526.0,519.0,510.0
517.0,503.0,521.0,519.0,512.0
517.0,510.0,522.0,518.0,515.0
516.0,517.0,521.0,514.0,510.0
520.0,516.0,520.0,519.0,508.0
521.0,516.0,517.0,516.0,503.0
517.0,511.0,511.0,512.0,508.0
511.0,509.0,506.0,508.0,506.0
506.0,509.0,504.0,505.0,513.0
502.0,502.0,500.0,504.0,518.0
501.0,502.0,503.0,505.0,518.0
506.0,503.0,514.0,511.0,519.0
511.0,505.0,519.0,519.0,511.0
514.0,504.0,522.0,521.0,515.0
518.0,505.0,527.0,525.0,516.0
518.0,506.0,525.0,516.0,516.0
515.0,501.0,521.0,518.0,520.0
515.0,504.0,521.0,517.0,515.0
519.0,507.0,522.0,517.0,518.0
521.0,507.0,519.0,518.0,511.0
524.0,513.0,524.0,522.0,508.0
526.0,516.0,520.0,516.0,505.0
523.0,515.0,515.0,516.0,507.0
517.0,513.0,511.0,512.0,510.0
512.0,510.0,505.0,507.0,515.0
503.0,507.0,507.0,508.0,519.0
504.0,502.0,503.0,508.0,519.0
503.0,497.0,504.0,509.0,519.0
504.0,500.0,513.0,512.0,517.0
511.0,502.0,518.0,517.0,517.0
510.0,503.0,523.0,521.0,517.0
518.0,509.0,525.0,527.0,515.0
517.0,503.0,522.0,520.0,517.0
517.0,502.0,524.0,517.0,524.0
514.0,503.0,519.0,516.0,516.0
520.0,508.0,524.0,518.0,516.0
518.0,512.0,517.0,515.0,515.0
520.0,514.0,519.0,522.0,513.0
527.0,517.0,521.0,516.0,510.0
519.0,514.0,513.0,514.0,511.0
512.0,511.0,511.0,508.0,511.0
510.0,507.0,503.0,506.0,513.0
499.0,502.0,498.0,504.0,519.0
499.0,501.0,500.0,502.0,517.0
499.0,500.0,504.0,506.0,520.0
505.0,501.0,512.0,516.0,518.0
511.0,504.0,518.0,515.0,518.0
515.0,507.0,522.0,524.0,515.0
515.0,505.0,525.0,521.0,515.0
516.0,504.0,524.0,518.0,513.0
511.0,503.0,519.0,516.0,519.0
514.0,505.0,518.0,515.0,517.0
513.0,508.0,517.0,515.0,514.0
520.0,515.0,522.0,519.0,513.0
524.0,516.0,520.0,517.0,508.0
518.0,514.0,514.0,514.0,511.0
514.0,512.0,510.0,509.0,508.0
510.0,509.0,504.0,502.0,512.0
509.0,508.0,502.0,507.0,512.0
502.0,504.0,501.0,502.0,515.0
501.0,500.0,501.0,505.0,520.0
504.0,496.0,509.0,512.0,518.0
509.0,503.0,515.0,519.0,515.0
515.0,505.0,523.0,526.0,515.0
516.0,505.0,524.0,525.0,510.0
513.0,506.0,522.0,519.0,513.0
518.0,503.0,520.0,517.0,518.0
515.0,504.0,520.0,517.0,517.0
523.0,508.0,523.0,518.0,514.0
521.0,512.0,517.0,515.0,511.0
526.0,515.0,521.0,518.0,510.0
527.0,518.0,523.0,518.0,507.0
522.0,516.0,516.0,515.0,510.0
517.0,511.0,508.0,510.0,513.0
509.0,508.0,502.0,505.0,507.0
507.0,508.0,499.0,507.0,513.0
503.0,503.0,501.0,504.0,520.0
501.0,497.0,501.0,505.0,521.0
506.0,504.0,509.0,512.0,515.0
515.0,504.0,518.0,515.0,514.0
516.0,504.0,522.0,521.0,511.0
518.0,504.0,525.0,523.0,514.0
515.0,505.0,524.0,523.0,515.0
515.0,505.0,520.0,514.0,515.0
515.0,505.0,525.0,517.0,515.0
515.0,508.0,520.0,519.0,515.0
518.0,510.0,518.0,516.0,514.0
522.0,516.0,522.0,524.0,511.0
523.0,521.0,519.0,518.0,508.0
520.0,516.0,515.0,514.0,509.0
513.0,511.0,507.0,513.0,513.0
510.0,507.0,503.0,508.0,514.0
507.0,501.0,499.0,502.0,513.0
504.0,504.0,501.0,504.0,517.0
508.0,501.0,506.0,509.0,519.0
511.0,502.0,516.0,516.0,517.0
511.0,505.0,521.0,524.0,517.0
517.0,507.0,526.0,525.0,509.0
516.0,505.0,525.0,522.0,505.0
515.0,506.0,523.0,519.0,507.0
515.0,502.0,522.0,517.0,510.0
515.0,507.0,520.0,516.0,517.0
518.0,505.0,518.0,515.0,515.0
521.0,517.0,521.0,518.0,509.0
526.0,516.0,518.0,517.0,505.0
524.0,517.0,516.0,518.0,506.0
521.0,515.0,510.0,511.0,507.0
511.0,513.0,504.0,510.0,510.0
507.0,506.0,498.0,505.0,514.0
497.0,500.0,496.0,500.0,520.0
501.0,499.0,497.0,502.0,519.0
503.0,500.0,507.0,506.0,518.0
512.0,502.0,516.0,516.0,515.0
514.0,503.0,520.0,523.0,516.0
516.0,505.0,522.0,523.0,516.0
515.0,504.0,522.0,521.0,515.0
514.0,504.0,522.0,518.0,516.0
513.0,504.0,520.0,516.0,518.0
517.0,506.0,518.0,514.0,517.0
516.0,508.0,519.0,516.0,517.0
521.0,511.0,517.0,516.0,511.0
524.0,517.0,520.0,517.0,506.0
521.0,516.0,517.0,514.0,507.0
519.0,513.0,511.0,511.0,511.0
514.0,508.0,502.0,504.0,513.0
506.0,505.0,501.0,504.0,516.0
499.0,500.0,499.0,504.0,517.0
503.0,500.0,506.0,507.0,516.0
510.0,501.0,512.0,514.0,516.0
513.0,507.0,519.0,522.0,512.0
517.0,505.0,527.0,524.0,511.0
516.0,505.0,526.0,528.0,510.0
513.0,507.0,525.0,523.0,517.0
509.0,503.0,517.0,515.0,520.0
515.0,509.0,521.0,516.0,517.0
517.0,509.0,520.0,514.0,514.0
520.0,511.0,519.0,517.0,513.0
522.0,513.0,519.0,517.0,510.0
522.0,518.0,519.0,518.0,506.0
520.0,515.0,515.0,515.0,506.0
516.0,512.0,511.0,510.0,510.0
510.0,509.0,504.0,507.0,507.0
503.0,503.0,501.0,505.0,517.0
503.0,500.0,500.0,504.0,520.0
502.0,501.0,501.0,508.0,517.0
508.0,502.0,514.0,516.0,515.0
515.0,505.0,521.0,521.0,518.0
515.0,504.0,524.0,520.0,512.0
515.0,512.0,528.0,526.0,517.0
517.0,503.0,525.0,519.0,515.0
516.0,505.0,523.0,518.0,516.0
516.0,507.0,520.0,516.0,521.0
519.0,511.0,520.0,520.0,513.0
522.0,512.0,520.0,517.0,511.0
525.0,518.0,522.0,523.0,507.0
524.0,515.0,516.0,516.0,506.0
520.0,516.0,512.0,515.0,506.0
514.0,510.0,506.0,507.0,509.0
510.0,507.0,503.0,505.0,512.0
500.0,503.0,507.0,503.0,516.0
500.0,501.0,504.0,504.0,517.0
503.0,500.0,508.0,510.0,518.0
512.0,503.0,515.0,517.0,514.0
518.0,505.0,525.0,520.0,517.0
513.0,503.0,524.0,522.0,514.0
514.0,505.0,524.0,528.0,515.0
512.0,503.0,521.0,517.0,515.0
515.0,507.0,523.0,521.0,514.0
515.0,505.0,521.0,517.0,514.0
519.0,509.0,521.0,516.0,513.0
525.0,513.0,522.0,519.0,510.0
527.0,518.0,520.0,519.0,508.0
521.0,515.0,514.0,513.0,511.0
515.0,515.0,510.0,510.0,514.0
505.0,508.0,503.0,507.0,515.0
503.0,503.0,500.0,504.0,515.0
501.0,503.0,499.0,497.0,516.0
506.0,500.0,504.0,509.0,515.0
507.0,503.0,512.0,515.0,517.0
511.0,505.0,520.0,522.0,513.0
513.0,504.0,524.0,521.0,512.0
517.0,504.0,526.0,523.0,516.0
515.0,509.0,526.0,523.0,516.0
513.0,503.0,522.0,517.0,517.0
513.0,505.0,522.0,514.0,517.0
516.0,504.0,518.0,514.0,517.0
520.0,510.0,519.0,520.0,509.0
522.0,514.0,522.0,521.0,508.0
526.0,516.0,520.0,520.0,505.0
519.0,514.0,514.0,520.0,509.0
518.0,505.0,508.0,512.0,513.0
509.0,508.0,503.0,508.0,513.0
504.0,503.0,500.0,503.0,514.0
504.0,505.0,501.0,509.0,513.0
509.0,502.0,506.0,513.0,513.0
508.0,504.0,515.0,515.0,513.0
512.0,503.0,520.0,519.0,513.0
515.0,504.0,523.0,526.0,510.0
516.0,504.0,525.0,524.0,513.0
516.0,502.0,523.0,519.0,513.0
514.0,506.0,523.0,519.0,519.0
517.0,504.0,520.0,513.0,514.0
518.0,507.0,520.0,517.0,511.0
520.0,513.0,526.0,520.0,509.0
523.0,516.0,521.0,524.0,505.0
520.0,515.0,518.0,519.0,506.0
519.0,513.0,513.0,512.0,505.0
515.0,512.0,507.0,508.0,508.0
509.0,507.0,504.0,505.0,516.0
504.0,501.0,499.0,503.0,517.0
505.0,500.0,503.0,504.0,515.0
505.0,500.0,511.0,510.0,517.0
513.0,504.0,517.0,516.0,515.0
514.0,505.0,520.0,520.0,514.0
520.0,507.0,527.0,526.0,513.0
516.0,505.0,525.0,521.0,514.0
519.0,504.0,525.0,520.0,514.0
514.0,504.0,521.0,519.0,514.0
516.0,506.0,524.0,518.0,511.0
521.0,513.0,519.0,520.0,509.0
518.0,514.0,521.0,520.0,508.0
525.0,516.0,520.0,519.0,503.0
522.0,518.0,517.0,515.0,504.0
516.0,514.0,511.0,518.0,508.0
510.0,509.0,509.0,507.0,513.0
506.0,508.0,503.0,505.0,515.0
501.0,502.0,500.0,500.0,517.0
503.0,500.0,503.0,507.0,517.0
508.0,501.0,510.0,513.0,514.0
514.0,504.0,519.0,519.0,514.0
514.0,503.0,523.0,522.0,514.0
516.0,507.0,526.0,524.0,515.0
517.0,505.0,525.0,523.0,514.0
514.0,503.0,521.0,520.0,515.0
518.0,508.0,523.0,522.0,511.0
523.0,510.0,524.0,519.0,508.0
518.0,514.0,520.0,516.0,510.0
521.0,514.0,518.0,516.0,510.0
519.0,514.0,515.0,515.0,511.0
520.0,512.0,512.0,510.0,513.0
513.0,514.0,508.0,514.0,512.0
506.0,512.0,504.0,505.0,511.0
500.0,504.0,502.0,503.0,514.0
499.0,502.0,499.0,503.0,517.0
498.0,498.0,503.0,506.0,516.0
504.0,501.0,508.0,514.0,512.0
512.0,507.0,518.0,519.0,508.0
519.0,507.0,525.0,526.0,506.0
517.0,504.0,523.0,523.0,508.0
512.0,501.0,518.0,520.0,515.0
518.0,502.0,517.0,516.0,515.0
518.0,503.0,519.0,516.0,514.0
518.0,508.0,520.0,518.0,513.0
519.0,512.0,518.0,515.0,509.0
524.0,517.0,520.0,518.0,507.0
528.0,523.0,521.0,521.0,502.0
520.0,517.0,511.0,513.0,504.0
513.0,508.0,504.0,508.0,508.0
509.0,504.0,498.0,504.0,510.0
502.0,500.0,502.0,499.0,517.0
500.0,499.0,497.0,502.0,520.0
505.0,501.0,504.0,510.0,517.0
511.0,502.0,518.0,517.0,517.0
514.0,505.0,523.0,524.0,518.0
517.0,505.0,526.0,523.0,514.0
518.0,506.0,522.0,519.0,514.0
517.0,504.0,526.0,519.0,514.0
518.0,504.0,520.0,520.0,513.0
519.0,511.0,522.0,517.0,514.0
520.0,509.0,518.0,515.0,514.0
523.0,517.0,520.0,520.0,510.0
524.0,517.0,520.0,523.0,507.0
520.0,516.0,515.0,518.0,508.0
517.0,511.0,509.0,512.0,509.0
508.0,508.0,504.0,506.0,511.0
504.0,506.0,503.0,505.0,513.0
499.0,501.0,502.0,504.0,517.0
496.0,501.0,504.0,505.0,521.0
507.0,502.0,513.0,511.0,516.0
512.0,504.0,520.0,521.0,514.0
516.0,508.0,523.0,522.0,510.0
517.0,505.0,526.0,524.0,514.0
515.0,507.0,525.0,522.0,514.0
512.0,497.0,519.0,516.0,516.0
515.0,507.0,520.0,518.0,515.0
513.0,508.0,523.0,517.0,514.0
522.0,512.0,520.0,517.0,514.0
524.0,519.0,524.0,519.0,507.0
525.0,518.0,518.0,517.0,506.0
522.0,516.0,514.0,516.0,508.0
517.0,512.0,507.0,509.0,510.0
508.0,507.0,504.0,505.0,514.0
503.0,503.0,502.0,501.0,515.0
503.0,501.0,497.0,503.0,517.0
505.0,501.0,505.0,511.0,515.0
509.0,504.0,514.0,515.0,510.0
511.0,505.0,520.0,523.0,514.0
515.0,504.0,524.0,522.0,515.0
514.0,505.0,525.0,522.0,516.0
514.0,504.0,524.0,519.0,515.0
510.0,503.0,521.0,516.0,518.0
512.0,504.0,517.0,513.0,516.0
516.0,506.0,520.0,514.0,514.0
520.0,510.0,521.0,517.0,513.0
523.0,518.0,522.0,519.0,511.0
527.0,518.0,523.0,517.0,506.0
521.0,513.0,511.0,512.0,509.0
513.0,509.0,504.0,504.0,516.0
512.0,505.0,502.0,504.0,511.0
502.0,502.0,499.0,503.0,515.0
503.0,502.0,503.0,501.0,515.0
502.0,502.0,508.0,509.0,521.0
510.0,504.0,516.0,513.0,518.0
512.0,505.0,522.0,525.0,516.0
515.0,507.0,527.0,524.0,518.0
516.0,506.0,527.0,522.0,514.0
513.0,503.0,522.0,521.0,513.0
515.0,505.0,524.0,519.0,513.0
516.0,507.0,521.0,515.0,509.0
521.0,514.0,521.0,518.0,511.0
524.0,515.0,522.0,521.0,508.0
525.0,520.0,521.0,520.0,511.0
526.0,517.0,517.0,519.0,506.0
518.0,512.0,505.0,509.0,507.0
510.0,512.0,506.0,508.0,512.0
508.0,506.0,497.0,505.0,510.0
507.0,506.0,500.0,503.0,513.0
502.0,501.0,504.0,508.0,518.0
506.0,507.0,508.0,510.0,516.0
511.0,504.0,517.0,517.0,513.0
517.0,505.0,525.0,520.0,512.0
519.0,508.0,524.0,522.0,513.0
515.0,503.0,523.0,520.0,514.0
516.0,505.0,520.0,517.0,513.0
514.0,505.0,518.0,515.0,514.0
518.0,510.0,521.0,516.0,512.0
517.0,511.0,519.0,514.0,509.0
521.0,514.0,518.0,513.0,510.0
525.0,518.0,518.0,517.0,505.0
522.0,517.0,512.0,514.0,503.0
521.0,512.0,507.0,510.0,508.0
508.0,510.0,504.0,505.0,513.0
504.0,505.0,499.0,501.0,516.0
505.0,507.0,499.0,502.0,516.0
504.0,502.0,500.0,507.0,518.0
508.0,504.0,512.0,513.0,516.0
506.0,505.0,518.0,521.0,517.0
512.0,505.0,521.0,520.0,512.0
513.0,505.0,526.0,524.0,513.0
513.0,500.0,521.0,518.0,507.0
516.0,501.0,521.0,518.0,516.0
520.0,507.0,519.0,519.0,512.0
525.0,510.0,519.0,517.0,508.0
521.0,511.0,523.0,521.0,503.0
529.0,518.0,522.0,524.0,501.0
526.0,517.0,521.0,520.0,504.0
518.0,514.0,512.0,513.0,513.0
515.0,510.0,503.0,505.0,514.0
508.0,508.0,498.0,502.0,513.0
503.0,503.0,497.0,501.0,515.0
501.0,502.0,499.0,506.0,518.0
505.0,499.0,505.0,507.0,523.0
508.0,501.0,512.0,517.0,514.0
512.0,504.0,518.0,521.0,516.0
513.0,502.0,520.0,514.0,513.0
512.0,503.0,521.0,516.0,517.0
511.0,504.0,516.0,515.0,518.0
514.0,504.0,519.0,515.0,517.0
514.0,505.0,521.0,517.0,515.0
520.0,509.0,517.0,514.0,511.0
524.0,512.0,520.0,518.0,509.0
522.0,515.0,517.0,519.0,504.0
520.0,516.0,517.0,517.0,505.0
513.0,513.0,509.0,512.0,508.0
512.0,508.0,504.0,503.0,512.0
504.0,504.0,500.0,499.0,515.0
499.0,504.0,498.0,501.0,516.0
501.0,499.0,500.0,505.0,518.0
508.0,503.0,507.0,512.0,516.0
511.0,503.0,515.0,518.0,515.0
516.0,504.0,521.0,523.0,515.0
518.0,507.0,525.0,523.0,516.0
515.0,502.0,523.0,523.0,517.0
516.0,505.0,521.0,521.0,514.0
514.0,506.0,521.0,519.0,518.0
517.0,507.0,520.0,517.0,512.0
519.0,510.0,518.0,519.0,512.0
520.0,513.0,518.0,523.0,510.0
523.0,516.0,517.0,514.0,512.0
520.0,515.0,513.0,515.0,510.0
514.0,516.0,505.0,510.0,512.0
511.0,509.0,500.0,506.0,513.0
505.0,504.0,500.0,501.0,516.0
501.0,501.0,494.0,503.0,518.0
505.0,500.0,502.0,509.0,517.0
512.0,504.0,511.0,514.0,516.0
512.0,503.0,518.0,520.0,514.0
517.0,505.0,523.0,523.0,511.0
518.0,504.0,524.0,524.0,515.0
516.0,504.0,524.0,523.0,515.0
516.0,507.0,518.0,521.0,516.0
515.0,505.0,519.0,517.0,514.0
518.0,509.0,518.0,518.0,510.0
519.0,510.0,518.0,519.0,511.0
526.0,517.0,521.0,519.0,512.0
526.0,520.0,516.0,521.0,508.0
518.0,514.0,510.0,518.0,510.0
517.0,509.0,505.0,510.0,512.0
508.0,509.0,500.0,506.0,513.0
502.0,502.0,499.0,503.0,518.0
504.0,504.0,499.0,508.0,515.0
507.0,503.0,506.0,510.0,518.0
509.0,503.0,513.0,517.0,516.0
514.0,505.0,522.0,519.0,514.0
513.0,505.0,526.0,524.0,517.0
520.0,505.0,525.0,525.0,515.0
514.0,506.0,520.0,518.0,517.0
517.0,505.0,520.0,519.0,518.0
515.0,506.0,519.0,519.0,514.0
518.0,508.0,521.0,517.0,506.0
518.0,513.0,519.0,524.0,508.0
529.0,518.0,520.0,520.0,508.0
520.0,516.0,515.0,514.0,506.0
520.0,514.0,509.0,513.0,509.0
511.0,510.0,504.0,505.0,512.0
506.0,506.0,504.0,502.0,516.0
503.0,503.0,501.0,504.0,517.0
507.0,502.0,502.0,507.0,518.0
503.0,500.0,509.0,508.0,518.0
506.0,503.0,515.0,514.0,516.0
507.0,502.0,520.0,521.0,516.0
518.0,506.0,526.0,521.0,512.0
515.0,503.0,522.0,520.0,514.0
514.0,504.0,520.0,517.0,515.0
514.0,503.0,518.0,516.0,515.0
519.0,507.0,519.0,514.0,514.0
520.0,506.0,520.0,518.0,516.0
525.0,511.0,518.0,517.0,508.0
522.0,514.0,517.0,516.0,508.0
520.0,517.0,514.0,514.0,507.0
512.0,509.0,506.0,508.0,510.0
504.0,507.0,502.0,505.0,513.0
502.0,508.0,498.0,501.0,517.0
502.0,502.0,500.0,505.0,518.0
501.0,501.0,506.0,507.0,517.0
507.0,503.0,512.0,515.0,517.0
509.0,504.0,518.0,520.0,512.0
516.0,507.0,525.0,524.0,512.0
518.0,505.0,526.0,524.0,512.0
512.0,504.0,523.0,525.0,515.0
514.0,503.0,521.0,516.0,518.0
514.0,508.0,522.0,518.0,514.0
518.0,508.0,519.0,516.0,512.0
520.0,510.0,516.0,516.0,512.0
523.0,515.0,522.0,518.0,507.0
524.0,518.0,518.0,519.0,507.0
520.0,520.0,515.0,515.0,510.0
509.0,513.0,506.0,511.0,515.0
504.0,508.0,499.0,503.0,514.0
503.0,503.0,498.0,502.0,516.0
501.0,501.0,503.0,505.0,517.0
504.0,500.0,507.0,509.0,517.0
511.0,505.0,517.0,514.0,515.0
514.0,506.0,515.0,520.0,516.0
516.0,506.0,524.0,522.0,517.0
515.0,506.0,525.0,526.0,518.0
514.0,504.0,526.0,516.0,519.0
512.0,505.0,526.0,518.0,514.0
514.0,507.0,519.0,518.0,510.0
519.0,511.0,520.0,516.0,507.0
521.0,513.0,519.0,518.0,502.0
520.0,516.0,521.0,521.0,506.0
525.0,518.0,518.0,517.0,511.0
515.0,514.0,509.0,511.0,513.0
510.0,509.0,504.0,512.0,512.0
507.0,509.0,502.0,506.0,512.0
502.0,503.0,499.0,508.0,516.0
504.0,501.0,501.0,505.0,517.0
506.0,504.0,509.0,511.0,516.0
513.0,502.0,520.0,520.0,518.0
514.0,510.0,521.0,517.0,512.0
516.0,504.0,525.0,523.0,513.0
517.0,507.0,525.0,521.0,513.0
515.0,503.0,521.0,517.0,519.0
516.0,506.0,519.0,521.0,514.0
516.0,507.0,520.0,517.0,514.0
522.0,510.0,523.0,517.0,506.0
527.0,514.0,520.0,519.0,506.0
527.0,519.0,520.0,519.0,510.0
524.0,518.0,515.0,515.0,506.0
513.0,513.0,513.0,510.0,506.0
507.0,509.0,504.0,505.0,512.0
500.0,504.0,500.0,500.0,517.0
497.0,499.0,498.0,500.0,525.0
498.0,498.0,500.0,506.0,521.0
504.0,503.0,512.0,511.0,513.0
510.0,504.0,518.0,519.0,515.0
511.0,506.0,527.0,522.0,514.0
511.0,505.0,520.0,518.0,515.0
510.0,505.0,522.0,518.0,515.0
511.0,502.0,518.0,515.0,520.0
515.0,505.0,520.0,514.0,520.0
515.0,508.0,518.0,516.0,517.0
521.0,513.0,517.0,513.0,514.0
521.0,516.0,519.0,517.0,513.0
523.0,516.0,518.0,517.0,508.0
520.0,516.0,513.0,514.0,508.0
514.0,512.0,506.0,507.0,515.0
507.0,511.0,503.0,505.0,512.0
503.0,507.0,499.0,504.0,517.0
505.0,503.0,505.0,505.0,519.0
504.0,504.0,509.0,509.0,519.0
505.0,502.0,519.0,516.0,517.0
512.0,503.0,520.0,520.0,513.0
514.0,506.0,526.0,523.0,517.0
516.0,506.0,527.0,521.0,515.0
516.0,504.0,522.0,518.0,520.0
516.0,505.0,520.0,517.0,516.0
515.0,512.0,522.0,516.0,516.0
517.0,508.0,519.0,518.0,513.0
522.0,512.0,520.0,517.0,509.0
520.0,515.0,520.0,518.0,507.0
523.0,517.0,516.0,515.0,504.0
521.0,513.0,512.0,511.0,506.0
513.0,512.0,504.0,510.0,511.0
510.0,507.0,501.0,505.0,513.0
505.0,504.0,500.0,502.0,518.0
506.0,501.0,503.0,511.0,516.0
508.0,500.0,508.0,511.0,515.0
513.0,503.0,516.0,518.0,512.0
513.0,503.0,524.0,520.0,510.0
516.0,505.0,524.0,522.0,514.0
514.0,504.0,524.0,519.0,519.0
512.0,503.0,520.0,517.0,516.0
513.0,509.0,522.0,518.0,513.0
516.0,512.0,518.0,516.0,512.0
524.0,512.0,521.0,516.0,514.0
522.0,519.0,520.0,519.0,508.0
522.0,519.0,518.0,517.0,511.0
520.0,520.0,516.0,514.0,514.0
515.0,511.0,509.0,511.0,516.0
507.0,507.0,502.0,505.0,515.0
504.0,505.0,499.0,502.0,509.0
503.0,502.0,501.0,505.0,513.0
503.0,499.0,505.0,503.0,518.0
508.0,505.0,510.0,513.0,514.0
514.0,503.0,517.0,522.0,513.0
514.0,501.0,521.0,521.0,515.0
518.0,505.0,523.0,524.0,515.0
512.0,503.0,521.0,519.0,516.0
513.0,505.0,521.0,519.0,516.0
516.0,504.0,518.0,516.0,513.0
518.0,508.0,519.0,516.0,512.0
517.0,510.0,515.0,518.0,512.0
522.0,513.0,519.0,515.0,508.0
523.0,517.0,517.0,520.0,507.0
520.0,514.0,512.0,517.0,506.0
517.0,513.0,508.0,510.0,505.0
508.0,507.0,502.0,505.0,510.0
502.0,501.0,496.0,496.0,517.0
498.0,499.0,502.0,501.0,522.0
503.0,498.0,505.0,507.0,522.0
508.0,505.0,513.0,514.0,517.0
511.0,504.0,519.0,526.0,518.0
514.0,506.0,523.0,520.0,516.0
510.0,500.0,519.0,517.0,519.0
510.0,501.0,519.0,521.0,516.0
517.0,503.0,521.0,518.0,509.0
513.0,503.0,516.0,514.0,513.0
517.0,505.0,516.0,514.0,513.0
518.0,509.0,517.0,515.0,510.0
522.0,514.0,519.0,520.0,507.0
523.0,517.0,517.0,517.0,505.0
520.0,513.0,512.0,516.0,506.0
511.0,509.0,503.0,508.0,511.0
509.0,507.0,504.0,506.0,511.0
