CH1,CH2,CH3,CH4,CH5
517.0,513.0,517.0,503.0,531.0
517.0,509.0,520.0,508.0,518.0
519.0,505.0,521.0,515.0,507.0
525.0,505.0,524.0,528.0,492.0
527.0,507.0,531.0,538.0,487.0
514.0,501.0,524.0,539.0,487.0
509.0,491.0,513.0,534.0,497.0
505.0,488.0,509.0,527.0,506.0
501.0,486.0,501.0,519.0,511.0
501.0,491.0,500.0,512.0,519.0
501.0,499.0,500.0,512.0,526.0
508.0,506.0,505.0,506.0,531.0
512.0,515.0,508.0,500.0,537.0
508.0,519.0,510.0,498.0,531.0
515.0,520.0,516.0,499.0,531.0
517.0,518.0,514.0,495.0,534.0
516.0,514.0,514.0,498.0,535.0
518.0,512.0,518.0,508.0,524.0
517.0,508.0,521.0,510.0,509.0
524.0,512.0,530.0,528.0,495.0
520.0,508.0,529.0,532.0,487.0
517.0,502.0,525.0,534.0,486.0
515.0,495.0,519.0,534.0,486.0
508.0,493.0,514.0,533.0,494.0
503.0,490.0,508.0,526.0,499.0
502.0,489.0,501.0,517.0,513.0
499.0,494.0,499.0,508.0,521.0
502.0,503.0,503.0,506.0,530.0
509.0,513.0,509.0,503.0,531.0
513.0,518.0,509.0,503.0,532.0
515.0,522.0,513.0,500.0,527.0
517.0,525.0,514.0,497.0,530.0
517.0,522.0,513.0,495.0,531.0
515.0,516.0,515.0,501.0,522.0
518.0,513.0,519.0,509.0,519.0
521.0,514.0,523.0,519.0,506.0
525.0,514.0,529.0,528.0,500.0
526.0,509.0,531.0,535.0,501.0
521.0,502.0,525.0,537.0,498.0
519.0,497.0,518.0,535.0,504.0
512.0,489.0,509.0,533.0,510.0
509.0,486.0,502.0,520.0,517.0
509.0,492.0,499.0,516.0,521.0
505.0,497.0,501.0,509.0,527.0
501.0,506.0,503.0,504.0,528.0
506.0,514.0,509.0,505.0,525.0
513.0,521.0,514.0,503.0,522.0
515.0,526.0,516.0,502.0,525.0
514.0,520.0,515.0,501.0,523.0
515.0,515.0,513.0,499.0,520.0
514.0,515.0,516.0,503.0,521.0
517.0,510.0,519.0,509.0,516.0
517.0,510.0,523.0,519.0,503.0
520.0,514.0,529.0,530.0,495.0
520.0,506.0,529.0,538.0,489.0
516.0,504.0,525.0,539.0,489.0
510.0,497.0,515.0,529.0,488.0
507.0,489.0,509.0,529.0,497.0
504.0,489.0,502.0,520.0,506.0
502.0,492.0,499.0,513.0,514.0
505.0,500.0,502.0,508.0,517.0
508.0,508.0,505.0,503.0,530.0
510.0,518.0,509.0,500.0,530.0
518.0,519.0,507.0,499.0,535.0
514.0,518.0,516.0,501.0,538.0
515.0,512.0,510.0,497.0,540.0
516.0,518.0,515.0,498.0,538.0
519.0,516.0,518.0,507.0,529.0
516.0,508.0,519.0,511.0,519.0
519.0,507.0,524.0,521.0,502.0
520.0,505.0,522.0,530.0,498.0
519.0,503.0,526.0,537.0,497.0
512.0,498.0,520.0,535.0,501.0
510.0,490.0,514.0,530.0,504.0
504.0,487.0,507.0,531.0,502.0
498.0,487.0,500.0,521.0,503.0
499.0,494.0,499.0,512.0,517.0
505.0,501.0,505.0,505.0,523.0
517.0,514.0,510.0,504.0,524.0
516.0,515.0,512.0,500.0,516.0
515.0,520.0,515.0,507.0,516.0
516.0,521.0,516.0,501.0,526.0
515.0,517.0,516.0,501.0,536.0
518.0,516.0,521.0,505.0,535.0
518.0,513.0,525.0,511.0,536.0
521.0,511.0,529.0,521.0,522.0
528.0,510.0,528.0,528.0,507.0
523.0,506.0,528.0,535.0,493.0
518.0,499.0,524.0,536.0,489.0
518.0,497.0,520.0,534.0,492.0
511.0,491.0,510.0,528.0,489.0
504.0,493.0,506.0,524.0,503.0
497.0,490.0,500.0,518.0,508.0
496.0,494.0,498.0,507.0,511.0
506.0,504.0,503.0,504.0,521.0
511.0,515.0,507.0,499.0,527.0
515.0,518.0,512.0,499.0,528.0
520.0,524.0,514.0,499.0,534.0
518.0,524.0,516.0,499.0,534.0
516.0,515.0,517.0,503.0,527.0
518.0,513.0,521.0,504.0,525.0
526.0,512.0,523.0,516.0,518.0
521.0,509.0,525.0,520.0,507.0
522.0,511.0,530.0,532.0,499.0
518.0,506.0,530.0,538.0,485.0
518.0,499.0,524.0,537.0,486.0
507.0,493.0,515.0,532.0,491.0
505.0,492.0,515.0,528.0,495.0
495.0,488.0,504.0,518.0,506.0
496.0,486.0,500.0,513.0,514.0
503.0,502.0,504.0,508.0,520.0
511.0,509.0,503.0,506.0,522.0
518.0,518.0,512.0,506.0,524.0
516.0,521.0,514.0,503.0,529.0
512.0,519.0,515.0,500.0,534.0
516.0,517.0,515.0,499.0,532.0
516.0,514.0,517.0,500.0,529.0
518.0,515.0,521.0,508.0,525.0
523.0,512.0,523.0,510.0,514.0
522.0,511.0,531.0,522.0,494.0
529.0,510.0,531.0,535.0,486.0
520.0,506.0,528.0,535.0,490.0
515.0,497.0,519.0,533.0,502.0
510.0,494.0,513.0,528.0,504.0
506.0,489.0,507.0,526.0,510.0
499.0,491.0,499.0,513.0,521.0
498.0,492.0,497.0,512.0,529.0
501.0,501.0,501.0,502.0,531.0
503.0,507.0,504.0,498.0,527.0
508.0,516.0,510.0,498.0,533.0
512.0,522.0,514.0,497.0,535.0
513.0,520.0,514.0,500.0,537.0
513.0,511.0,515.0,498.0,538.0
515.0,513.0,516.0,505.0,534.0
518.0,517.0,522.0,507.0,524.0
517.0,509.0,521.0,516.0,512.0
521.0,508.0,525.0,524.0,498.0
522.0,504.0,526.0,532.0,492.0
516.0,500.0,523.0,535.0,490.0
510.0,494.0,518.0,536.0,494.0
505.0,491.0,505.0,528.0,500.0
502.0,493.0,502.0,523.0,507.0
499.0,492.0,499.0,515.0,515.0
503.0,500.0,504.0,508.0,520.0
505.0,508.0,503.0,506.0,529.0
511.0,517.0,509.0,504.0,532.0
515.0,520.0,512.0,498.0,535.0
516.0,516.0,517.0,500.0,532.0
514.0,516.0,512.0,496.0,531.0
517.0,516.0,514.0,500.0,527.0
520.0,518.0,519.0,506.0,523.0
521.0,513.0,521.0,513.0,510.0
521.0,510.0,524.0,521.0,505.0
519.0,507.0,527.0,531.0,496.0
520.0,503.0,527.0,539.0,488.0
514.0,502.0,521.0,535.0,490.0
508.0,496.0,516.0,537.0,499.0
503.0,491.0,509.0,528.0,508.0
496.0,489.0,502.0,519.0,516.0
495.0,495.0,503.0,513.0,523.0
499.0,505.0,502.0,506.0,530.0
504.0,509.0,502.0,507.0,523.0
520.0,516.0,513.0,502.0,524.0
522.0,522.0,511.0,503.0,528.0
526.0,519.0,513.0,500.0,530.0
518.0,517.0,513.0,500.0,535.0
522.0,511.0,520.0,503.0,532.0
522.0,514.0,519.0,509.0,525.0
520.0,507.0,520.0,515.0,511.0
522.0,508.0,526.0,528.0,496.0
523.0,508.0,529.0,536.0,488.0
518.0,503.0,527.0,540.0,488.0
514.0,497.0,521.0,541.0,489.0
508.0,491.0,512.0,531.0,496.0
501.0,487.0,505.0,527.0,501.0
499.0,489.0,501.0,518.0,513.0
499.0,494.0,497.0,508.0,530.0
508.0,506.0,506.0,508.0,534.0
512.0,516.0,509.0,503.0,543.0
522.0,522.0,514.0,506.0,552.0
524.0,525.0,515.0,499.0,547.0
525.0,520.0,514.0,498.0,532.0
526.0,513.0,514.0,496.0,524.0
524.0,516.0,514.0,501.0,516.0
518.0,511.0,519.0,509.0,507.0
515.0,508.0,521.0,520.0,489.0
516.0,508.0,528.0,528.0,480.0
513.0,505.0,527.0,535.0,479.0
515.0,499.0,523.0,536.0,480.0
510.0,493.0,516.0,534.0,488.0
503.0,485.0,500.0,524.0,490.0
500.0,488.0,500.0,523.0,500.0
495.0,489.0,497.0,516.0,519.0
503.0,499.0,499.0,512.0,508.0
510.0,509.0,504.0,506.0,522.0
510.0,514.0,506.0,499.0,531.0
514.0,517.0,507.0,497.0,531.0
520.0,520.0,513.0,499.0,537.0
518.0,518.0,514.0,498.0,531.0
515.0,514.0,514.0,498.0,522.0
514.0,505.0,517.0,502.0,519.0
519.0,514.0,525.0,515.0,511.0
520.0,509.0,523.0,521.0,503.0
525.0,509.0,527.0,529.0,493.0
527.0,510.0,529.0,538.0,488.0
520.0,501.0,522.0,538.0,487.0
510.0,497.0,517.0,537.0,488.0
506.0,492.0,513.0,531.0,494.0
498.0,489.0,501.0,520.0,506.0
498.0,498.0,499.0,512.0,510.0
496.0,502.0,503.0,504.0,530.0
502.0,508.0,503.0,501.0,531.0
509.0,521.0,508.0,502.0,530.0
514.0,523.0,512.0,502.0,532.0
517.0,521.0,512.0,496.0,534.0
514.0,516.0,514.0,494.0,531.0
523.0,517.0,516.0,498.0,517.0
527.0,515.0,520.0,507.0,517.0
525.0,511.0,521.0,515.0,514.0
525.0,512.0,525.0,520.0,505.0
524.0,510.0,527.0,532.0,494.0
520.0,504.0,525.0,538.0,487.0
512.0,498.0,514.0,536.0,488.0
505.0,496.0,511.0,528.0,496.0
502.0,488.0,504.0,522.0,499.0
501.0,491.0,504.0,515.0,513.0
499.0,497.0,500.0,509.0,518.0
505.0,505.0,504.0,507.0,524.0
511.0,515.0,507.0,503.0,528.0
516.0,517.0,509.0,498.0,530.0
519.0,522.0,513.0,499.0,527.0
517.0,522.0,517.0,499.0,533.0
517.0,521.0,517.0,500.0,538.0
518.0,517.0,518.0,506.0,532.0
522.0,514.0,522.0,512.0,521.0
524.0,514.0,523.0,518.0,515.0
523.0,511.0,527.0,531.0,501.0
522.0,509.0,531.0,536.0,491.0
515.0,502.0,527.0,540.0,488.0
511.0,498.0,519.0,537.0,489.0
508.0,498.0,515.0,534.0,492.0
503.0,496.0,506.0,524.0,499.0
503.0,494.0,501.0,517.0,514.0
500.0,498.0,499.0,504.0,529.0
509.0,506.0,502.0,501.0,526.0
517.0,516.0,507.0,502.0,527.0
515.0,520.0,512.0,500.0,529.0
511.0,521.0,515.0,501.0,530.0
513.0,519.0,514.0,497.0,527.0
517.0,515.0,514.0,497.0,526.0
517.0,512.0,518.0,504.0,518.0
520.0,512.0,523.0,517.0,510.0
519.0,509.0,523.0,519.0,503.0
520.0,502.0,529.0,527.0,495.0
523.0,505.0,529.0,535.0,492.0
519.0,500.0,523.0,537.0,491.0
509.0,494.0,512.0,536.0,502.0
502.0,490.0,508.0,522.0,509.0
492.0,489.0,497.0,517.0,519.0
494.0,490.0,493.0,507.0,528.0
502.0,502.0,502.0,509.0,525.0
504.0,510.0,505.0,504.0,522.0
511.0,516.0,509.0,502.0,527.0
516.0,520.0,509.0,500.0,540.0
517.0,522.0,514.0,500.0,545.0
515.0,517.0,516.0,500.0,545.0
515.0,520.0,517.0,503.0,541.0
517.0,514.0,520.0,509.0,527.0
520.0,511.0,521.0,516.0,489.0
525.0,508.0,525.0,522.0,475.0
529.0,508.0,530.0,539.0,474.0
526.0,504.0,528.0,536.0,471.0
516.0,498.0,518.0,534.0,478.0
507.0,492.0,512.0,529.0,482.0
504.0,490.0,506.0,519.0,497.0
502.0,490.0,501.0,515.0,503.0
503.0,494.0,498.0,509.0,513.0
507.0,504.0,503.0,507.0,522.0
511.0,513.0,509.0,504.0,541.0
514.0,520.0,513.0,500.0,536.0
518.0,523.0,518.0,498.0,533.0
518.0,520.0,519.0,497.0,534.0
519.0,519.0,514.0,493.0,529.0
521.0,514.0,518.0,506.0,517.0
521.0,514.0,522.0,513.0,510.0
523.0,515.0,528.0,521.0,504.0
523.0,511.0,529.0,530.0,495.0
523.0,508.0,531.0,536.0,498.0
523.0,501.0,524.0,540.0,504.0
518.0,499.0,520.0,540.0,494.0
517.0,493.0,511.0,532.0,506.0
509.0,491.0,501.0,517.0,509.0
508.0,492.0,501.0,511.0,504.0
510.0,503.0,499.0,505.0,517.0
507.0,508.0,504.0,504.0,511.0
500.0,517.0,509.0,503.0,514.0
509.0,518.0,513.0,500.0,520.0
517.0,518.0,514.0,500.0,528.0
514.0,516.0,513.0,497.0,531.0
512.0,514.0,516.0,499.0,527.0
515.0,513.0,521.0,508.0,521.0
524.0,513.0,525.0,518.0,511.0
523.0,513.0,529.0,528.0,498.0
526.0,511.0,530.0,533.0,489.0
519.0,504.0,528.0,536.0,484.0
516.0,502.0,524.0,537.0,483.0
510.0,494.0,516.0,535.0,492.0
503.0,491.0,509.0,530.0,500.0
500.0,493.0,502.0,516.0,514.0
500.0,496.0,501.0,508.0,524.0
503.0,498.0,502.0,505.0,529.0
509.0,514.0,508.0,502.0,533.0
515.0,519.0,513.0,500.0,536.0
517.0,521.0,515.0,502.0,535.0
517.0,520.0,514.0,497.0,528.0
516.0,517.0,515.0,501.0,532.0
513.0,515.0,515.0,500.0,519.0
517.0,513.0,521.0,509.0,518.0
515.0,506.0,519.0,514.0,509.0
521.0,509.0,526.0,524.0,497.0
520.0,509.0,527.0,532.0,491.0
519.0,503.0,526.0,534.0,490.0
514.0,497.0,518.0,532.0,492.0
508.0,492.0,512.0,529.0,497.0
497.0,485.0,504.0,521.0,506.0
498.0,487.0,500.0,515.0,512.0
504.0,499.0,500.0,504.0,516.0
515.0,507.0,505.0,507.0,530.0
515.0,516.0,511.0,506.0,518.0
514.0,518.0,514.0,502.0,526.0
512.0,519.0,515.0,498.0,533.0
509.0,515.0,516.0,495.0,535.0
508.0,516.0,512.0,493.0,535.0
518.0,514.0,516.0,501.0,526.0
520.0,514.0,521.0,511.0,520.0
526.0,510.0,524.0,520.0,507.0
523.0,507.0,526.0,526.0,503.0
527.0,509.0,530.0,537.0,495.0
519.0,502.0,523.0,536.0,491.0
509.0,494.0,515.0,532.0,493.0
510.0,494.0,512.0,528.0,496.0
501.0,490.0,505.0,524.0,504.0
500.0,492.0,500.0,515.0,515.0
501.0,501.0,501.0,509.0,521.0
508.0,509.0,504.0,506.0,532.0
513.0,516.0,508.0,504.0,537.0
518.0,521.0,514.0,500.0,533.0
519.0,524.0,514.0,502.0,534.0
517.0,517.0,512.0,496.0,527.0
516.0,516.0,514.0,498.0,524.0
511.0,512.0,512.0,505.0,523.0
518.0,512.0,521.0,513.0,515.0
503.0,497.0,514.0,516.0,510.0
507.0,494.0,509.0,520.0,500.0
505.0,490.0,514.0,529.0,493.0
500.0,480.0,509.0,526.0,492.0
523.0,515.0,514.0,507.0,516.0
537.0,535.0,527.0,509.0,512.0
534.0,529.0,527.0,503.0,516.0
540.0,533.0,533.0,504.0,515.0
524.0,528.0,531.0,505.0,520.0
532.0,530.0,536.0,510.0,512.0
532.0,529.0,539.0,515.0,510.0
536.0,529.0,536.0,523.0,495.0
536.0,529.0,538.0,533.0,487.0
542.0,527.0,535.0,545.0,477.0
531.0,519.0,530.0,545.0,475.0
533.0,513.0,523.0,549.0,474.0
530.0,508.0,517.0,546.0,478.0
521.0,507.0,511.0,540.0,489.0
511.0,502.0,504.0,529.0,504.0
507.0,502.0,505.0,517.0,513.0
511.0,511.0,515.0,513.0,513.0
520.0,521.0,519.0,509.0,521.0
525.0,528.0,523.0,505.0,519.0
524.0,527.0,527.0,504.0,523.0
523.0,526.0,531.0,500.0,526.0
522.0,517.0,527.0,499.0,525.0
528.0,524.0,526.0,502.0,519.0
529.0,522.0,530.0,515.0,514.0
530.0,521.0,533.0,521.0,504.0
532.0,522.0,532.0,533.0,492.0
534.0,520.0,529.0,541.0,485.0
529.0,516.0,526.0,547.0,479.0
523.0,510.0,523.0,546.0,479.0
516.0,506.0,510.0,544.0,482.0
508.0,498.0,505.0,534.0,494.0
512.0,497.0,502.0,520.0,505.0
508.0,503.0,504.0,515.0,519.0
513.0,515.0,509.0,510.0,518.0
520.0,520.0,517.0,505.0,525.0
519.0,523.0,522.0,501.0,527.0
524.0,524.0,525.0,499.0,529.0
522.0,525.0,529.0,499.0,534.0
522.0,519.0,523.0,498.0,532.0
525.0,520.0,525.0,504.0,520.0
524.0,518.0,526.0,519.0,506.0
526.0,519.0,534.0,526.0,502.0
527.0,519.0,524.0,534.0,492.0
530.0,516.0,528.0,544.0,482.0
525.0,511.0,522.0,547.0,478.0
516.0,502.0,513.0,544.0,482.0
511.0,499.0,512.0,538.0,487.0
504.0,497.0,501.0,527.0,499.0
505.0,502.0,500.0,522.0,509.0
508.0,505.0,503.0,516.0,518.0
511.0,512.0,511.0,506.0,522.0
516.0,521.0,515.0,503.0,527.0
519.0,528.0,522.0,500.0,530.0
525.0,522.0,522.0,497.0,531.0
521.0,519.0,518.0,495.0,529.0
524.0,519.0,522.0,498.0,523.0
522.0,516.0,528.0,506.0,521.0
522.0,515.0,527.0,516.0,518.0
529.0,517.0,532.0,527.0,507.0
527.0,516.0,528.0,537.0,494.0
525.0,512.0,522.0,541.0,487.0
522.0,509.0,516.0,543.0,488.0
512.0,500.0,508.0,538.0,492.0
507.0,497.0,508.0,535.0,499.0
503.0,497.0,502.0,523.0,508.0
504.0,500.0,500.0,513.0,521.0
505.0,505.0,504.0,505.0,525.0
509.0,512.0,511.0,505.0,536.0
512.0,518.0,517.0,500.0,533.0
516.0,521.0,521.0,502.0,529.0
516.0,523.0,521.0,497.0,527.0
518.0,518.0,521.0,500.0,527.0
522.0,516.0,524.0,502.0,523.0
521.0,513.0,523.0,507.0,517.0
522.0,509.0,523.0,517.0,504.0
522.0,512.0,525.0,530.0,499.0
522.0,514.0,523.0,538.0,484.0
518.0,507.0,521.0,543.0,476.0
510.0,501.0,509.0,541.0,474.0
502.0,495.0,508.0,534.0,486.0
496.0,489.0,498.0,527.0,497.0
495.0,492.0,497.0,517.0,512.0
501.0,499.0,501.0,509.0,521.0
510.0,509.0,508.0,508.0,525.0
516.0,511.0,510.0,498.0,529.0
517.0,517.0,515.0,495.0,534.0
519.0,519.0,519.0,499.0,549.0
519.0,516.0,521.0,494.0,536.0
520.0,515.0,521.0,500.0,528.0
524.0,514.0,522.0,503.0,522.0
523.0,513.0,524.0,513.0,514.0
524.0,513.0,527.0,521.0,505.0
525.0,513.0,523.0,533.0,496.0
524.0,513.0,524.0,540.0,492.0
519.0,507.0,519.0,544.0,487.0
518.0,501.0,513.0,541.0,489.0
506.0,494.0,504.0,534.0,492.0
505.0,493.0,499.0,525.0,501.0
499.0,496.0,499.0,516.0,510.0
501.0,499.0,502.0,509.0,518.0
509.0,509.0,508.0,501.0,530.0
515.0,517.0,514.0,498.0,537.0
525.0,519.0,519.0,496.0,533.0
519.0,518.0,521.0,495.0,537.0
516.0,515.0,521.0,494.0,535.0
517.0,518.0,522.0,494.0,529.0
518.0,517.0,524.0,507.0,520.0
517.0,511.0,524.0,512.0,510.0
522.0,518.0,528.0,526.0,501.0
524.0,514.0,531.0,536.0,490.0
518.0,504.0,522.0,541.0,484.0
515.0,504.0,515.0,541.0,488.0
516.0,498.0,508.0,537.0,492.0
512.0,495.0,501.0,532.0,497.0
509.0,492.0,498.0,522.0,509.0
505.0,495.0,498.0,512.0,519.0
511.0,504.0,503.0,504.0,523.0
513.0,510.0,515.0,500.0,530.0
512.0,515.0,519.0,496.0,537.0
512.0,520.0,522.0,497.0,536.0
513.0,517.0,521.0,497.0,541.0
512.0,514.0,520.0,492.0,538.0
521.0,515.0,526.0,497.0,537.0
529.0,515.0,528.0,507.0,521.0
523.0,510.0,524.0,518.0,507.0
523.0,512.0,525.0,528.0,496.0
524.0,510.0,526.0,538.0,490.0
516.0,505.0,519.0,542.0,488.0
508.0,499.0,512.0,538.0,490.0
503.0,494.0,506.0,533.0,488.0
500.0,494.0,501.0,529.0,496.0
492.0,492.0,502.0,519.0,506.0
497.0,497.0,500.0,504.0,520.0
513.0,507.0,506.0,504.0,529.0
510.0,512.0,511.0,503.0,534.0
509.0,516.0,516.0,500.0,536.0
522.0,519.0,521.0,497.0,527.0
521.0,518.0,517.0,492.0,523.0
516.0,507.0,516.0,491.0,526.0
517.0,508.0,518.0,499.0,521.0
525.0,514.0,520.0,512.0,511.0
529.0,512.0,527.0,518.0,501.0
526.0,509.0,523.0,530.0,492.0
522.0,506.0,521.0,537.0,488.0
519.0,503.0,518.0,540.0,487.0
513.0,498.0,509.0,540.0,485.0
507.0,495.0,504.0,534.0,493.0
497.0,489.0,496.0,518.0,507.0
500.0,493.0,498.0,512.0,518.0
505.0,500.0,500.0,509.0,524.0
513.0,510.0,506.0,501.0,529.0
516.0,520.0,517.0,501.0,536.0
519.0,523.0,519.0,495.0,541.0
525.0,521.0,519.0,493.0,540.0
519.0,516.0,521.0,494.0,539.0
520.0,517.0,520.0,497.0,527.0
520.0,520.0,522.0,506.0,523.0
519.0,515.0,525.0,513.0,512.0
527.0,519.0,530.0,525.0,500.0
528.0,520.0,532.0,536.0,491.0
523.0,513.0,520.0,541.0,483.0
517.0,509.0,514.0,539.0,488.0
510.0,500.0,506.0,535.0,492.0
506.0,498.0,503.0,531.0,498.0
495.0,497.0,505.0,523.0,507.0
496.0,499.0,498.0,512.0,517.0
503.0,507.0,509.0,507.0,522.0
507.0,514.0,511.0,503.0,531.0
511.0,519.0,515.0,498.0,532.0
517.0,526.0,520.0,496.0,527.0
518.0,524.0,525.0,496.0,534.0
516.0,519.0,518.0,494.0,534.0
520.0,517.0,523.0,499.0,527.0
519.0,520.0,522.0,508.0,520.0
518.0,514.0,522.0,517.0,512.0
520.0,517.0,523.0,526.0,501.0
520.0,514.0,524.0,538.0,489.0
518.0,509.0,518.0,541.0,488.0
513.0,502.0,512.0,536.0,487.0
504.0,498.0,504.0,538.0,491.0
499.0,497.0,503.0,528.0,504.0
499.0,495.0,498.0,518.0,512.0
501.0,503.0,501.0,512.0,519.0
505.0,509.0,507.0,505.0,527.0
516.0,518.0,514.0,500.0,531.0
515.0,520.0,517.0,498.0,536.0
518.0,525.0,520.0,496.0,534.0
518.0,518.0,518.0,498.0,539.0
519.0,513.0,517.0,492.0,533.0
524.0,514.0,521.0,502.0,522.0
520.0,514.0,525.0,512.0,517.0
526.0,515.0,524.0,522.0,508.0
526.0,514.0,525.0,531.0,496.0
518.0,511.0,524.0,541.0,489.0
514.0,505.0,517.0,544.0,487.0
511.0,500.0,509.0,537.0,489.0
504.0,494.0,503.0,533.0,498.0
499.0,493.0,496.0,523.0,504.0
499.0,495.0,496.0,517.0,515.0
504.0,501.0,504.0,508.0,520.0
505.0,508.0,508.0,507.0,527.0
511.0,515.0,515.0,499.0,532.0
516.0,515.0,515.0,495.0,535.0
519.0,516.0,520.0,493.0,534.0
514.0,514.0,522.0,494.0,539.0
518.0,514.0,520.0,496.0,536.0
520.0,513.0,521.0,502.0,530.0
515.0,507.0,521.0,507.0,520.0
522.0,510.0,523.0,524.0,505.0
521.0,511.0,525.0,534.0,491.0
516.0,506.0,520.0,540.0,482.0
511.0,498.0,514.0,537.0,478.0
509.0,494.0,508.0,533.0,476.0
502.0,493.0,502.0,530.0,485.0
498.0,492.0,498.0,520.0,506.0
500.0,499.0,499.0,510.0,518.0
510.0,503.0,505.0,504.0,526.0
512.0,510.0,511.0,501.0,526.0
518.0,514.0,515.0,497.0,528.0
522.0,518.0,522.0,496.0,538.0
522.0,515.0,520.0,495.0,542.0
520.0,515.0,521.0,495.0,540.0
518.0,508.0,524.0,498.0,533.0
522.0,510.0,526.0,508.0,514.0
519.0,510.0,528.0,517.0,508.0
526.0,512.0,528.0,527.0,502.0
521.0,511.0,526.0,538.0,493.0
517.0,501.0,520.0,541.0,488.0
512.0,500.0,514.0,540.0,485.0
506.0,496.0,505.0,538.0,495.0
498.0,489.0,502.0,527.0,504.0
502.0,489.0,497.0,516.0,509.0
504.0,495.0,500.0,507.0,519.0
510.0,503.0,506.0,505.0,529.0
512.0,512.0,515.0,500.0,529.0
514.0,515.0,520.0,498.0,535.0
520.0,513.0,522.0,496.0,533.0
517.0,510.0,519.0,493.0,533.0
520.0,507.0,518.0,492.0,537.0
524.0,510.0,522.0,501.0,528.0
521.0,508.0,524.0,510.0,521.0
522.0,510.0,525.0,525.0,515.0
521.0,509.0,528.0,535.0,501.0
519.0,509.0,527.0,543.0,490.0
512.0,499.0,517.0,543.0,487.0
506.0,493.0,511.0,539.0,482.0
500.0,488.0,506.0,534.0,492.0
499.0,483.0,497.0,522.0,508.0
496.0,490.0,497.0,517.0,519.0
501.0,494.0,503.0,507.0,530.0
502.0,504.0,511.0,503.0,534.0
509.0,510.0,516.0,500.0,533.0
513.0,512.0,518.0,496.0,535.0
514.0,513.0,521.0,495.0,541.0
526.0,511.0,520.0,493.0,540.0
520.0,510.0,524.0,498.0,530.0
521.0,509.0,527.0,505.0,517.0
520.0,506.0,523.0,516.0,507.0
521.0,507.0,525.0,525.0,501.0
523.0,506.0,525.0,535.0,493.0
521.0,504.0,520.0,542.0,485.0
516.0,496.0,514.0,540.0,485.0
506.0,491.0,506.0,534.0,493.0
506.0,491.0,504.0,532.0,499.0
500.0,488.0,498.0,523.0,510.0
498.0,490.0,498.0,510.0,517.0
503.0,499.0,505.0,505.0,525.0
513.0,507.0,509.0,504.0,529.0
518.0,510.0,513.0,499.0,531.0
522.0,515.0,520.0,501.0,532.0
518.0,511.0,519.0,497.0,532.0
518.0,508.0,520.0,492.0,537.0
514.0,506.0,522.0,499.0,529.0
514.0,509.0,523.0,511.0,520.0
515.0,509.0,524.0,519.0,513.0
517.0,511.0,524.0,527.0,502.0
521.0,505.0,524.0,533.0,491.0
520.0,505.0,520.0,546.0,487.0
516.0,500.0,514.0,545.0,487.0
507.0,494.0,505.0,533.0,489.0
499.0,491.0,500.0,530.0,505.0
501.0,490.0,497.0,517.0,516.0
508.0,496.0,502.0,510.0,514.0
509.0,503.0,505.0,507.0,525.0
517.0,513.0,514.0,501.0,531.0
521.0,514.0,520.0,499.0,533.0
523.0,515.0,518.0,496.0,530.0
525.0,515.0,519.0,493.0,533.0
516.0,511.0,520.0,496.0,538.0
516.0,511.0,521.0,505.0,533.0
519.0,511.0,524.0,511.0,522.0
521.0,510.0,524.0,525.0,507.0
527.0,510.0,529.0,532.0,491.0
521.0,507.0,523.0,541.0,484.0
515.0,503.0,520.0,543.0,486.0
510.0,496.0,508.0,538.0,488.0
502.0,491.0,503.0,532.0,498.0
499.0,490.0,499.0,522.0,505.0
500.0,495.0,499.0,512.0,515.0
505.0,499.0,503.0,508.0,524.0
511.0,509.0,507.0,502.0,533.0
515.0,513.0,518.0,499.0,532.0
518.0,518.0,519.0,496.0,534.0
517.0,517.0,517.0,492.0,532.0
517.0,511.0,515.0,493.0,531.0
513.0,511.0,521.0,499.0,533.0
517.0,508.0,521.0,505.0,527.0
518.0,508.0,522.0,513.0,518.0
523.0,510.0,528.0,526.0,506.0
523.0,507.0,524.0,535.0,491.0
521.0,506.0,523.0,541.0,485.0
518.0,502.0,516.0,540.0,481.0
513.0,495.0,507.0,536.0,487.0
507.0,496.0,501.0,531.0,495.0
502.0,491.0,496.0,518.0,513.0
500.0,494.0,497.0,514.0,532.0
505.0,506.0,504.0,508.0,537.0
505.0,511.0,512.0,501.0,536.0
509.0,514.0,520.0,499.0,529.0
520.0,517.0,523.0,498.0,526.0
515.0,517.0,525.0,497.0,531.0
517.0,511.0,518.0,498.0,536.0
517.0,510.0,521.0,499.0,533.0
526.0,511.0,524.0,507.0,520.0
523.0,511.0,523.0,522.0,507.0
526.0,511.0,524.0,529.0,497.0
526.0,508.0,527.0,538.0,494.0
520.0,503.0,519.0,541.0,490.0
509.0,498.0,512.0,542.0,491.0
502.0,495.0,505.0,532.0,501.0
496.0,485.0,496.0,520.0,508.0
492.0,486.0,496.0,513.0,516.0
498.0,497.0,500.0,508.0,521.0
505.0,503.0,506.0,503.0,528.0
515.0,512.0,514.0,501.0,527.0
512.0,512.0,515.0,495.0,532.0
512.0,513.0,517.0,494.0,531.0
516.0,514.0,521.0,493.0,534.0
511.0,513.0,524.0,496.0,534.0
511.0,512.0,522.0,502.0,530.0
514.0,507.0,522.0,508.0,520.0
517.0,504.0,521.0,518.0,510.0
530.0,514.0,526.0,531.0,502.0
533.0,509.0,527.0,540.0,494.0
526.0,503.0,516.0,545.0,494.0
515.0,498.0,511.0,541.0,498.0
504.0,492.0,504.0,533.0,503.0
499.0,490.0,498.0,522.0,505.0
496.0,497.0,498.0,509.0,519.0
502.0,499.0,502.0,504.0,517.0
509.0,511.0,508.0,501.0,515.0
515.0,513.0,513.0,496.0,530.0
517.0,518.0,523.0,496.0,535.0
516.0,515.0,519.0,493.0,533.0
516.0,513.0,518.0,492.0,533.0
518.0,512.0,523.0,497.0,529.0
518.0,509.0,517.0,502.0,520.0
520.0,509.0,522.0,514.0,514.0
525.0,512.0,524.0,523.0,503.0
528.0,510.0,525.0,534.0,491.0
520.0,505.0,520.0,540.0,483.0
515.0,501.0,514.0,540.0,488.0
508.0,495.0,507.0,533.0,491.0
503.0,492.0,504.0,530.0,499.0
497.0,490.0,496.0,518.0,507.0
501.0,494.0,494.0,509.0,516.0
504.0,504.0,507.0,503.0,530.0
511.0,511.0,513.0,502.0,530.0
513.0,513.0,516.0,497.0,533.0
516.0,521.0,520.0,496.0,536.0
517.0,515.0,518.0,492.0,537.0
518.0,517.0,520.0,493.0,538.0
521.0,513.0,523.0,498.0,532.0
520.0,514.0,525.0,506.0,525.0
522.0,514.0,524.0,514.0,511.0
524.0,511.0,525.0,532.0,497.0
519.0,514.0,526.0,538.0,487.0
518.0,505.0,520.0,542.0,480.0
512.0,499.0,512.0,540.0,486.0
508.0,497.0,507.0,538.0,496.0
498.0,493.0,496.0,525.0,503.0
501.0,491.0,496.0,515.0,512.0
504.0,497.0,499.0,510.0,521.0
509.0,505.0,503.0,504.0,528.0
516.0,515.0,512.0,498.0,529.0
518.0,515.0,518.0,496.0,534.0
518.0,516.0,522.0,496.0,539.0
519.0,515.0,521.0,492.0,539.0
519.0,512.0,520.0,496.0,535.0
522.0,512.0,521.0,506.0,525.0
520.0,509.0,522.0,510.0,511.0
520.0,512.0,526.0,524.0,499.0
527.0,512.0,526.0,533.0,488.0
520.0,505.0,521.0,539.0,489.0
513.0,500.0,515.0,539.0,492.0
504.0,493.0,505.0,534.0,496.0
503.0,494.0,505.0,535.0,501.0
499.0,490.0,498.0,525.0,508.0
497.0,489.0,496.0,510.0,517.0
502.0,498.0,504.0,503.0,527.0
505.0,505.0,508.0,501.0,530.0
518.0,515.0,518.0,501.0,529.0
518.0,519.0,522.0,498.0,534.0
514.0,515.0,518.0,494.0,539.0
513.0,509.0,517.0,492.0,542.0
518.0,514.0,517.0,497.0,534.0
520.0,512.0,522.0,505.0,528.0
524.0,513.0,522.0,513.0,518.0
526.0,513.0,525.0,526.0,503.0
523.0,514.0,526.0,538.0,490.0
517.0,508.0,524.0,541.0,484.0
506.0,501.0,514.0,539.0,482.0
506.0,497.0,512.0,538.0,491.0
503.0,492.0,503.0,534.0,501.0
498.0,492.0,500.0,520.0,514.0
498.0,495.0,503.0,510.0,520.0
504.0,503.0,506.0,506.0,527.0
513.0,511.0,513.0,500.0,534.0
514.0,515.0,515.0,497.0,536.0
517.0,517.0,519.0,497.0,535.0
515.0,517.0,521.0,495.0,536.0
513.0,514.0,520.0,495.0,532.0
516.0,516.0,521.0,501.0,524.0
518.0,511.0,522.0,508.0,518.0
522.0,512.0,524.0,520.0,511.0
528.0,513.0,526.0,531.0,500.0
525.0,512.0,525.0,540.0,490.0
519.0,506.0,518.0,541.0,490.0
514.0,496.0,511.0,542.0,493.0
506.0,499.0,505.0,535.0,496.0
506.0,493.0,498.0,521.0,513.0
500.0,494.0,500.0,517.0,518.0
504.0,499.0,499.0,515.0,512.0
512.0,507.0,505.0,503.0,518.0
515.0,512.0,512.0,499.0,517.0
515.0,516.0,515.0,497.0,515.0
519.0,516.0,520.0,495.0,527.0
517.0,514.0,519.0,495.0,543.0
518.0,512.0,520.0,494.0,537.0
519.0,511.0,520.0,501.0,531.0
519.0,511.0,523.0,508.0,522.0
518.0,511.0,523.0,521.0,515.0
525.0,515.0,530.0,533.0,494.0
525.0,511.0,524.0,541.0,490.0
519.0,506.0,514.0,540.0,489.0
510.0,497.0,510.0,538.0,493.0
506.0,493.0,504.0,531.0,494.0
501.0,493.0,497.0,521.0,505.0
501.0,494.0,498.0,514.0,517.0
500.0,501.0,504.0,508.0,521.0
507.0,509.0,509.0,505.0,525.0
515.0,514.0,515.0,499.0,526.0
517.0,518.0,524.0,498.0,533.0
515.0,516.0,520.0,497.0,535.0
514.0,513.0,519.0,494.0,534.0
515.0,515.0,521.0,498.0,531.0
516.0,512.0,521.0,505.0,525.0
517.0,507.0,521.0,513.0,519.0
520.0,511.0,525.0,526.0,509.0
522.0,504.0,524.0,536.0,491.0
515.0,505.0,520.0,544.0,485.0
507.0,498.0,510.0,537.0,487.0
500.0,493.0,504.0,534.0,494.0
500.0,491.0,500.0,529.0,497.0
496.0,493.0,498.0,520.0,510.0
502.0,493.0,497.0,511.0,522.0
508.0,501.0,501.0,502.0,531.0
510.0,508.0,510.0,499.0,540.0
515.0,516.0,517.0,498.0,542.0
518.0,520.0,519.0,495.0,538.0
520.0,518.0,524.0,494.0,541.0
509.0,507.0,515.0,496.0,543.0
516.0,507.0,518.0,496.0,533.0
517.0,511.0,524.0,510.0,518.0
516.0,510.0,522.0,517.0,503.0
520.0,512.0,525.0,527.0,495.0
521.0,510.0,525.0,539.0,488.0
522.0,506.0,519.0,543.0,481.0
520.0,500.0,511.0,540.0,484.0
509.0,495.0,505.0,536.0,495.0
503.0,490.0,498.0,525.0,507.0
504.0,494.0,498.0,517.0,517.0
501.0,499.0,501.0,507.0,526.0
509.0,508.0,509.0,504.0,532.0
514.0,513.0,515.0,500.0,534.0
518.0,516.0,518.0,497.0,535.0
522.0,519.0,520.0,494.0,521.0
518.0,516.0,520.0,494.0,529.0
521.0,514.0,521.0,498.0,530.0
525.0,511.0,520.0,500.0,530.0
519.0,510.0,522.0,514.0,516.0
521.0,514.0,527.0,522.0,512.0
522.0,511.0,526.0,532.0,498.0
525.0,507.0,517.0,538.0,485.0
515.0,503.0,515.0,539.0,480.0
511.0,497.0,508.0,537.0,488.0
510.0,497.0,505.0,533.0,495.0
504.0,492.0,499.0,522.0,509.0
501.0,493.0,497.0,511.0,521.0
506.0,497.0,501.0,506.0,520.0
510.0,512.0,509.0,506.0,522.0
513.0,517.0,515.0,498.0,534.0
516.0,517.0,520.0,496.0,538.0
517.0,517.0,520.0,493.0,534.0
515.0,520.0,521.0,496.0,535.0
520.0,516.0,525.0,499.0,526.0
518.0,510.0,524.0,505.0,520.0
518.0,509.0,522.0,513.0,516.0
516.0,510.0,525.0,523.0,506.0
520.0,514.0,529.0,535.0,494.0
517.0,507.0,524.0,541.0,489.0
510.0,500.0,515.0,538.0,490.0
502.0,494.0,507.0,534.0,496.0
500.0,491.0,501.0,528.0,500.0
497.0,493.0,500.0,520.0,512.0
500.0,496.0,500.0,512.0,517.0
504.0,503.0,501.0,505.0,521.0
503.0,509.0,511.0,503.0,531.0
516.0,515.0,517.0,499.0,532.0
525.0,519.0,521.0,496.0,531.0
520.0,513.0,518.0,492.0,532.0
517.0,510.0,515.0,490.0,535.0
514.0,510.0,518.0,497.0,530.0
517.0,509.0,521.0,506.0,522.0
518.0,512.0,525.0,516.0,512.0
525.0,514.0,523.0,528.0,501.0
522.0,508.0,522.0,535.0,492.0
518.0,503.0,516.0,538.0,487.0
511.0,494.0,510.0,536.0,488.0
506.0,496.0,506.0,534.0,493.0
501.0,489.0,499.0,523.0,501.0
496.0,489.0,495.0,513.0,514.0
501.0,497.0,501.0,508.0,523.0
508.0,504.0,506.0,503.0,526.0
512.0,513.0,514.0,503.0,531.0
516.0,515.0,517.0,496.0,532.0
520.0,516.0,519.0,495.0,533.0
517.0,514.0,520.0,494.0,539.0
518.0,515.0,521.0,495.0,537.0
520.0,513.0,523.0,502.0,525.0
522.0,509.0,523.0,511.0,518.0
521.0,513.0,525.0,523.0,507.0
525.0,512.0,525.0,532.0,498.0
529.0,508.0,522.0,540.0,486.0
523.0,501.0,514.0,538.0,489.0
515.0,496.0,507.0,536.0,495.0
510.0,494.0,501.0,533.0,498.0
503.0,492.0,498.0,522.0,508.0
496.0,493.0,499.0,513.0,518.0
499.0,498.0,504.0,507.0,521.0
504.0,507.0,511.0,504.0,518.0
514.0,512.0,514.0,499.0,524.0
515.0,517.0,520.0,499.0,532.0
517.0,516.0,520.0,497.0,535.0
517.0,514.0,520.0,494.0,538.0
516.0,513.0,523.0,500.0,529.0
518.0,513.0,525.0,509.0,522.0
522.0,512.0,528.0,516.0,507.0
524.0,511.0,529.0,524.0,493.0
523.0,512.0,527.0,534.0,485.0
519.0,504.0,521.0,543.0,480.0
513.0,501.0,514.0,543.0,480.0
506.0,498.0,505.0,535.0,482.0
502.0,495.0,503.0,530.0,492.0
498.0,494.0,500.0,521.0,507.0
502.0,495.0,499.0,511.0,520.0
508.0,502.0,504.0,504.0,527.0
515.0,510.0,514.0,499.0,545.0
515.0,515.0,520.0,497.0,544.0
518.0,518.0,518.0,492.0,532.0
515.0,513.0,515.0,493.0,530.0
511.0,510.0,519.0,493.0,528.0
510.0,509.0,521.0,500.0,525.0
515.0,511.0,524.0,508.0,520.0
529.0,512.0,525.0,518.0,514.0
529.0,511.0,530.0,530.0,501.0
523.0,509.0,524.0,535.0,487.0
517.0,504.0,519.0,542.0,482.0
510.0,499.0,510.0,538.0,490.0
505.0,494.0,507.0,533.0,501.0
497.0,494.0,500.0,524.0,509.0
497.0,495.0,499.0,517.0,512.0
499.0,496.0,501.0,508.0,523.0
510.0,506.0,509.0,503.0,525.0
512.0,510.0,513.0,496.0,533.0
517.0,513.0,518.0,497.0,537.0
519.0,517.0,519.0,493.0,539.0
512.0,507.0,519.0,492.0,541.0
514.0,510.0,518.0,493.0,539.0
520.0,511.0,522.0,504.0,523.0
521.0,511.0,522.0,511.0,519.0
526.0,510.0,525.0,521.0,507.0
528.0,508.0,529.0,533.0,492.0
521.0,503.0,517.0,539.0,484.0
515.0,501.0,515.0,540.0,487.0
506.0,493.0,505.0,535.0,495.0
501.0,490.0,501.0,525.0,502.0
498.0,488.0,497.0,525.0,514.0
498.0,491.0,500.0,512.0,530.0
506.0,502.0,503.0,502.0,538.0
512.0,511.0,510.0,500.0,539.0
516.0,509.0,515.0,498.0,528.0
517.0,517.0,522.0,499.0,529.0
519.0,513.0,521.0,494.0,534.0
516.0,515.0,521.0,496.0,533.0
519.0,512.0,523.0,500.0,530.0
515.0,510.0,524.0,507.0,518.0
519.0,512.0,525.0,513.0,510.0
522.0,512.0,524.0,526.0,499.0
524.0,511.0,526.0,537.0,490.0
522.0,503.0,519.0,540.0,485.0
514.0,500.0,518.0,541.0,488.0
505.0,494.0,508.0,536.0,493.0
501.0,493.0,501.0,533.0,502.0
503.0,493.0,499.0,519.0,514.0
502.0,497.0,500.0,510.0,512.0
508.0,505.0,505.0,508.0,517.0
512.0,510.0,512.0,503.0,523.0
514.0,517.0,517.0,501.0,530.0
517.0,518.0,518.0,495.0,532.0
518.0,515.0,516.0,493.0,534.0
520.0,514.0,520.0,493.0,534.0
516.0,516.0,524.0,503.0,527.0
523.0,514.0,525.0,508.0,520.0
520.0,511.0,521.0,519.0,505.0
522.0,511.0,525.0,530.0,496.0
524.0,513.0,527.0,540.0,486.0
518.0,505.0,517.0,546.0,489.0
515.0,501.0,511.0,538.0,489.0
510.0,494.0,504.0,534.0,494.0
503.0,490.0,496.0,524.0,502.0
498.0,492.0,495.0,514.0,516.0
502.0,498.0,504.0,508.0,519.0
507.0,508.0,508.0,503.0,530.0
510.0,512.0,514.0,499.0,530.0
511.0,518.0,518.0,497.0,534.0
521.0,518.0,520.0,493.0,533.0
516.0,517.0,522.0,496.0,540.0
516.0,514.0,521.0,497.0,533.0
526.0,513.0,525.0,504.0,520.0
521.0,510.0,523.0,511.0,515.0
522.0,514.0,530.0,524.0,505.0
528.0,511.0,526.0,533.0,493.0
520.0,506.0,517.0,538.0,487.0
516.0,502.0,509.0,540.0,486.0
509.0,496.0,508.0,538.0,493.0
507.0,497.0,504.0,538.0,493.0
498.0,490.0,496.0,528.0,507.0
497.0,495.0,499.0,514.0,521.0
501.0,502.0,499.0,505.0,526.0
507.0,512.0,511.0,502.0,536.0
506.0,515.0,520.0,499.0,539.0
504.0,515.0,520.0,497.0,532.0
509.0,514.0,519.0,500.0,530.0
511.0,512.0,524.0,496.0,529.0
510.0,512.0,521.0,497.0,528.0
505.0,507.0,519.0,504.0,525.0
516.0,509.0,526.0,513.0,523.0
529.0,513.0,525.0,525.0,509.0
535.0,511.0,525.0,535.0,491.0
530.0,505.0,518.0,540.0,494.0
524.0,501.0,515.0,539.0,495.0
509.0,494.0,502.0,533.0,501.0
511.0,494.0,504.0,530.0,506.0
501.0,491.0,497.0,518.0,517.0
503.0,495.0,501.0,509.0,520.0
507.0,505.0,505.0,511.0,521.0
519.0,515.0,516.0,502.0,519.0
523.0,519.0,516.0,497.0,529.0
522.0,517.0,519.0,495.0,531.0
512.0,517.0,521.0,494.0,530.0
514.0,514.0,522.0,497.0,530.0
518.0,514.0,522.0,505.0,526.0
522.0,513.0,524.0,509.0,514.0
521.0,515.0,523.0,518.0,507.0
527.0,513.0,526.0,531.0,486.0
526.0,507.0,526.0,539.0,490.0
520.0,505.0,519.0,541.0,493.0
512.0,497.0,510.0,536.0,492.0
503.0,496.0,505.0,534.0,500.0
500.0,489.0,494.0,525.0,504.0
502.0,494.0,497.0,516.0,511.0
503.0,496.0,501.0,510.0,517.0
501.0,504.0,504.0,502.0,520.0
505.0,515.0,517.0,500.0,527.0
518.0,518.0,517.0,500.0,530.0
525.0,521.0,518.0,493.0,534.0
519.0,515.0,518.0,493.0,541.0
520.0,514.0,523.0,495.0,534.0
522.0,513.0,521.0,504.0,527.0
520.0,514.0,524.0,516.0,517.0
522.0,513.0,528.0,526.0,496.0
521.0,512.0,524.0,537.0,489.0
519.0,510.0,523.0,541.0,483.0
512.0,502.0,513.0,538.0,487.0
503.0,497.0,511.0,537.0,493.0
497.0,493.0,501.0,530.0,496.0
486.0,491.0,498.0,521.0,508.0
497.0,492.0,497.0,513.0,518.0
511.0,503.0,505.0,508.0,526.0
517.0,511.0,510.0,504.0,527.0
514.0,513.0,515.0,500.0,534.0
518.0,517.0,519.0,496.0,533.0
526.0,518.0,521.0,500.0,533.0
529.0,514.0,519.0,496.0,533.0
526.0,515.0,522.0,501.0,523.0
523.0,513.0,526.0,508.0,499.0
525.0,510.0,519.0,517.0,497.0
524.0,513.0,529.0,528.0,508.0
524.0,510.0,525.0,537.0,514.0
528.0,505.0,520.0,541.0,495.0
521.0,501.0,514.0,539.0,494.0
511.0,495.0,504.0,534.0,497.0
503.0,490.0,499.0,529.0,506.0
498.0,490.0,494.0,517.0,505.0
496.0,495.0,497.0,511.0,513.0
502.0,507.0,505.0,506.0,523.0
509.0,510.0,511.0,502.0,526.0
514.0,514.0,516.0,498.0,529.0
516.0,514.0,516.0,496.0,529.0
518.0,517.0,517.0,495.0,532.0
519.0,512.0,519.0,497.0,532.0
520.0,511.0,521.0,507.0,524.0
521.0,511.0,526.0,511.0,516.0
524.0,509.0,522.0,520.0,507.0
524.0,509.0,523.0,532.0,496.0
523.0,509.0,524.0,540.0,485.0
521.0,505.0,518.0,542.0,480.0
515.0,499.0,510.0,539.0,485.0
507.0,492.0,506.0,536.0,492.0
498.0,491.0,493.0,524.0,506.0
502.0,495.0,499.0,515.0,515.0
504.0,504.0,503.0,512.0,523.0
506.0,504.0,507.0,501.0,531.0
516.0,514.0,514.0,499.0,529.0
517.0,518.0,518.0,496.0,535.0
516.0,516.0,519.0,493.0,542.0
515.0,514.0,518.0,492.0,539.0
517.0,513.0,520.0,497.0,534.0
519.0,511.0,522.0,505.0,523.0
520.0,511.0,525.0,514.0,511.0
530.0,513.0,526.0,524.0,498.0
528.0,515.0,527.0,535.0,489.0
521.0,508.0,524.0,540.0,488.0
516.0,503.0,515.0,535.0,486.0
509.0,496.0,509.0,536.0,490.0
503.0,495.0,504.0,536.0,493.0
498.0,492.0,497.0,520.0,502.0
508.0,493.0,496.0,509.0,515.0
508.0,500.0,502.0,505.0,522.0
511.0,508.0,511.0,501.0,530.0
508.0,514.0,516.0,496.0,535.0
510.0,518.0,520.0,494.0,536.0
513.0,516.0,520.0,494.0,538.0
516.0,514.0,523.0,494.0,536.0
520.0,513.0,527.0,498.0,530.0
519.0,513.0,526.0,505.0,521.0
516.0,511.0,524.0,518.0,512.0
517.0,510.0,523.0,525.0,498.0
517.0,507.0,526.0,538.0,488.0
516.0,503.0,520.0,541.0,484.0
512.0,501.0,514.0,542.0,487.0
507.0,495.0,505.0,534.0,487.0
504.0,492.0,502.0,528.0,496.0
505.0,496.0,499.0,519.0,505.0
503.0,497.0,504.0,509.0,518.0
508.0,504.0,505.0,501.0,532.0
514.0,515.0,511.0,499.0,538.0
516.0,516.0,515.0,494.0,533.0
521.0,517.0,517.0,493.0,530.0
518.0,515.0,519.0,495.0,532.0
514.0,513.0,519.0,493.0,525.0
517.0,512.0,522.0,504.0,526.0
519.0,516.0,525.0,510.0,518.0
522.0,510.0,525.0,518.0,513.0
528.0,511.0,526.0,528.0,500.0
519.0,508.0,526.0,538.0,500.0
513.0,503.0,516.0,539.0,498.0
505.0,495.0,510.0,536.0,495.0
500.0,492.0,505.0,534.0,498.0
496.0,489.0,498.0,527.0,494.0
499.0,491.0,499.0,515.0,508.0
499.0,495.0,500.0,508.0,521.0
503.0,503.0,506.0,501.0,520.0
508.0,510.0,513.0,503.0,524.0
516.0,517.0,521.0,501.0,530.0
517.0,515.0,520.0,496.0,538.0
515.0,511.0,517.0,493.0,536.0
518.0,509.0,519.0,494.0,534.0
519.0,509.0,523.0,501.0,526.0
519.0,509.0,528.0,515.0,514.0
524.0,512.0,530.0,524.0,504.0
521.0,513.0,529.0,535.0,489.0
520.0,508.0,522.0,540.0,482.0
523.0,502.0,520.0,541.0,477.0
510.0,496.0,511.0,534.0,482.0
504.0,490.0,505.0,532.0,490.0
498.0,490.0,499.0,520.0,505.0
493.0,494.0,497.0,510.0,516.0
505.0,502.0,504.0,507.0,522.0
509.0,506.0,511.0,501.0,530.0
510.0,513.0,519.0,499.0,534.0
512.0,514.0,519.0,496.0,534.0
515.0,514.0,517.0,493.0,535.0
525.0,515.0,520.0,496.0,533.0
525.0,512.0,522.0,499.0,527.0
530.0,513.0,526.0,505.0,519.0
525.0,510.0,523.0,515.0,513.0
531.0,512.0,525.0,527.0,499.0
527.0,510.0,525.0,533.0,492.0
517.0,506.0,522.0,542.0,492.0
509.0,500.0,514.0,543.0,482.0
504.0,494.0,507.0,538.0,483.0
497.0,495.0,501.0,530.0,490.0
494.0,496.0,498.0,523.0,498.0
495.0,500.0,502.0,510.0,523.0
505.0,505.0,506.0,502.0,544.0
519.0,513.0,513.0,501.0,539.0
521.0,522.0,518.0,499.0,529.0
521.0,523.0,521.0,496.0,531.0
523.0,514.0,515.0,493.0,530.0
521.0,513.0,520.0,494.0,533.0
519.0,510.0,523.0,500.0,531.0
520.0,513.0,522.0,509.0,517.0
521.0,508.0,522.0,517.0,507.0
522.0,509.0,521.0,528.0,495.0
520.0,509.0,523.0,537.0,490.0
508.0,503.0,516.0,539.0,488.0
501.0,496.0,509.0,536.0,492.0
503.0,495.0,504.0,535.0,493.0
488.0,489.0,498.0,523.0,505.0
487.0,491.0,496.0,511.0,514.0
485.0,496.0,500.0,506.0,519.0
495.0,506.0,506.0,499.0,524.0
526.0,513.0,512.0,503.0,528.0
531.0,520.0,518.0,496.0,534.0
542.0,520.0,522.0,496.0,533.0
535.0,516.0,519.0,500.0,532.0
536.0,516.0,523.0,503.0,531.0
526.0,512.0,522.0,508.0,529.0
525.0,510.0,522.0,515.0,518.0
518.0,510.0,523.0,525.0,508.0
519.0,507.0,523.0,535.0,488.0
516.0,508.0,518.0,540.0,486.0
514.0,503.0,515.0,543.0,488.0
522.0,497.0,509.0,537.0,488.0
522.0,494.0,501.0,536.0,495.0
508.0,491.0,497.0,516.0,506.0
500.0,494.0,498.0,504.0,521.0
505.0,499.0,503.0,502.0,525.0
513.0,507.0,511.0,502.0,523.0
514.0,513.0,512.0,497.0,528.0
516.0,517.0,518.0,496.0,533.0
514.0,510.0,517.0,490.0,535.0
517.0,510.0,520.0,489.0,530.0
518.0,512.0,522.0,499.0,533.0
519.0,514.0,524.0,506.0,526.0
523.0,512.0,526.0,517.0,511.0
529.0,512.0,527.0,528.0,496.0
527.0,509.0,524.0,538.0,487.0
527.0,506.0,521.0,541.0,482.0
518.0,500.0,513.0,536.0,489.0
508.0,497.0,506.0,530.0,498.0
503.0,493.0,497.0,515.0,510.0
502.0,492.0,495.0,508.0,519.0
502.0,496.0,493.0,501.0,528.0
510.0,507.0,504.0,499.0,527.0
514.0,513.0,510.0,496.0,532.0
516.0,516.0,514.0,495.0,533.0
517.0,518.0,516.0,498.0,530.0
513.0,515.0,517.0,500.0,527.0
514.0,511.0,516.0,493.0,524.0
517.0,511.0,519.0,501.0,517.0
520.0,513.0,520.0,512.0,509.0
519.0,511.0,524.0,524.0,505.0
522.0,510.0,525.0,533.0,493.0
523.0,507.0,524.0,546.0,484.0
514.0,504.0,520.0,546.0,485.0
510.0,498.0,514.0,542.0,491.0
502.0,492.0,500.0,535.0,500.0
493.0,489.0,501.0,525.0,510.0
493.0,494.0,498.0,516.0,520.0
504.0,496.0,503.0,510.0,532.0
508.0,510.0,508.0,506.0,532.0
523.0,516.0,517.0,503.0,524.0
519.0,519.0,519.0,501.0,521.0
516.0,516.0,520.0,501.0,521.0
513.0,512.0,517.0,499.0,530.0
517.0,511.0,519.0,499.0,529.0
520.0,511.0,522.0,506.0,527.0
519.0,510.0,525.0,517.0,520.0
525.0,516.0,528.0,530.0,504.0
529.0,514.0,529.0,536.0,496.0
520.0,507.0,522.0,544.0,485.0
512.0,501.0,514.0,548.0,485.0
507.0,496.0,508.0,539.0,486.0
506.0,494.0,502.0,533.0,494.0
498.0,491.0,497.0,528.0,507.0
500.0,494.0,497.0,516.0,515.0
508.0,503.0,505.0,510.0,523.0
509.0,510.0,508.0,503.0,528.0
513.0,512.0,515.0,500.0,531.0
510.0,515.0,519.0,495.0,536.0
517.0,516.0,522.0,495.0,534.0
512.0,513.0,519.0,493.0,535.0
514.0,511.0,521.0,501.0,530.0
517.0,509.0,520.0,508.0,516.0
517.0,509.0,521.0,518.0,509.0
524.0,512.0,525.0,531.0,498.0
524.0,510.0,529.0,540.0,485.0
520.0,507.0,520.0,543.0,485.0
511.0,494.0,515.0,541.0,496.0
505.0,492.0,509.0,539.0,497.0
505.0,492.0,509.0,531.0,498.0
500.0,491.0,509.0,525.0,507.0
499.0,494.0,503.0,512.0,524.0
505.0,502.0,498.0,506.0,536.0
511.0,512.0,507.0,500.0,540.0
515.0,517.0,519.0,501.0,543.0
514.0,516.0,519.0,495.0,543.0
515.0,515.0,518.0,492.0,529.0
514.0,511.0,518.0,492.0,526.0
515.0,513.0,521.0,497.0,526.0
516.0,512.0,521.0,505.0,512.0
518.0,512.0,525.0,516.0,507.0
516.0,515.0,524.0,526.0,499.0
513.0,508.0,522.0,535.0,491.0
507.0,503.0,516.0,535.0,491.0
513.0,498.0,510.0,531.0,492.0
506.0,495.0,505.0,529.0,494.0
500.0,492.0,500.0,521.0,499.0
497.0,495.0,502.0,510.0,514.0
503.0,501.0,505.0,508.0,521.0
517.0,508.0,503.0,504.0,523.0
516.0,512.0,512.0,499.0,530.0
511.0,513.0,516.0,494.0,536.0
525.0,518.0,521.0,493.0,543.0
531.0,515.0,519.0,492.0,535.0
528.0,514.0,522.0,501.0,529.0
523.0,512.0,525.0,508.0,521.0
523.0,513.0,524.0,510.0,512.0
522.0,512.0,523.0,522.0,503.0
523.0,515.0,531.0,532.0,495.0
521.0,507.0,522.0,539.0,483.0
514.0,500.0,514.0,542.0,485.0
505.0,497.0,509.0,543.0,488.0
501.0,498.0,507.0,537.0,489.0
511.0,495.0,508.0,524.0,500.0
499.0,493.0,499.0,503.0,518.0
505.0,500.0,503.0,491.0,533.0
512.0,511.0,513.0,491.0,526.0
515.0,514.0,518.0,492.0,527.0
514.0,521.0,521.0,486.0,534.0
515.0,519.0,521.0,484.0,534.0
516.0,513.0,515.0,482.0,528.0
514.0,510.0,515.0,486.0,530.0
513.0,508.0,508.0,492.0,521.0
513.0,507.0,510.0,503.0,511.0
517.0,515.0,519.0,519.0,503.0
525.0,512.0,521.0,533.0,487.0
521.0,508.0,518.0,540.0,485.0
517.0,502.0,516.0,547.0,488.0
508.0,495.0,507.0,541.0,497.0
503.0,490.0,497.0,529.0,502.0
503.0,493.0,499.0,521.0,510.0
495.0,498.0,501.0,513.0,519.0
497.0,502.0,505.0,505.0,520.0
500.0,512.0,511.0,501.0,528.0
506.0,513.0,516.0,498.0,532.0
510.0,514.0,520.0,499.0,535.0
519.0,510.0,524.0,500.0,543.0
530.0,512.0,530.0,501.0,539.0
542.0,514.0,532.0,510.0,531.0
537.0,513.0,538.0,522.0,520.0
529.0,515.0,539.0,536.0,514.0
518.0,511.0,522.0,547.0,508.0
522.0,509.0,514.0,549.0,503.0
522.0,503.0,511.0,552.0,487.0
517.0,497.0,510.0,548.0,489.0
512.0,491.0,505.0,533.0,494.0
506.0,493.0,501.0,522.0,508.0
508.0,496.0,500.0,509.0,526.0
515.0,501.0,503.0,500.0,524.0
515.0,508.0,505.0,497.0,525.0
513.0,510.0,511.0,494.0,524.0
513.0,515.0,521.0,493.0,516.0
517.0,517.0,527.0,490.0,526.0
510.0,513.0,525.0,488.0,538.0
506.0,511.0,527.0,490.0,546.0
510.0,516.0,529.0,503.0,541.0
511.0,511.0,520.0,514.0,528.0
511.0,512.0,520.0,528.0,508.0
525.0,518.0,530.0,543.0,482.0
512.0,508.0,522.0,549.0,485.0
515.0,501.0,515.0,543.0,495.0
510.0,497.0,506.0,537.0,503.0
514.0,500.0,504.0,535.0,507.0
511.0,494.0,498.0,516.0,523.0
505.0,496.0,495.0,509.0,527.0
504.0,504.0,503.0,510.0,534.0
506.0,511.0,510.0,503.0,525.0
512.0,517.0,520.0,503.0,518.0
514.0,517.0,524.0,501.0,525.0
516.0,515.0,519.0,496.0,534.0
516.0,510.0,518.0,491.0,531.0
522.0,514.0,521.0,499.0,528.0
521.0,516.0,523.0,510.0,520.0
517.0,510.0,524.0,518.0,511.0
517.0,510.0,525.0,529.0,495.0
517.0,511.0,529.0,541.0,477.0
521.0,511.0,522.0,543.0,474.0
514.0,502.0,518.0,543.0,479.0
505.0,496.0,510.0,536.0,489.0
500.0,492.0,501.0,529.0,501.0
499.0,493.0,496.0,519.0,510.0
502.0,494.0,500.0,512.0,517.0
503.0,506.0,504.0,505.0,518.0
508.0,514.0,514.0,508.0,523.0
518.0,516.0,516.0,503.0,529.0
522.0,515.0,520.0,499.0,532.0
520.0,516.0,518.0,494.0,532.0
522.0,513.0,518.0,491.0,531.0
523.0,514.0,525.0,503.0,522.0
526.0,508.0,523.0,512.0,509.0
526.0,513.0,526.0,521.0,507.0
528.0,512.0,528.0,531.0,489.0
523.0,512.0,527.0,545.0,482.0
515.0,506.0,518.0,539.0,483.0
513.0,500.0,514.0,539.0,488.0
506.0,499.0,499.0,535.0,494.0
499.0,498.0,501.0,533.0,511.0
498.0,494.0,500.0,516.0,527.0
500.0,501.0,502.0,505.0,533.0
506.0,508.0,508.0,500.0,533.0
509.0,505.0,508.0,493.0,535.0
510.0,513.0,508.0,489.0,533.0
512.0,519.0,518.0,489.0,526.0
512.0,518.0,521.0,480.0,524.0
527.0,516.0,522.0,481.0,517.0
521.0,507.0,516.0,479.0,515.0
516.0,509.0,515.0,491.0,510.0
521.0,518.0,515.0,512.0,498.0
522.0,517.0,518.0,533.0,488.0
519.0,508.0,514.0,548.0,480.0
510.0,496.0,507.0,551.0,484.0
503.0,493.0,499.0,550.0,488.0
504.0,495.0,492.0,548.0,488.0
505.0,491.0,488.0,537.0,505.0
505.0,495.0,491.0,528.0,516.0
510.0,504.0,502.0,512.0,522.0
508.0,509.0,514.0,505.0,534.0
519.0,517.0,538.0,492.0,534.0
517.0,518.0,537.0,484.0,534.0
513.0,517.0,529.0,485.0,537.0
509.0,516.0,516.0,485.0,539.0
508.0,511.0,500.0,486.0,540.0
508.0,506.0,467.0,486.0,534.0
505.0,504.0,488.0,494.0,528.0
520.0,508.0,497.0,507.0,500.0
533.0,511.0,511.0,520.0,498.0
531.0,509.0,510.0,536.0,488.0
516.0,509.0,513.0,545.0,479.0
510.0,508.0,523.0,548.0,485.0
500.0,498.0,515.0,538.0,500.0
502.0,502.0,507.0,529.0,518.0
506.0,504.0,501.0,516.0,529.0
508.0,509.0,495.0,509.0,529.0
511.0,513.0,509.0,510.0,527.0
506.0,510.0,523.0,503.0,519.0
502.0,509.0,524.0,500.0,510.0
501.0,506.0,526.0,497.0,514.0
511.0,505.0,526.0,494.0,510.0
513.0,501.0,523.0,494.0,521.0
502.0,502.0,519.0,496.0,551.0
521.0,515.0,538.0,522.0,530.0
542.0,521.0,541.0,536.0,499.0
553.0,517.0,542.0,555.0,481.0
538.0,509.0,534.0,555.0,484.0
518.0,503.0,528.0,547.0,488.0
499.0,495.0,516.0,534.0,500.0
480.0,492.0,514.0,523.0,516.0
472.0,495.0,510.0,509.0,512.0
484.0,503.0,515.0,497.0,513.0
508.0,512.0,526.0,491.0,524.0
514.0,519.0,527.0,483.0,539.0
550.0,527.0,532.0,488.0,541.0
550.0,524.0,533.0,488.0,548.0
521.0,518.0,533.0,501.0,546.0
507.0,513.0,533.0,504.0,540.0
505.0,508.0,531.0,512.0,532.0
507.0,503.0,529.0,519.0,503.0
519.0,509.0,531.0,529.0,498.0
521.0,514.0,530.0,537.0,499.0
544.0,507.0,519.0,538.0,488.0
541.0,503.0,515.0,540.0,484.0
516.0,499.0,513.0,539.0,496.0
511.0,494.0,507.0,534.0,489.0
515.0,493.0,506.0,523.0,496.0
507.0,493.0,504.0,512.0,516.0
497.0,502.0,511.0,504.0,516.0
509.0,512.0,513.0,497.0,516.0
525.0,511.0,518.0,495.0,524.0
524.0,512.0,516.0,496.0,527.0
521.0,508.0,514.0,496.0,536.0
523.0,509.0,526.0,499.0,549.0
531.0,515.0,537.0,511.0,547.0
531.0,515.0,542.0,526.0,522.0
527.0,507.0,544.0,529.0,519.0
527.0,510.0,544.0,533.0,508.0
531.0,508.0,529.0,545.0,475.0
528.0,508.0,538.0,544.0,456.0
511.0,499.0,528.0,532.0,465.0
505.0,497.0,502.0,518.0,479.0
506.0,488.0,487.0,509.0,495.0
509.0,495.0,475.0,505.0,501.0
508.0,501.0,489.0,503.0,497.0
516.0,506.0,498.0,499.0,499.0
513.0,510.0,503.0,490.0,531.0
513.0,512.0,504.0,485.0,534.0
519.0,514.0,511.0,496.0,526.0
514.0,523.0,506.0,508.0,522.0
510.0,513.0,500.0,505.0,521.0
511.0,509.0,502.0,510.0,515.0
506.0,511.0,509.0,519.0,506.0
508.0,510.0,501.0,517.0,497.0
531.0,514.0,505.0,533.0,487.0
529.0,509.0,501.0,540.0,481.0
517.0,500.0,495.0,545.0,491.0
499.0,493.0,487.0,530.0,506.0
501.0,497.0,485.0,516.0,505.0
515.0,494.0,486.0,516.0,492.0
512.0,495.0,478.0,512.0,496.0
511.0,497.0,495.0,502.0,514.0
508.0,501.0,508.0,504.0,533.0
520.0,506.0,517.0,494.0,556.0
523.0,513.0,525.0,480.0,550.0
515.0,515.0,535.0,493.0,536.0
515.0,519.0,548.0,497.0,529.0
515.0,518.0,557.0,504.0,526.0
520.0,520.0,565.0,506.0,525.0
519.0,523.0,559.0,509.0,523.0
522.0,521.0,550.0,529.0,508.0
525.0,513.0,506.0,532.0,490.0
519.0,504.0,504.0,543.0,475.0
516.0,498.0,505.0,538.0,483.0
501.0,488.0,496.0,530.0,490.0
490.0,491.0,505.0,529.0,495.0
476.0,489.0,499.0,527.0,509.0
469.0,488.0,489.0,521.0,514.0
474.0,492.0,492.0,509.0,515.0
498.0,501.0,497.0,512.0,518.0
498.0,513.0,501.0,502.0,525.0
513.0,521.0,513.0,489.0,533.0
533.0,513.0,508.0,474.0,536.0
550.0,519.0,516.0,486.0,528.0
547.0,523.0,524.0,487.0,533.0
536.0,522.0,532.0,498.0,527.0
533.0,523.0,541.0,514.0,513.0
539.0,527.0,547.0,530.0,504.0
539.0,523.0,539.0,544.0,497.0
533.0,516.0,539.0,542.0,494.0
524.0,509.0,528.0,538.0,504.0
511.0,497.0,517.0,536.0,506.0
501.0,494.0,518.0,548.0,500.0
487.0,485.0,511.0,541.0,522.0
487.0,486.0,507.0,533.0,536.0
503.0,505.0,514.0,534.0,547.0
512.0,517.0,519.0,532.0,561.0
519.0,522.0,517.0,532.0,560.0
522.0,529.0,533.0,524.0,541.0
508.0,525.0,527.0,496.0,534.0
494.0,505.0,513.0,475.0,535.0
484.0,506.0,512.0,498.0,509.0
480.0,503.0,504.0,493.0,508.0
497.0,505.0,513.0,507.0,501.0
496.0,512.0,531.0,545.0,477.0
487.0,511.0,538.0,552.0,472.0
462.0,502.0,526.0,541.0,506.0
434.0,492.0,513.0,518.0,528.0
429.0,499.0,508.0,499.0,526.0
452.0,498.0,502.0,485.0,517.0
509.0,502.0,500.0,476.0,503.0
535.0,504.0,504.0,475.0,496.0
538.0,507.0,507.0,472.0,501.0
536.0,521.0,519.0,488.0,486.0
536.0,515.0,519.0,480.0,490.0
528.0,518.0,525.0,488.0,517.0
523.0,516.0,532.0,505.0,518.0
523.0,514.0,525.0,502.0,528.0
524.0,511.0,519.0,510.0,527.0
525.0,512.0,520.0,545.0,520.0
563.0,529.0,536.0,577.0,501.0
563.0,526.0,546.0,577.0,482.0
551.0,520.0,541.0,564.0,488.0
559.0,511.0,543.0,558.0,497.0
525.0,500.0,527.0,535.0,503.0
511.0,496.0,492.0,521.0,498.0
497.0,491.0,484.0,484.0,509.0
499.0,489.0,479.0,465.0,522.0
502.0,494.0,477.0,466.0,536.0
522.0,509.0,494.0,475.0,539.0
539.0,516.0,500.0,482.0,545.0
541.0,525.0,521.0,516.0,540.0
528.0,515.0,537.0,547.0,543.0
511.0,504.0,527.0,545.0,534.0
510.0,504.0,525.0,559.0,516.0
506.0,497.0,516.0,562.0,503.0
515.0,484.0,501.0,549.0,498.0
559.0,494.0,505.0,544.0,474.0
561.0,497.0,501.0,519.0,463.0
527.0,505.0,492.0,509.0,470.0
503.0,495.0,476.0,502.0,481.0
491.0,499.0,477.0,492.0,485.0
467.0,491.0,467.0,501.0,489.0
457.0,473.0,455.0,478.0,514.0
461.0,489.0,472.0,474.0,524.0
466.0,494.0,493.0,499.0,527.0
501.0,505.0,494.0,490.0,526.0
494.0,511.0,508.0,480.0,552.0
472.0,509.0,521.0,496.0,537.0
456.0,502.0,525.0,507.0,532.0
454.0,497.0,529.0,483.0,554.0
503.0,503.0,516.0,488.0,527.0
560.0,503.0,507.0,488.0,513.0
562.0,510.0,515.0,498.0,510.0
559.0,516.0,515.0,496.0,498.0
543.0,505.0,514.0,519.0,493.0
533.0,507.0,519.0,547.0,484.0
517.0,497.0,519.0,559.0,482.0
510.0,489.0,510.0,567.0,487.0
487.0,480.0,494.0,557.0,511.0
487.0,490.0,512.0,553.0,518.0
484.0,503.0,525.0,522.0,531.0
499.0,511.0,535.0,502.0,529.0
512.0,526.0,547.0,487.0,526.0
484.0,537.0,557.0,503.0,528.0
460.0,534.0,537.0,491.0,539.0
455.0,525.0,528.0,477.0,550.0
457.0,524.0,534.0,487.0,548.0
472.0,516.0,539.0,492.0,549.0
532.0,524.0,550.0,523.0,523.0
564.0,528.0,544.0,525.0,508.0
562.0,526.0,537.0,540.0,496.0
554.0,514.0,525.0,553.0,484.0
523.0,512.0,528.0,555.0,489.0
499.0,511.0,526.0,542.0,505.0
496.0,512.0,523.0,525.0,507.0
477.0,506.0,513.0,507.0,521.0
469.0,505.0,505.0,506.0,536.0
474.0,505.0,508.0,519.0,533.0
512.0,510.0,511.0,523.0,532.0
522.0,512.0,523.0,523.0,534.0
524.0,523.0,532.0,516.0,537.0
534.0,523.0,530.0,496.0,538.0
530.0,522.0,539.0,487.0,535.0
535.0,518.0,538.0,479.0,536.0
517.0,512.0,536.0,490.0,542.0
506.0,510.0,533.0,504.0,544.0
479.0,508.0,528.0,521.0,529.0
444.0,510.0,529.0,540.0,500.0
414.0,500.0,524.0,533.0,488.0
410.0,492.0,518.0,515.0,483.0
406.0,488.0,501.0,510.0,486.0
461.0,488.0,475.0,505.0,481.0
533.0,489.0,475.0,495.0,488.0
568.0,493.0,477.0,489.0,498.0
584.0,506.0,488.0,495.0,500.0
594.0,517.0,507.0,493.0,513.0
585.0,525.0,518.0,499.0,514.0
564.0,523.0,505.0,492.0,516.0
553.0,521.0,501.0,496.0,522.0
565.0,516.0,498.0,488.0,543.0
572.0,523.0,525.0,520.0,527.0
564.0,516.0,544.0,553.0,509.0
529.0,507.0,528.0,575.0,513.0
512.0,498.0,509.0,564.0,510.0
521.0,491.0,496.0,547.0,505.0
503.0,491.0,492.0,540.0,489.0
513.0,496.0,497.0,539.0,467.0
543.0,497.0,501.0,533.0,460.0
525.0,498.0,499.0,513.0,482.0
506.0,503.0,511.0,513.0,495.0
502.0,502.0,515.0,523.0,514.0
516.0,507.0,513.0,554.0,510.0
528.0,510.0,509.0,523.0,520.0
511.0,511.0,508.0,527.0,526.0
509.0,506.0,503.0,528.0,523.0
510.0,508.0,506.0,524.0,525.0
512.0,510.0,505.0,512.0,517.0
494.0,513.0,500.0,479.0,531.0
500.0,505.0,503.0,488.0,527.0
485.0,501.0,504.0,467.0,512.0
489.0,496.0,491.0,435.0,499.0
494.0,501.0,485.0,485.0,497.0
528.0,501.0,495.0,541.0,493.0
527.0,488.0,499.0,547.0,506.0
543.0,503.0,508.0,546.0,500.0
531.0,503.0,506.0,539.0,492.0
513.0,508.0,511.0,523.0,503.0
505.0,508.0,524.0,463.0,525.0
504.0,505.0,520.0,445.0,531.0
508.0,507.0,522.0,462.0,537.0
520.0,512.0,511.0,457.0,536.0
530.0,508.0,497.0,435.0,535.0
509.0,491.0,479.0,435.0,523.0
508.0,501.0,495.0,483.0,514.0
534.0,510.0,494.0,518.0,506.0
550.0,522.0,512.0,531.0,493.0
529.0,530.0,556.0,575.0,478.0
508.0,543.0,580.0,585.0,469.0
474.0,525.0,554.0,563.0,462.0
435.0,493.0,521.0,517.0,494.0
381.0,479.0,504.0,506.0,521.0
330.0,470.0,483.0,482.0,533.0
378.0,478.0,478.0,487.0,526.0
395.0,485.0,481.0,494.0,532.0
377.0,485.0,481.0,484.0,545.0
461.0,512.0,496.0,495.0,537.0
586.0,541.0,510.0,500.0,526.0
599.0,528.0,517.0,535.0,515.0
598.0,512.0,519.0,553.0,515.0
576.0,524.0,517.0,539.0,514.0
557.0,521.0,495.0,503.0,534.0
565.0,532.0,522.0,504.0,508.0
571.0,537.0,554.0,500.0,497.0
558.0,536.0,567.0,532.0,501.0
570.0,540.0,540.0,564.0,486.0
578.0,531.0,528.0,585.0,480.0
543.0,517.0,516.0,559.0,490.0
524.0,500.0,502.0,543.0,488.0
504.0,492.0,490.0,530.0,507.0
476.0,493.0,492.0,521.0,504.0
436.0,481.0,497.0,461.0,525.0
397.0,462.0,472.0,448.0,556.0
379.0,490.0,498.0,499.0,554.0
377.0,495.0,521.0,511.0,535.0
413.0,508.0,523.0,496.0,527.0
500.0,531.0,543.0,487.0,512.0
582.0,553.0,546.0,522.0,504.0
646.0,535.0,531.0,527.0,511.0
617.0,520.0,506.0,515.0,517.0
580.0,535.0,530.0,514.0,507.0
567.0,531.0,528.0,491.0,505.0
546.0,515.0,508.0,462.0,499.0
525.0,511.0,505.0,480.0,488.0
528.0,500.0,502.0,494.0,485.0
506.0,496.0,502.0,503.0,471.0
499.0,491.0,506.0,498.0,472.0
475.0,495.0,525.0,497.0,487.0
488.0,514.0,555.0,531.0,478.0
472.0,506.0,540.0,549.0,497.0
461.0,509.0,524.0,515.0,529.0
492.0,514.0,515.0,485.0,552.0
545.0,522.0,524.0,494.0,565.0
568.0,533.0,541.0,516.0,535.0
534.0,534.0,538.0,513.0,556.0
490.0,526.0,538.0,524.0,551.0
459.0,514.0,530.0,534.0,523.0
465.0,507.0,523.0,547.0,506.0
476.0,507.0,523.0,538.0,497.0
506.0,511.0,527.0,546.0,478.0
555.0,513.0,530.0,532.0,476.0
506.0,505.0,514.0,499.0,489.0
482.0,496.0,501.0,524.0,484.0
457.0,492.0,486.0,514.0,497.0
457.0,503.0,497.0,530.0,500.0
522.0,518.0,497.0,502.0,492.0
540.0,520.0,504.0,488.0,503.0
543.0,514.0,506.0,489.0,514.0
524.0,510.0,497.0,487.0,534.0
544.0,507.0,481.0,476.0,522.0
577.0,510.0,481.0,457.0,496.0
564.0,522.0,522.0,482.0,468.0
555.0,514.0,533.0,491.0,502.0
564.0,531.0,567.0,547.0,503.0
555.0,527.0,561.0,568.0,496.0
535.0,520.0,537.0,562.0,486.0
524.0,521.0,519.0,556.0,482.0
508.0,517.0,515.0,581.0,467.0
504.0,507.0,501.0,589.0,464.0
480.0,486.0,479.0,579.0,489.0
471.0,475.0,470.0,566.0,521.0
491.0,479.0,478.0,530.0,525.0
541.0,496.0,491.0,494.0,507.0
543.0,503.0,488.0,478.0,526.0
545.0,506.0,496.0,448.0,538.0
518.0,514.0,510.0,458.0,547.0
483.0,515.0,510.0,473.0,550.0
474.0,525.0,495.0,464.0,536.0
466.0,519.0,503.0,494.0,532.0
453.0,499.0,504.0,486.0,524.0
476.0,492.0,496.0,483.0,521.0
560.0,506.0,519.0,514.0,495.0
561.0,521.0,549.0,533.0,470.0
525.0,498.0,549.0,527.0,456.0
472.0,466.0,496.0,536.0,480.0
498.0,466.0,477.0,530.0,502.0
488.0,460.0,461.0,473.0,523.0
452.0,468.0,469.0,418.0,535.0
487.0,487.0,462.0,432.0,533.0
523.0,517.0,483.0,469.0,528.0
506.0,520.0,508.0,490.0,533.0
511.0,515.0,503.0,523.0,539.0
533.0,523.0,530.0,555.0,522.0
570.0,530.0,539.0,565.0,501.0
522.0,513.0,514.0,567.0,500.0
472.0,509.0,493.0,574.0,502.0
442.0,506.0,468.0,518.0,511.0
457.0,510.0,481.0,558.0,498.0
406.0,492.0,478.0,591.0,500.0
459.0,488.0,494.0,593.0,496.0
457.0,497.0,518.0,555.0,470.0
418.0,494.0,512.0,489.0,461.0
493.0,486.0,541.0,505.0,454.0
565.0,498.0,571.0,545.0,467.0
616.0,519.0,587.0,539.0,499.0
597.0,519.0,564.0,512.0,530.0
574.0,525.0,553.0,487.0,540.0
561.0,519.0,520.0,462.0,547.0
546.0,513.0,517.0,463.0,534.0
548.0,506.0,519.0,486.0,525.0
555.0,506.0,532.0,490.0,517.0
534.0,519.0,546.0,483.0,517.0
525.0,530.0,560.0,488.0,498.0
510.0,525.0,555.0,523.0,482.0
500.0,520.0,547.0,529.0,481.0
506.0,509.0,526.0,538.0,476.0
550.0,498.0,523.0,526.0,484.0
525.0,503.0,524.0,513.0,484.0
483.0,490.0,504.0,493.0,490.0
487.0,472.0,475.0,451.0,505.0
471.0,466.0,461.0,436.0,526.0
432.0,473.0,468.0,446.0,555.0
419.0,472.0,482.0,455.0,557.0
436.0,474.0,482.0,472.0,562.0
425.0,484.0,498.0,502.0,552.0
446.0,494.0,509.0,485.0,545.0
535.0,526.0,537.0,492.0,518.0
600.0,548.0,552.0,476.0,518.0
558.0,537.0,551.0,485.0,514.0
532.0,527.0,554.0,505.0,506.0
542.0,510.0,548.0,504.0,505.0
524.0,506.0,539.0,573.0,506.0
564.0,508.0,521.0,615.0,495.0
597.0,509.0,505.0,586.0,504.0
542.0,504.0,497.0,535.0,497.0
511.0,503.0,504.0,518.0,496.0
477.0,490.0,480.0,450.0,530.0
485.0,479.0,447.0,508.0,549.0
505.0,480.0,447.0,540.0,523.0
497.0,492.0,455.0,543.0,503.0
518.0,505.0,477.0,539.0,494.0
495.0,507.0,497.0,577.0,479.0
482.0,512.0,510.0,532.0,485.0
502.0,513.0,493.0,416.0,504.0
538.0,518.0,478.0,455.0,495.0
517.0,502.0,464.0,494.0,494.0
496.0,489.0,446.0,454.0,516.0
558.0,507.0,473.0,492.0,466.0
545.0,503.0,495.0,506.0,457.0
538.0,498.0,504.0,560.0,451.0
519.0,467.0,472.0,540.0,494.0
496.0,489.0,540.0,578.0,514.0
541.0,508.0,585.0,586.0,515.0
550.0,519.0,592.0,558.0,518.0
544.0,514.0,596.0,565.0,509.0
540.0,517.0,588.0,557.0,486.0
531.0,530.0,566.0,483.0,505.0
520.0,528.0,544.0,417.0,529.0
513.0,520.0,517.0,425.0,535.0
504.0,502.0,487.0,437.0,554.0
469.0,500.0,465.0,493.0,543.0
432.0,489.0,460.0,547.0,507.0
435.0,498.0,486.0,618.0,477.0
465.0,517.0,513.0,645.0,478.0
526.0,519.0,524.0,623.0,481.0
540.0,512.0,528.0,598.0,458.0
528.0,517.0,544.0,527.0,473.0
539.0,503.0,532.0,514.0,479.0
514.0,504.0,518.0,511.0,488.0
491.0,507.0,479.0,450.0,501.0
473.0,492.0,457.0,444.0,508.0
498.0,498.0,464.0,435.0,532.0
533.0,517.0,492.0,448.0,536.0
558.0,520.0,507.0,428.0,553.0
542.0,494.0,479.0,444.0,582.0
526.0,490.0,499.0,478.0,592.0
490.0,486.0,520.0,465.0,587.0
472.0,501.0,525.0,510.0,565.0
463.0,492.0,524.0,491.0,528.0
455.0,493.0,538.0,448.0,511.0
453.0,499.0,536.0,417.0,516.0
470.0,514.0,555.0,447.0,511.0
415.0,508.0,542.0,538.0,525.0
490.0,507.0,509.0,540.0,516.0
515.0,494.0,470.0,551.0,504.0
469.0,496.0,488.0,612.0,504.0
462.0,492.0,505.0,677.0,496.0
538.0,502.0,516.0,665.0,482.0
614.0,521.0,538.0,585.0,464.0
622.0,522.0,586.0,587.0,471.0
580.0,531.0,592.0,507.0,503.0
579.0,551.0,588.0,535.0,484.0
548.0,533.0,548.0,523.0,499.0
530.0,515.0,525.0,507.0,521.0
521.0,484.0,512.0,461.0,539.0
518.0,493.0,547.0,459.0,517.0
538.0,501.0,551.0,484.0,495.0
544.0,514.0,542.0,487.0,485.0
509.0,491.0,505.0,499.0,483.0
434.0,475.0,479.0,511.0,484.0
409.0,467.0,441.0,521.0,496.0
362.0,454.0,412.0,540.0,517.0
385.0,470.0,424.0,536.0,538.0
483.0,483.0,460.0,552.0,534.0
542.0,512.0,527.0,560.0,508.0
529.0,532.0,547.0,522.0,547.0
486.0,535.0,573.0,530.0,547.0
422.0,513.0,585.0,458.0,577.0
400.0,506.0,569.0,402.0,574.0
461.0,514.0,550.0,424.0,556.0
596.0,522.0,537.0,454.0,521.0
625.0,537.0,528.0,483.0,487.0
611.0,536.0,547.0,504.0,485.0
595.0,541.0,539.0,507.0,477.0
622.0,533.0,518.0,545.0,484.0
609.0,530.0,532.0,585.0,480.0
558.0,519.0,521.0,553.0,476.0
512.0,513.0,523.0,506.0,492.0
501.0,517.0,541.0,487.0,508.0
512.0,499.0,517.0,467.0,512.0
537.0,509.0,515.0,494.0,495.0
569.0,521.0,508.0,510.0,465.0
567.0,491.0,468.0,507.0,482.0
542.0,496.0,480.0,527.0,472.0
545.0,512.0,501.0,552.0,462.0
550.0,518.0,497.0,546.0,494.0
536.0,512.0,506.0,545.0,535.0
532.0,513.0,502.0,484.0,536.0
507.0,524.0,502.0,506.0,534.0
490.0,531.0,523.0,586.0,511.0
485.0,509.0,500.0,521.0,508.0
479.0,491.0,492.0,514.0,492.0
515.0,480.0,489.0,547.0,487.0
545.0,495.0,491.0,567.0,485.0
532.0,511.0,515.0,558.0,480.0
535.0,513.0,496.0,482.0,492.0
521.0,510.0,489.0,439.0,502.0
511.0,503.0,482.0,436.0,509.0
518.0,493.0,482.0,470.0,524.0
502.0,492.0,498.0,491.0,523.0
496.0,501.0,541.0,541.0,526.0
512.0,511.0,537.0,570.0,536.0
519.0,511.0,503.0,551.0,567.0
518.0,512.0,487.0,518.0,550.0
535.0,518.0,508.0,498.0,508.0
530.0,508.0,515.0,433.0,504.0
513.0,509.0,511.0,459.0,502.0
511.0,510.0,537.0,548.0,504.0
510.0,509.0,557.0,579.0,491.0
492.0,484.0,522.0,521.0,512.0
443.0,464.0,466.0,505.0,546.0
430.0,472.0,475.0,540.0,524.0
377.0,462.0,478.0,514.0,539.0
323.0,453.0,481.0,469.0,570.0
383.0,477.0,483.0,447.0,570.0
463.0,518.0,497.0,462.0,549.0
532.0,565.0,542.0,473.0,524.0
588.0,536.0,528.0,488.0,513.0
613.0,525.0,537.0,567.0,488.0
553.0,521.0,537.0,547.0,513.0
505.0,507.0,546.0,563.0,535.0
482.0,515.0,545.0,564.0,517.0
531.0,522.0,501.0,535.0,507.0
556.0,521.0,497.0,530.0,503.0
591.0,524.0,506.0,578.0,488.0
603.0,525.0,486.0,593.0,493.0
581.0,535.0,488.0,604.0,467.0
543.0,529.0,514.0,580.0,467.0
475.0,489.0,483.0,465.0,514.0
430.0,468.0,472.0,488.0,541.0
409.0,456.0,473.0,502.0,524.0
420.0,490.0,518.0,512.0,506.0
393.0,503.0,553.0,498.0,546.0
396.0,514.0,560.0,466.0,578.0
543.0,525.0,584.0,489.0,530.0
613.0,534.0,585.0,458.0,533.0
548.0,528.0,580.0,468.0,542.0
489.0,526.0,570.0,486.0,527.0
515.0,524.0,544.0,485.0,478.0
589.0,516.0,530.0,497.0,452.0
573.0,508.0,530.0,492.0,458.0
556.0,514.0,530.0,533.0,438.0
532.0,501.0,488.0,539.0,465.0
526.0,492.0,478.0,539.0,497.0
557.0,485.0,458.0,548.0,499.0
509.0,487.0,467.0,541.0,516.0
463.0,478.0,473.0,494.0,528.0
453.0,479.0,481.0,438.0,526.0
442.0,490.0,507.0,512.0,532.0
440.0,500.0,493.0,478.0,516.0
495.0,506.0,490.0,447.0,533.0
568.0,531.0,561.0,559.0,538.0
573.0,540.0,589.0,599.0,543.0
607.0,535.0,565.0,616.0,537.0
538.0,509.0,510.0,550.0,555.0
502.0,493.0,505.0,520.0,545.0
472.0,479.0,498.0,476.0,541.0
490.0,486.0,497.0,437.0,509.0
476.0,484.0,489.0,501.0,490.0
488.0,501.0,491.0,568.0,478.0
476.0,476.0,442.0,542.0,512.0
457.0,466.0,452.0,600.0,482.0
451.0,467.0,453.0,564.0,468.0
424.0,496.0,467.0,539.0,481.0
395.0,516.0,486.0,469.0,521.0
497.0,518.0,482.0,412.0,521.0
600.0,521.0,482.0,355.0,533.0
651.0,551.0,544.0,463.0,532.0
632.0,558.0,600.0,520.0,504.0
608.0,557.0,624.0,553.0,494.0
589.0,537.0,583.0,506.0,514.0
591.0,531.0,568.0,491.0,519.0
571.0,522.0,535.0,537.0,508.0
562.0,507.0,498.0,536.0,506.0
568.0,519.0,478.0,562.0,486.0
553.0,528.0,479.0,542.0,476.0
515.0,516.0,493.0,563.0,465.0
471.0,513.0,507.0,570.0,485.0
443.0,507.0,518.0,479.0,520.0
405.0,474.0,537.0,439.0,546.0
464.0,491.0,528.0,451.0,553.0
588.0,526.0,522.0,477.0,533.0
605.0,547.0,513.0,505.0,505.0
568.0,535.0,506.0,500.0,491.0
550.0,531.0,535.0,478.0,497.0
523.0,533.0,516.0,461.0,546.0
519.0,535.0,531.0,418.0,527.0
496.0,529.0,580.0,517.0,527.0
512.0,495.0,544.0,544.0,523.0
527.0,485.0,540.0,519.0,519.0
532.0,499.0,540.0,494.0,506.0
523.0,493.0,492.0,484.0,496.0
505.0,479.0,495.0,486.0,511.0
488.0,466.0,481.0,502.0,504.0
478.0,472.0,472.0,492.0,508.0
484.0,481.0,437.0,440.0,522.0
478.0,473.0,458.0,473.0,548.0
445.0,461.0,493.0,534.0,577.0
484.0,504.0,525.0,532.0,547.0
473.0,512.0,532.0,551.0,540.0
500.0,513.0,547.0,612.0,521.0
522.0,538.0,593.0,646.0,497.0
506.0,539.0,601.0,615.0,495.0
483.0,515.0,562.0,535.0,524.0
466.0,496.0,535.0,574.0,524.0
461.0,494.0,488.0,555.0,526.0
427.0,496.0,467.0,525.0,537.0
442.0,500.0,475.0,519.0,531.0
557.0,515.0,489.0,479.0,493.0
600.0,522.0,510.0,476.0,467.0
614.0,517.0,522.0,518.0,455.0
612.0,505.0,520.0,557.0,466.0
579.0,488.0,519.0,508.0,493.0
547.0,506.0,554.0,505.0,489.0
533.0,514.0,558.0,522.0,501.0
532.0,512.0,542.0,534.0,521.0
519.0,518.0,554.0,598.0,486.0
473.0,512.0,549.0,584.0,506.0
400.0,507.0,515.0,483.0,513.0
378.0,490.0,461.0,441.0,529.0
333.0,477.0,436.0,501.0,534.0
361.0,482.0,431.0,563.0,541.0
540.0,512.0,457.0,605.0,502.0
532.0,496.0,415.0,527.0,521.0
498.0,465.0,382.0,484.0,525.0
485.0,466.0,393.0,428.0,515.0
411.0,467.0,398.0,416.0,527.0
318.0,451.0,445.0,463.0,519.0
350.0,440.0,443.0,392.0,521.0
563.0,504.0,532.0,522.0,487.0
604.0,524.0,564.0,507.0,553.0
615.0,542.0,564.0,520.0,561.0
678.0,554.0,575.0,511.0,514.0
664.0,559.0,586.0,502.0,507.0
658.0,574.0,626.0,511.0,499.0
624.0,553.0,611.0,520.0,517.0
585.0,533.0,599.0,512.0,539.0
601.0,556.0,570.0,468.0,503.0
590.0,538.0,532.0,458.0,489.0
583.0,529.0,532.0,495.0,483.0
589.0,523.0,540.0,509.0,483.0
587.0,532.0,555.0,525.0,462.0
552.0,521.0,559.0,576.0,482.0
517.0,506.0,543.0,627.0,513.0
497.0,500.0,535.0,554.0,520.0
502.0,510.0,526.0,541.0,515.0
486.0,501.0,525.0,547.0,522.0
483.0,488.0,517.0,537.0,532.0
482.0,495.0,518.0,526.0,542.0
468.0,500.0,501.0,516.0,542.0
436.0,498.0,493.0,481.0,557.0
433.0,508.0,498.0,455.0,542.0
449.0,511.0,504.0,473.0,554.0
544.0,503.0,504.0,513.0,543.0
570.0,508.0,516.0,526.0,522.0
544.0,507.0,486.0,501.0,511.0
549.0,502.0,443.0,524.0,494.0
533.0,522.0,464.0,590.0,441.0
547.0,554.0,476.0,639.0,415.0
560.0,583.0,486.0,750.0,413.0
550.0,537.0,454.0,693.0,441.0
515.0,475.0,437.0,564.0,476.0
529.0,495.0,504.0,507.0,486.0
520.0,507.0,533.0,453.0,524.0
477.0,484.0,530.0,377.0,571.0
461.0,470.0,525.0,314.0,613.0
480.0,494.0,554.0,392.0,580.0
498.0,512.0,556.0,498.0,543.0
505.0,509.0,559.0,480.0,521.0
509.0,526.0,556.0,432.0,528.0
519.0,538.0,584.0,524.0,539.0
522.0,525.0,531.0,538.0,520.0
502.0,523.0,488.0,517.0,514.0
509.0,497.0,429.0,536.0,503.0
502.0,475.0,408.0,484.0,509.0
488.0,449.0,392.0,442.0,522.0
504.0,433.0,373.0,385.0,517.0
556.0,483.0,493.0,480.0,492.0
525.0,483.0,522.0,555.0,521.0
488.0,478.0,521.0,541.0,527.0
470.0,499.0,571.0,542.0,556.0
427.0,485.0,562.0,502.0,570.0
379.0,474.0,542.0,471.0,558.0
379.0,491.0,535.0,461.0,529.0
385.0,495.0,507.0,461.0,526.0
439.0,509.0,526.0,532.0,506.0
542.0,532.0,546.0,593.0,454.0
629.0,543.0,598.0,754.0,386.0
614.0,550.0,632.0,731.0,392.0
524.0,547.0,635.0,597.0,470.0
486.0,538.0,628.0,488.0,548.0
570.0,535.0,603.0,499.0,566.0
602.0,519.0,538.0,459.0,582.0
551.0,504.0,520.0,447.0,574.0
481.0,489.0,504.0,440.0,564.0
446.0,488.0,505.0,471.0,551.0
395.0,475.0,487.0,461.0,544.0
380.0,477.0,468.0,463.0,529.0
496.0,511.0,488.0,490.0,505.0
664.0,538.0,509.0,508.0,481.0
628.0,526.0,513.0,514.0,517.0
568.0,535.0,549.0,524.0,507.0
556.0,523.0,559.0,561.0,503.0
496.0,492.0,537.0,549.0,528.0
460.0,498.0,515.0,493.0,549.0
471.0,501.0,497.0,473.0,555.0
512.0,506.0,494.0,474.0,520.0
531.0,518.0,479.0,486.0,518.0
584.0,539.0,477.0,513.0,496.0
576.0,524.0,452.0,581.0,477.0
538.0,487.0,438.0,572.0,493.0
477.0,460.0,445.0,569.0,513.0
396.0,451.0,472.0,581.0,523.0
339.0,457.0,505.0,574.0,521.0
287.0,444.0,511.0,471.0,551.0
345.0,461.0,507.0,455.0,561.0
516.0,507.0,497.0,430.0,533.0
695.0,560.0,504.0,462.0,480.0
720.0,579.0,504.0,444.0,476.0
694.0,592.0,490.0,444.0,486.0
680.0,569.0,447.0,471.0,451.0
634.0,536.0,412.0,537.0,444.0
579.0,490.0,365.0,626.0,477.0
553.0,452.0,372.0,594.0,502.0
547.0,484.0,447.0,576.0,445.0
519.0,512.0,555.0,566.0,465.0
517.0,514.0,597.0,538.0,500.0
524.0,514.0,585.0,490.0,500.0
517.0,523.0,626.0,496.0,518.0
511.0,535.0,703.0,552.0,527.0
458.0,507.0,625.0,535.0,544.0
437.0,493.0,540.0,425.0,594.0
467.0,484.0,501.0,442.0,570.0
454.0,480.0,476.0,452.0,567.0
482.0,524.0,463.0,465.0,530.0
483.0,531.0,464.0,474.0,538.0
489.0,506.0,465.0,440.0,574.0
497.0,509.0,471.0,431.0,544.0
540.0,503.0,462.0,464.0,522.0
545.0,497.0,501.0,558.0,509.0
540.0,505.0,563.0,606.0,493.0
545.0,505.0,567.0,608.0,477.0
580.0,503.0,546.0,603.0,440.0
550.0,512.0,518.0,589.0,442.0
542.0,502.0,468.0,533.0,450.0
549.0,485.0,431.0,508.0,464.0
537.0,476.0,410.0,510.0,501.0
512.0,477.0,425.0,466.0,528.0
536.0,481.0,453.0,442.0,535.0
534.0,505.0,555.0,501.0,543.0
518.0,494.0,595.0,622.0,533.0
511.0,517.0,612.0,588.0,541.0
489.0,528.0,605.0,580.0,535.0
436.0,514.0,596.0,507.0,533.0
448.0,516.0,605.0,484.0,528.0
496.0,540.0,609.0,510.0,485.0
500.0,524.0,566.0,582.0,478.0
522.0,513.0,573.0,609.0,451.0
527.0,519.0,551.0,667.0,443.0
514.0,526.0,557.0,623.0,444.0
489.0,524.0,532.0,536.0,432.0
450.0,509.0,513.0,469.0,438.0
502.0,508.0,505.0,407.0,473.0
503.0,492.0,501.0,388.0,555.0
474.0,483.0,488.0,354.0,638.0
439.0,484.0,471.0,384.0,639.0
419.0,488.0,496.0,470.0,597.0
365.0,488.0,462.0,512.0,575.0
363.0,484.0,436.0,500.0,567.0
377.0,472.0,405.0,481.0,554.0
473.0,499.0,440.0,529.0,509.0
520.0,506.0,459.0,525.0,488.0
568.0,528.0,495.0,521.0,477.0
639.0,554.0,551.0,506.0,482.0
623.0,525.0,558.0,510.0,502.0
624.0,523.0,586.0,542.0,457.0
583.0,532.0,611.0,585.0,470.0
605.0,528.0,613.0,558.0,523.0
608.0,527.0,614.0,541.0,524.0
509.0,522.0,599.0,527.0,534.0
479.0,516.0,570.0,497.0,519.0
493.0,497.0,531.0,484.0,534.0
525.0,501.0,513.0,486.0,532.0
555.0,517.0,541.0,512.0,541.0
577.0,529.0,542.0,514.0,540.0
585.0,538.0,539.0,493.0,538.0
561.0,530.0,541.0,510.0,519.0
531.0,514.0,535.0,558.0,502.0
526.0,508.0,506.0,553.0,508.0
478.0,490.0,484.0,529.0,512.0
451.0,493.0,475.0,527.0,504.0
466.0,486.0,465.0,511.0,486.0
465.0,468.0,452.0,471.0,482.0
438.0,467.0,442.0,392.0,535.0
502.0,475.0,462.0,509.0,492.0
582.0,512.0,509.0,620.0,441.0
600.0,507.0,491.0,634.0,451.0
540.0,494.0,451.0,541.0,503.0
531.0,500.0,436.0,503.0,493.0
544.0,493.0,417.0,478.0,492.0
544.0,518.0,438.0,486.0,553.0
559.0,513.0,429.0,506.0,538.0
541.0,485.0,441.0,525.0,489.0
530.0,489.0,496.0,509.0,463.0
560.0,551.0,552.0,551.0,453.0
609.0,575.0,581.0,635.0,412.0
583.0,577.0,598.0,628.0,435.0
578.0,600.0,605.0,552.0,480.0
554.0,577.0,570.0,473.0,541.0
512.0,503.0,510.0,531.0,519.0
458.0,464.0,471.0,512.0,523.0
455.0,464.0,477.0,481.0,547.0
429.0,447.0,474.0,496.0,533.0
438.0,459.0,487.0,506.0,545.0
447.0,467.0,510.0,455.0,566.0
468.0,481.0,508.0,420.0,584.0
477.0,482.0,454.0,476.0,561.0
441.0,484.0,415.0,438.0,574.0
426.0,483.0,438.0,454.0,568.0
426.0,480.0,433.0,464.0,566.0
444.0,507.0,438.0,485.0,543.0
503.0,514.0,445.0,466.0,510.0
594.0,476.0,455.0,427.0,500.0
634.0,518.0,517.0,424.0,475.0
577.0,547.0,615.0,616.0,451.0
537.0,529.0,643.0,656.0,484.0
576.0,508.0,604.0,543.0,512.0
565.0,504.0,607.0,523.0,507.0
537.0,509.0,631.0,540.0,505.0
525.0,524.0,613.0,541.0,526.0
529.0,539.0,629.0,575.0,514.0
521.0,528.0,637.0,593.0,506.0
535.0,509.0,613.0,552.0,503.0
494.0,481.0,575.0,486.0,548.0
448.0,479.0,550.0,473.0,566.0
441.0,488.0,517.0,484.0,564.0
429.0,494.0,500.0,489.0,580.0
458.0,503.0,484.0,515.0,588.0
570.0,535.0,515.0,524.0,527.0
595.0,579.0,524.0,516.0,467.0
615.0,569.0,537.0,573.0,427.0
551.0,540.0,519.0,606.0,421.0
519.0,532.0,539.0,576.0,433.0
516.0,517.0,563.0,552.0,435.0
507.0,498.0,542.0,468.0,480.0
449.0,482.0,499.0,497.0,524.0
419.0,466.0,459.0,479.0,546.0
360.0,458.0,434.0,456.0,576.0
387.0,473.0,434.0,472.0,542.0
456.0,490.0,484.0,535.0,497.0
546.0,504.0,499.0,509.0,464.0
565.0,527.0,523.0,479.0,482.0
547.0,518.0,532.0,493.0,503.0
520.0,511.0,518.0,522.0,528.0
472.0,522.0,545.0,553.0,538.0
428.0,533.0,571.0,590.0,556.0
499.0,536.0,602.0,545.0,555.0
476.0,531.0,589.0,546.0,535.0
579.0,531.0,562.0,517.0,498.0
666.0,548.0,566.0,519.0,461.0
607.0,532.0,553.0,508.0,472.0
550.0,518.0,551.0,492.0,475.0
525.0,493.0,516.0,487.0,477.0
494.0,477.0,490.0,529.0,484.0
480.0,469.0,460.0,523.0,523.0
501.0,498.0,444.0,520.0,530.0
584.0,521.0,441.0,599.0,515.0
576.0,509.0,454.0,593.0,511.0
488.0,479.0,468.0,591.0,503.0
426.0,486.0,469.0,437.0,524.0
425.0,507.0,463.0,452.0,490.0
456.0,493.0,443.0,455.0,492.0
525.0,512.0,471.0,495.0,492.0
605.0,517.0,469.0,492.0,507.0
621.0,513.0,430.0,501.0,487.0
603.0,492.0,414.0,474.0,492.0
537.0,493.0,431.0,479.0,513.0
530.0,521.0,468.0,444.0,521.0
530.0,523.0,505.0,423.0,493.0
548.0,494.0,518.0,490.0,480.0
547.0,513.0,542.0,500.0,497.0
529.0,510.0,545.0,544.0,543.0
514.0,471.0,525.0,546.0,562.0
495.0,489.0,534.0,570.0,554.0
493.0,522.0,571.0,600.0,538.0
511.0,519.0,579.0,585.0,515.0
506.0,518.0,573.0,486.0,515.0
526.0,517.0,560.0,440.0,531.0
549.0,524.0,572.0,469.0,519.0
526.0,520.0,591.0,516.0,510.0
553.0,538.0,605.0,584.0,461.0
561.0,557.0,646.0,628.0,428.0
552.0,554.0,624.0,572.0,435.0
532.0,515.0,557.0,539.0,450.0
517.0,512.0,541.0,568.0,481.0
505.0,502.0,521.0,538.0,525.0
492.0,485.0,479.0,408.0,562.0
495.0,482.0,457.0,408.0,568.0
507.0,504.0,482.0,452.0,561.0
532.0,535.0,521.0,482.0,554.0
521.0,525.0,519.0,516.0,544.0
518.0,513.0,502.0,524.0,525.0
540.0,505.0,490.0,526.0,500.0
494.0,509.0,506.0,540.0,515.0
436.0,488.0,488.0,550.0,540.0
389.0,474.0,495.0,532.0,549.0
438.0,481.0,518.0,517.0,545.0
496.0,493.0,497.0,439.0,532.0
519.0,489.0,481.0,466.0,502.0
559.0,507.0,508.0,521.0,466.0
564.0,500.0,473.0,539.0,460.0
533.0,484.0,407.0,514.0,495.0
532.0,485.0,411.0,537.0,496.0
504.0,474.0,399.0,511.0,510.0
475.0,483.0,440.0,490.0,518.0
473.0,503.0,493.0,517.0,519.0
466.0,503.0,546.0,501.0,545.0
463.0,507.0,534.0,470.0,561.0
482.0,507.0,508.0,443.0,551.0
537.0,516.0,550.0,506.0,524.0
494.0,504.0,545.0,516.0,525.0
467.0,513.0,551.0,530.0,511.0
469.0,528.0,562.0,550.0,472.0
556.0,532.0,598.0,556.0,453.0
579.0,534.0,614.0,561.0,473.0
500.0,516.0,614.0,616.0,509.0
510.0,504.0,567.0,559.0,521.0
524.0,508.0,575.0,546.0,506.0
524.0,509.0,555.0,572.0,513.0
558.0,518.0,538.0,622.0,518.0
556.0,520.0,501.0,642.0,516.0
557.0,520.0,486.0,570.0,504.0
555.0,518.0,488.0,494.0,515.0
542.0,512.0,479.0,389.0,548.0
542.0,502.0,483.0,426.0,546.0
530.0,495.0,501.0,452.0,549.0
488.0,496.0,523.0,490.0,555.0
426.0,495.0,542.0,478.0,540.0
366.0,478.0,529.0,450.0,526.0
360.0,486.0,520.0,490.0,512.0
391.0,502.0,540.0,521.0,507.0
468.0,526.0,565.0,545.0,472.0
588.0,553.0,570.0,568.0,441.0
674.0,546.0,541.0,544.0,456.0
654.0,519.0,505.0,514.0,457.0
539.0,482.0,452.0,520.0,497.0
467.0,472.0,424.0,493.0,512.0
450.0,490.0,409.0,444.0,516.0
432.0,486.0,414.0,413.0,543.0
415.0,468.0,402.0,445.0,544.0
529.0,504.0,470.0,481.0,481.0
639.0,541.0,518.0,564.0,450.0
665.0,541.0,561.0,562.0,463.0
599.0,534.0,510.0,487.0,484.0
538.0,520.0,479.0,451.0,527.0
494.0,492.0,476.0,443.0,606.0
492.0,489.0,493.0,470.0,594.0
500.0,517.0,531.0,534.0,541.0
495.0,506.0,513.0,569.0,504.0
541.0,515.0,485.0,564.0,495.0
538.0,521.0,478.0,645.0,480.0
583.0,524.0,486.0,646.0,462.0
553.0,495.0,482.0,582.0,492.0
522.0,458.0,477.0,488.0,517.0
505.0,476.0,517.0,475.0,533.0
540.0,505.0,567.0,510.0,531.0
548.0,534.0,635.0,517.0,515.0
538.0,537.0,676.0,548.0,503.0
531.0,545.0,656.0,491.0,508.0
524.0,546.0,621.0,466.0,517.0
520.0,534.0,590.0,502.0,523.0
519.0,518.0,539.0,495.0,498.0
541.0,503.0,492.0,471.0,451.0
544.0,500.0,482.0,473.0,458.0
543.0,512.0,514.0,517.0,467.0
522.0,504.0,538.0,553.0,475.0
512.0,510.0,540.0,538.0,485.0
502.0,498.0,511.0,523.0,493.0
507.0,506.0,509.0,550.0,510.0
494.0,499.0,511.0,533.0,518.0
484.0,498.0,514.0,509.0,519.0
475.0,498.0,466.0,517.0,528.0
493.0,523.0,461.0,580.0,544.0
509.0,519.0,458.0,572.0,519.0
521.0,512.0,470.0,539.0,525.0
508.0,508.0,503.0,534.0,524.0
505.0,506.0,528.0,510.0,502.0
511.0,494.0,535.0,533.0,511.0
540.0,518.0,590.0,586.0,540.0
509.0,524.0,571.0,528.0,539.0
511.0,533.0,558.0,520.0,505.0
507.0,523.0,544.0,573.0,480.0
530.0,504.0,493.0,512.0,483.0
514.0,491.0,460.0,441.0,525.0
474.0,476.0,452.0,410.0,555.0
452.0,475.0,469.0,436.0,555.0
469.0,499.0,515.0,458.0,532.0
488.0,504.0,508.0,440.0,532.0
501.0,503.0,495.0,455.0,515.0
436.0,492.0,460.0,514.0,517.0
444.0,486.0,454.0,495.0,559.0
528.0,497.0,466.0,503.0,553.0
505.0,488.0,488.0,513.0,527.0
468.0,464.0,508.0,534.0,504.0
523.0,484.0,513.0,508.0,489.0
507.0,509.0,574.0,506.0,489.0
484.0,523.0,620.0,579.0,497.0
566.0,550.0,621.0,561.0,473.0
599.0,538.0,582.0,536.0,468.0
595.0,533.0,553.0,546.0,500.0
565.0,514.0,535.0,566.0,481.0
515.0,500.0,497.0,587.0,471.0
496.0,486.0,476.0,562.0,494.0
475.0,490.0,463.0,500.0,532.0
449.0,487.0,453.0,453.0,555.0
490.0,478.0,458.0,434.0,558.0
558.0,510.0,486.0,441.0,540.0
525.0,521.0,505.0,451.0,532.0
522.0,525.0,512.0,461.0,521.0
532.0,536.0,543.0,506.0,516.0
520.0,532.0,560.0,535.0,525.0
515.0,530.0,538.0,519.0,537.0
549.0,516.0,528.0,509.0,521.0
558.0,519.0,549.0,529.0,508.0
501.0,521.0,571.0,544.0,506.0
491.0,516.0,580.0,556.0,494.0
469.0,509.0,547.0,557.0,502.0
473.0,494.0,525.0,552.0,523.0
534.0,495.0,523.0,559.0,512.0
557.0,496.0,514.0,572.0,494.0
562.0,500.0,491.0,497.0,503.0
530.0,504.0,499.0,502.0,474.0
506.0,501.0,471.0,471.0,469.0
510.0,511.0,448.0,454.0,481.0
505.0,509.0,452.0,460.0,486.0
485.0,500.0,497.0,525.0,498.0
485.0,493.0,496.0,555.0,519.0
468.0,486.0,495.0,563.0,578.0
511.0,500.0,522.0,509.0,569.0
586.0,518.0,553.0,512.0,502.0
598.0,534.0,602.0,527.0,469.0
569.0,530.0,592.0,588.0,500.0
541.0,528.0,540.0,592.0,515.0
528.0,540.0,506.0,613.0,485.0
512.0,523.0,485.0,585.0,495.0
517.0,517.0,453.0,559.0,487.0
510.0,493.0,413.0,497.0,517.0
512.0,482.0,411.0,434.0,489.0
511.0,493.0,446.0,390.0,467.0
502.0,508.0,499.0,423.0,474.0
475.0,492.0,497.0,464.0,507.0
504.0,506.0,531.0,489.0,516.0
567.0,517.0,559.0,493.0,489.0
541.0,514.0,565.0,469.0,540.0
535.0,520.0,573.0,479.0,545.0
536.0,507.0,554.0,509.0,522.0
511.0,481.0,544.0,532.0,518.0
517.0,493.0,559.0,552.0,492.0
546.0,509.0,581.0,610.0,470.0
535.0,509.0,565.0,595.0,455.0
514.0,476.0,520.0,552.0,464.0
502.0,464.0,493.0,508.0,499.0
500.0,477.0,493.0,481.0,535.0
509.0,491.0,530.0,511.0,523.0
513.0,512.0,566.0,553.0,496.0
516.0,512.0,568.0,541.0,491.0
514.0,523.0,546.0,502.0,514.0
499.0,528.0,529.0,497.0,571.0
497.0,532.0,538.0,512.0,609.0
501.0,529.0,537.0,527.0,604.0
493.0,515.0,542.0,504.0,576.0
486.0,508.0,551.0,512.0,530.0
479.0,514.0,555.0,527.0,525.0
491.0,526.0,565.0,540.0,510.0
554.0,535.0,557.0,530.0,481.0
580.0,530.0,517.0,546.0,463.0
557.0,525.0,504.0,569.0,462.0
529.0,506.0,494.0,554.0,460.0
491.0,487.0,476.0,513.0,462.0
467.0,485.0,465.0,476.0,502.0
477.0,486.0,470.0,469.0,537.0
444.0,498.0,499.0,482.0,535.0
475.0,514.0,528.0,504.0,518.0
543.0,538.0,549.0,499.0,510.0
515.0,533.0,561.0,486.0,533.0
518.0,528.0,561.0,505.0,539.0
539.0,515.0,544.0,509.0,530.0
539.0,511.0,518.0,527.0,511.0
514.0,496.0,469.0,501.0,514.0
445.0,477.0,443.0,508.0,516.0
398.0,462.0,417.0,486.0,534.0
358.0,455.0,398.0,475.0,530.0
378.0,463.0,407.0,491.0,534.0
455.0,463.0,453.0,503.0,536.0
631.0,528.0,533.0,571.0,492.0
716.0,564.0,593.0,601.0,471.0
647.0,543.0,598.0,572.0,456.0
596.0,526.0,579.0,532.0,449.0
559.0,522.0,559.0,512.0,519.0
555.0,527.0,531.0,500.0,528.0
518.0,518.0,525.0,494.0,513.0
490.0,514.0,489.0,521.0,532.0
482.0,513.0,467.0,583.0,534.0
490.0,508.0,440.0,614.0,521.0
499.0,510.0,454.0,632.0,478.0
565.0,511.0,477.0,586.0,480.0
560.0,516.0,506.0,523.0,492.0
540.0,518.0,542.0,473.0,468.0
554.0,528.0,576.0,478.0,500.0
557.0,524.0,587.0,493.0,518.0
534.0,515.0,573.0,488.0,516.0
513.0,496.0,548.0,479.0,517.0
506.0,489.0,527.0,465.0,522.0
504.0,498.0,531.0,485.0,507.0
515.0,505.0,531.0,494.0,493.0
522.0,512.0,533.0,505.0,500.0
522.0,512.0,517.0,501.0,495.0
524.0,528.0,512.0,506.0,507.0
502.0,520.0,500.0,498.0,528.0
477.0,495.0,473.0,467.0,529.0
482.0,485.0,469.0,470.0,537.0
504.0,477.0,465.0,485.0,527.0
499.0,480.0,464.0,533.0,529.0
531.0,502.0,468.0,581.0,521.0
552.0,506.0,458.0,523.0,496.0
543.0,505.0,485.0,483.0,476.0
533.0,508.0,493.0,450.0,485.0
514.0,507.0,491.0,501.0,480.0
506.0,488.0,482.0,488.0,481.0
490.0,476.0,515.0,487.0,479.0
504.0,498.0,536.0,489.0,480.0
500.0,495.0,500.0,476.0,511.0
502.0,488.0,489.0,519.0,533.0
513.0,494.0,506.0,484.0,547.0
504.0,502.0,538.0,442.0,554.0
506.0,523.0,537.0,474.0,553.0
510.0,522.0,558.0,545.0,562.0
513.0,510.0,560.0,606.0,533.0
538.0,514.0,562.0,657.0,486.0
568.0,527.0,555.0,641.0,473.0
544.0,513.0,606.0,531.0,501.0
531.0,495.0,566.0,479.0,508.0
521.0,488.0,563.0,506.0,518.0
520.0,482.0,569.0,547.0,490.0
504.0,475.0,548.0,540.0,506.0
499.0,463.0,525.0,549.0,506.0
495.0,479.0,515.0,518.0,522.0
493.0,507.0,533.0,512.0,524.0
496.0,533.0,524.0,496.0,526.0
506.0,545.0,524.0,500.0,534.0
519.0,552.0,532.0,506.0,544.0
528.0,539.0,536.0,511.0,531.0
517.0,531.0,537.0,516.0,534.0
512.0,532.0,534.0,516.0,525.0
526.0,531.0,524.0,498.0,512.0
529.0,530.0,533.0,509.0,492.0
522.0,532.0,534.0,526.0,486.0
517.0,518.0,531.0,532.0,488.0
504.0,527.0,525.0,531.0,501.0
474.0,517.0,523.0,535.0,498.0
454.0,501.0,510.0,540.0,487.0
476.0,507.0,513.0,567.0,493.0
462.0,502.0,496.0,555.0,507.0
451.0,504.0,490.0,536.0,547.0
533.0,508.0,497.0,515.0,557.0
521.0,503.0,491.0,487.0,573.0
500.0,498.0,499.0,480.0,539.0
492.0,507.0,518.0,488.0,530.0
485.0,505.0,507.0,492.0,524.0
501.0,509.0,501.0,501.0,516.0
530.0,518.0,515.0,547.0,497.0
556.0,512.0,519.0,561.0,499.0
556.0,527.0,542.0,560.0,488.0
541.0,535.0,555.0,572.0,470.0
520.0,529.0,553.0,528.0,469.0
490.0,506.0,520.0,515.0,494.0
544.0,512.0,512.0,504.0,506.0
564.0,510.0,509.0,514.0,500.0
522.0,500.0,497.0,518.0,499.0
535.0,500.0,505.0,526.0,505.0
526.0,499.0,511.0,506.0,529.0
517.0,513.0,521.0,486.0,533.0
537.0,516.0,512.0,473.0,533.0
548.0,527.0,500.0,485.0,533.0
536.0,515.0,466.0,514.0,525.0
540.0,513.0,464.0,519.0,507.0
535.0,507.0,480.0,519.0,498.0
528.0,500.0,480.0,508.0,491.0
535.0,503.0,489.0,503.0,487.0
521.0,500.0,514.0,521.0,476.0
521.0,502.0,525.0,519.0,499.0
551.0,506.0,544.0,532.0,491.0
532.0,513.0,576.0,557.0,501.0
510.0,505.0,564.0,542.0,510.0
503.0,492.0,528.0,523.0,501.0
497.0,492.0,512.0,511.0,507.0
501.0,499.0,516.0,503.0,517.0
509.0,508.0,520.0,500.0,527.0
508.0,503.0,519.0,500.0,541.0
510.0,499.0,514.0,508.0,527.0
497.0,488.0,508.0,498.0,537.0
516.0,493.0,506.0,508.0,523.0
522.0,510.0,491.0,493.0,511.0
532.0,500.0,500.0,496.0,507.0
524.0,482.0,502.0,492.0,508.0
522.0,493.0,474.0,528.0,506.0
523.0,494.0,508.0,534.0,510.0
527.0,501.0,509.0,582.0,499.0
517.0,487.0,480.0,571.0,512.0
506.0,485.0,474.0,501.0,514.0
508.0,518.0,491.0,453.0,514.0
506.0,529.0,530.0,495.0,503.0
500.0,497.0,503.0,474.0,507.0
497.0,497.0,487.0,473.0,514.0
503.0,535.0,506.0,491.0,525.0
511.0,531.0,496.0,489.0,531.0
517.0,519.0,484.0,490.0,529.0
524.0,496.0,514.0,546.0,510.0
509.0,456.0,491.0,560.0,521.0
494.0,430.0,486.0,506.0,549.0
493.0,424.0,468.0,476.0,559.0
510.0,451.0,536.0,515.0,542.0
524.0,499.0,574.0,546.0,523.0
523.0,542.0,584.0,556.0,510.0
525.0,561.0,575.0,542.0,492.0
525.0,537.0,554.0,515.0,477.0
522.0,529.0,521.0,501.0,490.0
514.0,506.0,528.0,522.0,500.0
512.0,510.0,556.0,536.0,509.0
505.0,534.0,540.0,528.0,508.0
508.0,527.0,536.0,511.0,512.0
516.0,536.0,550.0,514.0,513.0
509.0,534.0,549.0,513.0,519.0
517.0,540.0,544.0,502.0,524.0
525.0,555.0,552.0,503.0,525.0
526.0,537.0,535.0,505.0,545.0
522.0,525.0,517.0,489.0,545.0
520.0,525.0,524.0,492.0,550.0
523.0,525.0,530.0,509.0,543.0
525.0,518.0,529.0,525.0,531.0
526.0,517.0,540.0,552.0,509.0
522.0,523.0,551.0,551.0,493.0
515.0,527.0,548.0,562.0,478.0
507.0,519.0,536.0,562.0,486.0
505.0,505.0,514.0,545.0,470.0
498.0,495.0,495.0,545.0,480.0
497.0,496.0,500.0,537.0,502.0
499.0,500.0,500.0,526.0,532.0
501.0,504.0,501.0,505.0,539.0
517.0,513.0,505.0,498.0,537.0
517.0,515.0,507.0,484.0,540.0
512.0,514.0,513.0,491.0,519.0
502.0,519.0,520.0,495.0,507.0
491.0,513.0,517.0,493.0,514.0
467.0,497.0,517.0,492.0,537.0
458.0,505.0,517.0,503.0,532.0
487.0,512.0,533.0,524.0,511.0
502.0,511.0,527.0,532.0,494.0
481.0,502.0,519.0,531.0,504.0
518.0,504.0,518.0,535.0,494.0
564.0,506.0,515.0,537.0,484.0
535.0,498.0,507.0,531.0,507.0
505.0,490.0,497.0,519.0,518.0
506.0,491.0,499.0,510.0,525.0
509.0,500.0,502.0,505.0,536.0
504.0,504.0,507.0,504.0,543.0
529.0,517.0,514.0,508.0,529.0
572.0,529.0,527.0,511.0,513.0
558.0,517.0,522.0,506.0,510.0
536.0,503.0,516.0,500.0,525.0
554.0,499.0,514.0,506.0,505.0
542.0,497.0,517.0,510.0,511.0
553.0,498.0,525.0,516.0,496.0
549.0,504.0,525.0,526.0,466.0
548.0,531.0,533.0,541.0,449.0
542.0,532.0,532.0,544.0,475.0
517.0,519.0,519.0,537.0,546.0
516.0,507.0,511.0,531.0,537.0
518.0,501.0,506.0,531.0,507.0
515.0,501.0,507.0,524.0,498.0
512.0,500.0,502.0,513.0,518.0
517.0,502.0,503.0,505.0,516.0
518.0,510.0,510.0,508.0,526.0
520.0,515.0,514.0,506.0,542.0
528.0,519.0,516.0,499.0,547.0
523.0,515.0,516.0,496.0,550.0
521.0,506.0,513.0,495.0,546.0
513.0,498.0,516.0,505.0,534.0
512.0,492.0,514.0,506.0,523.0
513.0,483.0,514.0,515.0,514.0
523.0,496.0,528.0,534.0,489.0
530.0,492.0,525.0,539.0,482.0
528.0,479.0,521.0,546.0,484.0
512.0,473.0,518.0,543.0,490.0
500.0,471.0,504.0,535.0,488.0
490.0,448.0,488.0,522.0,500.0
495.0,454.0,498.0,509.0,501.0
497.0,463.0,501.0,505.0,512.0
500.0,480.0,508.0,495.0,524.0
509.0,478.0,509.0,489.0,528.0
510.0,506.0,495.0,498.0,530.0
510.0,534.0,531.0,503.0,527.0
512.0,519.0,544.0,517.0,522.0
515.0,514.0,535.0,521.0,525.0
522.0,503.0,538.0,514.0,532.0
521.0,509.0,530.0,496.0,529.0
521.0,524.0,515.0,511.0,515.0
522.0,529.0,510.0,528.0,507.0
524.0,513.0,508.0,509.0,496.0
516.0,490.0,463.0,510.0,494.0
517.0,488.0,477.0,539.0,496.0
507.0,485.0,484.0,550.0,500.0
493.0,474.0,486.0,529.0,515.0
492.0,486.0,511.0,512.0,521.0
508.0,522.0,515.0,513.0,522.0
514.0,524.0,492.0,503.0,524.0
512.0,517.0,494.0,487.0,549.0
514.0,518.0,514.0,483.0,553.0
520.0,519.0,535.0,487.0,538.0
519.0,539.0,529.0,495.0,535.0
521.0,559.0,526.0,497.0,531.0
526.0,559.0,541.0,521.0,519.0
522.0,529.0,541.0,528.0,510.0
527.0,534.0,541.0,535.0,502.0
534.0,534.0,539.0,547.0,501.0
526.0,529.0,522.0,555.0,503.0
519.0,517.0,511.0,552.0,498.0
502.0,503.0,504.0,540.0,502.0
493.0,489.0,494.0,523.0,515.0
499.0,502.0,499.0,512.0,527.0
501.0,502.0,508.0,504.0,546.0
505.0,502.0,510.0,498.0,543.0
507.0,510.0,516.0,495.0,547.0
513.0,518.0,521.0,493.0,545.0
517.0,522.0,517.0,499.0,539.0
515.0,523.0,512.0,498.0,536.0
513.0,524.0,520.0,505.0,529.0
520.0,526.0,533.0,519.0,519.0
528.0,530.0,541.0,533.0,504.0
528.0,523.0,535.0,535.0,509.0
530.0,521.0,535.0,549.0,516.0
525.0,519.0,534.0,549.0,512.0
517.0,512.0,524.0,547.0,510.0
507.0,506.0,520.0,544.0,506.0
506.0,503.0,512.0,534.0,520.0
501.0,498.0,507.0,526.0,524.0
503.0,498.0,502.0,520.0,520.0
510.0,500.0,501.0,511.0,516.0
508.0,505.0,509.0,516.0,509.0
517.0,512.0,515.0,509.0,513.0
525.0,513.0,515.0,501.0,523.0
529.0,515.0,519.0,501.0,547.0
526.0,514.0,522.0,502.0,541.0
525.0,513.0,522.0,499.0,539.0
524.0,513.0,525.0,509.0,529.0
521.0,511.0,526.0,512.0,541.0
533.0,516.0,532.0,524.0,513.0
529.0,512.0,528.0,532.0,488.0
526.0,509.0,525.0,540.0,483.0
523.0,503.0,519.0,540.0,482.0
516.0,500.0,515.0,539.0,489.0
509.0,492.0,507.0,533.0,506.0
503.0,488.0,498.0,521.0,508.0
501.0,493.0,497.0,510.0,513.0
510.0,503.0,509.0,510.0,527.0
514.0,509.0,511.0,503.0,517.0
517.0,515.0,517.0,503.0,537.0
521.0,515.0,519.0,497.0,530.0
536.0,512.0,517.0,501.0,519.0
530.0,508.0,512.0,502.0,517.0
526.0,510.0,522.0,502.0,513.0
526.0,504.0,520.0,509.0,507.0
528.0,509.0,523.0,517.0,484.0
529.0,511.0,527.0,529.0,464.0
526.0,517.0,528.0,534.0,484.0
521.0,512.0,526.0,545.0,506.0
513.0,506.0,515.0,538.0,498.0
501.0,498.0,508.0,525.0,494.0
508.0,496.0,505.0,526.0,503.0
508.0,498.0,500.0,519.0,513.0
504.0,495.0,499.0,510.0,519.0
504.0,498.0,501.0,502.0,523.0
502.0,503.0,507.0,502.0,540.0
502.0,510.0,515.0,503.0,537.0
508.0,521.0,523.0,502.0,541.0
508.0,522.0,524.0,498.0,551.0
519.0,510.0,518.0,500.0,540.0
521.0,516.0,524.0,505.0,534.0
532.0,517.0,526.0,520.0,524.0
527.0,511.0,541.0,530.0,507.0
517.0,510.0,548.0,541.0,498.0
520.0,507.0,540.0,543.0,490.0
517.0,503.0,532.0,543.0,505.0
510.0,497.0,515.0,525.0,510.0
508.0,491.0,489.0,514.0,498.0
505.0,488.0,488.0,518.0,512.0
503.0,493.0,492.0,527.0,518.0
500.0,495.0,498.0,518.0,526.0
506.0,499.0,500.0,507.0,527.0
515.0,505.0,504.0,496.0,528.0
510.0,508.0,508.0,489.0,536.0
508.0,510.0,514.0,481.0,534.0
513.0,506.0,509.0,473.0,541.0
514.0,508.0,519.0,485.0,541.0
522.0,508.0,519.0,504.0,526.0
528.0,510.0,527.0,526.0,500.0
532.0,520.0,523.0,532.0,483.0
528.0,514.0,515.0,540.0,474.0
523.0,505.0,507.0,538.0,478.0
519.0,499.0,504.0,542.0,496.0
509.0,486.0,497.0,527.0,501.0
501.0,470.0,494.0,523.0,500.0
497.0,470.0,506.0,524.0,522.0
492.0,489.0,520.0,514.0,560.0
501.0,504.0,520.0,513.0,552.0
509.0,509.0,527.0,510.0,533.0
509.0,498.0,522.0,503.0,530.0
509.0,510.0,517.0,488.0,530.0
510.0,499.0,529.0,502.0,522.0
508.0,486.0,520.0,495.0,521.0
516.0,496.0,510.0,505.0,508.0
526.0,514.0,514.0,518.0,496.0
526.0,507.0,518.0,516.0,489.0
523.0,503.0,525.0,531.0,490.0
528.0,500.0,525.0,542.0,490.0
524.0,519.0,518.0,540.0,491.0
522.0,515.0,520.0,530.0,480.0
516.0,499.0,512.0,532.0,483.0
508.0,496.0,501.0,520.0,500.0
502.0,508.0,499.0,512.0,523.0
502.0,521.0,489.0,503.0,539.0
506.0,519.0,510.0,503.0,554.0
522.0,523.0,528.0,510.0,556.0
526.0,534.0,530.0,516.0,546.0
523.0,538.0,532.0,513.0,538.0
516.0,528.0,522.0,496.0,544.0
517.0,519.0,505.0,491.0,540.0
519.0,511.0,508.0,500.0,539.0
526.0,516.0,527.0,516.0,511.0
525.0,526.0,531.0,529.0,500.0
534.0,523.0,527.0,532.0,468.0
545.0,523.0,526.0,541.0,412.0
532.0,515.0,517.0,534.0,451.0
507.0,508.0,518.0,529.0,471.0
508.0,506.0,516.0,541.0,455.0
507.0,501.0,495.0,535.0,480.0
506.0,504.0,498.0,524.0,511.0
497.0,501.0,502.0,511.0,530.0
502.0,505.0,511.0,502.0,525.0
502.0,506.0,510.0,499.0,549.0
513.0,508.0,511.0,500.0,541.0
520.0,509.0,514.0,499.0,552.0
520.0,509.0,517.0,495.0,567.0
520.0,511.0,521.0,497.0,550.0
515.0,507.0,519.0,502.0,537.0
526.0,507.0,522.0,514.0,511.0
528.0,511.0,527.0,528.0,502.0
528.0,508.0,523.0,535.0,486.0
527.0,507.0,522.0,542.0,466.0
516.0,502.0,515.0,541.0,476.0
505.0,494.0,509.0,535.0,504.0
504.0,492.0,506.0,531.0,520.0
505.0,492.0,499.0,522.0,517.0
505.0,491.0,497.0,512.0,524.0
508.0,500.0,503.0,503.0,529.0
507.0,505.0,508.0,502.0,542.0
518.0,509.0,512.0,500.0,539.0
523.0,512.0,515.0,497.0,535.0
521.0,513.0,516.0,493.0,537.0
523.0,513.0,518.0,493.0,540.0
518.0,511.0,522.0,504.0,538.0
521.0,509.0,524.0,508.0,530.0
520.0,502.0,522.0,516.0,503.0
521.0,509.0,527.0,535.0,476.0
521.0,510.0,527.0,541.0,460.0
520.0,510.0,527.0,546.0,464.0
517.0,504.0,522.0,544.0,489.0
508.0,497.0,514.0,538.0,502.0
507.0,494.0,503.0,528.0,522.0
501.0,494.0,500.0,519.0,528.0
500.0,496.0,492.0,517.0,534.0
511.0,504.0,504.0,522.0,531.0
518.0,516.0,515.0,520.0,545.0
514.0,511.0,510.0,507.0,548.0
518.0,511.0,514.0,502.0,521.0
512.0,511.0,514.0,489.0,525.0
511.0,509.0,518.0,484.0,512.0
525.0,511.0,518.0,488.0,499.0
534.0,516.0,518.0,500.0,485.0
527.0,513.0,519.0,513.0,504.0
526.0,514.0,552.0,526.0,515.0
524.0,514.0,551.0,535.0,509.0
526.0,508.0,541.0,532.0,497.0
511.0,498.0,523.0,531.0,494.0
502.0,495.0,498.0,530.0,479.0
496.0,492.0,474.0,526.0,473.0
508.0,495.0,490.0,523.0,469.0
501.0,497.0,492.0,514.0,501.0
502.0,499.0,497.0,499.0,520.0
510.0,519.0,509.0,496.0,538.0
518.0,521.0,514.0,502.0,536.0
522.0,518.0,523.0,508.0,526.0
515.0,510.0,518.0,502.0,529.0
509.0,511.0,517.0,503.0,528.0
508.0,512.0,517.0,509.0,529.0
520.0,521.0,520.0,515.0,523.0
519.0,520.0,525.0,528.0,509.0
524.0,514.0,523.0,537.0,496.0
519.0,510.0,522.0,542.0,495.0
512.0,515.0,519.0,542.0,510.0
504.0,502.0,509.0,540.0,498.0
505.0,502.0,505.0,536.0,489.0
503.0,498.0,494.0,524.0,507.0
504.0,500.0,486.0,508.0,513.0
511.0,507.0,488.0,500.0,507.0
515.0,515.0,493.0,494.0,507.0
513.0,519.0,502.0,494.0,520.0
517.0,522.0,508.0,495.0,498.0
518.0,524.0,516.0,492.0,495.0
523.0,518.0,536.0,504.0,535.0
523.0,518.0,534.0,512.0,544.0
522.0,520.0,535.0,519.0,556.0
515.0,512.0,527.0,520.0,549.0
522.0,515.0,529.0,532.0,530.0
524.0,514.0,532.0,544.0,515.0
520.0,507.0,523.0,542.0,488.0
518.0,494.0,514.0,538.0,454.0
502.0,485.0,508.0,535.0,465.0
499.0,476.0,503.0,527.0,490.0
503.0,488.0,493.0,520.0,502.0
507.0,502.0,494.0,514.0,490.0
507.0,524.0,510.0,515.0,533.0
512.0,524.0,516.0,509.0,561.0
515.0,525.0,516.0,498.0,550.0
511.0,517.0,520.0,496.0,549.0
513.0,514.0,517.0,496.0,549.0
515.0,512.0,522.0,498.0,534.0
519.0,511.0,520.0,502.0,519.0
523.0,521.0,526.0,512.0,510.0
521.0,520.0,525.0,521.0,509.0
525.0,522.0,528.0,530.0,502.0
525.0,520.0,530.0,542.0,495.0
518.0,513.0,521.0,545.0,501.0
515.0,506.0,516.0,542.0,505.0
510.0,502.0,500.0,537.0,507.0
498.0,492.0,504.0,522.0,522.0
496.0,491.0,495.0,516.0,528.0
501.0,493.0,495.0,508.0,529.0
506.0,502.0,507.0,507.0,518.0
523.0,506.0,525.0,514.0,516.0
527.0,511.0,540.0,520.0,521.0
525.0,517.0,537.0,517.0,522.0
526.0,512.0,534.0,518.0,535.0
522.0,517.0,533.0,512.0,560.0
522.0,516.0,498.0,490.0,538.0
517.0,509.0,487.0,494.0,496.0
522.0,511.0,501.0,499.0,501.0
528.0,508.0,506.0,521.0,499.0
528.0,503.0,510.0,536.0,473.0
518.0,500.0,512.0,541.0,479.0
510.0,504.0,512.0,543.0,474.0
501.0,502.0,504.0,541.0,479.0
498.0,492.0,496.0,527.0,486.0
500.0,490.0,496.0,519.0,505.0
505.0,501.0,502.0,512.0,506.0
511.0,505.0,503.0,506.0,500.0
508.0,509.0,506.0,490.0,529.0
512.0,514.0,515.0,486.0,531.0
513.0,516.0,519.0,490.0,541.0
515.0,512.0,517.0,493.0,541.0
511.0,510.0,519.0,497.0,523.0
519.0,508.0,520.0,505.0,508.0
527.0,509.0,525.0,516.0,524.0
529.0,510.0,523.0,528.0,495.0
524.0,513.0,528.0,532.0,496.0
529.0,506.0,525.0,534.0,475.0
519.0,497.0,514.0,531.0,470.0
509.0,490.0,500.0,522.0,507.0
502.0,480.0,495.0,514.0,521.0
499.0,484.0,491.0,516.0,531.0
498.0,492.0,496.0,519.0,542.0
505.0,500.0,504.0,511.0,547.0
511.0,507.0,516.0,514.0,559.0
515.0,509.0,519.0,505.0,550.0
516.0,505.0,516.0,499.0,532.0
522.0,499.0,515.0,490.0,520.0
527.0,497.0,513.0,495.0,510.0
527.0,505.0,517.0,506.0,515.0
523.0,510.0,524.0,514.0,534.0
515.0,507.0,520.0,518.0,525.0
514.0,511.0,525.0,535.0,510.0
515.0,510.0,531.0,544.0,496.0
506.0,503.0,519.0,540.0,489.0
507.0,499.0,513.0,540.0,480.0
503.0,500.0,508.0,540.0,491.0
498.0,489.0,498.0,521.0,506.0
498.0,489.0,498.0,511.0,519.0
502.0,491.0,499.0,508.0,516.0
511.0,504.0,507.0,502.0,500.0
521.0,508.0,512.0,504.0,506.0
523.0,512.0,516.0,497.0,509.0
519.0,508.0,515.0,492.0,546.0
516.0,511.0,516.0,495.0,540.0
519.0,511.0,521.0,500.0,536.0
520.0,503.0,516.0,503.0,527.0
510.0,509.0,523.0,515.0,523.0
519.0,510.0,529.0,531.0,507.0
520.0,512.0,528.0,536.0,498.0
519.0,509.0,526.0,539.0,504.0
511.0,506.0,524.0,540.0,514.0
506.0,496.0,509.0,532.0,524.0
510.0,495.0,506.0,529.0,523.0
509.0,492.0,502.0,519.0,524.0
507.0,493.0,500.0,510.0,521.0
517.0,499.0,505.0,508.0,519.0
508.0,503.0,508.0,503.0,537.0
506.0,507.0,513.0,503.0,543.0
514.0,512.0,518.0,495.0,516.0
524.0,512.0,516.0,495.0,509.0
516.0,506.0,513.0,500.0,523.0
518.0,507.0,517.0,506.0,516.0
523.0,509.0,518.0,509.0,496.0
517.0,502.0,516.0,515.0,486.0
526.0,505.0,524.0,525.0,468.0
526.0,508.0,534.0,537.0,465.0
518.0,503.0,526.0,539.0,471.0
513.0,498.0,518.0,539.0,474.0
511.0,497.0,508.0,530.0,495.0
510.0,496.0,507.0,522.0,509.0
502.0,488.0,496.0,511.0,518.0
495.0,485.0,496.0,500.0,547.0
498.0,493.0,500.0,502.0,553.0
510.0,502.0,508.0,507.0,535.0
520.0,512.0,515.0,506.0,545.0
517.0,518.0,518.0,503.0,547.0
523.0,516.0,519.0,497.0,522.0
513.0,508.0,515.0,504.0,525.0
520.0,508.0,518.0,504.0,522.0
524.0,507.0,522.0,511.0,514.0
525.0,503.0,524.0,522.0,508.0
528.0,512.0,525.0,534.0,497.0
522.0,516.0,527.0,542.0,483.0
519.0,514.0,522.0,548.0,471.0
511.0,500.0,516.0,542.0,467.0
502.0,497.0,504.0,537.0,469.0
502.0,493.0,497.0,529.0,475.0
494.0,488.0,487.0,512.0,504.0
499.0,499.0,485.0,510.0,539.0
507.0,505.0,489.0,485.0,528.0
509.0,510.0,497.0,487.0,540.0
509.0,510.0,501.0,485.0,560.0
510.0,508.0,508.0,483.0,546.0
511.0,503.0,527.0,486.0,530.0
514.0,508.0,535.0,498.0,522.0
520.0,507.0,530.0,504.0,514.0
516.0,506.0,530.0,523.0,511.0
520.0,510.0,535.0,535.0,497.0
523.0,512.0,532.0,540.0,494.0
514.0,507.0,522.0,543.0,505.0
518.0,500.0,513.0,537.0,505.0
506.0,493.0,505.0,532.0,503.0
496.0,492.0,503.0,530.0,511.0
494.0,493.0,497.0,525.0,508.0
499.0,493.0,499.0,517.0,514.0
507.0,501.0,509.0,518.0,520.0
511.0,509.0,515.0,515.0,518.0
515.0,510.0,513.0,504.0,528.0
515.0,513.0,516.0,490.0,539.0
514.0,512.0,526.0,485.0,557.0
509.0,509.0,519.0,485.0,547.0
521.0,508.0,519.0,497.0,526.0
526.0,511.0,522.0,509.0,509.0
524.0,510.0,524.0,516.0,518.0
527.0,515.0,530.0,528.0,507.0
529.0,507.0,527.0,536.0,497.0
527.0,505.0,521.0,539.0,482.0
516.0,501.0,514.0,539.0,477.0
511.0,496.0,506.0,536.0,477.0
506.0,493.0,501.0,526.0,492.0
499.0,493.0,498.0,518.0,510.0
498.0,498.0,501.0,516.0,516.0
500.0,505.0,508.0,516.0,519.0
503.0,512.0,515.0,509.0,527.0
513.0,515.0,516.0,499.0,529.0
510.0,513.0,519.0,493.0,532.0
509.0,509.0,517.0,493.0,535.0
513.0,504.0,522.0,491.0,537.0
519.0,512.0,520.0,500.0,531.0
517.0,509.0,520.0,508.0,525.0
520.0,510.0,520.0,516.0,509.0
527.0,513.0,522.0,528.0,499.0
525.0,509.0,522.0,535.0,495.0
521.0,505.0,518.0,539.0,492.0
513.0,501.0,511.0,535.0,499.0
504.0,497.0,505.0,532.0,511.0
495.0,490.0,495.0,519.0,512.0
497.0,494.0,500.0,511.0,519.0
504.0,501.0,503.0,506.0,523.0
510.0,505.0,506.0,505.0,519.0
515.0,506.0,512.0,498.0,521.0
517.0,513.0,514.0,501.0,515.0
516.0,510.0,516.0,494.0,516.0
517.0,510.0,515.0,495.0,517.0
511.0,510.0,520.0,506.0,521.0
513.0,509.0,521.0,505.0,514.0
515.0,512.0,522.0,514.0,501.0
520.0,509.0,523.0,525.0,485.0
523.0,511.0,526.0,534.0,463.0
520.0,510.0,523.0,536.0,489.0
514.0,505.0,517.0,539.0,506.0
509.0,502.0,510.0,538.0,480.0
508.0,494.0,504.0,532.0,465.0
500.0,490.0,497.0,519.0,479.0
504.0,493.0,499.0,510.0,500.0
506.0,502.0,500.0,504.0,514.0
503.0,501.0,505.0,497.0,556.0
507.0,507.0,512.0,496.0,551.0
514.0,512.0,508.0,495.0,543.0
517.0,512.0,517.0,494.0,545.0
517.0,511.0,520.0,496.0,550.0
513.0,508.0,518.0,499.0,532.0
519.0,511.0,523.0,507.0,508.0
523.0,510.0,523.0,517.0,496.0
521.0,511.0,523.0,528.0,478.0
531.0,513.0,526.0,538.0,478.0
521.0,507.0,523.0,537.0,512.0
521.0,505.0,519.0,538.0,498.0
510.0,503.0,509.0,535.0,497.0
504.0,497.0,503.0,526.0,500.0
501.0,493.0,501.0,516.0,516.0
504.0,500.0,507.0,508.0,534.0
504.0,507.0,508.0,504.0,547.0
514.0,513.0,516.0,503.0,548.0
517.0,515.0,518.0,498.0,550.0
519.0,515.0,518.0,497.0,545.0
513.0,511.0,518.0,496.0,540.0
513.0,507.0,510.0,498.0,514.0
513.0,513.0,519.0,505.0,493.0
516.0,511.0,527.0,513.0,494.0
516.0,514.0,524.0,521.0,493.0
524.0,511.0,525.0,532.0,494.0
526.0,512.0,524.0,539.0,493.0
520.0,505.0,519.0,540.0,479.0
514.0,501.0,510.0,539.0,473.0
508.0,499.0,505.0,532.0,486.0
499.0,493.0,506.0,526.0,488.0
496.0,491.0,500.0,516.0,513.0
501.0,499.0,502.0,509.0,520.0
504.0,505.0,505.0,501.0,529.0
510.0,510.0,512.0,499.0,536.0
516.0,513.0,516.0,495.0,537.0
515.0,516.0,517.0,496.0,527.0
519.0,511.0,519.0,495.0,528.0
516.0,513.0,518.0,498.0,527.0
514.0,511.0,523.0,510.0,525.0
517.0,512.0,524.0,516.0,519.0
525.0,513.0,526.0,524.0,505.0
525.0,513.0,531.0,533.0,495.0
518.0,508.0,522.0,536.0,482.0
516.0,503.0,515.0,538.0,489.0
509.0,503.0,509.0,537.0,489.0
502.0,497.0,509.0,535.0,493.0
497.0,495.0,499.0,521.0,512.0
498.0,500.0,498.0,513.0,522.0
504.0,502.0,504.0,507.0,529.0
518.0,507.0,508.0,499.0,533.0
525.0,512.0,514.0,498.0,532.0
528.0,514.0,518.0,495.0,530.0
526.0,512.0,517.0,496.0,532.0
519.0,509.0,521.0,494.0,534.0
514.0,508.0,522.0,500.0,531.0
517.0,511.0,522.0,508.0,513.0
518.0,511.0,524.0,514.0,508.0
517.0,511.0,527.0,530.0,503.0
515.0,508.0,522.0,531.0,496.0
515.0,508.0,520.0,537.0,493.0
507.0,500.0,512.0,535.0,498.0
507.0,495.0,505.0,530.0,501.0
500.0,492.0,500.0,516.0,507.0
496.0,493.0,500.0,517.0,513.0
499.0,496.0,501.0,507.0,517.0
501.0,502.0,507.0,501.0,530.0
503.0,509.0,509.0,499.0,542.0
516.0,511.0,517.0,497.0,539.0
514.0,517.0,515.0,496.0,539.0
519.0,507.0,513.0,496.0,535.0
525.0,506.0,515.0,491.0,529.0
523.0,508.0,521.0,499.0,525.0
526.0,514.0,524.0,509.0,518.0
527.0,509.0,524.0,519.0,508.0
525.0,513.0,527.0,531.0,496.0
527.0,512.0,525.0,537.0,486.0
517.0,505.0,520.0,540.0,484.0
517.0,502.0,513.0,536.0,487.0
507.0,502.0,510.0,533.0,487.0
499.0,494.0,503.0,524.0,500.0
500.0,498.0,501.0,516.0,519.0
505.0,502.0,504.0,509.0,517.0
506.0,507.0,510.0,503.0,524.0
509.0,514.0,515.0,497.0,533.0
516.0,517.0,517.0,500.0,524.0
519.0,518.0,521.0,495.0,522.0
519.0,515.0,519.0,493.0,534.0
520.0,519.0,522.0,500.0,524.0
518.0,517.0,522.0,504.0,522.0
518.0,514.0,528.0,515.0,519.0
518.0,515.0,523.0,525.0,500.0
527.0,517.0,527.0,534.0,487.0
526.0,512.0,525.0,538.0,474.0
517.0,506.0,516.0,539.0,479.0
512.0,502.0,505.0,534.0,491.0
510.0,500.0,508.0,528.0,500.0
499.0,495.0,498.0,516.0,521.0
495.0,496.0,500.0,505.0,525.0
501.0,505.0,506.0,506.0,523.0
506.0,512.0,507.0,503.0,518.0
513.0,517.0,514.0,499.0,522.0
520.0,517.0,517.0,496.0,531.0
517.0,517.0,518.0,495.0,530.0
516.0,514.0,519.0,494.0,524.0
516.0,514.0,521.0,500.0,528.0
523.0,512.0,523.0,507.0,515.0
530.0,511.0,522.0,517.0,501.0
532.0,513.0,525.0,526.0,486.0
529.0,514.0,524.0,537.0,506.0
517.0,508.0,518.0,541.0,507.0
508.0,502.0,511.0,534.0,507.0
503.0,499.0,506.0,529.0,534.0
501.0,495.0,501.0,525.0,514.0
499.0,497.0,499.0,515.0,523.0
506.0,501.0,501.0,508.0,521.0
515.0,510.0,506.0,505.0,521.0
521.0,509.0,510.0,500.0,515.0
521.0,515.0,516.0,501.0,532.0
515.0,516.0,517.0,499.0,534.0
514.0,512.0,516.0,495.0,530.0
515.0,510.0,516.0,492.0,528.0
514.0,513.0,526.0,505.0,524.0
515.0,514.0,525.0,514.0,523.0
516.0,512.0,523.0,519.0,512.0
518.0,511.0,524.0,529.0,508.0
520.0,512.0,523.0,536.0,491.0
518.0,511.0,519.0,539.0,485.0
510.0,500.0,510.0,537.0,491.0
502.0,496.0,505.0,536.0,494.0
495.0,485.0,497.0,519.0,504.0
501.0,493.0,497.0,508.0,520.0
499.0,500.0,501.0,510.0,529.0
507.0,506.0,510.0,501.0,536.0
508.0,510.0,511.0,498.0,542.0
513.0,515.0,518.0,498.0,542.0
517.0,519.0,518.0,495.0,536.0
521.0,513.0,518.0,491.0,531.0
524.0,510.0,518.0,496.0,538.0
530.0,511.0,523.0,505.0,524.0
526.0,513.0,521.0,514.0,507.0
523.0,513.0,526.0,530.0,493.0
525.0,512.0,528.0,536.0,485.0
514.0,510.0,525.0,540.0,481.0
512.0,505.0,518.0,540.0,491.0
504.0,498.0,508.0,534.0,494.0
501.0,498.0,502.0,529.0,498.0
500.0,492.0,498.0,520.0,511.0
501.0,493.0,498.0,511.0,519.0
507.0,502.0,505.0,510.0,525.0
518.0,510.0,513.0,504.0,528.0
519.0,513.0,516.0,501.0,530.0
513.0,514.0,516.0,498.0,537.0
521.0,512.0,516.0,493.0,529.0
515.0,508.0,514.0,495.0,535.0
514.0,512.0,522.0,505.0,538.0
516.0,512.0,521.0,507.0,535.0
518.0,514.0,524.0,517.0,521.0
522.0,515.0,525.0,526.0,494.0
524.0,513.0,526.0,537.0,487.0
518.0,508.0,519.0,541.0,488.0
512.0,502.0,515.0,538.0,493.0
507.0,497.0,506.0,532.0,498.0
502.0,491.0,498.0,525.0,509.0
498.0,492.0,499.0,518.0,515.0
502.0,498.0,501.0,509.0,517.0
506.0,503.0,505.0,507.0,526.0
511.0,513.0,513.0,503.0,532.0
518.0,513.0,514.0,499.0,529.0
516.0,516.0,519.0,498.0,536.0
517.0,513.0,517.0,494.0,538.0
517.0,510.0,516.0,494.0,536.0
522.0,512.0,521.0,504.0,529.0
525.0,512.0,522.0,513.0,518.0
526.0,513.0,525.0,523.0,501.0
525.0,513.0,527.0,537.0,490.0
523.0,511.0,524.0,540.0,481.0
516.0,507.0,518.0,545.0,488.0
504.0,499.0,509.0,538.0,501.0
503.0,496.0,504.0,531.0,504.0
500.0,491.0,499.0,519.0,514.0
497.0,494.0,499.0,512.0,517.0
502.0,502.0,503.0,511.0,515.0
505.0,510.0,507.0,504.0,515.0
517.0,512.0,514.0,499.0,518.0
517.0,513.0,516.0,497.0,530.0
517.0,514.0,518.0,499.0,547.0
516.0,510.0,518.0,496.0,538.0
515.0,511.0,516.0,499.0,525.0
514.0,509.0,519.0,505.0,525.0
512.0,509.0,518.0,513.0,520.0
518.0,516.0,527.0,526.0,507.0
519.0,514.0,527.0,532.0,500.0
513.0,508.0,521.0,538.0,501.0
512.0,502.0,513.0,537.0,494.0
514.0,497.0,506.0,532.0,498.0
509.0,496.0,503.0,530.0,505.0
504.0,495.0,498.0,517.0,520.0
504.0,494.0,496.0,507.0,524.0
503.0,501.0,503.0,503.0,520.0
506.0,508.0,510.0,500.0,524.0
508.0,512.0,514.0,499.0,531.0
516.0,515.0,518.0,500.0,533.0
522.0,514.0,519.0,495.0,534.0
511.0,512.0,516.0,492.0,534.0
513.0,510.0,520.0,504.0,519.0
517.0,515.0,524.0,512.0,495.0
513.0,513.0,525.0,522.0,490.0
519.0,515.0,527.0,529.0,490.0
516.0,510.0,522.0,532.0,509.0
522.0,510.0,519.0,533.0,489.0
523.0,504.0,517.0,536.0,480.0
508.0,496.0,505.0,529.0,507.0
505.0,493.0,505.0,526.0,502.0
510.0,495.0,503.0,517.0,509.0
502.0,496.0,502.0,508.0,525.0
509.0,507.0,507.0,502.0,533.0
513.0,512.0,512.0,502.0,534.0
517.0,513.0,515.0,496.0,536.0
520.0,514.0,520.0,495.0,541.0
518.0,512.0,517.0,490.0,537.0
515.0,511.0,519.0,501.0,535.0
519.0,511.0,523.0,501.0,522.0
520.0,510.0,524.0,510.0,506.0
521.0,512.0,525.0,520.0,492.0
526.0,515.0,525.0,532.0,487.0
526.0,513.0,529.0,539.0,488.0
522.0,509.0,519.0,540.0,495.0
517.0,499.0,511.0,537.0,490.0
510.0,497.0,506.0,531.0,498.0
496.0,494.0,500.0,521.0,511.0
499.0,496.0,500.0,509.0,517.0
497.0,498.0,500.0,504.0,519.0
507.0,506.0,507.0,504.0,519.0
515.0,511.0,517.0,500.0,518.0
520.0,516.0,520.0,501.0,528.0
520.0,518.0,525.0,501.0,530.0
515.0,514.0,521.0,498.0,537.0
518.0,510.0,521.0,499.0,524.0
515.0,514.0,523.0,506.0,522.0
514.0,510.0,522.0,516.0,523.0
523.0,512.0,526.0,526.0,509.0
521.0,512.0,527.0,533.0,500.0
520.0,512.0,522.0,538.0,494.0
520.0,507.0,517.0,537.0,492.0
508.0,501.0,506.0,530.0,499.0
505.0,495.0,503.0,527.0,504.0
501.0,494.0,502.0,521.0,513.0
500.0,497.0,505.0,512.0,520.0
500.0,506.0,506.0,506.0,531.0
506.0,508.0,510.0,499.0,536.0
508.0,511.0,514.0,495.0,542.0
513.0,512.0,517.0,494.0,539.0
515.0,511.0,517.0,496.0,543.0
514.0,511.0,517.0,496.0,539.0
516.0,511.0,520.0,498.0,534.0
518.0,509.0,520.0,505.0,521.0
516.0,509.0,521.0,516.0,507.0
518.0,512.0,524.0,531.0,496.0
523.0,513.0,525.0,535.0,487.0
514.0,505.0,518.0,537.0,486.0
514.0,501.0,507.0,535.0,489.0
505.0,497.0,505.0,532.0,497.0
499.0,488.0,500.0,522.0,507.0
497.0,495.0,498.0,514.0,513.0
502.0,498.0,503.0,508.0,520.0
507.0,505.0,505.0,499.0,526.0
512.0,511.0,510.0,500.0,525.0
513.0,513.0,516.0,501.0,530.0
518.0,516.0,519.0,499.0,532.0
515.0,512.0,517.0,496.0,531.0
513.0,513.0,517.0,495.0,531.0
516.0,513.0,523.0,504.0,526.0
518.0,515.0,523.0,512.0,521.0
521.0,514.0,530.0,523.0,510.0
530.0,515.0,527.0,534.0,500.0
527.0,513.0,524.0,539.0,491.0
519.0,506.0,517.0,539.0,495.0
514.0,503.0,513.0,535.0,497.0
506.0,499.0,505.0,529.0,498.0
501.0,495.0,504.0,521.0,509.0
498.0,495.0,504.0,512.0,516.0
500.0,500.0,501.0,509.0,517.0
506.0,507.0,508.0,504.0,518.0
515.0,513.0,514.0,499.0,536.0
517.0,516.0,519.0,496.0,545.0
521.0,512.0,520.0,497.0,534.0
517.0,510.0,516.0,495.0,536.0
518.0,512.0,520.0,502.0,530.0
519.0,510.0,522.0,507.0,519.0
523.0,510.0,523.0,513.0,512.0
524.0,515.0,525.0,526.0,503.0
522.0,514.0,526.0,534.0,491.0
523.0,502.0,518.0,537.0,486.0
518.0,503.0,515.0,536.0,488.0
517.0,499.0,507.0,534.0,498.0
508.0,497.0,504.0,533.0,504.0
504.0,495.0,504.0,519.0,516.0
501.0,496.0,507.0,513.0,523.0
508.0,503.0,508.0,507.0,527.0
512.0,510.0,513.0,503.0,538.0
514.0,511.0,513.0,497.0,531.0
511.0,514.0,517.0,499.0,522.0
508.0,510.0,518.0,497.0,533.0
516.0,515.0,519.0,499.0,535.0
516.0,510.0,516.0,504.0,540.0
518.0,514.0,523.0,510.0,532.0
520.0,511.0,528.0,520.0,498.0
522.0,512.0,524.0,532.0,480.0
520.0,509.0,523.0,533.0,485.0
519.0,506.0,518.0,538.0,486.0
511.0,503.0,510.0,539.0,483.0
504.0,495.0,504.0,535.0,485.0
505.0,494.0,502.0,528.0,488.0
504.0,493.0,497.0,518.0,493.0
503.0,495.0,498.0,508.0,514.0
504.0,498.0,503.0,502.0,525.0
508.0,507.0,509.0,497.0,528.0
518.0,515.0,517.0,498.0,531.0
522.0,515.0,517.0,496.0,528.0
523.0,512.0,517.0,495.0,531.0
519.0,508.0,518.0,499.0,539.0
509.0,507.0,518.0,495.0,532.0
511.0,511.0,525.0,514.0,524.0
514.0,513.0,527.0,522.0,510.0
517.0,511.0,524.0,528.0,489.0
522.0,506.0,520.0,535.0,477.0
517.0,504.0,515.0,541.0,483.0
512.0,501.0,511.0,535.0,486.0
507.0,496.0,504.0,535.0,490.0
503.0,495.0,500.0,522.0,499.0
501.0,495.0,495.0,513.0,508.0
501.0,501.0,503.0,508.0,524.0
505.0,507.0,508.0,501.0,534.0
518.0,513.0,513.0,500.0,528.0
519.0,512.0,520.0,500.0,531.0
519.0,514.0,520.0,499.0,535.0
514.0,506.0,518.0,495.0,532.0
518.0,511.0,520.0,500.0,530.0
518.0,512.0,522.0,504.0,522.0
524.0,512.0,523.0,516.0,513.0
522.0,513.0,525.0,528.0,500.0
524.0,516.0,531.0,536.0,491.0
519.0,514.0,521.0,538.0,485.0
514.0,506.0,516.0,539.0,489.0
506.0,499.0,513.0,534.0,492.0
503.0,498.0,504.0,532.0,499.0
502.0,496.0,503.0,521.0,513.0
503.0,496.0,501.0,512.0,514.0
504.0,502.0,502.0,504.0,522.0
511.0,511.0,510.0,501.0,529.0
512.0,515.0,517.0,506.0,535.0
513.0,516.0,520.0,501.0,536.0
515.0,513.0,514.0,496.0,538.0
515.0,509.0,511.0,494.0,539.0
519.0,509.0,517.0,498.0,528.0
518.0,515.0,522.0,512.0,527.0
514.0,511.0,523.0,519.0,523.0
524.0,515.0,527.0,534.0,501.0
524.0,512.0,523.0,541.0,487.0
522.0,514.0,520.0,543.0,482.0
517.0,505.0,514.0,545.0,490.0
506.0,498.0,506.0,534.0,500.0
500.0,494.0,498.0,527.0,509.0
498.0,496.0,495.0,514.0,517.0
498.0,498.0,499.0,505.0,523.0
503.0,504.0,508.0,501.0,532.0
510.0,510.0,511.0,500.0,531.0
516.0,514.0,516.0,503.0,531.0
519.0,515.0,517.0,497.0,531.0
516.0,514.0,516.0,498.0,531.0
510.0,510.0,517.0,498.0,535.0
515.0,512.0,524.0,504.0,533.0
518.0,513.0,523.0,514.0,530.0
521.0,509.0,527.0,521.0,516.0
525.0,515.0,526.0,535.0,501.0
523.0,515.0,528.0,540.0,495.0
518.0,508.0,517.0,540.0,478.0
508.0,501.0,508.0,536.0,488.0
500.0,495.0,502.0,530.0,505.0
496.0,492.0,497.0,520.0,517.0
496.0,491.0,488.0,509.0,519.0
503.0,498.0,503.0,506.0,523.0
515.0,510.0,511.0,504.0,529.0
513.0,510.0,511.0,505.0,535.0
515.0,515.0,517.0,498.0,540.0
514.0,518.0,518.0,497.0,538.0
515.0,510.0,517.0,500.0,537.0
517.0,514.0,518.0,497.0,534.0
520.0,508.0,520.0,501.0,533.0
517.0,509.0,522.0,512.0,519.0
523.0,510.0,525.0,526.0,507.0
524.0,519.0,528.0,537.0,497.0
521.0,512.0,526.0,542.0,488.0
511.0,505.0,517.0,545.0,486.0
504.0,499.0,509.0,536.0,493.0
502.0,496.0,504.0,530.0,507.0
502.0,495.0,502.0,519.0,511.0
503.0,494.0,499.0,510.0,514.0
509.0,503.0,503.0,505.0,526.0
514.0,509.0,511.0,504.0,518.0
518.0,512.0,513.0,501.0,530.0
514.0,513.0,518.0,498.0,543.0
514.0,515.0,521.0,498.0,542.0
513.0,508.0,520.0,495.0,541.0
514.0,513.0,519.0,502.0,525.0
518.0,512.0,522.0,513.0,511.0
521.0,513.0,529.0,521.0,505.0
520.0,511.0,522.0,527.0,504.0
523.0,512.0,526.0,537.0,494.0
523.0,508.0,518.0,538.0,487.0
515.0,503.0,511.0,535.0,490.0
513.0,501.0,505.0,531.0,500.0
508.0,494.0,500.0,521.0,504.0
501.0,494.0,494.0,517.0,514.0
505.0,501.0,502.0,509.0,531.0
505.0,507.0,507.0,504.0,534.0
511.0,512.0,513.0,498.0,533.0
519.0,515.0,517.0,498.0,536.0
519.0,514.0,521.0,496.0,524.0
519.0,512.0,522.0,496.0,522.0
516.0,512.0,524.0,498.0,532.0
520.0,511.0,521.0,507.0,523.0
523.0,511.0,519.0,511.0,511.0
515.0,514.0,527.0,523.0,497.0
523.0,515.0,527.0,534.0,487.0
522.0,510.0,522.0,539.0,481.0
513.0,507.0,518.0,541.0,478.0
507.0,503.0,509.0,533.0,479.0
503.0,496.0,501.0,529.0,492.0
500.0,493.0,498.0,518.0,505.0
501.0,496.0,497.0,510.0,513.0
502.0,501.0,502.0,509.0,521.0
507.0,506.0,507.0,504.0,530.0
508.0,509.0,512.0,497.0,541.0
518.0,516.0,518.0,498.0,538.0
520.0,515.0,520.0,497.0,539.0
518.0,513.0,520.0,498.0,537.0
521.0,509.0,520.0,501.0,527.0
523.0,509.0,520.0,505.0,521.0
521.0,509.0,521.0,514.0,510.0
529.0,514.0,523.0,525.0,503.0
528.0,516.0,527.0,538.0,490.0
520.0,509.0,520.0,537.0,485.0
515.0,499.0,516.0,536.0,491.0
506.0,494.0,503.0,527.0,501.0
506.0,492.0,500.0,521.0,504.0
503.0,492.0,497.0,518.0,518.0
494.0,494.0,496.0,505.0,518.0
502.0,500.0,501.0,501.0,521.0
508.0,507.0,509.0,496.0,525.0
510.0,515.0,513.0,497.0,522.0
506.0,513.0,518.0,502.0,539.0
509.0,508.0,517.0,496.0,545.0
513.0,509.0,517.0,496.0,535.0
516.0,511.0,521.0,505.0,523.0
518.0,508.0,521.0,509.0,516.0
520.0,508.0,521.0,512.0,513.0
519.0,514.0,527.0,529.0,501.0
521.0,515.0,526.0,536.0,492.0
516.0,508.0,518.0,542.0,490.0
513.0,505.0,512.0,535.0,490.0
506.0,496.0,509.0,531.0,495.0
500.0,496.0,499.0,521.0,509.0
502.0,495.0,499.0,513.0,513.0
502.0,498.0,500.0,511.0,525.0
507.0,508.0,506.0,504.0,533.0
515.0,510.0,511.0,501.0,534.0
513.0,513.0,516.0,493.0,536.0
517.0,514.0,517.0,500.0,528.0
516.0,513.0,515.0,498.0,536.0
519.0,511.0,519.0,495.0,536.0
521.0,509.0,522.0,501.0,533.0
522.0,509.0,520.0,511.0,520.0
525.0,511.0,524.0,516.0,507.0
522.0,515.0,527.0,532.0,499.0
521.0,511.0,523.0,538.0,490.0
517.0,505.0,516.0,537.0,488.0
510.0,501.0,513.0,533.0,490.0
505.0,497.0,508.0,532.0,496.0
497.0,495.0,501.0,520.0,508.0
501.0,497.0,499.0,511.0,517.0
503.0,501.0,502.0,504.0,528.0
511.0,507.0,509.0,503.0,529.0
513.0,511.0,512.0,499.0,532.0
518.0,515.0,518.0,499.0,535.0
516.0,515.0,520.0,497.0,537.0
517.0,512.0,518.0,495.0,537.0
521.0,510.0,519.0,498.0,530.0
520.0,511.0,523.0,507.0,530.0
520.0,511.0,527.0,514.0,519.0
523.0,513.0,525.0,524.0,511.0
524.0,514.0,527.0,538.0,502.0
521.0,513.0,523.0,540.0,497.0
516.0,504.0,513.0,538.0,493.0
506.0,499.0,508.0,536.0,489.0
505.0,494.0,504.0,530.0,494.0
501.0,495.0,503.0,519.0,514.0
502.0,497.0,500.0,512.0,525.0
504.0,502.0,505.0,505.0,531.0
508.0,511.0,514.0,503.0,532.0
516.0,515.0,520.0,498.0,533.0
518.0,514.0,518.0,498.0,538.0
518.0,513.0,517.0,491.0,538.0
515.0,508.0,517.0,495.0,532.0
517.0,509.0,521.0,504.0,522.0
519.0,508.0,522.0,511.0,511.0
517.0,508.0,523.0,519.0,509.0
522.0,510.0,525.0,526.0,499.0
521.0,511.0,525.0,536.0,492.0
518.0,499.0,517.0,538.0,486.0
512.0,501.0,516.0,536.0,489.0
504.0,496.0,506.0,533.0,495.0
505.0,494.0,500.0,524.0,502.0
496.0,492.0,497.0,518.0,514.0
498.0,497.0,502.0,506.0,524.0
508.0,503.0,509.0,500.0,526.0
518.0,507.0,510.0,496.0,529.0
522.0,510.0,514.0,495.0,532.0
519.0,509.0,515.0,496.0,533.0
517.0,509.0,517.0,495.0,535.0
518.0,511.0,521.0,497.0,538.0
521.0,511.0,522.0,506.0,527.0
521.0,513.0,525.0,516.0,521.0
527.0,513.0,526.0,523.0,506.0
528.0,518.0,528.0,534.0,497.0
525.0,511.0,523.0,540.0,473.0
519.0,507.0,516.0,541.0,479.0
516.0,499.0,508.0,530.0,484.0
508.0,495.0,504.0,527.0,492.0
503.0,492.0,498.0,519.0,504.0
502.0,495.0,499.0,511.0,517.0
505.0,501.0,502.0,502.0,528.0
506.0,506.0,508.0,501.0,535.0
511.0,515.0,513.0,492.0,537.0
512.0,511.0,516.0,494.0,538.0
517.0,512.0,518.0,496.0,538.0
519.0,510.0,518.0,494.0,542.0
519.0,510.0,520.0,500.0,521.0
519.0,510.0,521.0,506.0,518.0
522.0,513.0,525.0,518.0,513.0
525.0,514.0,526.0,528.0,507.0
521.0,512.0,524.0,534.0,497.0
517.0,509.0,520.0,539.0,494.0
511.0,499.0,513.0,536.0,489.0
508.0,498.0,506.0,533.0,496.0
506.0,494.0,502.0,527.0,494.0
500.0,496.0,496.0,517.0,504.0
496.0,496.0,497.0,507.0,523.0
505.0,500.0,502.0,502.0,531.0
509.0,508.0,512.0,500.0,539.0
514.0,509.0,513.0,497.0,538.0
519.0,516.0,518.0,498.0,531.0
518.0,510.0,521.0,496.0,530.0
516.0,509.0,514.0,491.0,529.0
521.0,510.0,520.0,502.0,521.0
524.0,512.0,522.0,512.0,508.0
526.0,514.0,525.0,522.0,508.0
532.0,514.0,527.0,534.0,492.0
534.0,511.0,524.0,542.0,495.0
527.0,505.0,519.0,540.0,490.0
514.0,502.0,513.0,539.0,489.0
504.0,497.0,502.0,532.0,494.0
501.0,491.0,497.0,520.0,508.0
493.0,491.0,495.0,510.0,510.0
494.0,495.0,499.0,502.0,518.0
503.0,502.0,505.0,502.0,524.0
509.0,509.0,510.0,500.0,531.0
516.0,514.0,516.0,498.0,534.0
515.0,515.0,518.0,496.0,527.0
513.0,511.0,518.0,494.0,524.0
513.0,507.0,518.0,497.0,525.0
516.0,505.0,515.0,499.0,515.0
515.0,506.0,519.0,510.0,529.0
519.0,513.0,524.0,522.0,518.0
520.0,512.0,524.0,534.0,503.0
517.0,509.0,522.0,539.0,493.0
514.0,501.0,514.0,535.0,481.0
506.0,499.0,508.0,532.0,495.0
503.0,495.0,504.0,530.0,504.0
501.0,491.0,498.0,520.0,511.0
496.0,491.0,495.0,507.0,523.0
504.0,498.0,501.0,509.0,526.0
511.0,507.0,510.0,505.0,527.0
518.0,509.0,514.0,498.0,534.0
521.0,514.0,517.0,497.0,537.0
523.0,514.0,520.0,496.0,540.0
518.0,512.0,519.0,500.0,539.0
517.0,511.0,525.0,501.0,533.0
517.0,511.0,522.0,506.0,524.0
519.0,511.0,524.0,523.0,507.0
523.0,515.0,527.0,529.0,493.0
525.0,514.0,527.0,537.0,490.0
521.0,509.0,522.0,539.0,483.0
519.0,506.0,518.0,537.0,486.0
510.0,502.0,509.0,533.0,492.0
502.0,495.0,502.0,531.0,498.0
500.0,494.0,502.0,519.0,505.0
502.0,498.0,502.0,510.0,516.0
506.0,507.0,508.0,508.0,525.0
508.0,506.0,510.0,501.0,530.0
513.0,512.0,515.0,498.0,529.0
514.0,515.0,519.0,498.0,533.0
514.0,512.0,519.0,496.0,532.0
511.0,508.0,517.0,496.0,541.0
516.0,510.0,522.0,502.0,530.0
524.0,511.0,523.0,509.0,522.0
525.0,510.0,523.0,515.0,514.0
525.0,509.0,525.0,528.0,495.0
526.0,513.0,527.0,536.0,483.0
523.0,508.0,521.0,542.0,483.0
511.0,503.0,511.0,536.0,491.0
508.0,497.0,505.0,530.0,496.0
507.0,493.0,499.0,525.0,500.0
506.0,496.0,499.0,512.0,510.0
501.0,503.0,501.0,509.0,516.0
501.0,505.0,505.0,503.0,524.0
512.0,509.0,513.0,503.0,525.0
514.0,513.0,515.0,500.0,529.0
517.0,517.0,519.0,498.0,532.0
514.0,512.0,519.0,496.0,531.0
514.0,510.0,521.0,500.0,534.0
511.0,510.0,520.0,503.0,525.0
520.0,511.0,524.0,515.0,521.0
522.0,513.0,526.0,521.0,513.0
524.0,514.0,526.0,533.0,495.0
520.0,512.0,524.0,537.0,484.0
520.0,507.0,517.0,538.0,489.0
513.0,499.0,509.0,534.0,491.0
511.0,494.0,503.0,528.0,498.0
503.0,493.0,499.0,519.0,508.0
502.0,495.0,500.0,508.0,520.0
506.0,501.0,502.0,506.0,524.0
512.0,512.0,508.0,505.0,522.0
517.0,512.0,514.0,499.0,523.0
518.0,512.0,515.0,499.0,527.0
511.0,509.0,516.0,496.0,537.0
512.0,510.0,518.0,495.0,534.0
516.0,512.0,519.0,499.0,528.0
519.0,510.0,521.0,508.0,519.0
519.0,510.0,526.0,516.0,514.0
525.0,509.0,524.0,525.0,498.0
525.0,511.0,525.0,534.0,490.0
524.0,509.0,523.0,541.0,478.0
513.0,503.0,515.0,539.0,486.0
502.0,495.0,507.0,529.0,498.0
502.0,495.0,502.0,524.0,502.0
496.0,492.0,499.0,515.0,509.0
499.0,496.0,502.0,506.0,518.0
503.0,502.0,505.0,503.0,527.0
515.0,509.0,516.0,502.0,532.0
513.0,511.0,517.0,505.0,534.0
515.0,513.0,519.0,498.0,528.0
515.0,511.0,518.0,498.0,530.0
513.0,510.0,515.0,496.0,528.0
518.0,513.0,523.0,501.0,523.0
522.0,511.0,525.0,511.0,517.0
525.0,510.0,521.0,517.0,513.0
530.0,516.0,532.0,530.0,508.0
529.0,512.0,526.0,538.0,502.0
520.0,508.0,523.0,539.0,493.0
516.0,504.0,513.0,537.0,493.0
508.0,496.0,505.0,535.0,494.0
500.0,494.0,501.0,523.0,492.0
493.0,493.0,498.0,515.0,492.0
496.0,496.0,502.0,514.0,497.0
502.0,504.0,512.0,505.0,532.0
511.0,511.0,513.0,503.0,542.0
519.0,516.0,523.0,499.0,537.0
515.0,516.0,524.0,496.0,537.0
517.0,513.0,518.0,493.0,527.0
522.0,511.0,521.0,500.0,523.0
521.0,510.0,521.0,506.0,517.0
518.0,509.0,521.0,509.0,512.0
521.0,511.0,519.0,521.0,498.0
527.0,521.0,527.0,531.0,492.0
524.0,513.0,521.0,531.0,489.0
516.0,507.0,516.0,537.0,490.0
506.0,500.0,508.0,532.0,495.0
504.0,496.0,506.0,527.0,493.0
503.0,493.0,498.0,517.0,506.0
498.0,494.0,497.0,509.0,516.0
500.0,499.0,502.0,505.0,524.0
508.0,507.0,509.0,503.0,525.0
513.0,508.0,514.0,499.0,523.0
517.0,513.0,518.0,496.0,526.0
517.0,514.0,520.0,498.0,529.0
521.0,511.0,517.0,500.0,532.0
521.0,511.0,519.0,499.0,520.0
527.0,513.0,523.0,507.0,517.0
519.0,510.0,522.0,514.0,520.0
527.0,512.0,527.0,527.0,507.0
523.0,513.0,526.0,535.0,498.0
515.0,510.0,523.0,541.0,489.0
511.0,505.0,516.0,541.0,488.0
504.0,497.0,512.0,533.0,497.0
503.0,494.0,504.0,526.0,505.0
499.0,493.0,497.0,520.0,513.0
497.0,495.0,498.0,508.0,519.0
504.0,500.0,502.0,504.0,524.0
509.0,506.0,510.0,500.0,525.0
513.0,509.0,513.0,498.0,531.0
517.0,512.0,516.0,496.0,534.0
519.0,511.0,517.0,501.0,529.0
520.0,508.0,519.0,497.0,525.0
516.0,506.0,519.0,502.0,525.0
515.0,504.0,519.0,506.0,522.0
517.0,508.0,522.0,517.0,515.0
521.0,513.0,527.0,530.0,505.0
522.0,515.0,525.0,536.0,493.0
513.0,505.0,516.0,536.0,492.0
507.0,499.0,506.0,532.0,487.0
506.0,497.0,507.0,532.0,483.0
504.0,495.0,500.0,524.0,492.0
503.0,495.0,498.0,517.0,504.0
505.0,500.0,502.0,507.0,525.0
508.0,505.0,509.0,502.0,527.0
513.0,513.0,514.0,501.0,532.0
519.0,517.0,520.0,499.0,534.0
520.0,515.0,520.0,498.0,532.0
515.0,512.0,519.0,496.0,531.0
514.0,512.0,520.0,499.0,531.0
515.0,510.0,523.0,506.0,527.0
521.0,510.0,521.0,513.0,515.0
523.0,514.0,528.0,524.0,503.0
524.0,511.0,531.0,533.0,484.0
524.0,513.0,525.0,540.0,474.0
520.0,507.0,518.0,537.0,479.0
508.0,500.0,510.0,534.0,487.0
504.0,496.0,505.0,529.0,500.0
500.0,494.0,500.0,520.0,505.0
502.0,499.0,499.0,510.0,519.0
504.0,503.0,504.0,508.0,525.0
509.0,512.0,512.0,506.0,523.0
510.0,509.0,513.0,499.0,526.0
516.0,515.0,519.0,500.0,533.0
522.0,515.0,519.0,498.0,537.0
521.0,511.0,518.0,496.0,539.0
524.0,510.0,519.0,499.0,535.0
520.0,509.0,523.0,508.0,526.0
524.0,510.0,525.0,522.0,519.0
524.0,514.0,527.0,526.0,510.0
524.0,514.0,526.0,534.0,485.0
516.0,511.0,524.0,543.0,476.0
511.0,503.0,513.0,536.0,479.0
507.0,497.0,506.0,532.0,483.0
501.0,492.0,500.0,525.0,488.0
496.0,493.0,494.0,515.0,513.0
499.0,495.0,500.0,508.0,527.0
506.0,502.0,507.0,504.0,528.0
509.0,507.0,509.0,501.0,528.0
515.0,513.0,515.0,498.0,529.0
513.0,513.0,518.0,497.0,532.0
519.0,512.0,517.0,495.0,534.0
517.0,505.0,517.0,495.0,533.0
519.0,511.0,523.0,501.0,526.0
523.0,512.0,523.0,510.0,518.0
525.0,511.0,525.0,520.0,509.0
524.0,514.0,529.0,529.0,497.0
523.0,513.0,524.0,536.0,487.0
520.0,508.0,522.0,540.0,489.0
514.0,500.0,509.0,535.0,494.0
503.0,496.0,504.0,531.0,500.0
498.0,493.0,496.0,522.0,508.0
500.0,497.0,497.0,513.0,526.0
503.0,499.0,501.0,508.0,531.0
510.0,502.0,505.0,500.0,533.0
518.0,512.0,512.0,499.0,536.0
523.0,514.0,515.0,497.0,531.0
521.0,514.0,516.0,495.0,533.0
512.0,506.0,514.0,495.0,528.0
508.0,505.0,517.0,496.0,528.0
514.0,511.0,521.0,504.0,521.0
519.0,512.0,523.0,516.0,508.0
523.0,512.0,524.0,522.0,503.0
520.0,515.0,524.0,533.0,499.0
515.0,508.0,520.0,536.0,491.0
512.0,505.0,515.0,536.0,490.0
511.0,502.0,513.0,533.0,496.0
506.0,497.0,506.0,529.0,503.0
501.0,496.0,498.0,517.0,510.0
502.0,493.0,497.0,512.0,507.0
508.0,502.0,505.0,508.0,517.0
508.0,508.0,512.0,506.0,526.0
519.0,512.0,516.0,499.0,527.0
518.0,510.0,520.0,497.0,529.0
522.0,515.0,518.0,495.0,532.0
518.0,511.0,516.0,495.0,536.0
518.0,513.0,523.0,502.0,531.0
518.0,511.0,520.0,501.0,522.0
522.0,511.0,523.0,517.0,506.0
522.0,512.0,524.0,531.0,500.0
523.0,515.0,529.0,538.0,493.0
521.0,511.0,525.0,539.0,491.0
514.0,504.0,514.0,539.0,487.0
510.0,501.0,508.0,535.0,490.0
503.0,501.0,502.0,528.0,500.0
504.0,494.0,500.0,515.0,512.0
505.0,496.0,497.0,508.0,520.0
510.0,505.0,507.0,503.0,535.0
512.0,509.0,511.0,501.0,536.0
517.0,519.0,516.0,498.0,539.0
519.0,515.0,522.0,495.0,542.0
519.0,513.0,517.0,496.0,539.0
517.0,511.0,516.0,498.0,533.0
518.0,510.0,521.0,502.0,527.0
516.0,509.0,521.0,511.0,510.0
517.0,509.0,521.0,517.0,500.0
521.0,513.0,524.0,531.0,487.0
523.0,514.0,525.0,538.0,492.0
514.0,506.0,516.0,541.0,489.0
511.0,503.0,513.0,537.0,487.0
504.0,497.0,505.0,531.0,491.0
505.0,492.0,499.0,521.0,496.0
499.0,493.0,497.0,512.0,510.0
504.0,498.0,504.0,505.0,519.0
510.0,506.0,507.0,502.0,525.0
516.0,510.0,511.0,500.0,531.0
516.0,513.0,517.0,497.0,537.0
516.0,513.0,516.0,492.0,543.0
517.0,511.0,519.0,491.0,539.0
518.0,510.0,519.0,496.0,535.0
519.0,510.0,520.0,505.0,529.0
520.0,510.0,522.0,515.0,519.0
520.0,514.0,523.0,523.0,505.0
525.0,513.0,524.0,532.0,489.0
519.0,513.0,523.0,539.0,481.0
515.0,506.0,514.0,537.0,488.0
510.0,498.0,506.0,537.0,490.0
502.0,494.0,507.0,528.0,500.0
496.0,490.0,495.0,519.0,505.0
498.0,493.0,497.0,511.0,518.0
506.0,498.0,501.0,505.0,521.0
509.0,506.0,508.0,501.0,528.0
515.0,509.0,515.0,497.0,534.0
514.0,514.0,516.0,495.0,532.0
516.0,513.0,516.0,491.0,533.0
518.0,509.0,517.0,495.0,534.0
514.0,507.0,520.0,498.0,533.0
516.0,507.0,519.0,508.0,514.0
520.0,509.0,523.0,518.0,507.0
527.0,513.0,527.0,533.0,493.0
524.0,517.0,528.0,539.0,487.0
519.0,510.0,521.0,539.0,490.0
514.0,505.0,514.0,537.0,497.0
510.0,499.0,507.0,532.0,503.0
504.0,497.0,504.0,526.0,512.0
502.0,497.0,501.0,519.0,523.0
502.0,498.0,499.0,509.0,534.0
508.0,502.0,500.0,503.0,533.0
516.0,508.0,510.0,505.0,531.0
522.0,516.0,515.0,496.0,527.0
522.0,516.0,520.0,500.0,520.0
516.0,511.0,516.0,500.0,526.0
512.0,507.0,516.0,495.0,531.0
515.0,510.0,519.0,504.0,524.0
513.0,511.0,523.0,512.0,511.0
522.0,510.0,523.0,518.0,509.0
529.0,514.0,526.0,532.0,500.0
526.0,513.0,526.0,539.0,489.0
515.0,510.0,518.0,544.0,490.0
516.0,502.0,512.0,537.0,493.0
509.0,497.0,505.0,530.0,496.0
502.0,494.0,500.0,521.0,506.0
500.0,491.0,500.0,515.0,518.0
499.0,497.0,500.0,507.0,524.0
505.0,503.0,503.0,502.0,529.0
513.0,509.0,512.0,502.0,527.0
519.0,513.0,515.0,503.0,524.0
517.0,513.0,518.0,498.0,528.0
518.0,513.0,517.0,492.0,531.0
520.0,511.0,514.0,500.0,527.0
517.0,512.0,526.0,507.0,524.0
517.0,510.0,522.0,515.0,518.0
523.0,510.0,524.0,525.0,504.0
526.0,515.0,528.0,536.0,494.0
524.0,509.0,524.0,545.0,486.0
