CH1,CH2,CH3,CH4,CH5
496.0,492.0,497.0,507.0,524.0
496.0,495.0,500.0,500.0,521.0
504.0,505.0,505.0,494.0,521.0
510.0,506.0,511.0,497.0,514.0
514.0,511.0,518.0,501.0,521.0
513.0,507.0,518.0,495.0,522.0
513.0,511.0,517.0,494.0,526.0
511.0,509.0,520.0,495.0,553.0
520.0,509.0,524.0,505.0,545.0
519.0,509.0,524.0,513.0,534.0
524.0,515.0,531.0,523.0,522.0
522.0,513.0,530.0,531.0,506.0
521.0,510.0,525.0,537.0,487.0
518.0,504.0,517.0,538.0,490.0
509.0,495.0,509.0,531.0,493.0
503.0,492.0,504.0,527.0,496.0
501.0,492.0,499.0,520.0,506.0
496.0,489.0,498.0,508.0,517.0
500.0,497.0,503.0,506.0,522.0
509.0,504.0,508.0,500.0,526.0
512.0,509.0,512.0,498.0,529.0
513.0,513.0,515.0,494.0,534.0
516.0,511.0,518.0,495.0,540.0
513.0,506.0,516.0,493.0,542.0
520.0,511.0,522.0,497.0,531.0
519.0,507.0,520.0,505.0,522.0
516.0,508.0,523.0,513.0,519.0
520.0,508.0,524.0,522.0,513.0
519.0,512.0,524.0,528.0,503.0
521.0,507.0,521.0,539.0,489.0
513.0,501.0,514.0,538.0,486.0
503.0,494.0,507.0,530.0,501.0
500.0,496.0,501.0,528.0,504.0
498.0,491.0,497.0,517.0,508.0
499.0,492.0,497.0,506.0,505.0
505.0,500.0,500.0,502.0,502.0
507.0,507.0,512.0,498.0,527.0
511.0,512.0,514.0,496.0,536.0
518.0,518.0,519.0,497.0,530.0
516.0,510.0,516.0,495.0,530.0
518.0,507.0,515.0,494.0,529.0
521.0,506.0,519.0,502.0,519.0
522.0,513.0,526.0,513.0,513.0
520.0,509.0,524.0,524.0,505.0
519.0,510.0,524.0,527.0,498.0
520.0,510.0,526.0,534.0,489.0
518.0,507.0,519.0,537.0,488.0
513.0,501.0,518.0,534.0,490.0
506.0,495.0,506.0,526.0,498.0
503.0,491.0,498.0,518.0,511.0
499.0,488.0,498.0,511.0,525.0
505.0,497.0,501.0,506.0,525.0
511.0,503.0,507.0,503.0,531.0
517.0,505.0,513.0,498.0,537.0
521.0,513.0,520.0,495.0,544.0
518.0,509.0,518.0,495.0,540.0
508.0,508.0,517.0,495.0,539.0
503.0,509.0,518.0,495.0,529.0
508.0,508.0,522.0,509.0,515.0
517.0,507.0,526.0,512.0,503.0
517.0,509.0,524.0,521.0,504.0
523.0,512.0,529.0,533.0,489.0
517.0,510.0,524.0,539.0,475.0
511.0,505.0,521.0,539.0,481.0
502.0,497.0,510.0,534.0,482.0
497.0,495.0,506.0,528.0,495.0
495.0,491.0,499.0,515.0,524.0
496.0,491.0,497.0,510.0,519.0
501.0,499.0,504.0,505.0,521.0
507.0,504.0,512.0,501.0,523.0
509.0,509.0,514.0,499.0,531.0
515.0,510.0,516.0,493.0,532.0
519.0,514.0,518.0,497.0,539.0
519.0,506.0,517.0,494.0,538.0
527.0,511.0,524.0,503.0,527.0
520.0,509.0,524.0,508.0,519.0
521.0,509.0,524.0,516.0,509.0
523.0,509.0,526.0,526.0,501.0
524.0,509.0,524.0,533.0,497.0
521.0,505.0,519.0,532.0,501.0
514.0,495.0,511.0,531.0,502.0
504.0,496.0,506.0,530.0,504.0
501.0,495.0,502.0,525.0,501.0
495.0,490.0,499.0,518.0,503.0
499.0,495.0,500.0,512.0,514.0
505.0,495.0,504.0,505.0,524.0
510.0,509.0,511.0,502.0,522.0
507.0,508.0,516.0,499.0,529.0
512.0,512.0,517.0,499.0,534.0
512.0,507.0,520.0,501.0,539.0
513.0,506.0,515.0,498.0,532.0
513.0,507.0,520.0,502.0,532.0
519.0,508.0,523.0,511.0,514.0
521.0,507.0,525.0,518.0,505.0
524.0,511.0,525.0,529.0,499.0
522.0,512.0,524.0,535.0,485.0
514.0,504.0,521.0,537.0,482.0
508.0,499.0,516.0,534.0,494.0
506.0,495.0,505.0,525.0,501.0
499.0,492.0,501.0,523.0,510.0
498.0,496.0,498.0,514.0,519.0
497.0,494.0,499.0,505.0,526.0
502.0,500.0,504.0,500.0,529.0
510.0,506.0,512.0,499.0,533.0
518.0,513.0,518.0,500.0,536.0
521.0,511.0,516.0,501.0,533.0
518.0,516.0,522.0,501.0,526.0
517.0,509.0,520.0,501.0,519.0
519.0,510.0,522.0,504.0,526.0
524.0,510.0,523.0,511.0,516.0
527.0,512.0,527.0,522.0,508.0
524.0,509.0,524.0,526.0,501.0
519.0,506.0,520.0,532.0,492.0
513.0,505.0,516.0,537.0,492.0
505.0,500.0,510.0,531.0,497.0
503.0,496.0,508.0,526.0,505.0
497.0,493.0,497.0,517.0,516.0
497.0,495.0,497.0,509.0,527.0
505.0,502.0,502.0,507.0,524.0
513.0,505.0,508.0,505.0,523.0
518.0,512.0,514.0,499.0,527.0
513.0,516.0,519.0,498.0,527.0
511.0,511.0,519.0,494.0,525.0
517.0,512.0,519.0,498.0,530.0
522.0,512.0,525.0,501.0,525.0
526.0,513.0,528.0,508.0,513.0
522.0,511.0,525.0,516.0,511.0
524.0,511.0,525.0,525.0,510.0
524.0,511.0,526.0,533.0,504.0
520.0,508.0,521.0,536.0,500.0
513.0,500.0,514.0,536.0,497.0
506.0,498.0,509.0,533.0,504.0
502.0,494.0,504.0,526.0,506.0
497.0,492.0,499.0,516.0,511.0
494.0,493.0,497.0,507.0,522.0
498.0,499.0,503.0,503.0,523.0
503.0,507.0,513.0,504.0,526.0
507.0,515.0,515.0,502.0,530.0
518.0,516.0,518.0,501.0,530.0
518.0,514.0,519.0,503.0,530.0
515.0,510.0,518.0,500.0,533.0
515.0,511.0,520.0,502.0,529.0
518.0,510.0,526.0,511.0,526.0
517.0,510.0,522.0,517.0,508.0
520.0,509.0,523.0,526.0,506.0
518.0,509.0,523.0,535.0,500.0
514.0,507.0,518.0,537.0,498.0
510.0,502.0,511.0,535.0,495.0
504.0,495.0,504.0,530.0,498.0
499.0,492.0,499.0,524.0,507.0
499.0,497.0,498.0,515.0,516.0
499.0,497.0,499.0,507.0,518.0
512.0,505.0,505.0,503.0,513.0
509.0,507.0,510.0,498.0,527.0
518.0,513.0,517.0,502.0,521.0
517.0,512.0,521.0,498.0,522.0
517.0,512.0,517.0,495.0,531.0
518.0,512.0,521.0,500.0,537.0
517.0,510.0,520.0,502.0,531.0
517.0,507.0,521.0,504.0,529.0
519.0,511.0,525.0,522.0,512.0
519.0,509.0,521.0,532.0,504.0
527.0,508.0,530.0,541.0,494.0
526.0,503.0,517.0,537.0,490.0
517.0,496.0,507.0,532.0,495.0
511.0,493.0,500.0,525.0,504.0
500.0,488.0,496.0,517.0,512.0
501.0,493.0,495.0,511.0,521.0
506.0,497.0,501.0,504.0,525.0
506.0,508.0,509.0,502.0,525.0
520.0,515.0,517.0,506.0,525.0
516.0,511.0,521.0,501.0,532.0
520.0,513.0,519.0,498.0,528.0
518.0,512.0,516.0,498.0,527.0
523.0,510.0,519.0,502.0,525.0
521.0,515.0,523.0,508.0,522.0
524.0,512.0,526.0,522.0,515.0
526.0,511.0,531.0,528.0,505.0
528.0,513.0,526.0,534.0,493.0
520.0,505.0,521.0,539.0,484.0
508.0,502.0,518.0,542.0,483.0
505.0,494.0,510.0,534.0,489.0
508.0,494.0,503.0,525.0,496.0
499.0,490.0,499.0,516.0,509.0
504.0,498.0,499.0,511.0,516.0
505.0,501.0,504.0,505.0,524.0
513.0,509.0,513.0,503.0,524.0
517.0,512.0,515.0,498.0,529.0
519.0,517.0,520.0,499.0,530.0
514.0,509.0,518.0,498.0,530.0
512.0,510.0,522.0,500.0,536.0
512.0,510.0,524.0,505.0,528.0
522.0,510.0,523.0,512.0,521.0
523.0,510.0,524.0,521.0,510.0
520.0,512.0,525.0,530.0,498.0
521.0,510.0,525.0,537.0,485.0
515.0,505.0,520.0,538.0,486.0
508.0,499.0,512.0,535.0,494.0
505.0,495.0,508.0,530.0,510.0
498.0,490.0,499.0,522.0,514.0
501.0,494.0,501.0,516.0,520.0
501.0,497.0,501.0,507.0,522.0
507.0,507.0,507.0,503.0,524.0
513.0,509.0,512.0,499.0,535.0
513.0,513.0,516.0,498.0,534.0
517.0,516.0,522.0,498.0,532.0
515.0,510.0,514.0,496.0,526.0
518.0,509.0,520.0,500.0,529.0
520.0,508.0,522.0,510.0,524.0
521.0,509.0,522.0,514.0,524.0
525.0,511.0,524.0,521.0,508.0
526.0,510.0,521.0,529.0,492.0
523.0,506.0,517.0,534.0,479.0
521.0,504.0,515.0,536.0,485.0
515.0,497.0,507.0,532.0,490.0
500.0,492.0,503.0,527.0,501.0
496.0,489.0,496.0,514.0,515.0
498.0,490.0,493.0,506.0,523.0
502.0,499.0,502.0,505.0,523.0
504.0,505.0,509.0,502.0,529.0
506.0,508.0,511.0,498.0,526.0
516.0,511.0,515.0,501.0,527.0
518.0,512.0,518.0,495.0,531.0
515.0,506.0,515.0,495.0,533.0
516.0,512.0,519.0,495.0,532.0
513.0,512.0,520.0,505.0,526.0
516.0,509.0,523.0,516.0,514.0
522.0,512.0,525.0,530.0,501.0
528.0,513.0,526.0,535.0,490.0
516.0,506.0,519.0,538.0,490.0
514.0,502.0,514.0,536.0,486.0
506.0,500.0,507.0,531.0,498.0
500.0,495.0,502.0,520.0,501.0
496.0,488.0,498.0,515.0,516.0
507.0,497.0,501.0,508.0,525.0
509.0,502.0,503.0,504.0,528.0
516.0,510.0,510.0,500.0,536.0
518.0,513.0,517.0,497.0,535.0
519.0,512.0,516.0,495.0,536.0
519.0,516.0,519.0,496.0,535.0
514.0,510.0,518.0,500.0,527.0
512.0,512.0,522.0,502.0,521.0
517.0,512.0,522.0,507.0,518.0
521.0,514.0,526.0,520.0,510.0
523.0,515.0,525.0,529.0,495.0
520.0,513.0,527.0,538.0,493.0
518.0,512.0,520.0,541.0,497.0
510.0,504.0,513.0,535.0,498.0
503.0,498.0,506.0,534.0,505.0
499.0,492.0,498.0,520.0,509.0
499.0,494.0,498.0,514.0,511.0
506.0,503.0,502.0,508.0,513.0
514.0,505.0,506.0,501.0,527.0
517.0,510.0,509.0,496.0,533.0
520.0,516.0,517.0,498.0,535.0
521.0,514.0,514.0,495.0,534.0
519.0,511.0,519.0,499.0,539.0
518.0,512.0,520.0,499.0,536.0
520.0,511.0,522.0,509.0,520.0
520.0,511.0,523.0,514.0,510.0
525.0,514.0,527.0,523.0,499.0
526.0,518.0,529.0,531.0,490.0
524.0,509.0,522.0,536.0,485.0
520.0,506.0,519.0,541.0,483.0
515.0,501.0,509.0,534.0,478.0
512.0,496.0,506.0,528.0,490.0
502.0,495.0,501.0,519.0,519.0
501.0,495.0,501.0,513.0,517.0
501.0,496.0,502.0,504.0,535.0
507.0,504.0,508.0,501.0,526.0
515.0,511.0,516.0,501.0,520.0
520.0,512.0,516.0,498.0,527.0
522.0,514.0,520.0,498.0,537.0
517.0,510.0,520.0,494.0,544.0
514.0,508.0,518.0,498.0,540.0
519.0,513.0,522.0,507.0,522.0
525.0,511.0,524.0,519.0,515.0
521.0,512.0,526.0,526.0,503.0
523.0,513.0,526.0,535.0,498.0
517.0,512.0,520.0,537.0,490.0
513.0,503.0,514.0,536.0,493.0
509.0,501.0,506.0,530.0,505.0
501.0,494.0,504.0,525.0,510.0
502.0,494.0,500.0,515.0,515.0
496.0,494.0,497.0,505.0,521.0
498.0,501.0,504.0,505.0,521.0
511.0,509.0,510.0,501.0,523.0
514.0,512.0,514.0,497.0,537.0
513.0,514.0,516.0,497.0,531.0
515.0,510.0,517.0,499.0,531.0
513.0,509.0,517.0,496.0,533.0
516.0,506.0,520.0,503.0,521.0
519.0,510.0,524.0,510.0,515.0
521.0,513.0,523.0,515.0,509.0
522.0,510.0,523.0,528.0,502.0
526.0,511.0,525.0,537.0,496.0
515.0,505.0,519.0,539.0,492.0
513.0,505.0,512.0,539.0,497.0
513.0,501.0,510.0,537.0,498.0
507.0,497.0,504.0,529.0,503.0
498.0,496.0,501.0,518.0,520.0
496.0,501.0,499.0,503.0,535.0
499.0,501.0,503.0,497.0,531.0
511.0,509.0,511.0,497.0,532.0
517.0,513.0,520.0,497.0,534.0
515.0,513.0,519.0,498.0,534.0
514.0,511.0,518.0,494.0,533.0
512.0,509.0,518.0,497.0,532.0
515.0,513.0,521.0,503.0,526.0
518.0,512.0,524.0,511.0,517.0
524.0,512.0,526.0,522.0,505.0
525.0,516.0,528.0,531.0,496.0
528.0,511.0,525.0,538.0,494.0
516.0,507.0,517.0,536.0,496.0
514.0,503.0,514.0,532.0,501.0
505.0,494.0,502.0,531.0,505.0
506.0,491.0,492.0,515.0,508.0
501.0,497.0,499.0,509.0,516.0
502.0,500.0,502.0,504.0,525.0
511.0,505.0,508.0,504.0,523.0
514.0,508.0,513.0,502.0,525.0
514.0,514.0,518.0,496.0,538.0
515.0,511.0,517.0,494.0,537.0
513.0,509.0,518.0,494.0,530.0
517.0,510.0,525.0,502.0,524.0
519.0,504.0,522.0,509.0,518.0
514.0,508.0,522.0,512.0,511.0
517.0,512.0,526.0,527.0,504.0
520.0,519.0,527.0,535.0,493.0
516.0,511.0,520.0,541.0,486.0
515.0,510.0,518.0,534.0,490.0
505.0,498.0,508.0,533.0,497.0
500.0,493.0,503.0,527.0,502.0
498.0,496.0,500.0,519.0,513.0
499.0,498.0,500.0,511.0,521.0
503.0,501.0,505.0,504.0,523.0
510.0,509.0,511.0,500.0,529.0
513.0,511.0,515.0,499.0,537.0
517.0,510.0,519.0,497.0,528.0
517.0,516.0,521.0,498.0,534.0
514.0,511.0,518.0,496.0,534.0
517.0,510.0,521.0,503.0,527.0
522.0,511.0,528.0,512.0,521.0
517.0,509.0,524.0,524.0,516.0
525.0,512.0,529.0,529.0,502.0
524.0,512.0,526.0,538.0,492.0
520.0,508.0,520.0,540.0,488.0
506.0,500.0,511.0,535.0,492.0
501.0,495.0,506.0,530.0,499.0
492.0,492.0,499.0,520.0,513.0
497.0,497.0,499.0,515.0,518.0
504.0,496.0,500.0,508.0,523.0
494.0,491.0,496.0,495.0,543.0
496.0,494.0,500.0,488.0,542.0
501.0,498.0,505.0,486.0,543.0
504.0,499.0,508.0,487.0,545.0
535.0,527.0,542.0,533.0,495.0
537.0,528.0,547.0,543.0,487.0
538.0,524.0,550.0,547.0,483.0
533.0,519.0,543.0,547.0,484.0
527.0,512.0,535.0,541.0,486.0
522.0,510.0,528.0,537.0,489.0
517.0,503.0,518.0,528.0,496.0
507.0,506.0,515.0,520.0,502.0
514.0,513.0,515.0,517.0,508.0
520.0,521.0,521.0,515.0,515.0
523.0,525.0,521.0,512.0,517.0
530.0,531.0,525.0,515.0,518.0
530.0,528.0,522.0,509.0,515.0
527.0,525.0,523.0,509.0,522.0
530.0,527.0,530.0,512.0,514.0
531.0,524.0,526.0,518.0,511.0
531.0,520.0,530.0,521.0,505.0
532.0,523.0,540.0,531.0,498.0
531.0,521.0,544.0,544.0,491.0
525.0,517.0,536.0,544.0,488.0
520.0,505.0,535.0,543.0,489.0
513.0,504.0,526.0,538.0,489.0
515.0,500.0,520.0,534.0,492.0
510.0,500.0,512.0,521.0,501.0
509.0,503.0,507.0,515.0,512.0
516.0,509.0,509.0,511.0,516.0
518.0,519.0,518.0,510.0,519.0
522.0,522.0,516.0,509.0,521.0
525.0,523.0,519.0,506.0,522.0
526.0,526.0,518.0,502.0,527.0
524.0,521.0,518.0,507.0,526.0
524.0,518.0,518.0,508.0,523.0
526.0,518.0,528.0,515.0,514.0
528.0,520.0,529.0,523.0,513.0
528.0,516.0,534.0,532.0,503.0
528.0,515.0,536.0,541.0,489.0
524.0,509.0,534.0,538.0,484.0
517.0,505.0,529.0,539.0,489.0
509.0,499.0,520.0,532.0,499.0
506.0,495.0,514.0,523.0,506.0
502.0,498.0,506.0,516.0,509.0
503.0,503.0,503.0,508.0,514.0
513.0,510.0,510.0,506.0,520.0
516.0,514.0,512.0,505.0,524.0
519.0,516.0,515.0,502.0,530.0
520.0,521.0,518.0,502.0,530.0
520.0,519.0,514.0,503.0,528.0
517.0,512.0,514.0,503.0,528.0
515.0,513.0,517.0,505.0,530.0
519.0,509.0,522.0,514.0,511.0
527.0,515.0,528.0,524.0,507.0
528.0,518.0,535.0,534.0,498.0
525.0,511.0,539.0,538.0,493.0
522.0,506.0,532.0,539.0,491.0
513.0,496.0,523.0,534.0,498.0
503.0,495.0,517.0,529.0,498.0
502.0,495.0,509.0,522.0,501.0
501.0,497.0,504.0,515.0,511.0
500.0,503.0,504.0,509.0,514.0
513.0,512.0,507.0,507.0,519.0
513.0,517.0,510.0,508.0,519.0
519.0,520.0,512.0,505.0,524.0
522.0,519.0,513.0,501.0,524.0
519.0,515.0,510.0,500.0,526.0
522.0,514.0,514.0,503.0,520.0
521.0,513.0,518.0,510.0,519.0
526.0,512.0,524.0,520.0,507.0
526.0,512.0,530.0,530.0,498.0
525.0,512.0,534.0,535.0,492.0
523.0,506.0,531.0,538.0,487.0
519.0,503.0,525.0,535.0,489.0
507.0,499.0,518.0,531.0,498.0
498.0,494.0,508.0,528.0,506.0
499.0,493.0,504.0,516.0,513.0
499.0,497.0,503.0,512.0,524.0
509.0,507.0,508.0,505.0,527.0
509.0,509.0,506.0,503.0,530.0
514.0,512.0,512.0,501.0,526.0
520.0,519.0,510.0,501.0,529.0
519.0,519.0,512.0,501.0,526.0
516.0,515.0,512.0,500.0,526.0
521.0,514.0,515.0,504.0,518.0
520.0,513.0,521.0,513.0,508.0
519.0,512.0,525.0,524.0,506.0
524.0,512.0,529.0,528.0,501.0
529.0,510.0,533.0,535.0,494.0
525.0,504.0,528.0,535.0,488.0
518.0,500.0,524.0,535.0,495.0
507.0,499.0,515.0,529.0,501.0
500.0,491.0,507.0,521.0,509.0
500.0,497.0,504.0,515.0,515.0
504.0,499.0,504.0,508.0,516.0
503.0,505.0,507.0,505.0,524.0
511.0,517.0,512.0,506.0,528.0
515.0,518.0,512.0,503.0,530.0
518.0,516.0,510.0,505.0,530.0
517.0,513.0,510.0,498.0,532.0
513.0,516.0,511.0,500.0,529.0
516.0,512.0,519.0,507.0,522.0
520.0,513.0,521.0,514.0,516.0
520.0,512.0,527.0,522.0,508.0
524.0,511.0,531.0,530.0,499.0
522.0,510.0,535.0,541.0,496.0
516.0,506.0,532.0,538.0,496.0
511.0,499.0,520.0,531.0,500.0
505.0,495.0,514.0,527.0,507.0
500.0,490.0,501.0,512.0,514.0
503.0,495.0,501.0,509.0,519.0
505.0,500.0,500.0,504.0,522.0
506.0,506.0,505.0,502.0,523.0
511.0,511.0,503.0,499.0,526.0
513.0,514.0,504.0,497.0,530.0
512.0,514.0,506.0,496.0,530.0
516.0,512.0,510.0,497.0,529.0
519.0,513.0,515.0,501.0,528.0
514.0,506.0,516.0,505.0,524.0
517.0,510.0,521.0,515.0,519.0
524.0,511.0,525.0,522.0,511.0
523.0,512.0,534.0,533.0,501.0
523.0,508.0,531.0,535.0,492.0
520.0,505.0,528.0,534.0,495.0
510.0,500.0,517.0,530.0,501.0
506.0,496.0,513.0,529.0,502.0
501.0,494.0,506.0,513.0,508.0
500.0,496.0,501.0,507.0,519.0
503.0,502.0,504.0,503.0,522.0
511.0,511.0,506.0,503.0,524.0
514.0,514.0,510.0,501.0,526.0
516.0,518.0,511.0,500.0,527.0
520.0,516.0,510.0,502.0,528.0
515.0,514.0,512.0,498.0,530.0
514.0,512.0,515.0,503.0,526.0
517.0,513.0,519.0,506.0,518.0
518.0,510.0,523.0,517.0,513.0
524.0,512.0,527.0,526.0,505.0
526.0,511.0,533.0,534.0,497.0
521.0,506.0,532.0,536.0,490.0
516.0,499.0,523.0,533.0,497.0
506.0,496.0,520.0,530.0,502.0
501.0,492.0,506.0,519.0,505.0
503.0,496.0,505.0,513.0,514.0
500.0,500.0,502.0,508.0,519.0
506.0,506.0,503.0,507.0,522.0
516.0,512.0,509.0,504.0,524.0
514.0,520.0,508.0,501.0,530.0
520.0,519.0,512.0,501.0,535.0
516.0,517.0,511.0,499.0,537.0
521.0,514.0,508.0,500.0,530.0
518.0,514.0,516.0,506.0,521.0
517.0,511.0,520.0,514.0,517.0
522.0,513.0,526.0,522.0,514.0
524.0,512.0,529.0,530.0,504.0
527.0,508.0,531.0,537.0,500.0
519.0,503.0,528.0,536.0,496.0
512.0,498.0,520.0,531.0,497.0
509.0,496.0,513.0,528.0,496.0
501.0,489.0,501.0,520.0,507.0
496.0,497.0,500.0,509.0,523.0
496.0,499.0,505.0,505.0,522.0
502.0,510.0,506.0,505.0,523.0
513.0,515.0,509.0,502.0,528.0
513.0,518.0,510.0,502.0,531.0
516.0,518.0,511.0,501.0,527.0
516.0,515.0,510.0,500.0,526.0
519.0,513.0,512.0,508.0,525.0
519.0,511.0,517.0,510.0,520.0
519.0,508.0,518.0,513.0,515.0
519.0,511.0,525.0,524.0,507.0
517.0,508.0,528.0,531.0,502.0
516.0,504.0,527.0,535.0,497.0
513.0,501.0,524.0,539.0,494.0
508.0,497.0,514.0,528.0,502.0
499.0,490.0,507.0,527.0,507.0
498.0,489.0,501.0,513.0,512.0
498.0,495.0,499.0,509.0,521.0
503.0,505.0,502.0,504.0,523.0
507.0,508.0,503.0,501.0,526.0
508.0,514.0,504.0,499.0,524.0
516.0,518.0,510.0,500.0,524.0
520.0,517.0,513.0,505.0,527.0
517.0,515.0,514.0,502.0,528.0
518.0,513.0,515.0,506.0,519.0
518.0,511.0,519.0,512.0,518.0
522.0,511.0,522.0,519.0,512.0
524.0,510.0,527.0,526.0,500.0
529.0,510.0,533.0,534.0,496.0
522.0,505.0,524.0,539.0,493.0
520.0,504.0,524.0,537.0,494.0
511.0,498.0,514.0,529.0,498.0
503.0,492.0,506.0,521.0,504.0
498.0,492.0,500.0,512.0,510.0
501.0,496.0,500.0,510.0,516.0
503.0,504.0,504.0,505.0,525.0
509.0,512.0,507.0,504.0,531.0
513.0,516.0,510.0,498.0,532.0
517.0,521.0,511.0,501.0,534.0
516.0,515.0,511.0,506.0,530.0
516.0,513.0,512.0,505.0,526.0
518.0,514.0,519.0,508.0,522.0
520.0,512.0,520.0,514.0,511.0
524.0,512.0,525.0,520.0,504.0
522.0,509.0,533.0,531.0,498.0
522.0,513.0,532.0,537.0,491.0
518.0,504.0,529.0,542.0,492.0
512.0,498.0,519.0,533.0,497.0
507.0,495.0,513.0,527.0,502.0
500.0,489.0,503.0,517.0,509.0
498.0,493.0,501.0,514.0,513.0
500.0,500.0,501.0,508.0,522.0
504.0,507.0,504.0,504.0,529.0
511.0,514.0,508.0,503.0,532.0
518.0,516.0,508.0,499.0,527.0
525.0,517.0,509.0,499.0,525.0
518.0,513.0,508.0,498.0,531.0
519.0,515.0,514.0,502.0,532.0
524.0,512.0,517.0,506.0,528.0
527.0,511.0,520.0,518.0,518.0
529.0,512.0,531.0,525.0,505.0
526.0,512.0,531.0,533.0,495.0
519.0,505.0,531.0,536.0,492.0
510.0,498.0,524.0,535.0,495.0
502.0,497.0,518.0,531.0,491.0
497.0,494.0,512.0,527.0,495.0
493.0,496.0,505.0,518.0,506.0
497.0,496.0,502.0,507.0,514.0
504.0,501.0,501.0,507.0,519.0
510.0,508.0,504.0,504.0,522.0
514.0,514.0,506.0,500.0,519.0
517.0,516.0,509.0,500.0,522.0
518.0,515.0,510.0,498.0,523.0
513.0,514.0,510.0,500.0,526.0
514.0,512.0,512.0,502.0,526.0
517.0,512.0,515.0,506.0,522.0
519.0,509.0,520.0,519.0,512.0
519.0,510.0,527.0,525.0,498.0
530.0,511.0,533.0,536.0,492.0
517.0,502.0,525.0,539.0,492.0
512.0,498.0,526.0,533.0,495.0
507.0,493.0,513.0,526.0,498.0
501.0,491.0,507.0,524.0,503.0
496.0,491.0,501.0,512.0,512.0
494.0,499.0,498.0,506.0,521.0
501.0,504.0,503.0,504.0,527.0
512.0,515.0,508.0,504.0,519.0
515.0,518.0,509.0,502.0,526.0
524.0,518.0,510.0,500.0,526.0
520.0,511.0,511.0,500.0,527.0
516.0,513.0,510.0,504.0,528.0
520.0,513.0,517.0,506.0,520.0
522.0,517.0,522.0,514.0,512.0
524.0,512.0,526.0,520.0,506.0
527.0,511.0,533.0,531.0,498.0
526.0,511.0,534.0,539.0,492.0
519.0,503.0,525.0,537.0,491.0
511.0,499.0,521.0,535.0,496.0
506.0,494.0,513.0,527.0,498.0
501.0,492.0,506.0,518.0,506.0
498.0,494.0,501.0,515.0,516.0
501.0,500.0,499.0,508.0,518.0
506.0,508.0,504.0,503.0,522.0
512.0,513.0,507.0,508.0,525.0
517.0,517.0,508.0,500.0,527.0
522.0,516.0,510.0,503.0,525.0
518.0,515.0,510.0,497.0,529.0
517.0,519.0,513.0,503.0,526.0
519.0,512.0,517.0,509.0,519.0
518.0,511.0,516.0,515.0,514.0
522.0,509.0,528.0,522.0,505.0
526.0,513.0,532.0,531.0,497.0
523.0,508.0,531.0,536.0,489.0
515.0,506.0,527.0,536.0,495.0
507.0,497.0,519.0,533.0,505.0
505.0,493.0,510.0,520.0,504.0
498.0,487.0,504.0,515.0,517.0
498.0,494.0,501.0,509.0,522.0
506.0,501.0,500.0,504.0,522.0
514.0,509.0,503.0,502.0,523.0
515.0,516.0,509.0,499.0,527.0
515.0,522.0,511.0,499.0,528.0
516.0,520.0,512.0,500.0,531.0
520.0,512.0,509.0,497.0,528.0
521.0,512.0,513.0,502.0,523.0
518.0,511.0,519.0,511.0,513.0
515.0,512.0,524.0,519.0,506.0
524.0,512.0,531.0,527.0,503.0
522.0,510.0,532.0,533.0,494.0
519.0,505.0,536.0,537.0,498.0
512.0,500.0,524.0,539.0,501.0
507.0,496.0,517.0,533.0,504.0
505.0,494.0,510.0,523.0,510.0
498.0,492.0,499.0,513.0,518.0
502.0,498.0,500.0,503.0,526.0
505.0,506.0,503.0,503.0,532.0
508.0,512.0,507.0,506.0,535.0
513.0,515.0,507.0,499.0,537.0
515.0,520.0,511.0,500.0,536.0
514.0,511.0,507.0,497.0,535.0
513.0,510.0,509.0,499.0,534.0
514.0,509.0,515.0,503.0,522.0
515.0,508.0,518.0,511.0,513.0
516.0,510.0,524.0,520.0,509.0
519.0,509.0,528.0,528.0,503.0
524.0,510.0,532.0,540.0,491.0
517.0,502.0,527.0,537.0,488.0
504.0,494.0,515.0,531.0,493.0
502.0,496.0,514.0,528.0,498.0
498.0,494.0,503.0,519.0,504.0
498.0,490.0,500.0,511.0,512.0
501.0,500.0,502.0,512.0,518.0
511.0,508.0,508.0,502.0,521.0
514.0,514.0,507.0,502.0,526.0
516.0,519.0,510.0,501.0,525.0
520.0,516.0,510.0,500.0,527.0
513.0,516.0,511.0,500.0,531.0
517.0,514.0,512.0,503.0,525.0
516.0,511.0,516.0,506.0,522.0
519.0,509.0,519.0,514.0,516.0
522.0,511.0,527.0,525.0,508.0
526.0,514.0,536.0,533.0,501.0
524.0,507.0,531.0,540.0,491.0
516.0,503.0,528.0,538.0,496.0
507.0,495.0,517.0,530.0,497.0
505.0,492.0,510.0,526.0,503.0
502.0,492.0,501.0,514.0,515.0
502.0,493.0,498.0,506.0,517.0
507.0,503.0,503.0,505.0,517.0
508.0,513.0,505.0,503.0,522.0
513.0,514.0,507.0,501.0,527.0
519.0,519.0,509.0,500.0,526.0
519.0,510.0,511.0,497.0,523.0
519.0,513.0,509.0,499.0,524.0
516.0,512.0,511.0,504.0,523.0
517.0,512.0,519.0,510.0,516.0
522.0,509.0,520.0,516.0,507.0
524.0,509.0,526.0,523.0,497.0
525.0,511.0,533.0,535.0,493.0
517.0,506.0,530.0,535.0,498.0
512.0,500.0,524.0,535.0,503.0
507.0,494.0,514.0,531.0,505.0
500.0,487.0,508.0,523.0,512.0
503.0,492.0,501.0,513.0,518.0
500.0,498.0,506.0,509.0,522.0
504.0,505.0,503.0,503.0,521.0
513.0,513.0,506.0,503.0,525.0
519.0,516.0,509.0,501.0,522.0
519.0,518.0,512.0,501.0,527.0
512.0,515.0,510.0,495.0,531.0
515.0,514.0,512.0,502.0,530.0
517.0,512.0,515.0,507.0,523.0
520.0,513.0,522.0,515.0,521.0
523.0,512.0,524.0,520.0,511.0
521.0,511.0,527.0,530.0,503.0
521.0,507.0,531.0,536.0,493.0
515.0,504.0,528.0,537.0,493.0
511.0,499.0,519.0,532.0,493.0
507.0,494.0,512.0,529.0,500.0
500.0,491.0,505.0,518.0,508.0
498.0,490.0,499.0,508.0,517.0
499.0,497.0,500.0,510.0,523.0
502.0,503.0,501.0,501.0,527.0
509.0,510.0,506.0,502.0,527.0
515.0,516.0,510.0,503.0,523.0
515.0,515.0,508.0,498.0,522.0
515.0,511.0,506.0,498.0,529.0
514.0,511.0,510.0,498.0,529.0
515.0,511.0,517.0,507.0,520.0
516.0,511.0,521.0,512.0,517.0
516.0,509.0,526.0,524.0,509.0
521.0,509.0,529.0,527.0,500.0
520.0,508.0,532.0,537.0,496.0
513.0,503.0,530.0,536.0,495.0
513.0,498.0,520.0,533.0,496.0
506.0,494.0,512.0,528.0,501.0
498.0,490.0,503.0,515.0,511.0
501.0,495.0,501.0,508.0,516.0
504.0,500.0,501.0,506.0,526.0
511.0,507.0,505.0,503.0,526.0
516.0,512.0,507.0,501.0,528.0
519.0,517.0,511.0,499.0,530.0
517.0,517.0,515.0,501.0,531.0
517.0,509.0,510.0,500.0,529.0
515.0,515.0,513.0,505.0,524.0
518.0,511.0,518.0,511.0,517.0
520.0,508.0,525.0,518.0,508.0
523.0,505.0,528.0,525.0,497.0
524.0,508.0,531.0,535.0,490.0
519.0,505.0,531.0,542.0,493.0
511.0,499.0,527.0,536.0,499.0
507.0,496.0,515.0,529.0,503.0
506.0,491.0,510.0,523.0,510.0
503.0,495.0,504.0,515.0,517.0
500.0,496.0,499.0,504.0,520.0
502.0,502.0,501.0,506.0,522.0
509.0,510.0,505.0,503.0,519.0
514.0,515.0,508.0,500.0,521.0
518.0,517.0,512.0,501.0,528.0
515.0,514.0,510.0,498.0,528.0
516.0,510.0,510.0,499.0,526.0
519.0,510.0,515.0,505.0,521.0
519.0,510.0,520.0,513.0,516.0
521.0,509.0,526.0,520.0,508.0
520.0,511.0,531.0,534.0,497.0
521.0,508.0,533.0,541.0,495.0
516.0,502.0,528.0,537.0,494.0
510.0,497.0,519.0,533.0,495.0
502.0,495.0,515.0,530.0,502.0
496.0,489.0,500.0,517.0,508.0
498.0,493.0,504.0,510.0,519.0
502.0,496.0,499.0,504.0,523.0
509.0,506.0,503.0,503.0,527.0
512.0,513.0,504.0,502.0,528.0
522.0,519.0,512.0,502.0,528.0
518.0,519.0,512.0,502.0,529.0
515.0,516.0,513.0,499.0,529.0
519.0,513.0,507.0,500.0,523.0
523.0,513.0,517.0,510.0,516.0
520.0,506.0,519.0,512.0,510.0
525.0,511.0,525.0,526.0,499.0
528.0,510.0,534.0,532.0,494.0
523.0,506.0,530.0,535.0,496.0
514.0,499.0,523.0,533.0,492.0
506.0,492.0,515.0,529.0,498.0
503.0,492.0,512.0,521.0,503.0
496.0,487.0,501.0,514.0,515.0
496.0,493.0,501.0,508.0,514.0
503.0,501.0,503.0,506.0,518.0
508.0,504.0,504.0,504.0,522.0
511.0,513.0,503.0,494.0,529.0
518.0,515.0,505.0,497.0,530.0
518.0,515.0,509.0,499.0,539.0
516.0,515.0,515.0,500.0,536.0
519.0,512.0,512.0,503.0,532.0
518.0,510.0,515.0,503.0,527.0
521.0,510.0,520.0,514.0,517.0
523.0,516.0,527.0,526.0,500.0
517.0,510.0,531.0,532.0,487.0
518.0,507.0,532.0,543.0,494.0
509.0,501.0,525.0,534.0,497.0
503.0,494.0,514.0,529.0,497.0
498.0,491.0,507.0,528.0,502.0
495.0,495.0,500.0,513.0,510.0
497.0,497.0,499.0,507.0,524.0
508.0,507.0,501.0,503.0,524.0
518.0,513.0,507.0,506.0,520.0
515.0,516.0,509.0,504.0,520.0
517.0,519.0,510.0,500.0,522.0
517.0,515.0,509.0,494.0,529.0
518.0,512.0,507.0,500.0,533.0
521.0,514.0,514.0,505.0,533.0
520.0,517.0,520.0,512.0,523.0
520.0,514.0,524.0,519.0,514.0
526.0,512.0,529.0,528.0,500.0
521.0,512.0,531.0,537.0,493.0
516.0,504.0,526.0,536.0,486.0
512.0,499.0,523.0,532.0,488.0
506.0,493.0,512.0,527.0,498.0
499.0,491.0,505.0,517.0,502.0
501.0,496.0,503.0,511.0,508.0
501.0,499.0,502.0,506.0,522.0
506.0,506.0,504.0,503.0,525.0
508.0,511.0,504.0,500.0,527.0
513.0,514.0,508.0,501.0,523.0
516.0,515.0,509.0,500.0,524.0
519.0,508.0,507.0,498.0,527.0
520.0,513.0,510.0,502.0,524.0
523.0,512.0,512.0,506.0,519.0
521.0,510.0,520.0,515.0,510.0
522.0,512.0,525.0,524.0,500.0
523.0,511.0,532.0,535.0,490.0
520.0,506.0,529.0,536.0,490.0
514.0,500.0,523.0,532.0,488.0
506.0,495.0,516.0,528.0,502.0
501.0,493.0,509.0,523.0,498.0
501.0,493.0,504.0,516.0,514.0
497.0,494.0,499.0,509.0,519.0
506.0,505.0,505.0,507.0,522.0
513.0,511.0,505.0,504.0,529.0
513.0,516.0,509.0,503.0,528.0
514.0,521.0,510.0,500.0,529.0
516.0,521.0,511.0,501.0,526.0
517.0,516.0,511.0,501.0,525.0
518.0,518.0,514.0,504.0,522.0
520.0,511.0,517.0,511.0,513.0
524.0,509.0,519.0,514.0,506.0
522.0,512.0,532.0,526.0,500.0
523.0,509.0,531.0,535.0,498.0
515.0,503.0,526.0,536.0,495.0
510.0,502.0,521.0,534.0,496.0
507.0,493.0,513.0,528.0,503.0
501.0,490.0,507.0,523.0,505.0
499.0,491.0,502.0,513.0,514.0
497.0,495.0,497.0,504.0,524.0
501.0,502.0,502.0,501.0,528.0
507.0,509.0,505.0,502.0,524.0
512.0,514.0,508.0,500.0,527.0
513.0,511.0,507.0,498.0,527.0
515.0,514.0,507.0,497.0,529.0
514.0,513.0,512.0,498.0,525.0
517.0,516.0,514.0,506.0,523.0
520.0,512.0,520.0,515.0,514.0
524.0,513.0,527.0,520.0,500.0
525.0,512.0,532.0,530.0,493.0
525.0,509.0,532.0,536.0,486.0
521.0,506.0,532.0,538.0,492.0
520.0,501.0,521.0,533.0,496.0
511.0,494.0,510.0,526.0,503.0
500.0,491.0,505.0,519.0,511.0
497.0,493.0,501.0,512.0,519.0
501.0,500.0,499.0,504.0,518.0
506.0,505.0,501.0,502.0,522.0
510.0,513.0,508.0,502.0,521.0
517.0,521.0,510.0,502.0,523.0
517.0,518.0,513.0,500.0,527.0
515.0,514.0,508.0,498.0,531.0
514.0,513.0,509.0,500.0,533.0
514.0,513.0,516.0,508.0,525.0
519.0,512.0,520.0,516.0,510.0
523.0,512.0,525.0,523.0,498.0
521.0,516.0,531.0,532.0,487.0
517.0,506.0,532.0,543.0,487.0
515.0,500.0,523.0,536.0,489.0
510.0,495.0,518.0,530.0,499.0
509.0,492.0,509.0,525.0,500.0
502.0,491.0,504.0,519.0,507.0
496.0,493.0,500.0,510.0,513.0
498.0,501.0,502.0,507.0,520.0
509.0,509.0,505.0,505.0,519.0
516.0,512.0,506.0,501.0,519.0
515.0,517.0,509.0,504.0,520.0
513.0,515.0,509.0,502.0,525.0
510.0,514.0,513.0,500.0,523.0
515.0,514.0,513.0,503.0,522.0
520.0,516.0,517.0,510.0,518.0
517.0,509.0,520.0,517.0,512.0
522.0,510.0,525.0,524.0,504.0
529.0,510.0,532.0,535.0,492.0
518.0,505.0,529.0,539.0,491.0
517.0,502.0,523.0,535.0,491.0
509.0,496.0,516.0,530.0,495.0
504.0,493.0,508.0,524.0,503.0
497.0,493.0,502.0,516.0,515.0
497.0,496.0,497.0,508.0,515.0
505.0,504.0,502.0,505.0,521.0
509.0,512.0,510.0,503.0,522.0
513.0,514.0,508.0,502.0,524.0
518.0,520.0,510.0,502.0,526.0
517.0,516.0,510.0,498.0,529.0
517.0,512.0,510.0,500.0,528.0
518.0,513.0,515.0,505.0,524.0
519.0,511.0,518.0,512.0,520.0
519.0,507.0,523.0,517.0,515.0
519.0,507.0,523.0,527.0,504.0
522.0,508.0,531.0,534.0,501.0
521.0,504.0,528.0,536.0,492.0
512.0,501.0,521.0,533.0,497.0
509.0,493.0,509.0,526.0,502.0
509.0,487.0,502.0,516.0,512.0
501.0,489.0,499.0,510.0,523.0
504.0,499.0,502.0,509.0,532.0
510.0,507.0,503.0,502.0,531.0
516.0,513.0,504.0,501.0,528.0
519.0,512.0,506.0,502.0,530.0
520.0,514.0,508.0,499.0,532.0
517.0,512.0,508.0,497.0,532.0
514.0,511.0,508.0,501.0,525.0
515.0,510.0,514.0,507.0,519.0
519.0,508.0,519.0,513.0,507.0
522.0,511.0,522.0,523.0,497.0
526.0,513.0,533.0,534.0,495.0
522.0,510.0,531.0,537.0,489.0
516.0,504.0,527.0,536.0,492.0
509.0,499.0,520.0,531.0,497.0
501.0,495.0,512.0,528.0,502.0
499.0,494.0,505.0,516.0,512.0
499.0,496.0,505.0,510.0,521.0
503.0,498.0,501.0,504.0,522.0
509.0,509.0,502.0,504.0,526.0
516.0,515.0,508.0,504.0,526.0
518.0,518.0,510.0,500.0,527.0
517.0,517.0,512.0,501.0,531.0
516.0,513.0,514.0,499.0,527.0
519.0,514.0,516.0,502.0,525.0
518.0,512.0,518.0,508.0,522.0
520.0,510.0,521.0,517.0,513.0
522.0,515.0,530.0,526.0,503.0
522.0,510.0,533.0,534.0,496.0
524.0,505.0,531.0,538.0,493.0
514.0,500.0,529.0,537.0,495.0
508.0,496.0,515.0,530.0,500.0
503.0,492.0,509.0,524.0,506.0
504.0,493.0,502.0,514.0,510.0
500.0,495.0,500.0,507.0,521.0
505.0,506.0,504.0,505.0,526.0
511.0,511.0,507.0,503.0,527.0
511.0,517.0,509.0,501.0,531.0
512.0,516.0,510.0,500.0,530.0
515.0,511.0,510.0,499.0,529.0
517.0,515.0,511.0,500.0,533.0
521.0,514.0,517.0,506.0,524.0
519.0,513.0,522.0,518.0,516.0
523.0,512.0,526.0,520.0,511.0
523.0,509.0,525.0,528.0,505.0
525.0,508.0,532.0,534.0,498.0
522.0,505.0,528.0,536.0,501.0
518.0,497.0,519.0,532.0,499.0
516.0,494.0,511.0,526.0,502.0
511.0,492.0,509.0,519.0,509.0
504.0,493.0,500.0,511.0,515.0
501.0,498.0,504.0,504.0,524.0
504.0,505.0,503.0,505.0,527.0
508.0,510.0,505.0,501.0,520.0
508.0,512.0,507.0,500.0,525.0
513.0,516.0,511.0,501.0,521.0
512.0,514.0,510.0,504.0,526.0
514.0,518.0,514.0,502.0,524.0
514.0,510.0,514.0,508.0,521.0
518.0,507.0,514.0,511.0,516.0
518.0,508.0,524.0,521.0,510.0
522.0,510.0,532.0,531.0,498.0
522.0,507.0,534.0,536.0,497.0
515.0,502.0,527.0,533.0,496.0
506.0,497.0,516.0,531.0,499.0
502.0,492.0,511.0,528.0,503.0
498.0,494.0,504.0,516.0,513.0
497.0,491.0,498.0,504.0,522.0
500.0,501.0,502.0,505.0,529.0
504.0,507.0,504.0,502.0,530.0
510.0,513.0,507.0,502.0,530.0
512.0,517.0,514.0,499.0,532.0
517.0,516.0,514.0,499.0,530.0
515.0,517.0,510.0,498.0,527.0
518.0,512.0,513.0,501.0,522.0
519.0,512.0,516.0,510.0,523.0
523.0,511.0,519.0,517.0,511.0
524.0,512.0,526.0,520.0,504.0
527.0,512.0,533.0,539.0,493.0
521.0,507.0,529.0,539.0,489.0
516.0,500.0,523.0,537.0,488.0
509.0,496.0,515.0,529.0,502.0
503.0,489.0,509.0,523.0,507.0
501.0,493.0,500.0,517.0,513.0
500.0,496.0,503.0,508.0,525.0
503.0,507.0,502.0,505.0,526.0
505.0,510.0,505.0,503.0,529.0
510.0,514.0,506.0,502.0,525.0
515.0,521.0,511.0,501.0,526.0
518.0,515.0,515.0,500.0,529.0
516.0,513.0,510.0,498.0,532.0
518.0,515.0,512.0,505.0,528.0
521.0,512.0,519.0,512.0,521.0
519.0,511.0,526.0,517.0,512.0
520.0,512.0,529.0,527.0,503.0
523.0,511.0,533.0,534.0,497.0
520.0,506.0,526.0,535.0,492.0
515.0,500.0,522.0,537.0,493.0
508.0,497.0,514.0,526.0,502.0
504.0,493.0,505.0,516.0,510.0
499.0,498.0,502.0,512.0,513.0
498.0,501.0,500.0,506.0,521.0
500.0,509.0,506.0,505.0,521.0
513.0,515.0,509.0,501.0,518.0
518.0,516.0,511.0,498.0,525.0
524.0,520.0,510.0,498.0,529.0
522.0,514.0,513.0,498.0,524.0
518.0,513.0,510.0,501.0,522.0
515.0,511.0,514.0,507.0,524.0
521.0,510.0,519.0,513.0,511.0
523.0,514.0,527.0,523.0,500.0
523.0,514.0,532.0,531.0,500.0
523.0,510.0,530.0,533.0,500.0
521.0,503.0,526.0,533.0,497.0
513.0,496.0,518.0,531.0,500.0
509.0,496.0,513.0,530.0,504.0
503.0,491.0,503.0,513.0,515.0
491.0,489.0,503.0,510.0,518.0
493.0,501.0,502.0,508.0,521.0
498.0,508.0,505.0,504.0,521.0
505.0,515.0,508.0,502.0,524.0
512.0,515.0,507.0,500.0,528.0
514.0,514.0,507.0,501.0,531.0
513.0,512.0,506.0,494.0,528.0
517.0,511.0,510.0,501.0,521.0
519.0,512.0,516.0,514.0,519.0
520.0,511.0,521.0,518.0,514.0
521.0,509.0,528.0,523.0,509.0
520.0,509.0,530.0,532.0,498.0
519.0,508.0,529.0,536.0,489.0
515.0,502.0,528.0,535.0,491.0
504.0,494.0,514.0,526.0,500.0
500.0,493.0,508.0,521.0,507.0
501.0,492.0,495.0,513.0,516.0
501.0,498.0,502.0,508.0,525.0
506.0,506.0,505.0,503.0,530.0
515.0,515.0,509.0,504.0,531.0
517.0,515.0,505.0,497.0,538.0
515.0,518.0,508.0,497.0,542.0
516.0,518.0,509.0,501.0,543.0
519.0,512.0,511.0,498.0,539.0
516.0,514.0,520.0,507.0,529.0
520.0,515.0,522.0,516.0,511.0
522.0,511.0,523.0,522.0,501.0
523.0,510.0,528.0,526.0,502.0
527.0,511.0,532.0,535.0,495.0
521.0,505.0,528.0,536.0,492.0
517.0,505.0,522.0,534.0,491.0
510.0,497.0,514.0,528.0,497.0
500.0,495.0,504.0,518.0,501.0
495.0,495.0,505.0,514.0,509.0
499.0,499.0,500.0,507.0,517.0
505.0,503.0,505.0,502.0,521.0
514.0,513.0,505.0,501.0,518.0
519.0,517.0,508.0,498.0,521.0
519.0,519.0,510.0,500.0,520.0
514.0,513.0,508.0,497.0,523.0
515.0,510.0,510.0,498.0,520.0
517.0,513.0,514.0,504.0,516.0
519.0,509.0,514.0,513.0,511.0
520.0,511.0,525.0,523.0,505.0
522.0,510.0,528.0,530.0,494.0
519.0,508.0,531.0,536.0,490.0
517.0,502.0,524.0,536.0,488.0
509.0,497.0,518.0,529.0,499.0
504.0,494.0,512.0,526.0,503.0
499.0,488.0,503.0,515.0,510.0
498.0,494.0,500.0,508.0,521.0
502.0,504.0,502.0,506.0,521.0
506.0,505.0,505.0,504.0,524.0
512.0,515.0,507.0,501.0,523.0
513.0,517.0,511.0,501.0,528.0
518.0,518.0,512.0,498.0,529.0
521.0,515.0,516.0,498.0,528.0
523.0,516.0,526.0,503.0,528.0
524.0,516.0,526.0,510.0,520.0
524.0,514.0,532.0,517.0,512.0
521.0,511.0,529.0,524.0,506.0
519.0,509.0,523.0,531.0,498.0
515.0,501.0,519.0,535.0,493.0
508.0,500.0,520.0,535.0,496.0
507.0,499.0,515.0,528.0,502.0
503.0,493.0,509.0,527.0,505.0
500.0,492.0,501.0,514.0,515.0
498.0,496.0,497.0,508.0,524.0
508.0,502.0,499.0,506.0,527.0
511.0,509.0,501.0,504.0,527.0
513.0,512.0,505.0,501.0,529.0
519.0,517.0,505.0,499.0,525.0
518.0,513.0,508.0,497.0,525.0
514.0,510.0,506.0,502.0,525.0
523.0,511.0,512.0,502.0,522.0
517.0,510.0,516.0,508.0,518.0
519.0,511.0,521.0,519.0,511.0
514.0,511.0,528.0,531.0,499.0
518.0,510.0,531.0,537.0,495.0
514.0,504.0,528.0,538.0,498.0
514.0,499.0,520.0,534.0,501.0
504.0,494.0,513.0,528.0,510.0
499.0,491.0,508.0,518.0,509.0
504.0,495.0,505.0,513.0,513.0
504.0,499.0,503.0,507.0,519.0
506.0,504.0,501.0,505.0,521.0
511.0,511.0,506.0,504.0,524.0
513.0,514.0,508.0,504.0,526.0
520.0,516.0,509.0,501.0,523.0
516.0,515.0,509.0,500.0,526.0
519.0,513.0,509.0,500.0,528.0
519.0,512.0,516.0,506.0,524.0
523.0,513.0,524.0,514.0,519.0
517.0,513.0,529.0,523.0,510.0
520.0,513.0,536.0,534.0,504.0
520.0,506.0,528.0,537.0,492.0
515.0,500.0,522.0,537.0,487.0
506.0,496.0,515.0,532.0,494.0
509.0,496.0,515.0,527.0,502.0
503.0,492.0,504.0,518.0,511.0
506.0,493.0,497.0,503.0,519.0
505.0,499.0,499.0,510.0,517.0
508.0,508.0,505.0,506.0,521.0
513.0,513.0,504.0,504.0,527.0
516.0,517.0,509.0,501.0,527.0
517.0,520.0,510.0,498.0,528.0
521.0,516.0,510.0,496.0,534.0
518.0,514.0,510.0,503.0,527.0
522.0,515.0,518.0,508.0,517.0
521.0,511.0,521.0,515.0,514.0
522.0,514.0,530.0,526.0,507.0
524.0,511.0,533.0,535.0,494.0
522.0,507.0,529.0,536.0,498.0
515.0,501.0,525.0,533.0,499.0
506.0,499.0,516.0,528.0,505.0
504.0,492.0,510.0,525.0,508.0
499.0,494.0,506.0,519.0,514.0
498.0,495.0,495.0,508.0,519.0
497.0,499.0,501.0,503.0,521.0
506.0,507.0,506.0,506.0,524.0
509.0,512.0,506.0,500.0,527.0
514.0,515.0,510.0,499.0,528.0
509.0,514.0,508.0,495.0,533.0
509.0,512.0,505.0,497.0,533.0
527.0,515.0,516.0,503.0,530.0
527.0,512.0,520.0,514.0,524.0
529.0,510.0,521.0,518.0,505.0
529.0,509.0,531.0,528.0,497.0
528.0,511.0,533.0,536.0,491.0
525.0,505.0,530.0,538.0,497.0
519.0,503.0,522.0,534.0,501.0
505.0,490.0,512.0,525.0,514.0
498.0,486.0,499.0,515.0,525.0
495.0,490.0,501.0,507.0,522.0
490.0,496.0,499.0,510.0,524.0
499.0,503.0,499.0,505.0,517.0
499.0,508.0,506.0,500.0,516.0
514.0,513.0,506.0,500.0,520.0
514.0,513.0,509.0,500.0,523.0
519.0,512.0,507.0,498.0,525.0
517.0,509.0,507.0,501.0,524.0
518.0,509.0,516.0,506.0,525.0
521.0,507.0,517.0,514.0,516.0
516.0,506.0,521.0,521.0,506.0
521.0,509.0,529.0,531.0,495.0
524.0,505.0,529.0,535.0,487.0
518.0,501.0,524.0,533.0,490.0
504.0,495.0,517.0,532.0,495.0
498.0,494.0,512.0,531.0,499.0
497.0,491.0,506.0,521.0,507.0
510.0,495.0,502.0,512.0,515.0
504.0,501.0,503.0,506.0,515.0
506.0,506.0,509.0,508.0,519.0
511.0,514.0,515.0,509.0,520.0
517.0,513.0,516.0,505.0,517.0
521.0,516.0,519.0,506.0,521.0
516.0,513.0,509.0,503.0,521.0
518.0,513.0,517.0,504.0,516.0
517.0,511.0,516.0,502.0,512.0
527.0,511.0,521.0,512.0,500.0
532.0,514.0,531.0,524.0,496.0
531.0,512.0,536.0,535.0,493.0
528.0,509.0,532.0,536.0,488.0
520.0,503.0,528.0,536.0,502.0
513.0,497.0,524.0,530.0,518.0
514.0,494.0,518.0,524.0,512.0
504.0,495.0,506.0,513.0,514.0
503.0,496.0,510.0,507.0,521.0
503.0,500.0,507.0,504.0,520.0
507.0,508.0,508.0,503.0,515.0
507.0,510.0,499.0,500.0,516.0
514.0,517.0,509.0,501.0,517.0
515.0,516.0,510.0,500.0,521.0
514.0,513.0,504.0,499.0,521.0
519.0,511.0,510.0,503.0,519.0
517.0,512.0,518.0,507.0,512.0
517.0,509.0,521.0,517.0,512.0
519.0,507.0,524.0,526.0,501.0
523.0,507.0,530.0,534.0,490.0
518.0,504.0,531.0,537.0,491.0
512.0,498.0,522.0,532.0,497.0
505.0,496.0,513.0,530.0,500.0
499.0,492.0,504.0,516.0,506.0
507.0,494.0,502.0,515.0,516.0
509.0,499.0,503.0,515.0,523.0
514.0,505.0,504.0,508.0,527.0
520.0,508.0,503.0,499.0,526.0
522.0,514.0,508.0,503.0,528.0
512.0,513.0,509.0,499.0,533.0
505.0,513.0,511.0,501.0,529.0
496.0,512.0,512.0,503.0,527.0
509.0,513.0,515.0,508.0,524.0
520.0,512.0,519.0,514.0,514.0
523.0,508.0,522.0,518.0,500.0
521.0,512.0,534.0,529.0,492.0
524.0,510.0,538.0,536.0,483.0
518.0,503.0,534.0,536.0,488.0
507.0,501.0,527.0,533.0,494.0
504.0,494.0,524.0,523.0,510.0
501.0,488.0,513.0,516.0,515.0
507.0,495.0,505.0,513.0,520.0
498.0,502.0,497.0,505.0,534.0
498.0,505.0,500.0,503.0,528.0
500.0,507.0,503.0,500.0,520.0
505.0,511.0,503.0,499.0,518.0
510.0,515.0,506.0,498.0,518.0
513.0,511.0,508.0,498.0,519.0
517.0,511.0,509.0,496.0,525.0
523.0,510.0,510.0,504.0,520.0
519.0,507.0,511.0,508.0,512.0
529.0,512.0,524.0,521.0,501.0
530.0,513.0,526.0,529.0,492.0
517.0,508.0,532.0,536.0,499.0
517.0,500.0,524.0,534.0,486.0
518.0,496.0,520.0,534.0,484.0
509.0,495.0,513.0,535.0,495.0
502.0,494.0,504.0,521.0,510.0
506.0,495.0,492.0,512.0,512.0
503.0,501.0,501.0,509.0,519.0
510.0,512.0,503.0,510.0,521.0
515.0,516.0,511.0,508.0,526.0
521.0,517.0,511.0,506.0,527.0
521.0,517.0,513.0,507.0,533.0
512.0,513.0,512.0,503.0,532.0
517.0,515.0,517.0,510.0,523.0
515.0,514.0,526.0,513.0,519.0
520.0,510.0,524.0,516.0,519.0
521.0,513.0,532.0,526.0,509.0
518.0,510.0,533.0,534.0,493.0
515.0,504.0,528.0,537.0,489.0
510.0,501.0,520.0,530.0,488.0
501.0,494.0,513.0,524.0,493.0
495.0,491.0,506.0,523.0,501.0
501.0,493.0,496.0,518.0,513.0
507.0,497.0,496.0,502.0,524.0
508.0,505.0,499.0,500.0,534.0
511.0,516.0,511.0,504.0,533.0
514.0,517.0,514.0,506.0,527.0
521.0,518.0,513.0,502.0,523.0
526.0,517.0,514.0,506.0,528.0
519.0,511.0,512.0,504.0,530.0
516.0,513.0,506.0,503.0,524.0
513.0,507.0,511.0,512.0,513.0
521.0,513.0,527.0,518.0,503.0
521.0,512.0,533.0,528.0,500.0
517.0,510.0,535.0,539.0,494.0
512.0,502.0,534.0,532.0,494.0
525.0,499.0,520.0,528.0,497.0
516.0,494.0,515.0,525.0,502.0
503.0,489.0,506.0,515.0,516.0
504.0,492.0,501.0,505.0,523.0
511.0,503.0,513.0,500.0,516.0
515.0,509.0,516.0,497.0,523.0
514.0,518.0,520.0,492.0,522.0
520.0,521.0,525.0,500.0,518.0
521.0,521.0,523.0,500.0,518.0
521.0,512.0,504.0,500.0,520.0
521.0,513.0,509.0,504.0,518.0
520.0,512.0,514.0,509.0,528.0
520.0,511.0,514.0,515.0,522.0
523.0,511.0,525.0,523.0,506.0
522.0,511.0,531.0,532.0,504.0
519.0,507.0,528.0,535.0,497.0
513.0,502.0,525.0,532.0,499.0
506.0,498.0,520.0,525.0,502.0
509.0,496.0,518.0,526.0,506.0
503.0,492.0,512.0,513.0,512.0
498.0,493.0,504.0,503.0,521.0
499.0,502.0,507.0,499.0,531.0
508.0,508.0,512.0,501.0,519.0
514.0,512.0,511.0,498.0,527.0
514.0,515.0,513.0,499.0,530.0
514.0,509.0,504.0,496.0,533.0
517.0,516.0,503.0,496.0,534.0
521.0,514.0,501.0,500.0,524.0
525.0,513.0,514.0,508.0,519.0
521.0,508.0,516.0,517.0,517.0
525.0,512.0,527.0,528.0,510.0
527.0,510.0,528.0,534.0,501.0
524.0,505.0,529.0,539.0,498.0
518.0,498.0,525.0,532.0,507.0
513.0,494.0,512.0,528.0,511.0
504.0,492.0,503.0,519.0,515.0
502.0,493.0,497.0,513.0,523.0
500.0,503.0,500.0,505.0,531.0
500.0,505.0,501.0,503.0,527.0
505.0,512.0,506.0,502.0,519.0
509.0,511.0,508.0,501.0,512.0
510.0,515.0,507.0,501.0,511.0
510.0,514.0,509.0,500.0,520.0
509.0,510.0,509.0,500.0,523.0
515.0,513.0,517.0,506.0,524.0
521.0,513.0,520.0,517.0,516.0
525.0,510.0,524.0,522.0,507.0
531.0,512.0,529.0,532.0,505.0
533.0,512.0,537.0,535.0,499.0
527.0,507.0,535.0,537.0,497.0
517.0,499.0,528.0,537.0,503.0
501.0,494.0,521.0,530.0,505.0
493.0,490.0,513.0,521.0,514.0
491.0,502.0,505.0,511.0,514.0
498.0,500.0,490.0,509.0,511.0
515.0,506.0,499.0,500.0,507.0
517.0,512.0,503.0,500.0,513.0
516.0,516.0,508.0,500.0,521.0
515.0,519.0,509.0,502.0,524.0
508.0,514.0,509.0,498.0,529.0
510.0,513.0,509.0,498.0,525.0
513.0,513.0,513.0,502.0,512.0
517.0,512.0,520.0,515.0,505.0
529.0,516.0,525.0,527.0,494.0
530.0,516.0,531.0,531.0,493.0
523.0,508.0,528.0,532.0,505.0
517.0,501.0,522.0,528.0,496.0
526.0,499.0,515.0,528.0,494.0
512.0,493.0,507.0,521.0,508.0
507.0,493.0,514.0,513.0,513.0
505.0,498.0,515.0,504.0,522.0
506.0,507.0,522.0,504.0,526.0
511.0,516.0,526.0,504.0,531.0
509.0,515.0,517.0,503.0,530.0
517.0,516.0,483.0,497.0,528.0
517.0,518.0,502.0,501.0,527.0
508.0,512.0,508.0,507.0,526.0
498.0,507.0,510.0,516.0,523.0
487.0,503.0,508.0,518.0,525.0
479.0,503.0,517.0,519.0,515.0
476.0,503.0,517.0,528.0,518.0
493.0,504.0,523.0,536.0,506.0
496.0,499.0,520.0,538.0,506.0
521.0,501.0,516.0,537.0,495.0
532.0,503.0,517.0,534.0,488.0
532.0,500.0,509.0,526.0,496.0
530.0,495.0,499.0,511.0,508.0
518.0,497.0,493.0,500.0,519.0
511.0,504.0,492.0,496.0,528.0
507.0,510.0,495.0,501.0,514.0
504.0,512.0,499.0,489.0,520.0
504.0,514.0,502.0,483.0,537.0
502.0,514.0,505.0,491.0,534.0
500.0,510.0,508.0,500.0,525.0
501.0,511.0,518.0,506.0,532.0
535.0,508.0,523.0,515.0,523.0
542.0,512.0,528.0,521.0,517.0
561.0,515.0,533.0,529.0,509.0
537.0,514.0,543.0,532.0,496.0
530.0,514.0,549.0,540.0,482.0
528.0,508.0,545.0,540.0,481.0
521.0,504.0,536.0,538.0,484.0
509.0,496.0,515.0,524.0,502.0
501.0,492.0,500.0,510.0,520.0
507.0,494.0,490.0,505.0,526.0
514.0,503.0,499.0,503.0,522.0
519.0,510.0,510.0,502.0,527.0
521.0,517.0,520.0,507.0,528.0
518.0,517.0,520.0,507.0,534.0
519.0,517.0,511.0,504.0,529.0
518.0,515.0,509.0,506.0,512.0
515.0,507.0,511.0,510.0,505.0
515.0,510.0,518.0,523.0,506.0
524.0,513.0,524.0,527.0,505.0
533.0,513.0,529.0,532.0,496.0
526.0,507.0,529.0,539.0,490.0
522.0,502.0,526.0,544.0,492.0
510.0,499.0,517.0,534.0,495.0
504.0,493.0,511.0,530.0,499.0
500.0,491.0,504.0,520.0,509.0
499.0,495.0,501.0,513.0,517.0
502.0,500.0,501.0,504.0,518.0
507.0,508.0,509.0,508.0,518.0
514.0,513.0,512.0,507.0,525.0
517.0,514.0,517.0,504.0,525.0
517.0,515.0,518.0,503.0,525.0
516.0,509.0,518.0,502.0,525.0
519.0,514.0,518.0,507.0,521.0
522.0,515.0,539.0,517.0,517.0
525.0,514.0,545.0,525.0,510.0
526.0,518.0,550.0,534.0,501.0
522.0,512.0,542.0,538.0,497.0
516.0,502.0,513.0,542.0,496.0
509.0,497.0,510.0,535.0,496.0
502.0,493.0,509.0,528.0,504.0
501.0,493.0,506.0,521.0,504.0
496.0,495.0,507.0,512.0,510.0
501.0,501.0,507.0,507.0,511.0
518.0,508.0,512.0,505.0,517.0
503.0,512.0,514.0,502.0,528.0
502.0,513.0,498.0,498.0,535.0
511.0,512.0,497.0,496.0,545.0
516.0,514.0,499.0,497.0,541.0
516.0,514.0,504.0,508.0,542.0
522.0,513.0,519.0,516.0,536.0
532.0,516.0,528.0,530.0,519.0
529.0,514.0,530.0,534.0,513.0
516.0,508.0,532.0,532.0,502.0
518.0,508.0,541.0,531.0,493.0
515.0,510.0,538.0,535.0,484.0
510.0,508.0,541.0,541.0,488.0
506.0,507.0,538.0,538.0,496.0
500.0,499.0,506.0,526.0,500.0
497.0,496.0,483.0,515.0,508.0
503.0,507.0,495.0,509.0,515.0
511.0,520.0,499.0,506.0,521.0
517.0,519.0,495.0,502.0,529.0
513.0,516.0,499.0,502.0,529.0
514.0,523.0,509.0,506.0,529.0
510.0,522.0,504.0,506.0,534.0
510.0,521.0,507.0,510.0,526.0
512.0,520.0,512.0,524.0,505.0
516.0,519.0,510.0,521.0,501.0
541.0,525.0,516.0,532.0,490.0
535.0,516.0,516.0,531.0,495.0
515.0,510.0,515.0,527.0,490.0
500.0,506.0,515.0,526.0,491.0
487.0,500.0,504.0,517.0,496.0
474.0,497.0,501.0,510.0,505.0
469.0,496.0,491.0,505.0,516.0
472.0,495.0,486.0,493.0,532.0
512.0,502.0,487.0,494.0,526.0
541.0,517.0,506.0,500.0,524.0
550.0,525.0,519.0,499.0,531.0
538.0,524.0,522.0,493.0,538.0
523.0,522.0,525.0,491.0,541.0
519.0,519.0,523.0,499.0,529.0
524.0,516.0,501.0,505.0,514.0
513.0,518.0,518.0,506.0,505.0
512.0,513.0,528.0,517.0,500.0
520.0,515.0,534.0,526.0,485.0
527.0,516.0,540.0,537.0,479.0
533.0,515.0,545.0,540.0,493.0
526.0,511.0,540.0,537.0,492.0
516.0,504.0,532.0,533.0,506.0
512.0,505.0,518.0,527.0,536.0
508.0,505.0,515.0,515.0,546.0
505.0,508.0,508.0,501.0,534.0
496.0,513.0,509.0,505.0,526.0
493.0,517.0,511.0,502.0,512.0
498.0,517.0,513.0,499.0,515.0
509.0,517.0,510.0,494.0,529.0
497.0,513.0,503.0,491.0,535.0
494.0,512.0,505.0,492.0,522.0
538.0,524.0,520.0,507.0,512.0
551.0,529.0,527.0,522.0,497.0
538.0,526.0,534.0,533.0,493.0
530.0,521.0,540.0,544.0,496.0
525.0,519.0,545.0,550.0,501.0
514.0,512.0,538.0,544.0,506.0
506.0,503.0,534.0,541.0,503.0
504.0,503.0,525.0,536.0,508.0
506.0,496.0,518.0,527.0,505.0
495.0,496.0,510.0,517.0,512.0
499.0,503.0,508.0,507.0,521.0
512.0,508.0,509.0,503.0,525.0
523.0,515.0,510.0,497.0,527.0
513.0,516.0,511.0,500.0,531.0
515.0,514.0,515.0,496.0,540.0
523.0,514.0,516.0,501.0,524.0
530.0,517.0,524.0,505.0,518.0
521.0,516.0,538.0,513.0,514.0
527.0,520.0,552.0,525.0,491.0
539.0,518.0,554.0,525.0,479.0
526.0,514.0,536.0,527.0,493.0
525.0,513.0,508.0,535.0,499.0
519.0,501.0,495.0,527.0,498.0
506.0,501.0,501.0,523.0,495.0
503.0,501.0,507.0,520.0,506.0
501.0,494.0,505.0,509.0,509.0
501.0,500.0,503.0,500.0,509.0
502.0,504.0,503.0,499.0,513.0
504.0,503.0,506.0,501.0,514.0
506.0,512.0,502.0,499.0,516.0
505.0,518.0,489.0,505.0,520.0
502.0,516.0,504.0,509.0,524.0
498.0,511.0,507.0,510.0,528.0
498.0,511.0,509.0,513.0,523.0
501.0,506.0,510.0,511.0,525.0
517.0,512.0,512.0,513.0,522.0
535.0,513.0,523.0,520.0,514.0
535.0,516.0,534.0,529.0,499.0
528.0,509.0,530.0,533.0,497.0
523.0,501.0,521.0,524.0,499.0
523.0,499.0,519.0,523.0,494.0
518.0,501.0,511.0,523.0,488.0
511.0,499.0,508.0,514.0,496.0
505.0,498.0,494.0,501.0,512.0
507.0,504.0,499.0,499.0,522.0
516.0,511.0,505.0,496.0,521.0
515.0,513.0,506.0,490.0,535.0
530.0,513.0,504.0,486.0,537.0
535.0,520.0,521.0,498.0,530.0
521.0,514.0,516.0,493.0,529.0
517.0,510.0,522.0,496.0,524.0
519.0,514.0,538.0,512.0,513.0
527.0,515.0,553.0,536.0,499.0
531.0,513.0,552.0,543.0,480.0
531.0,509.0,541.0,549.0,473.0
521.0,498.0,504.0,541.0,476.0
501.0,489.0,500.0,534.0,492.0
486.0,480.0,503.0,523.0,525.0
478.0,486.0,510.0,526.0,535.0
475.0,490.0,511.0,523.0,541.0
500.0,495.0,490.0,519.0,538.0
510.0,505.0,480.0,521.0,531.0
503.0,509.0,508.0,524.0,532.0
505.0,513.0,522.0,514.0,536.0
502.0,510.0,524.0,507.0,526.0
507.0,507.0,514.0,499.0,520.0
512.0,503.0,507.0,483.0,522.0
531.0,509.0,518.0,488.0,521.0
539.0,510.0,517.0,499.0,516.0
524.0,503.0,516.0,507.0,506.0
523.0,506.0,519.0,522.0,482.0
524.0,509.0,532.0,543.0,477.0
508.0,502.0,528.0,547.0,487.0
501.0,494.0,518.0,542.0,493.0
495.0,491.0,518.0,545.0,509.0
499.0,494.0,518.0,539.0,517.0
517.0,493.0,488.0,520.0,531.0
524.0,500.0,489.0,506.0,533.0
532.0,503.0,499.0,506.0,528.0
544.0,513.0,502.0,501.0,527.0
546.0,510.0,504.0,505.0,533.0
530.0,513.0,503.0,502.0,522.0
519.0,510.0,508.0,507.0,511.0
510.0,511.0,517.0,509.0,511.0
500.0,506.0,518.0,509.0,509.0
488.0,498.0,518.0,511.0,486.0
477.0,497.0,524.0,513.0,479.0
469.0,498.0,523.0,510.0,483.0
485.0,500.0,524.0,520.0,489.0
487.0,498.0,516.0,528.0,500.0
463.0,498.0,510.0,533.0,516.0
464.0,495.0,506.0,518.0,520.0
472.0,499.0,497.0,502.0,518.0
476.0,495.0,488.0,490.0,520.0
489.0,505.0,486.0,489.0,522.0
509.0,512.0,494.0,486.0,522.0
506.0,515.0,505.0,507.0,517.0
475.0,511.0,509.0,518.0,521.0
462.0,501.0,496.0,512.0,525.0
454.0,498.0,503.0,525.0,536.0
467.0,502.0,508.0,532.0,533.0
514.0,509.0,511.0,533.0,529.0
587.0,519.0,534.0,538.0,518.0
598.0,530.0,557.0,549.0,496.0
584.0,528.0,573.0,557.0,478.0
566.0,522.0,579.0,546.0,486.0
549.0,516.0,565.0,531.0,501.0
531.0,504.0,545.0,511.0,520.0
525.0,498.0,531.0,500.0,528.0
526.0,495.0,482.0,480.0,541.0
525.0,500.0,498.0,479.0,558.0
518.0,506.0,518.0,486.0,537.0
525.0,520.0,531.0,505.0,514.0
534.0,522.0,526.0,501.0,508.0
537.0,510.0,520.0,501.0,505.0
540.0,505.0,497.0,488.0,503.0
541.0,513.0,499.0,476.0,504.0
531.0,511.0,512.0,498.0,501.0
523.0,507.0,511.0,511.0,491.0
534.0,509.0,517.0,526.0,479.0
529.0,507.0,515.0,533.0,483.0
528.0,501.0,511.0,540.0,476.0
524.0,496.0,496.0,533.0,473.0
509.0,486.0,487.0,514.0,489.0
489.0,481.0,474.0,495.0,491.0
473.0,481.0,463.0,485.0,495.0
474.0,480.0,450.0,478.0,512.0
480.0,492.0,462.0,491.0,519.0
501.0,502.0,476.0,508.0,525.0
528.0,511.0,492.0,512.0,533.0
537.0,525.0,514.0,515.0,527.0
536.0,528.0,516.0,507.0,516.0
539.0,518.0,512.0,485.0,515.0
537.0,516.0,524.0,474.0,520.0
532.0,513.0,524.0,453.0,521.0
533.0,516.0,533.0,473.0,501.0
533.0,511.0,542.0,499.0,487.0
532.0,505.0,540.0,511.0,498.0
522.0,502.0,549.0,517.0,488.0
517.0,507.0,565.0,558.0,482.0
508.0,493.0,555.0,562.0,497.0
498.0,479.0,533.0,561.0,515.0
491.0,477.0,514.0,528.0,524.0
501.0,490.0,525.0,516.0,533.0
505.0,502.0,533.0,514.0,532.0
511.0,505.0,527.0,507.0,529.0
514.0,524.0,526.0,513.0,530.0
519.0,520.0,508.0,510.0,544.0
514.0,508.0,512.0,499.0,535.0
515.0,503.0,503.0,496.0,528.0
508.0,502.0,506.0,496.0,535.0
503.0,508.0,520.0,515.0,526.0
497.0,515.0,532.0,534.0,515.0
491.0,519.0,538.0,548.0,507.0
499.0,522.0,544.0,562.0,493.0
510.0,514.0,534.0,562.0,483.0
485.0,502.0,515.0,551.0,494.0
453.0,493.0,507.0,532.0,497.0
441.0,491.0,508.0,507.0,490.0
457.0,489.0,502.0,482.0,498.0
462.0,489.0,491.0,477.0,526.0
461.0,497.0,495.0,493.0,550.0
475.0,506.0,496.0,491.0,541.0
496.0,518.0,501.0,502.0,544.0
484.0,522.0,512.0,504.0,541.0
486.0,514.0,508.0,506.0,545.0
470.0,521.0,516.0,512.0,539.0
495.0,521.0,528.0,524.0,514.0
511.0,522.0,528.0,529.0,520.0
489.0,520.0,536.0,532.0,530.0
500.0,520.0,549.0,549.0,516.0
521.0,516.0,546.0,555.0,505.0
552.0,517.0,544.0,545.0,490.0
552.0,514.0,535.0,529.0,500.0
544.0,504.0,524.0,510.0,506.0
544.0,497.0,509.0,510.0,499.0
534.0,501.0,512.0,508.0,506.0
553.0,513.0,515.0,521.0,500.0
567.0,519.0,509.0,512.0,510.0
573.0,519.0,497.0,496.0,505.0
543.0,514.0,493.0,486.0,504.0
494.0,512.0,495.0,504.0,499.0
463.0,502.0,495.0,512.0,515.0
444.0,504.0,506.0,519.0,533.0
439.0,499.0,503.0,518.0,519.0
447.0,494.0,497.0,508.0,498.0
506.0,512.0,510.0,513.0,477.0
558.0,518.0,519.0,505.0,476.0
559.0,510.0,511.0,491.0,482.0
516.0,498.0,497.0,489.0,480.0
478.0,496.0,501.0,485.0,490.0
456.0,481.0,497.0,488.0,518.0
473.0,481.0,487.0,484.0,520.0
490.0,492.0,496.0,496.0,510.0
534.0,503.0,510.0,518.0,490.0
522.0,509.0,507.0,518.0,489.0
526.0,506.0,501.0,497.0,511.0
535.0,509.0,499.0,480.0,524.0
539.0,514.0,502.0,492.0,532.0
555.0,513.0,496.0,497.0,547.0
555.0,514.0,500.0,517.0,534.0
540.0,521.0,524.0,538.0,512.0
535.0,513.0,513.0,517.0,511.0
534.0,509.0,517.0,512.0,511.0
531.0,505.0,531.0,555.0,498.0
548.0,508.0,529.0,580.0,492.0
547.0,506.0,526.0,573.0,494.0
526.0,502.0,529.0,574.0,488.0
505.0,495.0,513.0,550.0,497.0
487.0,483.0,504.0,525.0,505.0
491.0,486.0,497.0,489.0,515.0
488.0,497.0,489.0,477.0,527.0
480.0,507.0,483.0,488.0,532.0
505.0,522.0,491.0,489.0,532.0
519.0,525.0,493.0,485.0,524.0
504.0,516.0,479.0,476.0,537.0
518.0,518.0,469.0,467.0,528.0
511.0,517.0,497.0,488.0,513.0
525.0,507.0,499.0,509.0,504.0
507.0,505.0,515.0,529.0,505.0
490.0,502.0,509.0,519.0,493.0
478.0,495.0,510.0,516.0,506.0
513.0,494.0,512.0,504.0,513.0
534.0,497.0,521.0,537.0,501.0
549.0,510.0,537.0,529.0,497.0
542.0,502.0,525.0,491.0,508.0
513.0,498.0,519.0,494.0,517.0
527.0,507.0,522.0,500.0,518.0
536.0,517.0,522.0,492.0,514.0
531.0,518.0,513.0,507.0,512.0
531.0,510.0,520.0,533.0,508.0
540.0,511.0,523.0,535.0,510.0
531.0,507.0,524.0,561.0,517.0
517.0,502.0,528.0,579.0,517.0
514.0,512.0,543.0,606.0,505.0
508.0,510.0,553.0,602.0,496.0
517.0,520.0,575.0,582.0,486.0
509.0,515.0,556.0,514.0,492.0
517.0,521.0,547.0,527.0,495.0
508.0,501.0,533.0,512.0,498.0
505.0,494.0,524.0,479.0,513.0
484.0,485.0,501.0,473.0,528.0
447.0,474.0,488.0,474.0,532.0
422.0,488.0,485.0,463.0,535.0
427.0,502.0,504.0,462.0,516.0
465.0,512.0,513.0,478.0,524.0
499.0,528.0,529.0,493.0,512.0
519.0,517.0,522.0,486.0,507.0
540.0,514.0,518.0,478.0,496.0
531.0,520.0,513.0,498.0,520.0
504.0,515.0,516.0,511.0,514.0
483.0,511.0,517.0,514.0,507.0
501.0,506.0,507.0,494.0,513.0
510.0,500.0,502.0,495.0,505.0
504.0,501.0,497.0,507.0,507.0
511.0,500.0,495.0,522.0,503.0
479.0,482.0,494.0,518.0,511.0
472.0,480.0,498.0,508.0,516.0
514.0,495.0,504.0,523.0,516.0
569.0,514.0,510.0,534.0,504.0
540.0,522.0,511.0,517.0,506.0
522.0,525.0,500.0,490.0,526.0
540.0,530.0,520.0,523.0,517.0
519.0,532.0,534.0,523.0,505.0
526.0,523.0,531.0,503.0,519.0
503.0,511.0,514.0,483.0,540.0
489.0,511.0,516.0,495.0,539.0
498.0,521.0,545.0,532.0,527.0
507.0,520.0,548.0,539.0,511.0
515.0,518.0,543.0,542.0,510.0
530.0,523.0,541.0,544.0,514.0
522.0,514.0,531.0,526.0,492.0
493.0,502.0,518.0,532.0,498.0
490.0,491.0,496.0,538.0,499.0
500.0,489.0,477.0,525.0,493.0
463.0,492.0,467.0,507.0,476.0
413.0,498.0,471.0,486.0,486.0
403.0,506.0,487.0,519.0,466.0
381.0,497.0,477.0,508.0,477.0
366.0,495.0,481.0,483.0,501.0
419.0,503.0,499.0,538.0,497.0
475.0,500.0,508.0,537.0,503.0
544.0,509.0,511.0,496.0,517.0
570.0,528.0,520.0,462.0,543.0
608.0,543.0,553.0,501.0,513.0
619.0,541.0,560.0,523.0,502.0
563.0,524.0,539.0,508.0,507.0
538.0,505.0,531.0,529.0,492.0
536.0,498.0,519.0,525.0,473.0
531.0,500.0,517.0,525.0,474.0
522.0,488.0,493.0,478.0,503.0
553.0,494.0,505.0,499.0,502.0
550.0,495.0,498.0,497.0,513.0
556.0,499.0,483.0,475.0,512.0
539.0,504.0,488.0,486.0,521.0
515.0,510.0,503.0,494.0,527.0
505.0,520.0,514.0,469.0,521.0
519.0,533.0,528.0,478.0,522.0
536.0,531.0,524.0,502.0,517.0
555.0,529.0,499.0,471.0,504.0
532.0,517.0,481.0,480.0,503.0
514.0,502.0,492.0,507.0,499.0
497.0,494.0,467.0,491.0,504.0
475.0,490.0,479.0,487.0,504.0
478.0,503.0,522.0,505.0,500.0
534.0,520.0,547.0,517.0,495.0
532.0,504.0,561.0,589.0,496.0
512.0,486.0,538.0,598.0,510.0
522.0,489.0,519.0,534.0,505.0
537.0,493.0,492.0,505.0,507.0
532.0,505.0,481.0,517.0,501.0
531.0,508.0,479.0,535.0,514.0
529.0,525.0,494.0,540.0,519.0
534.0,526.0,509.0,562.0,501.0
530.0,531.0,532.0,576.0,497.0
513.0,512.0,500.0,555.0,520.0
527.0,503.0,507.0,548.0,506.0
534.0,507.0,523.0,543.0,498.0
536.0,517.0,548.0,528.0,491.0
505.0,521.0,554.0,530.0,511.0
485.0,514.0,541.0,510.0,508.0
456.0,497.0,528.0,494.0,491.0
408.0,490.0,512.0,496.0,508.0
393.0,482.0,492.0,486.0,540.0
418.0,456.0,454.0,478.0,532.0
420.0,468.0,483.0,566.0,505.0
455.0,481.0,498.0,584.0,511.0
587.0,525.0,511.0,573.0,508.0
623.0,529.0,489.0,536.0,506.0
597.0,532.0,521.0,534.0,503.0
593.0,535.0,538.0,428.0,511.0
564.0,525.0,538.0,419.0,527.0
555.0,519.0,537.0,445.0,518.0
544.0,510.0,535.0,459.0,521.0
535.0,510.0,539.0,460.0,518.0
536.0,517.0,543.0,448.0,511.0
527.0,512.0,552.0,468.0,512.0
505.0,508.0,547.0,501.0,513.0
523.0,518.0,562.0,547.0,485.0
503.0,506.0,546.0,541.0,483.0
455.0,486.0,522.0,545.0,495.0
433.0,495.0,517.0,530.0,506.0
474.0,496.0,509.0,548.0,509.0
456.0,487.0,496.0,541.0,501.0
434.0,485.0,488.0,517.0,520.0
465.0,486.0,479.0,477.0,527.0
490.0,501.0,485.0,446.0,534.0
498.0,508.0,505.0,443.0,547.0
531.0,517.0,500.0,486.0,535.0
516.0,502.0,478.0,505.0,527.0
502.0,501.0,490.0,541.0,510.0
520.0,513.0,514.0,549.0,488.0
513.0,505.0,518.0,534.0,499.0
476.0,510.0,530.0,528.0,483.0
440.0,502.0,529.0,540.0,494.0
440.0,501.0,534.0,545.0,505.0
437.0,499.0,522.0,540.0,493.0
435.0,498.0,517.0,524.0,496.0
508.0,503.0,516.0,484.0,488.0
518.0,512.0,531.0,500.0,509.0
551.0,528.0,550.0,535.0,499.0
559.0,537.0,554.0,563.0,493.0
585.0,546.0,553.0,560.0,511.0
567.0,532.0,539.0,527.0,504.0
555.0,526.0,534.0,517.0,498.0
565.0,514.0,515.0,500.0,503.0
584.0,510.0,519.0,497.0,507.0
548.0,505.0,513.0,503.0,525.0
516.0,510.0,519.0,497.0,533.0
512.0,513.0,524.0,485.0,533.0
507.0,522.0,528.0,526.0,515.0
534.0,531.0,546.0,602.0,486.0
527.0,513.0,525.0,617.0,485.0
493.0,492.0,511.0,585.0,478.0
465.0,488.0,489.0,577.0,468.0
438.0,478.0,470.0,541.0,500.0
435.0,463.0,448.0,484.0,535.0
486.0,484.0,439.0,475.0,538.0
550.0,507.0,467.0,470.0,519.0
512.0,512.0,482.0,427.0,527.0
513.0,516.0,494.0,411.0,536.0
572.0,532.0,523.0,500.0,503.0
570.0,527.0,524.0,485.0,510.0
550.0,516.0,507.0,480.0,514.0
537.0,508.0,495.0,496.0,507.0
531.0,516.0,511.0,474.0,506.0
533.0,532.0,516.0,492.0,491.0
545.0,516.0,496.0,495.0,481.0
525.0,504.0,499.0,489.0,471.0
506.0,497.0,505.0,495.0,492.0
475.0,491.0,512.0,493.0,506.0
453.0,489.0,538.0,540.0,502.0
445.0,494.0,552.0,596.0,518.0
480.0,502.0,533.0,596.0,548.0
533.0,503.0,500.0,555.0,536.0
495.0,506.0,496.0,566.0,534.0
496.0,530.0,506.0,584.0,516.0
494.0,531.0,517.0,533.0,526.0
496.0,518.0,501.0,506.0,516.0
496.0,497.0,491.0,469.0,511.0
526.0,498.0,483.0,455.0,497.0
496.0,490.0,471.0,450.0,500.0
486.0,496.0,494.0,441.0,497.0
539.0,542.0,550.0,479.0,476.0
603.0,570.0,594.0,567.0,472.0
568.0,542.0,568.0,601.0,485.0
507.0,502.0,526.0,551.0,511.0
478.0,499.0,522.0,535.0,528.0
463.0,485.0,496.0,522.0,545.0
442.0,474.0,470.0,519.0,543.0
462.0,479.0,473.0,495.0,516.0
501.0,497.0,478.0,521.0,509.0
521.0,515.0,490.0,615.0,487.0
541.0,505.0,473.0,585.0,500.0
555.0,508.0,473.0,519.0,501.0
530.0,514.0,512.0,555.0,481.0
511.0,498.0,502.0,503.0,486.0
502.0,505.0,532.0,454.0,500.0
494.0,510.0,563.0,479.0,520.0
466.0,506.0,577.0,490.0,541.0
447.0,510.0,585.0,484.0,531.0
504.0,501.0,537.0,468.0,536.0
539.0,480.0,498.0,471.0,547.0
543.0,489.0,526.0,500.0,534.0
492.0,480.0,526.0,513.0,529.0
516.0,481.0,524.0,523.0,518.0
539.0,500.0,529.0,512.0,518.0
520.0,521.0,540.0,512.0,505.0
535.0,527.0,533.0,468.0,508.0
536.0,528.0,502.0,463.0,513.0
485.0,514.0,478.0,448.0,519.0
420.0,485.0,446.0,456.0,529.0
389.0,459.0,430.0,453.0,529.0
390.0,485.0,481.0,469.0,503.0
425.0,504.0,528.0,468.0,513.0
484.0,512.0,546.0,535.0,514.0
579.0,547.0,602.0,603.0,483.0
595.0,546.0,603.0,607.0,509.0
582.0,531.0,605.0,596.0,511.0
500.0,515.0,586.0,548.0,546.0
496.0,499.0,552.0,512.0,534.0
523.0,499.0,535.0,510.0,512.0
522.0,498.0,509.0,499.0,523.0
527.0,491.0,489.0,490.0,529.0
561.0,515.0,490.0,485.0,516.0
571.0,530.0,507.0,519.0,507.0
581.0,524.0,490.0,503.0,514.0
546.0,503.0,461.0,508.0,519.0
442.0,468.0,447.0,514.0,528.0
378.0,452.0,420.0,495.0,556.0
361.0,471.0,442.0,486.0,533.0
301.0,482.0,490.0,525.0,517.0
341.0,516.0,548.0,575.0,501.0
546.0,541.0,570.0,601.0,450.0
670.0,551.0,611.0,646.0,425.0
648.0,540.0,586.0,623.0,439.0
634.0,534.0,558.0,579.0,453.0
596.0,532.0,554.0,509.0,489.0
591.0,524.0,535.0,499.0,488.0
590.0,519.0,529.0,491.0,493.0
563.0,497.0,512.0,460.0,535.0
556.0,498.0,481.0,455.0,542.0
564.0,509.0,478.0,461.0,540.0
549.0,510.0,465.0,466.0,531.0
538.0,531.0,466.0,497.0,496.0
503.0,530.0,484.0,582.0,484.0
478.0,523.0,490.0,662.0,487.0
445.0,497.0,464.0,652.0,502.0
511.0,501.0,456.0,595.0,491.0
598.0,547.0,517.0,621.0,437.0
543.0,528.0,569.0,575.0,436.0
504.0,484.0,550.0,439.0,527.0
499.0,455.0,478.0,343.0,581.0
473.0,460.0,473.0,398.0,584.0
521.0,474.0,473.0,429.0,543.0
511.0,481.0,471.0,446.0,532.0
530.0,489.0,466.0,433.0,516.0
531.0,497.0,459.0,428.0,507.0
532.0,508.0,479.0,440.0,496.0
525.0,518.0,490.0,458.0,490.0
517.0,527.0,475.0,453.0,503.0
524.0,532.0,472.0,475.0,517.0
535.0,528.0,503.0,520.0,513.0
494.0,516.0,541.0,489.0,553.0
481.0,525.0,543.0,497.0,538.0
460.0,503.0,533.0,483.0,541.0
458.0,493.0,533.0,468.0,523.0
515.0,519.0,548.0,529.0,487.0
560.0,529.0,553.0,605.0,440.0
523.0,521.0,532.0,608.0,472.0
515.0,498.0,486.0,574.0,498.0
495.0,482.0,487.0,595.0,495.0
480.0,465.0,525.0,616.0,489.0
509.0,461.0,538.0,539.0,515.0
515.0,468.0,519.0,509.0,530.0
512.0,492.0,539.0,489.0,538.0
486.0,495.0,531.0,474.0,543.0
502.0,505.0,525.0,508.0,536.0
499.0,513.0,529.0,521.0,546.0
512.0,528.0,538.0,528.0,531.0
533.0,535.0,550.0,561.0,494.0
486.0,502.0,523.0,528.0,530.0
458.0,474.0,509.0,491.0,564.0
455.0,484.0,547.0,514.0,544.0
501.0,531.0,597.0,571.0,517.0
488.0,530.0,594.0,601.0,497.0
467.0,508.0,565.0,626.0,477.0
467.0,498.0,549.0,605.0,491.0
527.0,495.0,526.0,524.0,506.0
483.0,491.0,513.0,443.0,521.0
427.0,493.0,520.0,430.0,533.0
431.0,500.0,508.0,429.0,532.0
443.0,516.0,516.0,459.0,529.0
475.0,538.0,525.0,492.0,499.0
507.0,549.0,535.0,546.0,474.0
532.0,529.0,514.0,540.0,483.0
499.0,510.0,492.0,466.0,500.0
515.0,499.0,495.0,495.0,510.0
464.0,508.0,525.0,587.0,494.0
400.0,483.0,520.0,576.0,532.0
448.0,499.0,525.0,554.0,523.0
460.0,522.0,523.0,526.0,492.0
491.0,527.0,531.0,471.0,506.0
530.0,526.0,551.0,505.0,510.0
632.0,507.0,514.0,453.0,516.0
629.0,493.0,497.0,433.0,510.0
598.0,496.0,487.0,448.0,509.0
568.0,514.0,476.0,486.0,508.0
560.0,516.0,472.0,467.0,500.0
570.0,513.0,467.0,425.0,499.0
564.0,511.0,470.0,517.0,485.0
567.0,509.0,474.0,619.0,465.0
536.0,497.0,459.0,569.0,492.0
502.0,507.0,477.0,587.0,498.0
496.0,520.0,516.0,582.0,504.0
502.0,513.0,489.0,489.0,498.0
546.0,525.0,464.0,408.0,488.0
602.0,543.0,439.0,470.0,458.0
620.0,538.0,420.0,487.0,452.0
579.0,463.0,371.0,489.0,476.0
521.0,454.0,415.0,575.0,485.0
485.0,441.0,428.0,635.0,532.0
489.0,438.0,452.0,587.0,543.0
474.0,462.0,422.0,516.0,567.0
488.0,498.0,412.0,406.0,553.0
523.0,504.0,450.0,406.0,560.0
515.0,499.0,477.0,428.0,573.0
513.0,529.0,510.0,494.0,573.0
513.0,527.0,523.0,526.0,553.0
507.0,521.0,542.0,506.0,524.0
473.0,523.0,582.0,473.0,517.0
524.0,514.0,609.0,490.0,512.0
563.0,527.0,616.0,503.0,472.0
563.0,520.0,631.0,559.0,444.0
577.0,538.0,663.0,631.0,426.0
566.0,535.0,661.0,729.0,434.0
548.0,523.0,634.0,673.0,454.0
529.0,532.0,633.0,635.0,450.0
522.0,516.0,606.0,552.0,465.0
506.0,497.0,575.0,473.0,506.0
501.0,511.0,570.0,422.0,546.0
489.0,501.0,504.0,425.0,573.0
473.0,513.0,534.0,464.0,549.0
458.0,536.0,511.0,502.0,519.0
465.0,520.0,454.0,499.0,514.0
449.0,496.0,426.0,506.0,525.0
492.0,484.0,451.0,475.0,537.0
564.0,495.0,490.0,418.0,519.0
598.0,532.0,541.0,416.0,499.0
555.0,524.0,547.0,398.0,524.0
526.0,513.0,569.0,465.0,543.0
504.0,508.0,568.0,538.0,522.0
515.0,511.0,558.0,538.0,522.0
496.0,511.0,569.0,557.0,522.0
477.0,508.0,564.0,558.0,520.0
463.0,495.0,540.0,549.0,526.0
468.0,490.0,509.0,531.0,532.0
524.0,498.0,519.0,539.0,505.0
535.0,540.0,535.0,609.0,468.0
430.0,516.0,488.0,630.0,482.0
381.0,496.0,455.0,594.0,482.0
369.0,504.0,451.0,612.0,489.0
340.0,494.0,449.0,548.0,529.0
386.0,491.0,443.0,445.0,556.0
414.0,483.0,461.0,446.0,570.0
509.0,495.0,495.0,512.0,531.0
542.0,495.0,553.0,510.0,520.0
442.0,496.0,595.0,538.0,529.0
450.0,508.0,590.0,558.0,511.0
500.0,495.0,532.0,496.0,505.0
554.0,480.0,508.0,488.0,471.0
552.0,506.0,502.0,502.0,449.0
580.0,509.0,472.0,471.0,464.0
624.0,509.0,461.0,514.0,489.0
628.0,523.0,484.0,573.0,489.0
631.0,541.0,510.0,560.0,502.0
565.0,536.0,520.0,478.0,509.0
542.0,551.0,533.0,420.0,534.0
538.0,544.0,543.0,400.0,543.0
532.0,522.0,560.0,447.0,558.0
580.0,524.0,555.0,478.0,535.0
572.0,517.0,551.0,534.0,508.0
546.0,507.0,542.0,604.0,492.0
563.0,521.0,544.0,608.0,470.0
581.0,537.0,567.0,593.0,466.0
549.0,530.0,565.0,560.0,482.0
524.0,517.0,554.0,493.0,505.0
479.0,498.0,523.0,460.0,532.0
459.0,492.0,497.0,478.0,533.0
443.0,476.0,507.0,459.0,534.0
467.0,490.0,486.0,425.0,534.0
525.0,508.0,465.0,426.0,525.0
565.0,512.0,461.0,464.0,510.0
555.0,522.0,464.0,565.0,488.0
608.0,530.0,422.0,481.0,507.0
592.0,513.0,416.0,472.0,502.0
516.0,512.0,429.0,524.0,511.0
404.0,445.0,388.0,505.0,539.0
357.0,432.0,376.0,512.0,530.0
354.0,453.0,412.0,501.0,546.0
348.0,455.0,434.0,535.0,535.0
378.0,452.0,466.0,522.0,521.0
511.0,489.0,517.0,536.0,501.0
603.0,510.0,548.0,563.0,480.0
618.0,526.0,564.0,531.0,467.0
599.0,524.0,573.0,537.0,470.0
614.0,536.0,587.0,524.0,478.0
573.0,533.0,571.0,515.0,481.0
545.0,512.0,550.0,525.0,487.0
540.0,515.0,529.0,504.0,505.0
543.0,561.0,544.0,544.0,531.0
538.0,570.0,558.0,577.0,532.0
549.0,531.0,526.0,515.0,516.0
560.0,498.0,488.0,498.0,538.0
544.0,478.0,474.0,584.0,509.0
550.0,510.0,499.0,588.0,479.0
558.0,532.0,525.0,536.0,461.0
536.0,517.0,533.0,481.0,470.0
513.0,516.0,583.0,474.0,483.0
515.0,518.0,588.0,413.0,491.0
502.0,493.0,602.0,490.0,511.0
483.0,481.0,599.0,516.0,520.0
508.0,492.0,560.0,525.0,527.0
497.0,494.0,524.0,525.0,550.0
490.0,504.0,534.0,567.0,586.0
511.0,505.0,532.0,547.0,578.0
511.0,506.0,506.0,497.0,574.0
504.0,515.0,477.0,478.0,534.0
502.0,502.0,478.0,456.0,498.0
502.0,509.0,495.0,526.0,468.0
500.0,517.0,488.0,597.0,464.0
498.0,508.0,520.0,591.0,457.0
515.0,514.0,547.0,559.0,454.0
513.0,521.0,550.0,503.0,494.0
561.0,525.0,547.0,527.0,490.0
555.0,519.0,540.0,531.0,486.0
469.0,517.0,541.0,612.0,491.0
445.0,509.0,505.0,522.0,505.0
426.0,483.0,496.0,474.0,513.0
462.0,495.0,500.0,439.0,528.0
501.0,512.0,513.0,428.0,528.0
542.0,513.0,519.0,397.0,528.0
507.0,497.0,460.0,421.0,560.0
543.0,524.0,505.0,466.0,542.0
528.0,511.0,518.0,494.0,535.0
486.0,505.0,518.0,525.0,538.0
504.0,505.0,487.0,511.0,543.0
498.0,510.0,499.0,485.0,570.0
530.0,513.0,495.0,537.0,525.0
486.0,484.0,480.0,575.0,515.0
459.0,479.0,497.0,603.0,495.0
400.0,481.0,469.0,563.0,512.0
393.0,490.0,472.0,555.0,496.0
319.0,483.0,437.0,531.0,477.0
343.0,482.0,434.0,532.0,465.0
352.0,455.0,409.0,497.0,498.0
401.0,458.0,426.0,511.0,528.0
574.0,503.0,485.0,515.0,516.0
714.0,523.0,535.0,509.0,514.0
674.0,523.0,554.0,484.0,547.0
606.0,535.0,582.0,535.0,535.0
603.0,561.0,610.0,510.0,520.0
622.0,571.0,613.0,466.0,518.0
613.0,560.0,598.0,492.0,516.0
604.0,527.0,568.0,541.0,501.0
585.0,515.0,565.0,560.0,507.0
570.0,523.0,559.0,585.0,505.0
570.0,548.0,572.0,569.0,496.0
554.0,555.0,596.0,551.0,475.0
529.0,525.0,579.0,458.0,488.0
487.0,494.0,532.0,523.0,473.0
471.0,499.0,545.0,563.0,450.0
445.0,454.0,485.0,498.0,478.0
406.0,456.0,464.0,492.0,522.0
456.0,484.0,472.0,561.0,528.0
483.0,510.0,478.0,582.0,538.0
512.0,517.0,481.0,547.0,523.0
487.0,511.0,486.0,513.0,521.0
585.0,525.0,513.0,462.0,502.0
655.0,548.0,522.0,477.0,495.0
624.0,559.0,521.0,446.0,510.0
607.0,552.0,543.0,463.0,504.0
565.0,521.0,550.0,507.0,493.0
543.0,503.0,522.0,499.0,512.0
526.0,510.0,521.0,463.0,524.0
504.0,464.0,424.0,422.0,532.0
461.0,472.0,370.0,437.0,523.0
470.0,472.0,367.0,466.0,517.0
447.0,448.0,375.0,480.0,524.0
459.0,487.0,436.0,546.0,514.0
484.0,498.0,495.0,537.0,497.0
532.0,499.0,550.0,589.0,443.0
576.0,498.0,551.0,552.0,448.0
562.0,533.0,587.0,496.0,471.0
529.0,538.0,588.0,496.0,527.0
510.0,547.0,594.0,585.0,533.0
479.0,515.0,525.0,536.0,525.0
472.0,495.0,458.0,477.0,544.0
466.0,500.0,473.0,481.0,537.0
501.0,515.0,513.0,509.0,517.0
520.0,521.0,530.0,552.0,512.0
552.0,493.0,510.0,512.0,535.0
557.0,516.0,548.0,551.0,504.0
548.0,510.0,559.0,541.0,494.0
524.0,508.0,545.0,523.0,499.0
505.0,513.0,555.0,498.0,520.0
490.0,516.0,563.0,450.0,539.0
536.0,513.0,543.0,481.0,508.0
516.0,512.0,540.0,533.0,498.0
516.0,510.0,531.0,544.0,498.0
510.0,512.0,527.0,540.0,524.0
528.0,507.0,529.0,535.0,506.0
525.0,496.0,517.0,516.0,482.0
507.0,496.0,510.0,532.0,497.0
501.0,503.0,515.0,539.0,486.0
501.0,519.0,532.0,577.0,486.0
508.0,523.0,539.0,584.0,513.0
508.0,510.0,531.0,592.0,533.0
476.0,516.0,531.0,565.0,557.0
444.0,507.0,529.0,550.0,541.0
493.0,514.0,519.0,525.0,508.0
476.0,485.0,478.0,481.0,509.0
471.0,469.0,454.0,451.0,531.0
518.0,472.0,461.0,484.0,509.0
482.0,488.0,466.0,541.0,506.0
445.0,504.0,476.0,549.0,507.0
438.0,497.0,482.0,525.0,512.0
505.0,500.0,528.0,515.0,500.0
526.0,526.0,589.0,473.0,494.0
502.0,501.0,562.0,477.0,525.0
506.0,496.0,542.0,506.0,529.0
517.0,510.0,535.0,527.0,531.0
503.0,522.0,531.0,524.0,525.0
521.0,525.0,499.0,553.0,527.0
480.0,522.0,494.0,568.0,533.0
438.0,547.0,497.0,562.0,476.0
478.0,551.0,528.0,571.0,440.0
487.0,502.0,506.0,509.0,467.0
474.0,477.0,498.0,414.0,515.0
515.0,486.0,513.0,370.0,524.0
603.0,520.0,518.0,383.0,514.0
636.0,536.0,538.0,458.0,484.0
597.0,523.0,503.0,490.0,520.0
569.0,500.0,454.0,456.0,547.0
567.0,493.0,471.0,489.0,530.0
533.0,488.0,480.0,541.0,519.0
507.0,486.0,470.0,486.0,534.0
546.0,502.0,506.0,493.0,496.0
548.0,518.0,558.0,531.0,480.0
516.0,516.0,589.0,586.0,495.0
522.0,521.0,572.0,594.0,483.0
522.0,502.0,522.0,585.0,478.0
489.0,485.0,501.0,582.0,493.0
438.0,471.0,468.0,545.0,492.0
459.0,472.0,421.0,498.0,502.0
460.0,440.0,394.0,504.0,507.0
412.0,435.0,399.0,510.0,519.0
461.0,474.0,470.0,514.0,499.0
509.0,507.0,500.0,488.0,499.0
540.0,539.0,563.0,498.0,500.0
612.0,584.0,625.0,570.0,500.0
632.0,568.0,609.0,574.0,527.0
593.0,527.0,536.0,458.0,550.0
560.0,524.0,541.0,465.0,536.0
553.0,529.0,563.0,476.0,548.0
541.0,534.0,565.0,512.0,562.0
550.0,544.0,565.0,529.0,534.0
543.0,553.0,569.0,575.0,530.0
529.0,551.0,558.0,579.0,509.0
522.0,517.0,522.0,559.0,506.0
509.0,500.0,493.0,523.0,477.0
477.0,486.0,474.0,482.0,471.0
461.0,449.0,463.0,490.0,484.0
504.0,470.0,509.0,524.0,490.0
483.0,497.0,542.0,524.0,493.0
478.0,520.0,559.0,522.0,503.0
475.0,502.0,521.0,456.0,541.0
456.0,516.0,523.0,453.0,551.0
524.0,535.0,520.0,488.0,524.0
585.0,548.0,517.0,485.0,501.0
564.0,531.0,502.0,480.0,509.0
542.0,515.0,499.0,477.0,541.0
541.0,507.0,508.0,508.0,504.0
549.0,524.0,529.0,532.0,472.0
546.0,508.0,541.0,576.0,481.0
552.0,496.0,549.0,594.0,482.0
545.0,481.0,538.0,567.0,487.0
522.0,488.0,480.0,521.0,505.0
523.0,503.0,498.0,503.0,530.0
518.0,513.0,517.0,572.0,521.0
502.0,504.0,519.0,585.0,515.0
493.0,491.0,493.0,499.0,503.0
508.0,507.0,488.0,498.0,495.0
526.0,509.0,496.0,561.0,487.0
497.0,503.0,479.0,587.0,509.0
447.0,504.0,482.0,573.0,522.0
426.0,493.0,480.0,512.0,515.0
451.0,486.0,497.0,467.0,525.0
420.0,472.0,487.0,412.0,570.0
459.0,469.0,466.0,378.0,572.0
543.0,483.0,487.0,423.0,516.0
550.0,490.0,503.0,452.0,509.0
507.0,487.0,497.0,464.0,509.0
493.0,500.0,493.0,511.0,498.0
440.0,507.0,474.0,527.0,492.0
468.0,524.0,495.0,537.0,464.0
564.0,529.0,513.0,587.0,459.0
611.0,528.0,526.0,607.0,466.0
587.0,523.0,548.0,588.0,511.0
534.0,511.0,548.0,492.0,555.0
550.0,527.0,561.0,468.0,551.0
532.0,521.0,574.0,508.0,552.0
493.0,518.0,582.0,526.0,544.0
495.0,522.0,574.0,526.0,522.0
451.0,505.0,554.0,524.0,495.0
403.0,502.0,539.0,527.0,500.0
440.0,512.0,533.0,525.0,501.0
418.0,500.0,529.0,492.0,534.0
450.0,495.0,511.0,501.0,503.0
426.0,490.0,491.0,538.0,501.0
526.0,505.0,512.0,560.0,508.0
636.0,527.0,524.0,555.0,497.0
640.0,528.0,511.0,524.0,520.0
593.0,513.0,486.0,465.0,503.0
578.0,512.0,482.0,457.0,512.0
578.0,523.0,485.0,456.0,513.0
561.0,523.0,509.0,459.0,492.0
511.0,525.0,524.0,493.0,472.0
459.0,519.0,551.0,545.0,485.0
439.0,509.0,540.0,545.0,511.0
435.0,507.0,514.0,537.0,530.0
474.0,518.0,535.0,587.0,534.0
572.0,528.0,540.0,560.0,510.0
583.0,524.0,552.0,566.0,476.0
532.0,506.0,541.0,554.0,501.0
580.0,510.0,527.0,502.0,535.0
601.0,492.0,479.0,489.0,507.0
569.0,470.0,435.0,477.0,473.0
551.0,478.0,404.0,523.0,470.0
525.0,479.0,402.0,507.0,479.0
537.0,513.0,435.0,507.0,480.0
541.0,562.0,478.0,517.0,466.0
545.0,552.0,505.0,482.0,486.0
536.0,487.0,480.0,454.0,581.0
525.0,495.0,492.0,459.0,588.0
534.0,485.0,510.0,489.0,545.0
516.0,507.0,548.0,488.0,516.0
503.0,492.0,521.0,479.0,474.0
483.0,491.0,516.0,488.0,463.0
471.0,515.0,552.0,561.0,485.0
481.0,501.0,520.0,591.0,502.0
528.0,502.0,500.0,572.0,504.0
532.0,495.0,523.0,517.0,508.0
524.0,470.0,514.0,440.0,533.0
500.0,479.0,527.0,459.0,549.0
486.0,495.0,535.0,511.0,529.0
510.0,512.0,556.0,588.0,518.0
559.0,521.0,523.0,632.0,522.0
527.0,513.0,506.0,661.0,515.0
509.0,523.0,547.0,715.0,480.0
520.0,525.0,535.0,625.0,508.0
509.0,515.0,525.0,489.0,531.0
503.0,506.0,500.0,384.0,573.0
514.0,526.0,521.0,400.0,598.0
516.0,522.0,539.0,396.0,571.0
527.0,527.0,512.0,433.0,540.0
532.0,525.0,479.0,494.0,504.0
536.0,520.0,470.0,548.0,482.0
538.0,515.0,471.0,544.0,477.0
528.0,508.0,495.0,550.0,472.0
519.0,493.0,522.0,509.0,484.0
506.0,487.0,534.0,437.0,529.0
487.0,497.0,538.0,489.0,548.0
480.0,515.0,566.0,556.0,547.0
468.0,530.0,602.0,616.0,536.0
449.0,526.0,579.0,580.0,525.0
467.0,502.0,538.0,518.0,537.0
453.0,513.0,546.0,468.0,531.0
479.0,510.0,547.0,454.0,520.0
487.0,510.0,554.0,458.0,520.0
481.0,512.0,552.0,442.0,528.0
447.0,499.0,537.0,421.0,530.0
524.0,520.0,560.0,473.0,493.0
631.0,549.0,563.0,558.0,454.0
600.0,556.0,521.0,606.0,438.0
479.0,513.0,481.0,578.0,455.0
425.0,464.0,438.0,528.0,507.0
394.0,446.0,433.0,472.0,528.0
348.0,448.0,447.0,486.0,569.0
412.0,464.0,494.0,474.0,570.0
553.0,483.0,513.0,504.0,543.0
628.0,502.0,524.0,532.0,538.0
576.0,508.0,531.0,512.0,559.0
529.0,519.0,512.0,421.0,540.0
531.0,521.0,529.0,480.0,509.0
580.0,539.0,547.0,489.0,451.0
599.0,548.0,557.0,525.0,452.0
573.0,540.0,555.0,539.0,474.0
563.0,533.0,534.0,528.0,485.0
552.0,525.0,500.0,526.0,469.0
543.0,526.0,496.0,546.0,508.0
513.0,506.0,486.0,555.0,527.0
431.0,493.0,506.0,566.0,522.0
354.0,465.0,505.0,507.0,524.0
270.0,437.0,474.0,480.0,535.0
238.0,439.0,460.0,471.0,542.0
308.0,479.0,468.0,495.0,533.0
445.0,507.0,481.0,587.0,527.0
676.0,552.0,520.0,707.0,475.0
700.0,559.0,555.0,691.0,464.0
726.0,560.0,582.0,658.0,467.0
647.0,529.0,542.0,519.0,520.0
589.0,503.0,513.0,375.0,574.0
562.0,504.0,553.0,418.0,593.0
576.0,540.0,567.0,459.0,571.0
568.0,544.0,554.0,482.0,526.0
569.0,516.0,502.0,501.0,496.0
573.0,493.0,459.0,484.0,462.0
558.0,496.0,452.0,503.0,451.0
537.0,486.0,434.0,479.0,484.0
528.0,479.0,428.0,477.0,493.0
490.0,484.0,461.0,493.0,505.0
439.0,454.0,427.0,461.0,536.0
462.0,488.0,462.0,558.0,518.0
464.0,496.0,477.0,548.0,505.0
470.0,499.0,495.0,552.0,501.0
592.0,527.0,504.0,483.0,486.0
646.0,530.0,539.0,481.0,471.0
574.0,515.0,544.0,488.0,495.0
535.0,506.0,551.0,483.0,510.0
533.0,516.0,579.0,506.0,506.0
536.0,513.0,576.0,521.0,498.0
542.0,526.0,539.0,536.0,477.0
530.0,526.0,538.0,541.0,482.0
526.0,515.0,519.0,543.0,497.0
523.0,508.0,489.0,558.0,504.0
514.0,503.0,502.0,566.0,504.0
494.0,474.0,486.0,512.0,527.0
509.0,464.0,478.0,493.0,531.0
506.0,503.0,514.0,460.0,525.0
501.0,525.0,574.0,446.0,529.0
502.0,515.0,580.0,470.0,537.0
510.0,514.0,564.0,526.0,513.0
518.0,522.0,555.0,519.0,502.0
540.0,516.0,518.0,500.0,479.0
546.0,534.0,518.0,552.0,466.0
532.0,553.0,527.0,544.0,482.0
510.0,528.0,494.0,501.0,540.0
485.0,494.0,453.0,482.0,560.0
479.0,483.0,484.0,508.0,543.0
465.0,491.0,534.0,515.0,544.0
505.0,512.0,543.0,541.0,547.0
509.0,511.0,550.0,535.0,530.0
483.0,511.0,553.0,545.0,537.0
484.0,503.0,543.0,519.0,519.0
503.0,495.0,524.0,499.0,505.0
488.0,498.0,503.0,486.0,495.0
473.0,486.0,505.0,497.0,520.0
531.0,486.0,495.0,558.0,506.0
485.0,494.0,513.0,576.0,524.0
428.0,492.0,513.0,587.0,554.0
386.0,498.0,494.0,573.0,529.0
406.0,489.0,476.0,499.0,515.0
448.0,496.0,499.0,522.0,520.0
476.0,501.0,512.0,546.0,526.0
540.0,511.0,523.0,568.0,487.0
611.0,531.0,560.0,591.0,454.0
600.0,546.0,589.0,584.0,459.0
546.0,532.0,588.0,560.0,467.0
481.0,529.0,588.0,504.0,494.0
427.0,515.0,533.0,438.0,527.0
438.0,504.0,497.0,424.0,531.0
490.0,489.0,460.0,428.0,559.0
466.0,490.0,437.0,456.0,572.0
505.0,501.0,445.0,469.0,549.0
555.0,500.0,469.0,514.0,515.0
562.0,497.0,478.0,563.0,531.0
548.0,509.0,497.0,536.0,546.0
564.0,532.0,526.0,487.0,506.0
598.0,531.0,535.0,506.0,483.0
593.0,519.0,528.0,472.0,515.0
563.0,500.0,504.0,491.0,510.0
560.0,509.0,506.0,501.0,492.0
569.0,532.0,533.0,558.0,469.0
563.0,530.0,553.0,588.0,454.0
556.0,504.0,538.0,564.0,475.0
529.0,505.0,523.0,537.0,505.0
542.0,520.0,528.0,514.0,499.0
522.0,526.0,521.0,492.0,500.0
476.0,499.0,493.0,476.0,520.0
445.0,486.0,469.0,466.0,553.0
444.0,486.0,454.0,463.0,553.0
433.0,480.0,457.0,484.0,552.0
459.0,492.0,495.0,487.0,538.0
492.0,501.0,503.0,494.0,518.0
495.0,503.0,524.0,503.0,485.0
472.0,503.0,518.0,503.0,509.0
519.0,509.0,511.0,492.0,554.0
608.0,519.0,540.0,488.0,504.0
594.0,523.0,543.0,475.0,503.0
556.0,507.0,504.0,468.0,500.0
541.0,535.0,532.0,541.0,469.0
535.0,522.0,517.0,565.0,457.0
490.0,493.0,466.0,623.0,453.0
434.0,484.0,465.0,612.0,460.0
410.0,491.0,446.0,518.0,484.0
429.0,496.0,424.0,368.0,533.0
422.0,481.0,428.0,413.0,569.0
457.0,490.0,479.0,505.0,543.0
485.0,517.0,524.0,483.0,548.0
630.0,537.0,554.0,549.0,522.0
698.0,539.0,572.0,542.0,510.0
600.0,499.0,532.0,485.0,554.0
559.0,502.0,520.0,498.0,548.0
549.0,529.0,561.0,543.0,510.0
539.0,527.0,574.0,570.0,491.0
554.0,511.0,553.0,548.0,510.0
570.0,505.0,544.0,520.0,516.0
559.0,530.0,571.0,551.0,492.0
563.0,527.0,549.0,543.0,479.0
541.0,507.0,520.0,581.0,479.0
508.0,457.0,468.0,551.0,479.0
508.0,470.0,468.0,566.0,481.0
518.0,496.0,490.0,602.0,481.0
522.0,508.0,483.0,611.0,476.0
509.0,506.0,464.0,563.0,501.0
526.0,528.0,495.0,480.0,513.0
536.0,525.0,518.0,476.0,529.0
527.0,521.0,537.0,469.0,540.0
502.0,507.0,534.0,445.0,536.0
484.0,497.0,545.0,418.0,543.0
486.0,505.0,552.0,416.0,549.0
503.0,505.0,566.0,454.0,541.0
509.0,524.0,605.0,473.0,533.0
520.0,529.0,623.0,496.0,529.0
518.0,528.0,623.0,548.0,524.0
506.0,516.0,592.0,550.0,519.0
503.0,503.0,566.0,544.0,502.0
495.0,484.0,535.0,554.0,490.0
490.0,491.0,491.0,547.0,490.0
501.0,506.0,479.0,523.0,486.0
508.0,508.0,493.0,506.0,508.0
490.0,499.0,509.0,502.0,535.0
498.0,495.0,515.0,469.0,550.0
482.0,504.0,526.0,504.0,532.0
449.0,509.0,508.0,490.0,536.0
407.0,499.0,496.0,481.0,554.0
375.0,493.0,485.0,507.0,552.0
401.0,503.0,493.0,499.0,547.0
520.0,516.0,513.0,522.0,516.0
564.0,527.0,534.0,548.0,514.0
547.0,515.0,532.0,526.0,499.0
547.0,504.0,509.0,544.0,483.0
518.0,503.0,493.0,543.0,500.0
500.0,498.0,494.0,519.0,502.0
522.0,493.0,486.0,519.0,493.0
504.0,499.0,487.0,532.0,494.0
480.0,487.0,491.0,518.0,496.0
480.0,502.0,507.0,529.0,483.0
497.0,533.0,520.0,542.0,498.0
451.0,522.0,495.0,484.0,519.0
409.0,501.0,465.0,450.0,542.0
512.0,504.0,472.0,466.0,535.0
605.0,537.0,518.0,488.0,493.0
579.0,534.0,561.0,516.0,503.0
573.0,524.0,562.0,542.0,482.0
584.0,533.0,565.0,573.0,451.0
611.0,532.0,554.0,625.0,453.0
594.0,524.0,543.0,641.0,466.0
584.0,510.0,512.0,594.0,468.0
573.0,495.0,489.0,522.0,487.0
551.0,507.0,496.0,507.0,504.0
535.0,489.0,471.0,437.0,551.0
515.0,475.0,457.0,459.0,556.0
517.0,491.0,477.0,493.0,524.0
528.0,494.0,486.0,534.0,487.0
532.0,509.0,509.0,556.0,474.0
508.0,523.0,522.0,539.0,493.0
495.0,535.0,505.0,441.0,526.0
484.0,529.0,500.0,496.0,518.0
490.0,517.0,486.0,539.0,502.0
498.0,499.0,480.0,541.0,492.0
523.0,483.0,489.0,577.0,501.0
533.0,492.0,519.0,551.0,500.0
553.0,529.0,549.0,502.0,514.0
544.0,532.0,547.0,487.0,507.0
464.0,491.0,514.0,474.0,518.0
433.0,477.0,451.0,445.0,555.0
394.0,455.0,429.0,474.0,526.0
385.0,445.0,435.0,453.0,536.0
469.0,459.0,417.0,455.0,525.0
633.0,498.0,467.0,477.0,499.0
582.0,501.0,507.0,511.0,532.0
523.0,498.0,523.0,529.0,541.0
514.0,506.0,506.0,492.0,528.0
570.0,522.0,532.0,532.0,512.0
572.0,518.0,530.0,502.0,538.0
546.0,532.0,571.0,489.0,544.0
543.0,539.0,592.0,501.0,534.0
542.0,541.0,533.0,503.0,530.0
544.0,533.0,498.0,561.0,516.0
550.0,535.0,492.0,568.0,475.0
545.0,525.0,478.0,552.0,471.0
501.0,491.0,479.0,572.0,461.0
468.0,452.0,473.0,527.0,508.0
468.0,472.0,494.0,487.0,540.0
475.0,505.0,564.0,491.0,529.0
465.0,512.0,614.0,490.0,543.0
476.0,510.0,604.0,503.0,544.0
540.0,538.0,610.0,511.0,502.0
570.0,542.0,599.0,545.0,468.0
547.0,531.0,565.0,516.0,474.0
553.0,532.0,567.0,556.0,458.0
553.0,522.0,526.0,542.0,481.0
510.0,507.0,504.0,499.0,547.0
501.0,516.0,513.0,523.0,552.0
516.0,515.0,534.0,521.0,513.0
520.0,510.0,540.0,535.0,480.0
530.0,525.0,566.0,545.0,474.0
542.0,513.0,583.0,568.0,491.0
528.0,488.0,553.0,562.0,516.0
508.0,486.0,544.0,559.0,553.0
514.0,490.0,525.0,561.0,558.0
496.0,496.0,513.0,558.0,530.0
486.0,508.0,507.0,536.0,494.0
509.0,520.0,516.0,533.0,495.0
499.0,525.0,516.0,493.0,516.0
464.0,508.0,492.0,466.0,536.0
439.0,499.0,496.0,476.0,555.0
445.0,496.0,500.0,489.0,559.0
429.0,507.0,516.0,493.0,541.0
488.0,512.0,532.0,501.0,517.0
615.0,539.0,561.0,531.0,495.0
612.0,539.0,556.0,546.0,500.0
531.0,522.0,544.0,540.0,478.0
489.0,496.0,510.0,548.0,497.0
415.0,480.0,487.0,573.0,505.0
327.0,453.0,456.0,527.0,536.0
379.0,456.0,427.0,457.0,526.0
412.0,471.0,464.0,471.0,522.0
388.0,484.0,496.0,520.0,549.0
533.0,523.0,507.0,504.0,526.0
682.0,537.0,500.0,468.0,484.0
643.0,528.0,500.0,449.0,486.0
584.0,530.0,508.0,455.0,507.0
603.0,536.0,529.0,487.0,506.0
570.0,519.0,556.0,542.0,497.0
557.0,515.0,554.0,516.0,498.0
584.0,522.0,542.0,493.0,478.0
569.0,522.0,525.0,489.0,481.0
575.0,519.0,520.0,492.0,472.0
566.0,522.0,538.0,521.0,489.0
549.0,514.0,534.0,539.0,499.0
540.0,508.0,501.0,548.0,513.0
514.0,505.0,480.0,544.0,526.0
492.0,503.0,468.0,551.0,509.0
492.0,505.0,453.0,526.0,504.0
504.0,491.0,444.0,493.0,503.0
499.0,469.0,440.0,464.0,525.0
523.0,485.0,471.0,465.0,537.0
535.0,522.0,519.0,483.0,536.0
527.0,530.0,543.0,505.0,547.0
524.0,518.0,538.0,545.0,544.0
534.0,524.0,515.0,523.0,533.0
530.0,514.0,528.0,542.0,510.0
512.0,489.0,521.0,512.0,508.0
512.0,495.0,504.0,496.0,498.0
523.0,522.0,499.0,516.0,500.0
519.0,494.0,488.0,524.0,510.0
510.0,493.0,489.0,530.0,504.0
494.0,495.0,496.0,541.0,504.0
491.0,485.0,506.0,548.0,521.0
507.0,452.0,442.0,514.0,527.0
518.0,443.0,381.0,489.0,534.0
472.0,448.0,369.0,468.0,538.0
469.0,468.0,410.0,479.0,523.0
474.0,467.0,438.0,472.0,534.0
471.0,479.0,499.0,488.0,554.0
531.0,520.0,584.0,500.0,530.0
559.0,553.0,630.0,513.0,504.0
538.0,546.0,661.0,534.0,502.0
534.0,534.0,647.0,543.0,496.0
531.0,532.0,645.0,553.0,499.0
531.0,522.0,620.0,556.0,484.0
536.0,505.0,609.0,560.0,489.0
535.0,502.0,601.0,571.0,496.0
523.0,477.0,585.0,567.0,487.0
517.0,444.0,531.0,551.0,502.0
498.0,446.0,522.0,537.0,513.0
502.0,478.0,528.0,522.0,510.0
505.0,514.0,521.0,516.0,514.0
511.0,535.0,496.0,496.0,532.0
509.0,552.0,478.0,473.0,530.0
518.0,570.0,476.0,471.0,518.0
526.0,561.0,487.0,509.0,501.0
522.0,537.0,495.0,531.0,492.0
523.0,525.0,509.0,529.0,499.0
529.0,537.0,546.0,532.0,507.0
537.0,552.0,573.0,496.0,505.0
523.0,527.0,537.0,480.0,514.0
515.0,518.0,539.0,524.0,528.0
515.0,532.0,552.0,547.0,516.0
505.0,529.0,547.0,558.0,519.0
498.0,511.0,525.0,537.0,517.0
495.0,503.0,524.0,535.0,503.0
463.0,498.0,520.0,536.0,521.0
479.0,499.0,501.0,516.0,523.0
470.0,492.0,491.0,499.0,515.0
465.0,502.0,498.0,507.0,521.0
531.0,516.0,501.0,495.0,507.0
556.0,526.0,514.0,500.0,493.0
561.0,527.0,520.0,505.0,499.0
537.0,522.0,505.0,500.0,530.0
525.0,518.0,520.0,519.0,516.0
533.0,522.0,524.0,532.0,505.0
527.0,515.0,522.0,537.0,506.0
514.0,513.0,530.0,539.0,533.0
494.0,511.0,535.0,538.0,528.0
477.0,512.0,527.0,538.0,492.0
463.0,507.0,528.0,534.0,505.0
443.0,503.0,516.0,508.0,525.0
474.0,497.0,509.0,518.0,511.0
515.0,500.0,514.0,523.0,510.0
514.0,507.0,501.0,521.0,510.0
577.0,512.0,501.0,513.0,504.0
567.0,508.0,506.0,510.0,506.0
548.0,508.0,502.0,510.0,508.0
537.0,513.0,505.0,499.0,511.0
527.0,508.0,511.0,511.0,525.0
546.0,506.0,512.0,522.0,526.0
546.0,516.0,515.0,514.0,535.0
534.0,509.0,521.0,525.0,521.0
530.0,507.0,528.0,509.0,522.0
534.0,512.0,554.0,533.0,505.0
534.0,524.0,561.0,531.0,494.0
519.0,520.0,549.0,534.0,485.0
516.0,513.0,524.0,529.0,477.0
517.0,497.0,495.0,535.0,472.0
508.0,487.0,491.0,535.0,491.0
497.0,482.0,483.0,526.0,507.0
505.0,493.0,488.0,525.0,517.0
511.0,515.0,499.0,515.0,519.0
523.0,515.0,504.0,504.0,516.0
511.0,510.0,505.0,489.0,531.0
519.0,505.0,503.0,488.0,540.0
519.0,510.0,508.0,499.0,528.0
516.0,513.0,513.0,505.0,536.0
517.0,506.0,519.0,508.0,532.0
525.0,501.0,522.0,517.0,495.0
527.0,501.0,526.0,526.0,488.0
526.0,503.0,531.0,525.0,486.0
521.0,490.0,523.0,526.0,474.0
508.0,477.0,517.0,527.0,478.0
508.0,486.0,516.0,525.0,487.0
508.0,506.0,514.0,531.0,524.0
508.0,500.0,502.0,526.0,530.0
498.0,478.0,498.0,512.0,521.0
495.0,462.0,477.0,494.0,525.0
511.0,460.0,492.0,496.0,530.0
508.0,456.0,503.0,510.0,528.0
508.0,450.0,496.0,495.0,534.0
505.0,454.0,489.0,482.0,545.0
496.0,482.0,488.0,497.0,534.0
510.0,551.0,533.0,499.0,537.0
520.0,556.0,540.0,530.0,530.0
525.0,553.0,560.0,554.0,519.0
527.0,533.0,549.0,545.0,508.0
523.0,518.0,519.0,539.0,508.0
520.0,503.0,537.0,534.0,497.0
523.0,491.0,508.0,515.0,498.0
515.0,476.0,498.0,501.0,508.0
503.0,472.0,499.0,502.0,521.0
497.0,446.0,474.0,507.0,528.0
479.0,426.0,460.0,512.0,536.0
495.0,485.0,483.0,502.0,536.0
514.0,526.0,490.0,507.0,531.0
519.0,534.0,492.0,508.0,526.0
520.0,515.0,501.0,501.0,529.0
508.0,492.0,507.0,497.0,533.0
511.0,498.0,517.0,487.0,528.0
524.0,536.0,521.0,498.0,511.0
526.0,532.0,547.0,508.0,508.0
523.0,520.0,568.0,526.0,527.0
528.0,528.0,563.0,538.0,521.0
530.0,540.0,532.0,550.0,503.0
528.0,553.0,542.0,562.0,501.0
520.0,525.0,535.0,550.0,491.0
508.0,501.0,516.0,526.0,504.0
509.0,502.0,522.0,525.0,509.0
510.0,501.0,508.0,518.0,497.0
511.0,504.0,513.0,512.0,500.0
509.0,526.0,513.0,514.0,529.0
513.0,530.0,518.0,520.0,527.0
515.0,539.0,521.0,515.0,548.0
516.0,530.0,521.0,505.0,574.0
513.0,526.0,518.0,506.0,552.0
514.0,530.0,515.0,504.0,543.0
519.0,523.0,520.0,510.0,541.0
526.0,531.0,527.0,517.0,528.0
527.0,541.0,537.0,524.0,518.0
527.0,527.0,537.0,531.0,510.0
528.0,518.0,535.0,538.0,511.0
525.0,517.0,538.0,541.0,514.0
518.0,517.0,529.0,539.0,518.0
511.0,509.0,525.0,539.0,520.0
507.0,500.0,518.0,523.0,519.0
509.0,497.0,513.0,522.0,521.0
506.0,501.0,508.0,510.0,528.0
508.0,511.0,509.0,511.0,535.0
513.0,515.0,512.0,509.0,539.0
515.0,511.0,508.0,509.0,533.0
513.0,515.0,510.0,506.0,526.0
521.0,523.0,515.0,508.0,512.0
516.0,516.0,512.0,503.0,517.0
518.0,519.0,517.0,509.0,527.0
519.0,513.0,521.0,515.0,531.0
526.0,516.0,529.0,524.0,515.0
529.0,518.0,537.0,541.0,504.0
524.0,513.0,536.0,544.0,494.0
517.0,507.0,528.0,535.0,501.0
513.0,506.0,527.0,538.0,519.0
509.0,502.0,521.0,533.0,530.0
506.0,496.0,512.0,526.0,543.0
506.0,495.0,501.0,512.0,543.0
503.0,498.0,504.0,514.0,535.0
503.0,503.0,502.0,510.0,514.0
504.0,507.0,505.0,507.0,512.0
512.0,508.0,506.0,512.0,498.0
516.0,510.0,509.0,503.0,509.0
517.0,513.0,511.0,500.0,508.0
535.0,515.0,514.0,508.0,515.0
525.0,507.0,516.0,517.0,528.0
522.0,508.0,516.0,510.0,528.0
527.0,508.0,521.0,518.0,509.0
534.0,511.0,531.0,534.0,501.0
530.0,506.0,535.0,546.0,495.0
517.0,499.0,527.0,539.0,497.0
510.0,495.0,522.0,533.0,511.0
507.0,495.0,513.0,531.0,505.0
503.0,490.0,500.0,516.0,505.0
501.0,492.0,500.0,511.0,512.0
510.0,503.0,498.0,506.0,508.0
517.0,507.0,499.0,502.0,493.0
517.0,509.0,503.0,509.0,501.0
521.0,514.0,509.0,513.0,536.0
520.0,512.0,508.0,505.0,527.0
512.0,506.0,500.0,491.0,515.0
514.0,507.0,499.0,492.0,523.0
525.0,515.0,516.0,503.0,543.0
525.0,514.0,525.0,512.0,559.0
522.0,512.0,534.0,530.0,520.0
527.0,509.0,531.0,545.0,501.0
518.0,504.0,530.0,549.0,500.0
514.0,503.0,528.0,543.0,512.0
514.0,491.0,514.0,531.0,518.0
500.0,488.0,516.0,530.0,521.0
494.0,485.0,502.0,517.0,534.0
500.0,486.0,501.0,506.0,539.0
503.0,487.0,498.0,492.0,529.0
512.0,512.0,508.0,498.0,524.0
519.0,528.0,513.0,513.0,516.0
511.0,513.0,512.0,513.0,514.0
514.0,512.0,511.0,506.0,515.0
517.0,516.0,513.0,505.0,517.0
527.0,511.0,516.0,509.0,523.0
529.0,513.0,524.0,512.0,520.0
526.0,516.0,527.0,520.0,521.0
528.0,522.0,537.0,529.0,507.0
525.0,512.0,537.0,534.0,499.0
519.0,503.0,534.0,533.0,496.0
512.0,496.0,523.0,532.0,504.0
502.0,484.0,522.0,523.0,508.0
496.0,481.0,505.0,514.0,522.0
505.0,497.0,519.0,520.0,526.0
502.0,500.0,520.0,515.0,530.0
509.0,497.0,520.0,506.0,526.0
513.0,499.0,522.0,507.0,517.0
512.0,500.0,517.0,513.0,524.0
510.0,495.0,497.0,512.0,528.0
516.0,496.0,503.0,520.0,526.0
520.0,499.0,498.0,516.0,523.0
531.0,512.0,513.0,522.0,519.0
525.0,515.0,502.0,506.0,516.0
519.0,506.0,508.0,516.0,526.0
522.0,501.0,523.0,526.0,520.0
524.0,506.0,527.0,536.0,495.0
526.0,508.0,530.0,541.0,505.0
514.0,507.0,521.0,536.0,515.0
511.0,500.0,513.0,534.0,514.0
500.0,492.0,505.0,520.0,531.0
496.0,495.0,501.0,504.0,541.0
499.0,505.0,518.0,501.0,535.0
508.0,504.0,518.0,503.0,529.0
517.0,525.0,513.0,504.0,525.0
521.0,523.0,519.0,503.0,528.0
519.0,514.0,501.0,507.0,522.0
527.0,514.0,504.0,501.0,510.0
530.0,516.0,513.0,514.0,501.0
524.0,517.0,524.0,519.0,503.0
523.0,516.0,525.0,519.0,518.0
521.0,520.0,532.0,528.0,505.0
523.0,512.0,538.0,533.0,504.0
515.0,509.0,536.0,535.0,489.0
521.0,514.0,534.0,534.0,490.0
516.0,507.0,526.0,529.0,495.0
506.0,495.0,512.0,521.0,503.0
499.0,497.0,505.0,516.0,517.0
508.0,499.0,499.0,507.0,536.0
516.0,502.0,500.0,506.0,523.0
520.0,504.0,503.0,505.0,517.0
512.0,510.0,508.0,505.0,514.0
506.0,505.0,506.0,503.0,516.0
508.0,508.0,509.0,502.0,513.0
515.0,510.0,512.0,497.0,534.0
522.0,510.0,514.0,502.0,518.0
521.0,521.0,520.0,509.0,501.0
527.0,517.0,526.0,517.0,500.0
532.0,508.0,535.0,526.0,476.0
525.0,506.0,544.0,538.0,471.0
524.0,503.0,547.0,540.0,479.0
514.0,499.0,543.0,538.0,505.0
499.0,493.0,527.0,534.0,509.0
500.0,492.0,501.0,529.0,515.0
495.0,490.0,490.0,512.0,543.0
492.0,501.0,479.0,489.0,542.0
511.0,506.0,499.0,496.0,511.0
517.0,511.0,508.0,503.0,497.0
515.0,514.0,505.0,508.0,508.0
507.0,512.0,509.0,506.0,553.0
508.0,512.0,511.0,501.0,542.0
512.0,509.0,509.0,506.0,522.0
515.0,517.0,519.0,514.0,527.0
515.0,512.0,524.0,514.0,513.0
521.0,514.0,526.0,523.0,509.0
519.0,514.0,530.0,527.0,509.0
516.0,504.0,536.0,540.0,509.0
520.0,508.0,529.0,534.0,503.0
520.0,499.0,521.0,531.0,502.0
506.0,496.0,514.0,526.0,515.0
500.0,491.0,506.0,519.0,528.0
501.0,500.0,499.0,505.0,539.0
506.0,505.0,504.0,506.0,545.0
509.0,510.0,507.0,505.0,544.0
514.0,511.0,510.0,502.0,544.0
516.0,515.0,515.0,512.0,538.0
514.0,508.0,516.0,507.0,542.0
524.0,508.0,508.0,494.0,525.0
521.0,513.0,515.0,505.0,520.0
517.0,509.0,519.0,516.0,517.0
513.0,507.0,522.0,523.0,511.0
522.0,511.0,533.0,530.0,504.0
527.0,509.0,532.0,533.0,490.0
525.0,506.0,532.0,538.0,493.0
518.0,502.0,530.0,536.0,495.0
509.0,496.0,517.0,525.0,496.0
508.0,496.0,510.0,523.0,503.0
502.0,495.0,500.0,513.0,516.0
503.0,502.0,503.0,511.0,510.0
507.0,502.0,503.0,511.0,507.0
508.0,510.0,507.0,506.0,512.0
509.0,511.0,508.0,503.0,519.0
514.0,515.0,511.0,506.0,542.0
515.0,513.0,509.0,495.0,547.0
517.0,512.0,514.0,497.0,543.0
517.0,511.0,513.0,504.0,537.0
527.0,509.0,517.0,515.0,507.0
529.0,509.0,525.0,525.0,497.0
538.0,505.0,530.0,532.0,478.0
545.0,501.0,526.0,533.0,452.0
528.0,488.0,518.0,529.0,474.0
507.0,490.0,515.0,524.0,524.0
505.0,488.0,506.0,522.0,528.0
504.0,495.0,501.0,517.0,529.0
498.0,492.0,501.0,510.0,527.0
493.0,497.0,499.0,502.0,537.0
505.0,499.0,500.0,500.0,529.0
509.0,503.0,513.0,506.0,526.0
518.0,497.0,515.0,505.0,523.0
516.0,498.0,513.0,502.0,528.0
512.0,491.0,496.0,488.0,517.0
510.0,490.0,483.0,485.0,519.0
526.0,507.0,487.0,493.0,513.0
527.0,534.0,519.0,498.0,532.0
529.0,547.0,535.0,521.0,514.0
534.0,531.0,541.0,543.0,494.0
526.0,515.0,547.0,546.0,482.0
516.0,509.0,549.0,551.0,490.0
520.0,504.0,515.0,548.0,512.0
512.0,498.0,516.0,539.0,489.0
501.0,485.0,506.0,520.0,493.0
489.0,477.0,500.0,516.0,517.0
500.0,489.0,508.0,524.0,515.0
513.0,500.0,513.0,525.0,518.0
520.0,507.0,524.0,526.0,524.0
529.0,515.0,525.0,530.0,520.0
535.0,530.0,529.0,534.0,505.0
533.0,531.0,532.0,528.0,508.0
521.0,514.0,506.0,486.0,527.0
518.0,513.0,507.0,485.0,555.0
520.0,514.0,525.0,505.0,533.0
521.0,511.0,518.0,532.0,509.0
523.0,505.0,515.0,540.0,504.0
518.0,502.0,525.0,542.0,512.0
509.0,499.0,518.0,539.0,511.0
508.0,492.0,512.0,533.0,513.0
501.0,487.0,504.0,520.0,518.0
496.0,490.0,499.0,502.0,520.0
500.0,504.0,496.0,493.0,514.0
504.0,514.0,500.0,498.0,535.0
505.0,510.0,505.0,496.0,526.0
514.0,516.0,504.0,498.0,513.0
518.0,520.0,508.0,501.0,511.0
515.0,519.0,508.0,500.0,522.0
510.0,512.0,507.0,498.0,530.0
514.0,514.0,515.0,505.0,525.0
521.0,513.0,518.0,511.0,522.0
519.0,512.0,522.0,514.0,522.0
518.0,511.0,526.0,531.0,504.0
519.0,511.0,531.0,535.0,492.0
517.0,507.0,529.0,536.0,494.0
513.0,501.0,520.0,533.0,501.0
513.0,500.0,515.0,528.0,500.0
505.0,496.0,505.0,518.0,510.0
500.0,491.0,496.0,505.0,530.0
508.0,496.0,495.0,501.0,520.0
514.0,505.0,502.0,503.0,516.0
513.0,510.0,507.0,500.0,515.0
508.0,511.0,504.0,500.0,520.0
508.0,514.0,505.0,497.0,512.0
511.0,516.0,509.0,503.0,524.0
517.0,512.0,510.0,510.0,525.0
519.0,511.0,517.0,512.0,517.0
513.0,508.0,517.0,511.0,525.0
515.0,506.0,523.0,520.0,511.0
516.0,511.0,533.0,534.0,498.0
518.0,514.0,535.0,540.0,521.0
509.0,506.0,519.0,535.0,518.0
508.0,498.0,513.0,532.0,509.0
508.0,492.0,508.0,527.0,522.0
497.0,492.0,504.0,519.0,552.0
498.0,496.0,502.0,512.0,559.0
498.0,505.0,502.0,506.0,569.0
499.0,511.0,509.0,505.0,550.0
505.0,513.0,511.0,504.0,515.0
519.0,513.0,511.0,505.0,487.0
530.0,515.0,511.0,506.0,483.0
534.0,510.0,503.0,502.0,485.0
529.0,509.0,508.0,507.0,475.0
534.0,513.0,513.0,519.0,458.0
532.0,515.0,519.0,521.0,493.0
533.0,513.0,526.0,531.0,533.0
527.0,510.0,530.0,534.0,517.0
505.0,503.0,522.0,530.0,522.0
508.0,505.0,522.0,532.0,527.0
500.0,494.0,508.0,520.0,527.0
502.0,496.0,507.0,517.0,522.0
499.0,498.0,500.0,509.0,518.0
507.0,498.0,497.0,505.0,512.0
516.0,507.0,500.0,499.0,529.0
520.0,507.0,501.0,500.0,535.0
531.0,516.0,509.0,506.0,522.0
529.0,514.0,512.0,511.0,532.0
520.0,512.0,510.0,502.0,538.0
508.0,506.0,510.0,492.0,508.0
508.0,511.0,512.0,499.0,524.0
510.0,511.0,518.0,511.0,516.0
520.0,513.0,524.0,522.0,500.0
519.0,510.0,528.0,543.0,478.0
521.0,509.0,530.0,546.0,477.0
520.0,504.0,526.0,538.0,485.0
509.0,493.0,517.0,530.0,486.0
504.0,493.0,512.0,531.0,503.0
504.0,492.0,504.0,518.0,520.0
501.0,493.0,500.0,510.0,522.0
504.0,498.0,499.0,505.0,534.0
505.0,504.0,504.0,507.0,545.0
512.0,512.0,509.0,507.0,547.0
509.0,515.0,513.0,503.0,547.0
510.0,516.0,515.0,503.0,547.0
511.0,514.0,509.0,499.0,538.0
519.0,510.0,510.0,500.0,528.0
524.0,507.0,512.0,505.0,510.0
526.0,508.0,521.0,516.0,511.0
532.0,508.0,523.0,524.0,513.0
530.0,513.0,531.0,534.0,501.0
525.0,514.0,538.0,545.0,495.0
513.0,505.0,529.0,541.0,498.0
499.0,494.0,512.0,529.0,490.0
502.0,495.0,508.0,520.0,477.0
497.0,488.0,500.0,512.0,504.0
499.0,490.0,496.0,507.0,516.0
503.0,495.0,496.0,502.0,516.0
510.0,502.0,495.0,499.0,532.0
523.0,506.0,496.0,498.0,545.0
523.0,516.0,505.0,501.0,539.0
526.0,521.0,508.0,501.0,527.0
522.0,510.0,510.0,498.0,520.0
526.0,509.0,509.0,507.0,506.0
509.0,510.0,507.0,504.0,511.0
510.0,508.0,514.0,513.0,490.0
513.0,509.0,521.0,517.0,518.0
514.0,509.0,537.0,535.0,519.0
511.0,504.0,535.0,536.0,529.0
511.0,502.0,529.0,541.0,510.0
506.0,500.0,521.0,542.0,509.0
497.0,494.0,512.0,533.0,516.0
498.0,493.0,505.0,526.0,527.0
496.0,500.0,502.0,519.0,525.0
503.0,503.0,499.0,502.0,529.0
508.0,509.0,505.0,494.0,527.0
512.0,514.0,509.0,497.0,528.0
516.0,520.0,510.0,499.0,524.0
521.0,514.0,510.0,499.0,532.0
516.0,508.0,507.0,499.0,538.0
518.0,506.0,510.0,502.0,527.0
522.0,518.0,521.0,510.0,522.0
516.0,519.0,524.0,517.0,512.0
520.0,513.0,530.0,528.0,485.0
523.0,513.0,533.0,533.0,490.0
513.0,505.0,529.0,533.0,510.0
503.0,498.0,520.0,532.0,492.0
500.0,494.0,509.0,529.0,500.0
500.0,494.0,504.0,521.0,516.0
504.0,495.0,505.0,516.0,523.0
507.0,500.0,508.0,511.0,542.0
513.0,504.0,503.0,502.0,540.0
513.0,512.0,510.0,506.0,537.0
514.0,517.0,514.0,501.0,524.0
513.0,513.0,510.0,496.0,500.0
510.0,509.0,511.0,496.0,524.0
519.0,508.0,503.0,501.0,532.0
523.0,512.0,507.0,507.0,532.0
523.0,508.0,523.0,518.0,536.0
528.0,510.0,526.0,524.0,519.0
534.0,510.0,525.0,528.0,507.0
524.0,507.0,524.0,528.0,499.0
513.0,502.0,510.0,526.0,486.0
502.0,496.0,502.0,528.0,474.0
503.0,492.0,496.0,519.0,478.0
500.0,493.0,490.0,512.0,493.0
504.0,495.0,499.0,514.0,517.0
508.0,501.0,516.0,509.0,533.0
509.0,508.0,520.0,508.0,523.0
512.0,513.0,515.0,510.0,539.0
514.0,518.0,518.0,505.0,534.0
524.0,517.0,512.0,501.0,521.0
528.0,512.0,509.0,499.0,510.0
531.0,517.0,517.0,509.0,515.0
534.0,516.0,516.0,510.0,514.0
534.0,514.0,520.0,514.0,514.0
533.0,513.0,529.0,522.0,506.0
523.0,514.0,526.0,528.0,491.0
502.0,513.0,534.0,539.0,473.0
496.0,505.0,521.0,535.0,483.0
497.0,496.0,513.0,529.0,498.0
497.0,495.0,506.0,524.0,505.0
499.0,494.0,501.0,516.0,497.0
508.0,500.0,501.0,514.0,480.0
506.0,509.0,506.0,511.0,513.0
503.0,515.0,507.0,502.0,538.0
509.0,518.0,510.0,505.0,542.0
505.0,519.0,508.0,497.0,570.0
512.0,520.0,513.0,499.0,549.0
512.0,518.0,511.0,500.0,538.0
517.0,516.0,513.0,505.0,511.0
520.0,516.0,516.0,509.0,508.0
519.0,516.0,521.0,518.0,503.0
526.0,516.0,528.0,527.0,500.0
522.0,515.0,529.0,533.0,506.0
523.0,508.0,526.0,533.0,497.0
512.0,507.0,519.0,530.0,498.0
510.0,501.0,512.0,526.0,501.0
502.0,499.0,504.0,517.0,504.0
503.0,497.0,501.0,512.0,513.0
501.0,502.0,499.0,508.0,527.0
506.0,508.0,502.0,503.0,525.0
519.0,518.0,508.0,504.0,530.0
514.0,520.0,509.0,501.0,528.0
513.0,520.0,511.0,500.0,535.0
509.0,517.0,510.0,501.0,527.0
515.0,516.0,510.0,502.0,506.0
518.0,513.0,517.0,505.0,519.0
517.0,514.0,518.0,514.0,520.0
520.0,512.0,526.0,520.0,510.0
524.0,514.0,529.0,528.0,505.0
524.0,511.0,529.0,534.0,491.0
521.0,506.0,530.0,536.0,492.0
516.0,505.0,518.0,530.0,499.0
511.0,497.0,514.0,524.0,503.0
503.0,493.0,503.0,515.0,515.0
497.0,495.0,501.0,508.0,513.0
502.0,501.0,502.0,506.0,515.0
509.0,507.0,507.0,504.0,519.0
512.0,511.0,505.0,501.0,514.0
513.0,516.0,507.0,497.0,535.0
512.0,520.0,508.0,500.0,531.0
519.0,515.0,508.0,501.0,515.0
515.0,514.0,511.0,502.0,526.0
516.0,512.0,514.0,510.0,509.0
523.0,515.0,519.0,516.0,492.0
526.0,512.0,525.0,523.0,495.0
525.0,515.0,529.0,533.0,489.0
524.0,509.0,527.0,539.0,492.0
521.0,503.0,525.0,531.0,523.0
518.0,497.0,511.0,526.0,513.0
518.0,496.0,509.0,526.0,500.0
512.0,495.0,501.0,513.0,507.0
506.0,499.0,499.0,509.0,513.0
500.0,505.0,504.0,506.0,514.0
495.0,511.0,508.0,506.0,526.0
501.0,520.0,510.0,503.0,522.0
507.0,516.0,510.0,499.0,538.0
516.0,514.0,512.0,498.0,528.0
518.0,510.0,507.0,496.0,522.0
515.0,512.0,514.0,505.0,519.0
520.0,512.0,518.0,515.0,514.0
520.0,512.0,522.0,520.0,500.0
523.0,511.0,527.0,529.0,497.0
524.0,511.0,532.0,537.0,498.0
516.0,506.0,532.0,545.0,491.0
508.0,500.0,523.0,536.0,505.0
502.0,496.0,516.0,530.0,508.0
492.0,489.0,504.0,514.0,506.0
491.0,491.0,497.0,505.0,509.0
505.0,498.0,496.0,508.0,496.0
502.0,503.0,497.0,505.0,521.0
512.0,510.0,504.0,506.0,524.0
516.0,513.0,510.0,503.0,515.0
518.0,516.0,509.0,502.0,531.0
515.0,511.0,506.0,499.0,530.0
518.0,510.0,509.0,499.0,509.0
518.0,507.0,514.0,501.0,519.0
522.0,507.0,519.0,509.0,503.0
521.0,508.0,526.0,517.0,501.0
524.0,509.0,525.0,524.0,506.0
527.0,505.0,523.0,530.0,508.0
527.0,503.0,525.0,535.0,506.0
516.0,495.0,517.0,530.0,504.0
503.0,489.0,509.0,522.0,498.0
498.0,485.0,500.0,516.0,500.0
500.0,493.0,503.0,512.0,514.0
501.0,498.0,502.0,507.0,524.0
509.0,501.0,502.0,503.0,529.0
513.0,507.0,501.0,502.0,517.0
515.0,513.0,509.0,508.0,518.0
518.0,516.0,516.0,504.0,526.0
512.0,510.0,511.0,501.0,533.0
516.0,510.0,517.0,505.0,531.0
518.0,508.0,517.0,513.0,526.0
522.0,506.0,520.0,515.0,513.0
527.0,509.0,528.0,530.0,502.0
526.0,508.0,535.0,533.0,497.0
521.0,504.0,530.0,539.0,495.0
514.0,499.0,525.0,534.0,495.0
505.0,494.0,515.0,525.0,504.0
502.0,490.0,511.0,524.0,508.0
497.0,488.0,505.0,514.0,513.0
498.0,490.0,501.0,508.0,519.0
507.0,498.0,501.0,505.0,530.0
513.0,507.0,507.0,504.0,533.0
513.0,508.0,507.0,498.0,532.0
519.0,514.0,511.0,505.0,526.0
517.0,510.0,510.0,504.0,530.0
520.0,508.0,510.0,505.0,529.0
524.0,510.0,517.0,511.0,520.0
522.0,511.0,522.0,516.0,516.0
529.0,506.0,524.0,525.0,510.0
524.0,507.0,528.0,535.0,505.0
522.0,507.0,525.0,536.0,494.0
520.0,501.0,525.0,531.0,486.0
512.0,499.0,517.0,519.0,494.0
508.0,492.0,508.0,514.0,503.0
502.0,489.0,502.0,515.0,510.0
501.0,491.0,499.0,511.0,516.0
505.0,493.0,496.0,504.0,521.0
509.0,501.0,500.0,504.0,523.0
511.0,510.0,508.0,503.0,530.0
515.0,514.0,517.0,502.0,530.0
514.0,519.0,517.0,504.0,537.0
513.0,517.0,514.0,501.0,540.0
516.0,511.0,514.0,501.0,540.0
514.0,508.0,516.0,506.0,513.0
522.0,506.0,520.0,513.0,506.0
521.0,506.0,522.0,522.0,504.0
524.0,508.0,530.0,530.0,489.0
528.0,505.0,530.0,534.0,482.0
527.0,500.0,525.0,535.0,485.0
520.0,495.0,515.0,528.0,488.0
509.0,491.0,508.0,519.0,520.0
495.0,482.0,497.0,506.0,524.0
495.0,486.0,494.0,507.0,537.0
510.0,499.0,501.0,504.0,543.0
513.0,506.0,504.0,503.0,542.0
531.0,512.0,507.0,502.0,537.0
526.0,512.0,507.0,499.0,529.0
518.0,510.0,508.0,499.0,526.0
516.0,512.0,510.0,501.0,513.0
499.0,509.0,515.0,509.0,499.0
505.0,507.0,515.0,507.0,514.0
509.0,508.0,520.0,517.0,499.0
519.0,516.0,529.0,527.0,496.0
520.0,512.0,532.0,534.0,495.0
514.0,505.0,531.0,540.0,498.0
513.0,500.0,525.0,541.0,506.0
501.0,496.0,518.0,531.0,511.0
499.0,493.0,514.0,525.0,514.0
499.0,491.0,503.0,516.0,517.0
501.0,498.0,507.0,512.0,498.0
508.0,506.0,503.0,507.0,506.0
516.0,504.0,506.0,502.0,506.0
515.0,509.0,510.0,502.0,512.0
523.0,515.0,513.0,505.0,523.0
516.0,512.0,509.0,499.0,543.0
518.0,511.0,509.0,500.0,528.0
525.0,511.0,513.0,503.0,509.0
528.0,511.0,518.0,509.0,510.0
526.0,507.0,518.0,508.0,530.0
523.0,509.0,525.0,518.0,516.0
524.0,508.0,530.0,532.0,497.0
520.0,499.0,528.0,535.0,494.0
511.0,500.0,521.0,533.0,502.0
507.0,493.0,513.0,527.0,504.0
505.0,486.0,504.0,519.0,512.0
503.0,492.0,501.0,513.0,515.0
503.0,496.0,499.0,508.0,513.0
508.0,505.0,506.0,504.0,512.0
510.0,508.0,505.0,502.0,523.0
512.0,515.0,510.0,502.0,530.0
514.0,516.0,514.0,503.0,517.0
519.0,514.0,511.0,501.0,529.0
513.0,510.0,507.0,502.0,543.0
519.0,512.0,515.0,510.0,541.0
518.0,510.0,520.0,515.0,524.0
517.0,507.0,524.0,522.0,523.0
525.0,508.0,526.0,528.0,512.0
522.0,507.0,529.0,532.0,496.0
523.0,504.0,529.0,535.0,496.0
520.0,499.0,519.0,533.0,509.0
509.0,494.0,514.0,528.0,521.0
498.0,488.0,503.0,517.0,527.0
496.0,494.0,499.0,510.0,521.0
501.0,496.0,497.0,505.0,505.0
515.0,504.0,500.0,501.0,509.0
524.0,507.0,503.0,498.0,516.0
523.0,509.0,501.0,498.0,519.0
513.0,514.0,511.0,501.0,530.0
507.0,511.0,511.0,504.0,528.0
510.0,507.0,514.0,502.0,527.0
515.0,507.0,515.0,505.0,521.0
517.0,509.0,520.0,513.0,512.0
522.0,510.0,526.0,520.0,500.0
520.0,508.0,527.0,529.0,489.0
517.0,502.0,524.0,531.0,491.0
517.0,493.0,519.0,529.0,502.0
509.0,493.0,517.0,526.0,506.0
498.0,492.0,508.0,522.0,516.0
492.0,487.0,502.0,510.0,522.0
494.0,493.0,498.0,503.0,526.0
499.0,498.0,498.0,502.0,526.0
508.0,509.0,505.0,504.0,530.0
515.0,513.0,513.0,501.0,530.0
517.0,515.0,510.0,499.0,527.0
519.0,515.0,510.0,498.0,527.0
513.0,512.0,509.0,499.0,530.0
518.0,512.0,513.0,507.0,523.0
521.0,512.0,523.0,511.0,515.0
518.0,509.0,521.0,516.0,518.0
522.0,512.0,528.0,525.0,501.0
524.0,509.0,530.0,532.0,485.0
519.0,504.0,526.0,535.0,482.0
516.0,500.0,522.0,532.0,485.0
503.0,492.0,513.0,530.0,505.0
499.0,490.0,505.0,520.0,518.0
499.0,493.0,505.0,514.0,519.0
499.0,497.0,500.0,509.0,526.0
508.0,508.0,503.0,505.0,527.0
509.0,512.0,506.0,507.0,532.0
514.0,513.0,508.0,501.0,524.0
513.0,516.0,511.0,503.0,519.0
515.0,514.0,512.0,505.0,520.0
520.0,512.0,511.0,503.0,522.0
519.0,511.0,521.0,508.0,522.0
521.0,511.0,519.0,513.0,517.0
525.0,508.0,520.0,516.0,517.0
520.0,508.0,527.0,526.0,512.0
515.0,507.0,530.0,538.0,505.0
515.0,502.0,526.0,536.0,508.0
519.0,496.0,517.0,531.0,506.0
512.0,495.0,512.0,526.0,509.0
509.0,490.0,505.0,515.0,507.0
504.0,491.0,498.0,510.0,514.0
502.0,499.0,504.0,508.0,518.0
503.0,504.0,506.0,503.0,516.0
509.0,511.0,507.0,502.0,523.0
507.0,513.0,509.0,500.0,529.0
517.0,514.0,508.0,500.0,528.0
516.0,511.0,509.0,503.0,524.0
518.0,511.0,512.0,501.0,526.0
513.0,511.0,517.0,507.0,524.0
521.0,513.0,522.0,518.0,518.0
521.0,512.0,526.0,525.0,496.0
518.0,510.0,529.0,531.0,499.0
515.0,501.0,531.0,534.0,496.0
512.0,501.0,523.0,533.0,494.0
508.0,498.0,514.0,529.0,496.0
500.0,492.0,510.0,524.0,501.0
498.0,494.0,502.0,516.0,509.0
504.0,495.0,498.0,508.0,529.0
508.0,501.0,500.0,508.0,533.0
513.0,509.0,505.0,505.0,521.0
516.0,512.0,509.0,502.0,525.0
517.0,515.0,505.0,496.0,534.0
510.0,512.0,509.0,501.0,539.0
514.0,510.0,506.0,496.0,543.0
517.0,513.0,513.0,503.0,534.0
518.0,508.0,515.0,513.0,525.0
518.0,507.0,518.0,517.0,501.0
520.0,508.0,524.0,524.0,502.0
520.0,509.0,529.0,532.0,495.0
525.0,506.0,528.0,535.0,485.0
517.0,499.0,518.0,530.0,490.0
504.0,492.0,510.0,524.0,496.0
499.0,490.0,507.0,521.0,506.0
496.0,492.0,497.0,514.0,509.0
495.0,498.0,499.0,508.0,513.0
501.0,503.0,502.0,506.0,519.0
509.0,511.0,507.0,506.0,523.0
513.0,515.0,509.0,500.0,523.0
519.0,519.0,515.0,504.0,523.0
521.0,516.0,513.0,506.0,525.0
516.0,517.0,512.0,503.0,528.0
520.0,513.0,516.0,504.0,527.0
525.0,515.0,522.0,516.0,525.0
523.0,510.0,522.0,519.0,512.0
524.0,510.0,528.0,529.0,495.0
522.0,511.0,529.0,535.0,487.0
519.0,505.0,526.0,538.0,485.0
506.0,501.0,519.0,531.0,494.0
505.0,495.0,512.0,527.0,503.0
501.0,491.0,503.0,520.0,516.0
499.0,495.0,505.0,512.0,527.0
498.0,500.0,500.0,506.0,528.0
511.0,507.0,503.0,504.0,527.0
511.0,513.0,506.0,503.0,529.0
512.0,518.0,515.0,504.0,526.0
515.0,519.0,511.0,501.0,525.0
518.0,512.0,509.0,503.0,524.0
524.0,510.0,511.0,506.0,513.0
517.0,511.0,517.0,511.0,512.0
516.0,513.0,519.0,516.0,508.0
523.0,511.0,527.0,526.0,499.0
521.0,511.0,531.0,533.0,496.0
517.0,508.0,530.0,536.0,500.0
512.0,502.0,521.0,533.0,503.0
507.0,497.0,516.0,529.0,506.0
502.0,494.0,511.0,526.0,507.0
498.0,492.0,502.0,512.0,515.0
498.0,494.0,499.0,510.0,524.0
510.0,503.0,503.0,507.0,524.0
512.0,508.0,507.0,509.0,522.0
518.0,512.0,511.0,506.0,524.0
519.0,514.0,513.0,510.0,523.0
517.0,512.0,508.0,501.0,531.0
518.0,513.0,510.0,498.0,535.0
512.0,513.0,513.0,503.0,535.0
516.0,511.0,517.0,509.0,521.0
526.0,512.0,522.0,516.0,512.0
528.0,513.0,528.0,526.0,506.0
530.0,513.0,532.0,534.0,499.0
519.0,506.0,528.0,536.0,501.0
510.0,503.0,521.0,532.0,509.0
499.0,496.0,515.0,531.0,516.0
502.0,494.0,509.0,522.0,518.0
504.0,495.0,503.0,514.0,526.0
507.0,496.0,500.0,510.0,526.0
506.0,504.0,500.0,503.0,519.0
514.0,510.0,507.0,503.0,518.0
513.0,516.0,508.0,500.0,533.0
519.0,513.0,507.0,501.0,525.0
515.0,515.0,511.0,502.0,519.0
512.0,516.0,514.0,503.0,531.0
511.0,511.0,510.0,503.0,530.0
515.0,509.0,520.0,513.0,519.0
523.0,510.0,521.0,519.0,505.0
523.0,511.0,529.0,528.0,492.0
526.0,512.0,532.0,536.0,499.0
514.0,505.0,528.0,534.0,504.0
505.0,496.0,517.0,529.0,505.0
500.0,492.0,510.0,524.0,511.0
492.0,490.0,504.0,518.0,511.0
497.0,494.0,502.0,513.0,521.0
501.0,498.0,501.0,506.0,520.0
508.0,506.0,503.0,505.0,514.0
517.0,512.0,506.0,505.0,516.0
520.0,516.0,510.0,504.0,516.0
519.0,517.0,511.0,503.0,527.0
512.0,514.0,509.0,500.0,544.0
518.0,515.0,516.0,504.0,529.0
520.0,513.0,517.0,510.0,529.0
520.0,515.0,521.0,515.0,521.0
523.0,512.0,524.0,522.0,511.0
531.0,511.0,530.0,532.0,489.0
529.0,507.0,529.0,536.0,485.0
522.0,501.0,522.0,534.0,487.0
514.0,497.0,515.0,529.0,496.0
507.0,491.0,510.0,522.0,514.0
499.0,495.0,501.0,514.0,523.0
496.0,494.0,504.0,510.0,523.0
498.0,505.0,502.0,507.0,526.0
508.0,509.0,505.0,504.0,523.0
512.0,512.0,507.0,504.0,526.0
518.0,520.0,513.0,505.0,526.0
515.0,516.0,511.0,498.0,529.0
516.0,519.0,511.0,500.0,532.0
516.0,513.0,514.0,508.0,526.0
517.0,510.0,516.0,512.0,525.0
521.0,512.0,521.0,517.0,513.0
525.0,510.0,526.0,526.0,505.0
528.0,511.0,530.0,538.0,494.0
521.0,498.0,526.0,535.0,491.0
515.0,499.0,522.0,532.0,495.0
509.0,494.0,515.0,527.0,503.0
503.0,495.0,506.0,520.0,509.0
500.0,495.0,500.0,513.0,515.0
500.0,495.0,498.0,507.0,527.0
507.0,503.0,498.0,507.0,526.0
511.0,512.0,510.0,507.0,530.0
513.0,519.0,510.0,505.0,529.0
519.0,518.0,514.0,506.0,530.0
518.0,513.0,510.0,499.0,533.0
517.0,511.0,510.0,503.0,529.0
519.0,512.0,517.0,506.0,524.0
522.0,512.0,521.0,513.0,519.0
519.0,510.0,524.0,522.0,511.0
520.0,511.0,528.0,529.0,497.0
521.0,509.0,532.0,534.0,491.0
517.0,503.0,528.0,540.0,491.0
515.0,496.0,518.0,534.0,493.0
506.0,492.0,512.0,524.0,502.0
497.0,490.0,500.0,510.0,515.0
499.0,493.0,498.0,510.0,521.0
501.0,495.0,498.0,504.0,524.0
506.0,504.0,507.0,503.0,524.0
512.0,508.0,509.0,504.0,524.0
513.0,517.0,512.0,503.0,527.0
516.0,518.0,510.0,500.0,532.0
513.0,513.0,513.0,498.0,533.0
516.0,510.0,511.0,500.0,539.0
518.0,513.0,518.0,508.0,531.0
516.0,510.0,520.0,512.0,513.0
519.0,508.0,523.0,520.0,507.0
525.0,510.0,529.0,527.0,504.0
521.0,506.0,529.0,534.0,496.0
518.0,502.0,528.0,534.0,491.0
514.0,501.0,516.0,529.0,498.0
506.0,491.0,505.0,522.0,506.0
500.0,489.0,501.0,514.0,516.0
496.0,488.0,497.0,506.0,523.0
502.0,497.0,502.0,506.0,520.0
511.0,511.0,507.0,506.0,517.0
519.0,516.0,510.0,504.0,528.0
524.0,520.0,512.0,503.0,525.0
515.0,515.0,511.0,499.0,537.0
512.0,513.0,511.0,500.0,537.0
513.0,514.0,515.0,504.0,528.0
516.0,513.0,520.0,511.0,524.0
516.0,508.0,521.0,516.0,506.0
524.0,514.0,529.0,529.0,499.0
520.0,512.0,529.0,532.0,494.0
522.0,504.0,526.0,534.0,500.0
527.0,498.0,520.0,531.0,501.0
517.0,497.0,512.0,526.0,499.0
508.0,491.0,506.0,522.0,501.0
504.0,495.0,506.0,515.0,517.0
507.0,496.0,500.0,512.0,520.0
506.0,503.0,502.0,505.0,525.0
506.0,509.0,507.0,504.0,519.0
508.0,518.0,508.0,500.0,521.0
513.0,517.0,510.0,500.0,522.0
514.0,517.0,509.0,498.0,530.0
513.0,510.0,508.0,499.0,527.0
517.0,515.0,514.0,505.0,520.0
520.0,510.0,519.0,512.0,516.0
522.0,511.0,527.0,520.0,511.0
525.0,510.0,528.0,528.0,495.0
528.0,507.0,530.0,536.0,488.0
523.0,503.0,526.0,537.0,484.0
514.0,501.0,517.0,531.0,491.0
506.0,491.0,509.0,526.0,501.0
497.0,492.0,500.0,510.0,518.0
498.0,492.0,499.0,508.0,529.0
496.0,498.0,499.0,505.0,531.0
500.0,507.0,505.0,506.0,519.0
509.0,513.0,511.0,504.0,527.0
517.0,516.0,510.0,502.0,524.0
514.0,519.0,513.0,503.0,533.0
513.0,514.0,506.0,500.0,532.0
518.0,513.0,513.0,504.0,533.0
516.0,511.0,515.0,515.0,521.0
522.0,509.0,520.0,516.0,512.0
521.0,515.0,525.0,522.0,505.0
529.0,509.0,528.0,529.0,501.0
523.0,503.0,526.0,532.0,492.0
515.0,498.0,521.0,531.0,497.0
509.0,496.0,515.0,526.0,504.0
502.0,492.0,508.0,525.0,509.0
499.0,494.0,502.0,514.0,514.0
497.0,493.0,498.0,508.0,520.0
501.0,501.0,500.0,505.0,521.0
508.0,504.0,501.0,502.0,523.0
507.0,516.0,507.0,502.0,532.0
513.0,515.0,512.0,502.0,523.0
515.0,515.0,513.0,499.0,520.0
515.0,512.0,510.0,500.0,529.0
519.0,513.0,513.0,503.0,526.0
521.0,514.0,520.0,511.0,526.0
525.0,511.0,523.0,516.0,514.0
531.0,513.0,528.0,526.0,506.0
528.0,510.0,529.0,533.0,501.0
515.0,504.0,525.0,533.0,496.0
509.0,494.0,523.0,533.0,485.0
506.0,494.0,512.0,528.0,481.0
503.0,491.0,505.0,517.0,488.0
500.0,491.0,501.0,512.0,506.0
502.0,498.0,499.0,507.0,519.0
504.0,504.0,502.0,505.0,534.0
512.0,512.0,508.0,509.0,525.0
515.0,518.0,510.0,506.0,524.0
517.0,518.0,509.0,504.0,525.0
517.0,516.0,511.0,501.0,529.0
515.0,513.0,509.0,500.0,528.0
517.0,513.0,517.0,505.0,521.0
516.0,516.0,520.0,514.0,509.0
524.0,513.0,525.0,520.0,507.0
526.0,513.0,530.0,533.0,498.0
520.0,509.0,528.0,534.0,492.0
518.0,505.0,520.0,535.0,492.0
512.0,497.0,517.0,532.0,501.0
508.0,495.0,512.0,525.0,503.0
504.0,492.0,504.0,521.0,513.0
502.0,493.0,500.0,511.0,522.0
503.0,500.0,500.0,506.0,526.0
505.0,507.0,503.0,506.0,532.0
514.0,513.0,506.0,503.0,533.0
516.0,519.0,510.0,502.0,533.0
520.0,517.0,510.0,500.0,528.0
519.0,514.0,508.0,499.0,516.0
516.0,514.0,511.0,502.0,518.0
519.0,513.0,516.0,512.0,517.0
519.0,511.0,520.0,515.0,514.0
520.0,511.0,524.0,520.0,516.0
523.0,512.0,528.0,532.0,505.0
527.0,507.0,529.0,533.0,494.0
515.0,500.0,520.0,531.0,491.0
510.0,495.0,513.0,527.0,488.0
504.0,493.0,511.0,526.0,492.0
500.0,494.0,503.0,518.0,499.0
501.0,494.0,499.0,511.0,515.0
503.0,502.0,501.0,506.0,531.0
503.0,509.0,504.0,503.0,541.0
515.0,513.0,506.0,503.0,534.0
510.0,516.0,510.0,501.0,538.0
518.0,517.0,513.0,501.0,525.0
518.0,512.0,511.0,502.0,522.0
518.0,516.0,519.0,507.0,522.0
524.0,514.0,519.0,514.0,514.0
518.0,512.0,522.0,517.0,509.0
516.0,507.0,524.0,522.0,510.0
524.0,512.0,531.0,534.0,509.0
518.0,505.0,528.0,534.0,506.0
511.0,501.0,520.0,531.0,504.0
506.0,493.0,510.0,526.0,507.0
501.0,489.0,503.0,517.0,505.0
499.0,490.0,499.0,511.0,515.0
500.0,495.0,498.0,506.0,523.0
502.0,502.0,501.0,506.0,529.0
509.0,511.0,506.0,500.0,527.0
516.0,517.0,509.0,505.0,524.0
520.0,516.0,510.0,503.0,525.0
515.0,515.0,510.0,499.0,532.0
514.0,513.0,507.0,497.0,537.0
514.0,512.0,513.0,503.0,530.0
524.0,513.0,519.0,509.0,517.0
521.0,511.0,518.0,519.0,509.0
522.0,512.0,528.0,528.0,501.0
522.0,510.0,531.0,529.0,493.0
515.0,504.0,523.0,536.0,494.0
515.0,498.0,519.0,534.0,497.0
510.0,496.0,516.0,526.0,504.0
508.0,492.0,504.0,516.0,512.0
503.0,495.0,501.0,512.0,520.0
499.0,499.0,499.0,509.0,527.0
506.0,505.0,505.0,506.0,527.0
513.0,511.0,506.0,502.0,525.0
518.0,514.0,509.0,501.0,525.0
513.0,520.0,512.0,501.0,534.0
509.0,512.0,509.0,500.0,531.0
513.0,513.0,512.0,503.0,518.0
520.0,511.0,515.0,508.0,515.0
520.0,511.0,520.0,514.0,516.0
524.0,512.0,528.0,527.0,507.0
523.0,507.0,530.0,530.0,499.0
525.0,509.0,534.0,538.0,494.0
518.0,502.0,525.0,536.0,491.0
506.0,495.0,516.0,529.0,489.0
504.0,493.0,510.0,524.0,500.0
500.0,490.0,503.0,516.0,511.0
502.0,494.0,503.0,511.0,512.0
506.0,501.0,506.0,507.0,519.0
507.0,507.0,506.0,505.0,521.0
511.0,514.0,510.0,502.0,521.0
514.0,517.0,513.0,504.0,522.0
516.0,516.0,512.0,501.0,525.0
516.0,512.0,512.0,503.0,526.0
516.0,519.0,517.0,506.0,525.0
518.0,512.0,524.0,513.0,520.0
519.0,509.0,523.0,518.0,517.0
521.0,510.0,529.0,529.0,501.0
521.0,514.0,533.0,535.0,496.0
518.0,505.0,530.0,540.0,490.0
516.0,500.0,524.0,534.0,494.0
506.0,494.0,513.0,528.0,503.0
502.0,493.0,510.0,519.0,511.0
498.0,492.0,502.0,515.0,523.0
501.0,496.0,502.0,509.0,526.0
511.0,503.0,503.0,503.0,527.0
512.0,511.0,508.0,504.0,526.0
515.0,517.0,509.0,501.0,529.0
520.0,518.0,512.0,502.0,532.0
515.0,513.0,512.0,500.0,532.0
518.0,516.0,512.0,500.0,540.0
516.0,510.0,514.0,503.0,538.0
522.0,512.0,524.0,513.0,521.0
517.0,505.0,520.0,519.0,509.0
518.0,509.0,528.0,525.0,503.0
522.0,508.0,534.0,533.0,485.0
518.0,501.0,525.0,530.0,480.0
512.0,495.0,518.0,529.0,489.0
508.0,490.0,510.0,519.0,499.0
498.0,486.0,502.0,517.0,512.0
501.0,493.0,504.0,514.0,515.0
504.0,500.0,503.0,509.0,516.0
512.0,505.0,505.0,508.0,511.0
506.0,509.0,507.0,505.0,506.0
516.0,515.0,510.0,503.0,508.0
519.0,519.0,511.0,503.0,515.0
519.0,516.0,514.0,503.0,527.0
521.0,513.0,514.0,507.0,523.0
524.0,513.0,519.0,508.0,529.0
523.0,511.0,522.0,515.0,531.0
525.0,516.0,527.0,521.0,513.0
522.0,509.0,531.0,529.0,508.0
522.0,507.0,531.0,533.0,507.0
518.0,506.0,524.0,532.0,493.0
512.0,497.0,518.0,528.0,487.0
505.0,494.0,512.0,523.0,487.0
503.0,494.0,502.0,514.0,496.0
498.0,492.0,496.0,509.0,506.0
503.0,500.0,499.0,511.0,513.0
510.0,508.0,507.0,509.0,518.0
515.0,513.0,509.0,510.0,519.0
518.0,514.0,508.0,498.0,531.0
511.0,513.0,509.0,496.0,539.0
508.0,514.0,512.0,500.0,523.0
515.0,516.0,514.0,497.0,526.0
517.0,512.0,518.0,507.0,522.0
519.0,508.0,520.0,516.0,510.0
523.0,509.0,526.0,525.0,501.0
523.0,512.0,531.0,533.0,502.0
517.0,505.0,530.0,534.0,504.0
514.0,501.0,522.0,533.0,503.0
511.0,495.0,513.0,528.0,506.0
508.0,494.0,510.0,524.0,512.0
500.0,493.0,504.0,518.0,522.0
501.0,497.0,501.0,508.0,524.0
504.0,504.0,502.0,500.0,530.0
512.0,512.0,508.0,504.0,527.0
512.0,516.0,510.0,502.0,533.0
523.0,520.0,513.0,501.0,528.0
518.0,515.0,512.0,500.0,530.0
518.0,511.0,509.0,496.0,528.0
516.0,512.0,510.0,505.0,523.0
512.0,515.0,520.0,515.0,513.0
515.0,510.0,524.0,517.0,506.0
524.0,513.0,528.0,531.0,497.0
524.0,511.0,532.0,538.0,490.0
515.0,505.0,526.0,530.0,487.0
513.0,501.0,519.0,528.0,495.0
505.0,494.0,515.0,527.0,500.0
501.0,493.0,503.0,520.0,507.0
504.0,492.0,501.0,517.0,514.0
505.0,499.0,502.0,508.0,518.0
504.0,508.0,504.0,505.0,525.0
507.0,509.0,506.0,503.0,523.0
513.0,514.0,512.0,502.0,521.0
514.0,514.0,512.0,499.0,528.0
516.0,513.0,509.0,498.0,532.0
517.0,509.0,507.0,500.0,531.0
517.0,511.0,513.0,504.0,529.0
519.0,511.0,523.0,514.0,521.0
523.0,511.0,524.0,517.0,509.0
526.0,511.0,528.0,528.0,503.0
522.0,503.0,524.0,530.0,494.0
516.0,502.0,523.0,531.0,488.0
506.0,496.0,517.0,530.0,490.0
501.0,493.0,512.0,527.0,498.0
496.0,490.0,503.0,517.0,516.0
494.0,491.0,497.0,509.0,527.0
499.0,498.0,498.0,504.0,523.0
505.0,505.0,503.0,504.0,525.0
511.0,514.0,509.0,504.0,525.0
512.0,516.0,511.0,503.0,533.0
514.0,515.0,510.0,503.0,527.0
517.0,513.0,509.0,499.0,526.0
519.0,514.0,515.0,505.0,528.0
517.0,513.0,517.0,510.0,523.0
525.0,511.0,520.0,517.0,512.0
529.0,512.0,528.0,525.0,508.0
521.0,510.0,530.0,536.0,501.0
519.0,507.0,529.0,541.0,496.0
518.0,504.0,521.0,534.0,498.0
511.0,496.0,513.0,528.0,498.0
504.0,496.0,508.0,523.0,502.0
499.0,493.0,500.0,515.0,509.0
501.0,496.0,502.0,508.0,511.0
502.0,503.0,500.0,506.0,516.0
508.0,510.0,507.0,504.0,519.0
515.0,517.0,509.0,503.0,523.0
516.0,521.0,510.0,501.0,522.0
517.0,519.0,510.0,501.0,524.0
511.0,515.0,510.0,502.0,526.0
516.0,513.0,513.0,505.0,521.0
521.0,515.0,521.0,514.0,514.0
519.0,512.0,522.0,518.0,509.0
524.0,512.0,529.0,528.0,498.0
524.0,513.0,534.0,534.0,494.0
521.0,505.0,525.0,535.0,490.0
515.0,502.0,521.0,533.0,494.0
513.0,497.0,513.0,531.0,502.0
500.0,493.0,503.0,517.0,515.0
501.0,493.0,501.0,514.0,523.0
500.0,500.0,500.0,508.0,533.0
507.0,508.0,505.0,505.0,525.0
511.0,513.0,503.0,503.0,523.0
511.0,517.0,509.0,501.0,528.0
515.0,518.0,511.0,499.0,527.0
518.0,515.0,514.0,500.0,519.0
517.0,511.0,510.0,500.0,520.0
517.0,512.0,515.0,506.0,520.0
523.0,514.0,525.0,515.0,513.0
521.0,514.0,527.0,523.0,508.0
525.0,512.0,529.0,532.0,498.0
526.0,508.0,530.0,535.0,493.0
518.0,504.0,528.0,533.0,488.0
512.0,498.0,520.0,529.0,490.0
503.0,493.0,510.0,525.0,496.0
499.0,490.0,503.0,516.0,505.0
498.0,496.0,500.0,510.0,512.0
503.0,501.0,501.0,506.0,527.0
505.0,508.0,504.0,502.0,539.0
511.0,515.0,507.0,502.0,532.0
515.0,514.0,508.0,497.0,526.0
516.0,515.0,509.0,501.0,530.0
513.0,513.0,510.0,499.0,533.0
518.0,516.0,514.0,501.0,530.0
516.0,506.0,518.0,507.0,524.0
518.0,507.0,519.0,513.0,518.0
521.0,513.0,527.0,523.0,507.0
521.0,506.0,532.0,532.0,501.0
519.0,507.0,529.0,536.0,498.0
509.0,497.0,519.0,530.0,497.0
508.0,496.0,513.0,527.0,503.0
506.0,492.0,513.0,523.0,500.0
499.0,489.0,503.0,514.0,504.0
500.0,493.0,501.0,511.0,510.0
504.0,504.0,505.0,507.0,516.0
507.0,515.0,507.0,506.0,532.0
511.0,518.0,514.0,501.0,533.0
518.0,518.0,511.0,501.0,529.0
521.0,516.0,510.0,501.0,528.0
521.0,510.0,509.0,502.0,526.0
524.0,511.0,514.0,502.0,528.0
521.0,514.0,522.0,510.0,521.0
518.0,515.0,525.0,519.0,514.0
521.0,506.0,530.0,526.0,504.0
523.0,508.0,532.0,535.0,493.0
517.0,503.0,535.0,537.0,490.0
511.0,500.0,523.0,532.0,492.0
503.0,496.0,514.0,525.0,509.0
501.0,493.0,506.0,511.0,532.0
500.0,496.0,504.0,516.0,538.0
500.0,498.0,505.0,508.0,537.0
504.0,506.0,506.0,504.0,536.0
513.0,514.0,507.0,501.0,524.0
520.0,516.0,512.0,502.0,516.0
521.0,514.0,511.0,499.0,522.0
523.0,513.0,513.0,499.0,529.0
516.0,508.0,516.0,500.0,533.0
525.0,511.0,520.0,507.0,513.0
527.0,512.0,523.0,516.0,509.0
531.0,512.0,525.0,521.0,506.0
533.0,510.0,529.0,524.0,498.0
531.0,508.0,531.0,535.0,487.0
518.0,503.0,529.0,538.0,494.0
510.0,496.0,518.0,527.0,496.0
499.0,492.0,512.0,524.0,499.0
489.0,490.0,503.0,520.0,504.0
494.0,494.0,502.0,511.0,513.0
501.0,500.0,502.0,510.0,520.0
508.0,509.0,505.0,504.0,522.0
513.0,514.0,510.0,503.0,513.0
513.0,516.0,513.0,504.0,519.0
517.0,516.0,513.0,503.0,513.0
518.0,514.0,514.0,501.0,519.0
519.0,515.0,517.0,506.0,520.0
515.0,511.0,518.0,509.0,516.0
516.0,508.0,521.0,515.0,513.0
524.0,514.0,535.0,526.0,509.0
522.0,510.0,531.0,532.0,505.0
526.0,509.0,532.0,536.0,502.0
516.0,502.0,524.0,532.0,499.0
511.0,497.0,515.0,532.0,503.0
509.0,494.0,512.0,524.0,505.0
495.0,490.0,500.0,514.0,514.0
494.0,495.0,499.0,505.0,522.0
501.0,499.0,500.0,504.0,526.0
512.0,511.0,507.0,505.0,525.0
515.0,515.0,509.0,500.0,526.0
517.0,518.0,511.0,499.0,533.0
519.0,514.0,509.0,500.0,525.0
519.0,514.0,511.0,501.0,525.0
521.0,514.0,515.0,505.0,516.0
522.0,512.0,519.0,512.0,511.0
520.0,507.0,520.0,519.0,502.0
525.0,510.0,527.0,530.0,498.0
523.0,510.0,527.0,532.0,500.0
518.0,504.0,521.0,531.0,499.0
515.0,501.0,520.0,531.0,498.0
504.0,497.0,514.0,527.0,497.0
498.0,491.0,505.0,518.0,509.0
497.0,495.0,507.0,514.0,515.0
503.0,500.0,502.0,510.0,519.0
511.0,506.0,504.0,508.0,523.0
516.0,515.0,509.0,504.0,527.0
516.0,517.0,511.0,502.0,527.0
518.0,523.0,513.0,502.0,530.0
519.0,516.0,512.0,500.0,528.0
521.0,515.0,515.0,501.0,525.0
519.0,515.0,518.0,509.0,518.0
520.0,512.0,520.0,514.0,510.0
522.0,512.0,524.0,521.0,499.0
525.0,512.0,529.0,530.0,491.0
523.0,511.0,533.0,537.0,488.0
516.0,504.0,525.0,536.0,496.0
509.0,498.0,522.0,528.0,505.0
503.0,494.0,511.0,528.0,506.0
501.0,491.0,504.0,519.0,514.0
500.0,494.0,500.0,514.0,518.0
504.0,501.0,501.0,506.0,522.0
509.0,508.0,507.0,503.0,530.0
512.0,516.0,514.0,503.0,527.0
512.0,515.0,509.0,501.0,529.0
518.0,518.0,511.0,500.0,533.0
517.0,515.0,514.0,500.0,531.0
515.0,513.0,514.0,504.0,527.0
517.0,514.0,520.0,509.0,518.0
523.0,512.0,520.0,514.0,508.0
530.0,515.0,530.0,527.0,501.0
527.0,514.0,533.0,532.0,492.0
520.0,505.0,528.0,534.0,492.0
517.0,502.0,518.0,533.0,492.0
509.0,496.0,515.0,527.0,499.0
506.0,497.0,509.0,524.0,503.0
500.0,493.0,503.0,510.0,515.0
504.0,498.0,504.0,509.0,516.0
509.0,503.0,500.0,508.0,521.0
510.0,515.0,508.0,507.0,521.0
512.0,515.0,509.0,503.0,530.0
515.0,517.0,510.0,505.0,531.0
520.0,516.0,509.0,500.0,527.0
518.0,516.0,512.0,502.0,533.0
515.0,514.0,516.0,505.0,528.0
517.0,515.0,520.0,511.0,523.0
520.0,514.0,527.0,519.0,515.0
523.0,513.0,529.0,526.0,504.0
524.0,510.0,530.0,532.0,486.0
517.0,503.0,524.0,531.0,485.0
515.0,496.0,517.0,528.0,492.0
508.0,491.0,510.0,522.0,506.0
501.0,489.0,503.0,517.0,507.0
502.0,490.0,500.0,512.0,512.0
501.0,497.0,500.0,507.0,522.0
501.0,502.0,502.0,510.0,520.0
511.0,509.0,505.0,501.0,521.0
516.0,515.0,509.0,500.0,529.0
525.0,518.0,513.0,502.0,529.0
526.0,514.0,510.0,500.0,530.0
525.0,513.0,511.0,501.0,524.0
523.0,513.0,518.0,506.0,520.0
524.0,511.0,519.0,511.0,506.0
528.0,515.0,524.0,521.0,494.0
530.0,509.0,527.0,525.0,512.0
529.0,510.0,531.0,534.0,505.0
519.0,507.0,525.0,534.0,503.0
508.0,496.0,516.0,526.0,510.0
510.0,496.0,511.0,524.0,507.0
501.0,492.0,504.0,515.0,518.0
500.0,491.0,500.0,510.0,520.0
