CH1,CH2,CH3,CH4,CH5
512.0,514.0,506.0,501.0,533.0
518.0,522.0,511.0,500.0,534.0
514.0,524.0,513.0,495.0,532.0
513.0,521.0,513.0,499.0,537.0
515.0,519.0,513.0,500.0,532.0
516.0,512.0,515.0,502.0,528.0
524.0,512.0,521.0,512.0,515.0
518.0,513.0,523.0,523.0,510.0
520.0,504.0,525.0,531.0,496.0
519.0,502.0,526.0,537.0,488.0
517.0,499.0,524.0,537.0,487.0
506.0,492.0,515.0,536.0,492.0
501.0,487.0,508.0,527.0,501.0
494.0,487.0,500.0,523.0,512.0
497.0,491.0,497.0,512.0,519.0
503.0,502.0,502.0,508.0,525.0
508.0,513.0,505.0,503.0,532.0
512.0,519.0,510.0,500.0,537.0
513.0,518.0,510.0,497.0,538.0
513.0,518.0,510.0,496.0,538.0
513.0,516.0,510.0,496.0,532.0
514.0,517.0,519.0,504.0,515.0
517.0,515.0,518.0,507.0,506.0
523.0,510.0,519.0,521.0,502.0
527.0,510.0,527.0,528.0,496.0
529.0,508.0,527.0,536.0,495.0
524.0,506.0,528.0,537.0,485.0
519.0,498.0,522.0,534.0,484.0
508.0,490.0,510.0,529.0,495.0
506.0,488.0,510.0,524.0,494.0
500.0,489.0,499.0,515.0,504.0
500.0,497.0,504.0,509.0,515.0
505.0,504.0,502.0,506.0,527.0
516.0,511.0,506.0,504.0,527.0
515.0,519.0,505.0,502.0,528.0
520.0,523.0,512.0,502.0,529.0
521.0,517.0,512.0,499.0,532.0
519.0,521.0,511.0,497.0,529.0
515.0,517.0,514.0,506.0,534.0
516.0,517.0,520.0,511.0,522.0
516.0,511.0,522.0,519.0,521.0
518.0,509.0,530.0,532.0,509.0
521.0,511.0,533.0,539.0,494.0
523.0,502.0,525.0,540.0,479.0
515.0,494.0,518.0,533.0,486.0
506.0,492.0,510.0,532.0,497.0
507.0,486.0,503.0,518.0,501.0
508.0,494.0,498.0,513.0,510.0
505.0,498.0,498.0,507.0,519.0
505.0,507.0,502.0,510.0,518.0
510.0,514.0,506.0,501.0,521.0
518.0,521.0,511.0,504.0,527.0
515.0,524.0,515.0,499.0,530.0
512.0,518.0,510.0,498.0,527.0
513.0,519.0,513.0,500.0,532.0
519.0,516.0,516.0,503.0,524.0
524.0,514.0,521.0,514.0,514.0
522.0,512.0,524.0,523.0,508.0
527.0,509.0,532.0,531.0,495.0
530.0,506.0,530.0,540.0,483.0
517.0,499.0,523.0,541.0,483.0
506.0,493.0,517.0,535.0,483.0
501.0,489.0,510.0,530.0,491.0
504.0,489.0,505.0,519.0,502.0
500.0,493.0,498.0,513.0,517.0
505.0,505.0,500.0,505.0,526.0
508.0,510.0,503.0,502.0,530.0
511.0,519.0,508.0,500.0,533.0
514.0,524.0,510.0,498.0,528.0
515.0,519.0,512.0,499.0,533.0
515.0,517.0,511.0,499.0,536.0
518.0,516.0,517.0,500.0,532.0
516.0,510.0,516.0,506.0,526.0
518.0,508.0,516.0,514.0,516.0
526.0,513.0,527.0,525.0,503.0
528.0,512.0,532.0,534.0,490.0
524.0,503.0,528.0,540.0,488.0
519.0,498.0,520.0,538.0,488.0
510.0,490.0,513.0,533.0,493.0
499.0,489.0,504.0,527.0,499.0
495.0,486.0,497.0,518.0,518.0
498.0,498.0,497.0,506.0,530.0
501.0,504.0,501.0,504.0,532.0
510.0,514.0,507.0,504.0,531.0
518.0,520.0,512.0,502.0,528.0
518.0,521.0,514.0,499.0,530.0
517.0,521.0,512.0,499.0,532.0
516.0,518.0,513.0,502.0,530.0
517.0,517.0,516.0,503.0,534.0
522.0,515.0,521.0,510.0,509.0
522.0,510.0,522.0,517.0,509.0
527.0,511.0,523.0,529.0,495.0
527.0,509.0,532.0,539.0,486.0
521.0,503.0,529.0,538.0,492.0
510.0,496.0,520.0,538.0,487.0
507.0,494.0,511.0,534.0,495.0
502.0,488.0,507.0,520.0,504.0
504.0,491.0,500.0,512.0,515.0
503.0,500.0,499.0,508.0,524.0
511.0,508.0,504.0,508.0,530.0
513.0,515.0,505.0,501.0,530.0
516.0,521.0,510.0,499.0,533.0
519.0,523.0,511.0,496.0,532.0
517.0,521.0,514.0,499.0,535.0
518.0,516.0,514.0,507.0,534.0
515.0,514.0,517.0,509.0,529.0
522.0,513.0,523.0,516.0,515.0
526.0,509.0,522.0,522.0,506.0
524.0,510.0,531.0,534.0,495.0
523.0,510.0,532.0,540.0,485.0
519.0,501.0,526.0,538.0,490.0
507.0,497.0,516.0,532.0,496.0
501.0,488.0,516.0,525.0,499.0
494.0,489.0,513.0,521.0,506.0
498.0,492.0,512.0,513.0,514.0
504.0,505.0,503.0,508.0,525.0
510.0,508.0,500.0,503.0,526.0
517.0,517.0,503.0,502.0,529.0
514.0,520.0,503.0,500.0,530.0
516.0,522.0,511.0,500.0,532.0
516.0,519.0,513.0,497.0,532.0
517.0,517.0,515.0,503.0,534.0
515.0,511.0,516.0,509.0,527.0
521.0,505.0,519.0,516.0,514.0
522.0,507.0,526.0,526.0,501.0
520.0,508.0,531.0,536.0,490.0
514.0,503.0,529.0,540.0,478.0
515.0,501.0,523.0,538.0,486.0
509.0,488.0,513.0,529.0,490.0
507.0,489.0,506.0,524.0,495.0
502.0,486.0,499.0,515.0,512.0
503.0,496.0,496.0,506.0,523.0
507.0,505.0,500.0,504.0,527.0
511.0,511.0,503.0,503.0,530.0
513.0,517.0,506.0,498.0,530.0
515.0,515.0,510.0,499.0,535.0
513.0,517.0,509.0,497.0,536.0
513.0,517.0,512.0,498.0,529.0
512.0,515.0,516.0,505.0,532.0
515.0,512.0,521.0,509.0,520.0
522.0,507.0,520.0,515.0,512.0
521.0,507.0,526.0,531.0,499.0
521.0,507.0,530.0,541.0,480.0
517.0,503.0,527.0,546.0,486.0
506.0,492.0,519.0,538.0,497.0
503.0,488.0,511.0,535.0,494.0
498.0,482.0,503.0,521.0,504.0
500.0,489.0,500.0,504.0,512.0
501.0,498.0,499.0,500.0,517.0
505.0,508.0,504.0,500.0,525.0
515.0,516.0,509.0,502.0,523.0
518.0,523.0,511.0,497.0,527.0
519.0,523.0,514.0,500.0,528.0
517.0,522.0,516.0,500.0,533.0
518.0,517.0,515.0,497.0,534.0
524.0,516.0,517.0,503.0,521.0
520.0,514.0,523.0,514.0,516.0
520.0,512.0,528.0,524.0,506.0
530.0,512.0,532.0,535.0,498.0
528.0,504.0,529.0,538.0,492.0
524.0,497.0,525.0,538.0,488.0
508.0,493.0,516.0,533.0,490.0
500.0,489.0,510.0,528.0,494.0
499.0,488.0,503.0,521.0,506.0
503.0,493.0,504.0,512.0,510.0
501.0,500.0,500.0,508.0,521.0
506.0,509.0,502.0,498.0,528.0
515.0,519.0,509.0,500.0,533.0
521.0,523.0,512.0,499.0,531.0
520.0,522.0,514.0,501.0,534.0
518.0,519.0,513.0,496.0,533.0
517.0,521.0,517.0,503.0,528.0
522.0,513.0,517.0,507.0,523.0
520.0,511.0,523.0,513.0,515.0
519.0,513.0,529.0,525.0,506.0
520.0,509.0,531.0,529.0,496.0
517.0,504.0,530.0,538.0,493.0
510.0,498.0,524.0,537.0,499.0
506.0,493.0,515.0,533.0,507.0
504.0,491.0,513.0,526.0,506.0
496.0,491.0,501.0,510.0,510.0
500.0,494.0,498.0,507.0,513.0
506.0,504.0,506.0,504.0,512.0
510.0,517.0,507.0,503.0,522.0
514.0,524.0,509.0,505.0,524.0
514.0,521.0,512.0,500.0,530.0
520.0,524.0,514.0,503.0,528.0
521.0,518.0,517.0,499.0,528.0
519.0,517.0,514.0,501.0,534.0
521.0,514.0,521.0,509.0,521.0
523.0,512.0,524.0,517.0,512.0
529.0,509.0,526.0,524.0,502.0
528.0,505.0,528.0,534.0,493.0
522.0,503.0,531.0,538.0,488.0
513.0,498.0,520.0,534.0,489.0
508.0,491.0,514.0,529.0,494.0
504.0,489.0,503.0,521.0,503.0
500.0,490.0,502.0,515.0,513.0
496.0,497.0,498.0,510.0,527.0
506.0,509.0,505.0,505.0,529.0
508.0,513.0,506.0,501.0,528.0
516.0,518.0,509.0,497.0,536.0
516.0,522.0,515.0,497.0,534.0
514.0,519.0,509.0,495.0,539.0
513.0,516.0,513.0,498.0,543.0
518.0,515.0,511.0,504.0,530.0
522.0,513.0,521.0,512.0,524.0
520.0,509.0,524.0,518.0,505.0
527.0,510.0,531.0,532.0,476.0
527.0,504.0,531.0,538.0,478.0
518.0,497.0,524.0,537.0,485.0
509.0,495.0,517.0,534.0,494.0
506.0,491.0,513.0,529.0,500.0
502.0,486.0,504.0,518.0,512.0
501.0,492.0,505.0,510.0,521.0
509.0,501.0,503.0,504.0,515.0
510.0,510.0,506.0,504.0,522.0
515.0,521.0,517.0,505.0,525.0
516.0,523.0,514.0,501.0,529.0
514.0,523.0,514.0,497.0,531.0
518.0,520.0,513.0,498.0,528.0
523.0,518.0,515.0,501.0,523.0
524.0,516.0,520.0,509.0,517.0
522.0,515.0,525.0,517.0,510.0
526.0,512.0,525.0,525.0,502.0
525.0,509.0,533.0,536.0,494.0
523.0,504.0,533.0,540.0,485.0
517.0,499.0,527.0,538.0,487.0
507.0,491.0,517.0,532.0,496.0
503.0,490.0,512.0,529.0,504.0
499.0,489.0,502.0,516.0,513.0
498.0,495.0,497.0,511.0,514.0
505.0,505.0,508.0,509.0,519.0
513.0,512.0,507.0,504.0,526.0
515.0,520.0,510.0,497.0,531.0
517.0,523.0,520.0,502.0,533.0
516.0,521.0,513.0,503.0,539.0
516.0,518.0,513.0,498.0,541.0
520.0,518.0,520.0,504.0,530.0
527.0,516.0,519.0,510.0,523.0
530.0,510.0,523.0,519.0,510.0
523.0,512.0,526.0,532.0,503.0
521.0,512.0,535.0,537.0,496.0
516.0,503.0,529.0,540.0,486.0
516.0,498.0,525.0,537.0,482.0
509.0,490.0,513.0,530.0,483.0
500.0,488.0,507.0,525.0,502.0
496.0,492.0,505.0,513.0,516.0
502.0,501.0,501.0,508.0,517.0
510.0,508.0,506.0,501.0,519.0
519.0,517.0,506.0,499.0,522.0
518.0,521.0,515.0,496.0,535.0
515.0,524.0,514.0,498.0,536.0
516.0,520.0,514.0,499.0,531.0
517.0,517.0,513.0,502.0,525.0
528.0,518.0,521.0,508.0,523.0
520.0,514.0,523.0,516.0,512.0
518.0,510.0,523.0,521.0,511.0
523.0,511.0,530.0,531.0,502.0
523.0,506.0,533.0,537.0,497.0
517.0,497.0,525.0,537.0,492.0
510.0,490.0,516.0,531.0,497.0
507.0,489.0,508.0,526.0,501.0
498.0,486.0,501.0,518.0,511.0
498.0,491.0,498.0,509.0,521.0
504.0,501.0,500.0,507.0,523.0
504.0,511.0,505.0,506.0,531.0
511.0,519.0,507.0,498.0,534.0
514.0,519.0,509.0,498.0,538.0
517.0,524.0,511.0,496.0,537.0
515.0,519.0,511.0,499.0,539.0
514.0,515.0,512.0,502.0,533.0
517.0,506.0,514.0,507.0,523.0
523.0,508.0,520.0,519.0,511.0
532.0,512.0,528.0,529.0,498.0
530.0,512.0,535.0,540.0,488.0
519.0,507.0,526.0,539.0,491.0
513.0,497.0,528.0,538.0,491.0
506.0,492.0,512.0,531.0,497.0
501.0,488.0,507.0,525.0,505.0
498.0,489.0,499.0,515.0,516.0
498.0,494.0,495.0,507.0,522.0
506.0,503.0,499.0,506.0,521.0
510.0,513.0,506.0,502.0,537.0
519.0,523.0,508.0,500.0,536.0
528.0,524.0,514.0,502.0,531.0
523.0,523.0,514.0,501.0,535.0
516.0,519.0,514.0,498.0,529.0
517.0,515.0,516.0,504.0,526.0
517.0,513.0,518.0,510.0,518.0
519.0,510.0,522.0,521.0,511.0
526.0,509.0,526.0,526.0,500.0
525.0,506.0,529.0,534.0,491.0
516.0,500.0,526.0,541.0,491.0
518.0,495.0,523.0,537.0,489.0
505.0,491.0,513.0,533.0,497.0
501.0,488.0,504.0,525.0,504.0
500.0,493.0,502.0,515.0,513.0
501.0,499.0,499.0,506.0,522.0
507.0,508.0,504.0,502.0,523.0
511.0,516.0,507.0,499.0,530.0
520.0,521.0,512.0,504.0,535.0
520.0,521.0,516.0,499.0,531.0
517.0,518.0,513.0,499.0,529.0
516.0,518.0,514.0,501.0,534.0
517.0,518.0,516.0,504.0,525.0
521.0,513.0,522.0,512.0,516.0
521.0,512.0,525.0,521.0,512.0
522.0,508.0,529.0,529.0,498.0
522.0,504.0,530.0,536.0,490.0
517.0,501.0,528.0,540.0,490.0
508.0,493.0,519.0,536.0,499.0
503.0,489.0,512.0,529.0,509.0
498.0,488.0,504.0,518.0,513.0
502.0,492.0,499.0,510.0,518.0
503.0,499.0,501.0,509.0,523.0
511.0,508.0,508.0,503.0,525.0
517.0,520.0,510.0,504.0,523.0
520.0,524.0,513.0,501.0,527.0
518.0,520.0,513.0,500.0,529.0
515.0,519.0,512.0,497.0,533.0
519.0,519.0,513.0,500.0,529.0
523.0,512.0,516.0,505.0,522.0
522.0,512.0,523.0,514.0,512.0
526.0,511.0,527.0,524.0,498.0
532.0,511.0,532.0,534.0,485.0
515.0,503.0,529.0,539.0,494.0
511.0,495.0,519.0,534.0,493.0
506.0,489.0,513.0,529.0,500.0
501.0,487.0,507.0,525.0,507.0
496.0,488.0,501.0,516.0,512.0
500.0,493.0,499.0,508.0,520.0
507.0,508.0,503.0,504.0,522.0
508.0,506.0,504.0,499.0,520.0
510.0,517.0,508.0,490.0,535.0
517.0,518.0,512.0,500.0,543.0
522.0,520.0,514.0,501.0,554.0
518.0,520.0,512.0,495.0,545.0
522.0,517.0,512.0,499.0,530.0
522.0,512.0,515.0,510.0,528.0
526.0,509.0,519.0,514.0,519.0
529.0,512.0,531.0,527.0,504.0
531.0,508.0,531.0,536.0,488.0
523.0,500.0,526.0,538.0,479.0
517.0,495.0,522.0,536.0,480.0
511.0,493.0,512.0,530.0,491.0
502.0,489.0,506.0,522.0,495.0
496.0,490.0,501.0,515.0,508.0
498.0,497.0,501.0,509.0,519.0
500.0,507.0,504.0,505.0,526.0
509.0,517.0,510.0,503.0,529.0
513.0,522.0,515.0,503.0,533.0
502.0,507.0,502.0,489.0,548.0
500.0,505.0,498.0,487.0,547.0
499.0,503.0,500.0,489.0,545.0
501.0,500.0,504.0,490.0,540.0
532.0,528.0,524.0,504.0,521.0
532.0,533.0,527.0,509.0,517.0
533.0,529.0,532.0,520.0,507.0
533.0,527.0,536.0,526.0,502.0
536.0,527.0,539.0,536.0,491.0
542.0,530.0,546.0,548.0,482.0
536.0,519.0,541.0,550.0,481.0
529.0,511.0,533.0,550.0,481.0
520.0,502.0,526.0,542.0,478.0
519.0,501.0,519.0,539.0,480.0
510.0,499.0,512.0,530.0,487.0
510.0,505.0,510.0,521.0,502.0
514.0,510.0,510.0,516.0,504.0
519.0,524.0,517.0,514.0,514.0
524.0,526.0,520.0,507.0,530.0
528.0,530.0,521.0,505.0,537.0
525.0,528.0,522.0,504.0,535.0
527.0,527.0,521.0,504.0,530.0
525.0,527.0,523.0,505.0,526.0
528.0,523.0,531.0,514.0,516.0
530.0,520.0,530.0,523.0,507.0
533.0,525.0,538.0,535.0,495.0
533.0,517.0,537.0,542.0,489.0
528.0,512.0,536.0,547.0,487.0
520.0,511.0,528.0,545.0,487.0
508.0,499.0,520.0,540.0,494.0
507.0,496.0,515.0,532.0,498.0
505.0,501.0,505.0,527.0,508.0
505.0,504.0,505.0,515.0,517.0
510.0,510.0,507.0,506.0,520.0
518.0,519.0,512.0,510.0,526.0
522.0,523.0,516.0,508.0,531.0
523.0,526.0,517.0,504.0,530.0
523.0,525.0,519.0,504.0,529.0
525.0,520.0,516.0,501.0,529.0
526.0,516.0,517.0,503.0,525.0
524.0,516.0,521.0,512.0,513.0
530.0,515.0,526.0,525.0,496.0
528.0,514.0,530.0,534.0,481.0
525.0,510.0,532.0,544.0,475.0
520.0,504.0,522.0,543.0,476.0
515.0,498.0,520.0,542.0,483.0
512.0,494.0,514.0,535.0,496.0
504.0,491.0,505.0,526.0,501.0
504.0,495.0,502.0,514.0,513.0
502.0,502.0,502.0,514.0,523.0
512.0,509.0,504.0,505.0,528.0
520.0,516.0,510.0,502.0,528.0
523.0,519.0,507.0,501.0,532.0
524.0,523.0,516.0,505.0,534.0
522.0,516.0,512.0,500.0,528.0
523.0,514.0,513.0,503.0,522.0
523.0,515.0,517.0,508.0,521.0
518.0,515.0,520.0,517.0,513.0
521.0,511.0,524.0,524.0,499.0
524.0,514.0,529.0,534.0,492.0
521.0,505.0,527.0,540.0,489.0
515.0,497.0,519.0,536.0,490.0
508.0,492.0,512.0,533.0,494.0
506.0,492.0,511.0,530.0,500.0
497.0,489.0,502.0,522.0,510.0
498.0,494.0,498.0,510.0,523.0
501.0,499.0,500.0,505.0,529.0
506.0,511.0,509.0,504.0,533.0
509.0,515.0,509.0,502.0,531.0
517.0,521.0,513.0,501.0,530.0
518.0,521.0,516.0,499.0,529.0
515.0,515.0,512.0,498.0,530.0
515.0,515.0,516.0,504.0,524.0
524.0,516.0,520.0,508.0,518.0
522.0,509.0,519.0,515.0,514.0
524.0,511.0,528.0,529.0,508.0
525.0,509.0,535.0,537.0,494.0
521.0,502.0,525.0,539.0,481.0
513.0,497.0,520.0,540.0,484.0
505.0,490.0,512.0,535.0,491.0
500.0,488.0,507.0,529.0,496.0
491.0,494.0,502.0,519.0,505.0
494.0,493.0,499.0,511.0,522.0
505.0,502.0,502.0,507.0,525.0
505.0,511.0,506.0,505.0,530.0
509.0,516.0,513.0,501.0,533.0
522.0,520.0,514.0,498.0,531.0
535.0,521.0,513.0,498.0,530.0
528.0,517.0,512.0,497.0,527.0
525.0,516.0,521.0,504.0,525.0
520.0,511.0,520.0,515.0,514.0
519.0,507.0,523.0,522.0,502.0
523.0,512.0,527.0,531.0,494.0
522.0,506.0,530.0,540.0,489.0
519.0,500.0,524.0,539.0,489.0
512.0,493.0,516.0,535.0,495.0
515.0,492.0,513.0,531.0,499.0
503.0,488.0,502.0,526.0,506.0
502.0,492.0,499.0,514.0,514.0
508.0,499.0,503.0,509.0,522.0
508.0,507.0,501.0,504.0,520.0
511.0,513.0,506.0,504.0,523.0
515.0,518.0,509.0,499.0,529.0
518.0,520.0,510.0,497.0,527.0
517.0,516.0,510.0,500.0,533.0
520.0,513.0,517.0,499.0,533.0
518.0,515.0,514.0,508.0,527.0
521.0,509.0,518.0,514.0,513.0
520.0,508.0,522.0,522.0,504.0
524.0,508.0,526.0,532.0,495.0
523.0,503.0,526.0,532.0,487.0
521.0,499.0,522.0,539.0,491.0
511.0,493.0,514.0,533.0,495.0
504.0,488.0,507.0,528.0,502.0
502.0,486.0,500.0,521.0,505.0
501.0,493.0,498.0,512.0,510.0
502.0,501.0,501.0,505.0,519.0
510.0,504.0,505.0,503.0,525.0
516.0,514.0,507.0,499.0,526.0
518.0,518.0,509.0,497.0,531.0
511.0,518.0,512.0,497.0,532.0
511.0,513.0,512.0,496.0,528.0
518.0,515.0,517.0,499.0,522.0
520.0,514.0,522.0,506.0,516.0
517.0,507.0,522.0,515.0,515.0
517.0,509.0,527.0,528.0,506.0
515.0,508.0,530.0,536.0,493.0
516.0,500.0,526.0,539.0,488.0
513.0,497.0,520.0,533.0,488.0
506.0,492.0,512.0,532.0,497.0
502.0,489.0,508.0,526.0,501.0
495.0,487.0,499.0,514.0,513.0
494.0,491.0,496.0,511.0,521.0
502.0,501.0,502.0,504.0,520.0
513.0,514.0,509.0,504.0,522.0
515.0,517.0,512.0,497.0,531.0
519.0,522.0,514.0,499.0,531.0
524.0,522.0,516.0,500.0,529.0
517.0,517.0,515.0,496.0,530.0
515.0,512.0,515.0,496.0,523.0
515.0,511.0,519.0,509.0,515.0
516.0,509.0,522.0,517.0,512.0
522.0,509.0,527.0,527.0,500.0
524.0,500.0,526.0,535.0,488.0
522.0,501.0,525.0,542.0,484.0
513.0,494.0,517.0,538.0,489.0
506.0,492.0,511.0,531.0,497.0
502.0,487.0,506.0,522.0,502.0
498.0,491.0,500.0,515.0,513.0
498.0,497.0,500.0,510.0,523.0
506.0,508.0,503.0,508.0,527.0
510.0,517.0,507.0,498.0,532.0
515.0,520.0,509.0,495.0,529.0
515.0,520.0,514.0,495.0,532.0
515.0,516.0,511.0,494.0,533.0
514.0,518.0,513.0,496.0,531.0
515.0,516.0,516.0,503.0,526.0
516.0,510.0,519.0,510.0,519.0
520.0,510.0,525.0,522.0,504.0
529.0,509.0,529.0,530.0,496.0
525.0,503.0,525.0,534.0,492.0
520.0,499.0,522.0,536.0,489.0
512.0,493.0,515.0,535.0,494.0
509.0,490.0,512.0,528.0,498.0
502.0,489.0,501.0,518.0,509.0
498.0,492.0,498.0,513.0,518.0
507.0,503.0,503.0,504.0,523.0
508.0,509.0,505.0,501.0,533.0
512.0,516.0,510.0,498.0,539.0
519.0,524.0,516.0,498.0,538.0
517.0,517.0,512.0,496.0,543.0
519.0,514.0,510.0,491.0,540.0
521.0,512.0,514.0,493.0,533.0
521.0,509.0,517.0,506.0,516.0
523.0,510.0,522.0,512.0,504.0
525.0,511.0,530.0,528.0,492.0
519.0,505.0,530.0,536.0,484.0
513.0,501.0,527.0,538.0,475.0
511.0,495.0,521.0,537.0,466.0
506.0,492.0,513.0,532.0,472.0
499.0,487.0,505.0,525.0,490.0
499.0,489.0,499.0,516.0,513.0
495.0,491.0,495.0,504.0,532.0
500.0,499.0,501.0,501.0,545.0
509.0,513.0,507.0,504.0,542.0
513.0,520.0,512.0,502.0,532.0
507.0,516.0,511.0,494.0,537.0
513.0,518.0,513.0,495.0,544.0
513.0,513.0,511.0,494.0,539.0
524.0,514.0,514.0,505.0,525.0
516.0,512.0,517.0,507.0,521.0
515.0,507.0,520.0,514.0,515.0
520.0,510.0,526.0,526.0,507.0
524.0,507.0,530.0,537.0,489.0
515.0,501.0,525.0,539.0,488.0
511.0,495.0,520.0,537.0,493.0
510.0,493.0,511.0,533.0,496.0
504.0,487.0,504.0,523.0,508.0
502.0,494.0,499.0,515.0,516.0
502.0,499.0,502.0,508.0,527.0
505.0,508.0,504.0,504.0,530.0
514.0,520.0,513.0,504.0,530.0
511.0,518.0,511.0,499.0,540.0
515.0,520.0,512.0,497.0,530.0
516.0,518.0,513.0,499.0,533.0
517.0,514.0,512.0,498.0,529.0
519.0,513.0,515.0,503.0,519.0
519.0,508.0,520.0,508.0,514.0
521.0,512.0,528.0,522.0,507.0
525.0,508.0,528.0,529.0,500.0
521.0,503.0,529.0,540.0,490.0
516.0,499.0,524.0,538.0,491.0
510.0,494.0,516.0,534.0,494.0
503.0,490.0,510.0,529.0,499.0
499.0,490.0,501.0,519.0,513.0
497.0,492.0,498.0,511.0,523.0
502.0,501.0,500.0,507.0,524.0
514.0,512.0,506.0,502.0,527.0
515.0,517.0,508.0,502.0,532.0
516.0,519.0,512.0,498.0,528.0
516.0,516.0,510.0,497.0,527.0
517.0,513.0,507.0,492.0,528.0
517.0,514.0,512.0,498.0,525.0
521.0,513.0,517.0,505.0,521.0
522.0,513.0,519.0,513.0,512.0
520.0,508.0,523.0,521.0,503.0
525.0,509.0,527.0,533.0,492.0
521.0,503.0,526.0,537.0,490.0
516.0,495.0,518.0,536.0,489.0
507.0,491.0,512.0,537.0,496.0
509.0,489.0,507.0,525.0,501.0
503.0,488.0,498.0,513.0,512.0
498.0,493.0,499.0,507.0,520.0
510.0,506.0,506.0,503.0,524.0
506.0,512.0,507.0,503.0,529.0
510.0,515.0,509.0,504.0,535.0
513.0,518.0,512.0,496.0,534.0
513.0,519.0,513.0,495.0,538.0
514.0,512.0,516.0,495.0,527.0
513.0,510.0,515.0,500.0,524.0
522.0,508.0,518.0,510.0,513.0
519.0,505.0,521.0,518.0,506.0
520.0,512.0,527.0,527.0,499.0
525.0,505.0,528.0,534.0,490.0
516.0,495.0,521.0,537.0,489.0
509.0,491.0,515.0,536.0,493.0
502.0,487.0,514.0,529.0,502.0
495.0,485.0,500.0,519.0,504.0
492.0,492.0,500.0,513.0,508.0
501.0,497.0,501.0,506.0,511.0
498.0,501.0,500.0,500.0,527.0
507.0,507.0,505.0,497.0,540.0
514.0,518.0,513.0,497.0,550.0
525.0,520.0,514.0,497.0,536.0
516.0,513.0,510.0,495.0,529.0
516.0,508.0,511.0,496.0,521.0
522.0,511.0,518.0,502.0,520.0
524.0,509.0,523.0,509.0,516.0
523.0,510.0,523.0,517.0,505.0
513.0,507.0,528.0,530.0,501.0
511.0,501.0,527.0,538.0,492.0
510.0,497.0,523.0,538.0,488.0
511.0,494.0,518.0,534.0,493.0
502.0,491.0,507.0,528.0,498.0
499.0,489.0,501.0,521.0,508.0
501.0,494.0,499.0,510.0,515.0
503.0,500.0,505.0,505.0,526.0
507.0,510.0,504.0,501.0,527.0
511.0,516.0,513.0,500.0,533.0
513.0,518.0,511.0,500.0,534.0
515.0,519.0,514.0,497.0,536.0
513.0,516.0,510.0,494.0,535.0
517.0,515.0,514.0,503.0,531.0
520.0,511.0,518.0,505.0,523.0
522.0,510.0,521.0,514.0,511.0
526.0,511.0,526.0,525.0,504.0
523.0,507.0,528.0,532.0,496.0
521.0,504.0,525.0,537.0,485.0
512.0,496.0,522.0,536.0,491.0
505.0,491.0,512.0,526.0,491.0
499.0,488.0,507.0,527.0,492.0
497.0,492.0,502.0,517.0,502.0
492.0,494.0,497.0,508.0,517.0
503.0,502.0,502.0,503.0,525.0
512.0,513.0,508.0,501.0,528.0
515.0,515.0,509.0,497.0,531.0
520.0,522.0,512.0,495.0,535.0
520.0,518.0,512.0,494.0,534.0
513.0,514.0,512.0,492.0,539.0
515.0,514.0,516.0,497.0,527.0
516.0,512.0,519.0,508.0,517.0
517.0,509.0,522.0,515.0,513.0
523.0,508.0,527.0,527.0,498.0
523.0,509.0,532.0,538.0,491.0
520.0,503.0,525.0,540.0,486.0
509.0,496.0,518.0,537.0,489.0
504.0,490.0,511.0,529.0,500.0
504.0,493.0,504.0,520.0,505.0
499.0,493.0,501.0,514.0,510.0
502.0,498.0,501.0,509.0,513.0
507.0,506.0,503.0,502.0,520.0
511.0,517.0,507.0,501.0,527.0
515.0,519.0,510.0,496.0,533.0
518.0,519.0,512.0,495.0,531.0
514.0,515.0,510.0,489.0,529.0
518.0,516.0,511.0,496.0,530.0
521.0,514.0,517.0,501.0,525.0
518.0,510.0,520.0,509.0,512.0
517.0,508.0,524.0,520.0,500.0
516.0,506.0,527.0,528.0,494.0
522.0,505.0,529.0,536.0,485.0
516.0,500.0,524.0,539.0,486.0
509.0,494.0,515.0,535.0,491.0
507.0,492.0,511.0,528.0,496.0
496.0,483.0,499.0,516.0,508.0
501.0,491.0,498.0,511.0,508.0
503.0,499.0,496.0,505.0,515.0
503.0,508.0,502.0,500.0,523.0
508.0,514.0,508.0,497.0,536.0
511.0,520.0,510.0,495.0,536.0
510.0,518.0,512.0,495.0,537.0
510.0,514.0,511.0,493.0,540.0
517.0,514.0,516.0,495.0,531.0
518.0,511.0,518.0,503.0,522.0
515.0,509.0,521.0,512.0,524.0
519.0,511.0,531.0,526.0,514.0
525.0,506.0,527.0,535.0,502.0
531.0,502.0,527.0,537.0,490.0
521.0,497.0,521.0,537.0,491.0
512.0,500.0,516.0,532.0,493.0
506.0,492.0,510.0,528.0,489.0
503.0,495.0,503.0,522.0,494.0
500.0,493.0,499.0,510.0,506.0
502.0,504.0,501.0,502.0,527.0
506.0,516.0,506.0,502.0,528.0
513.0,518.0,510.0,496.0,534.0
516.0,518.0,513.0,497.0,532.0
518.0,516.0,510.0,494.0,531.0
517.0,514.0,515.0,494.0,528.0
521.0,514.0,514.0,501.0,516.0
521.0,511.0,521.0,506.0,512.0
520.0,508.0,520.0,513.0,510.0
518.0,506.0,525.0,526.0,509.0
520.0,505.0,528.0,536.0,496.0
518.0,502.0,525.0,538.0,490.0
511.0,498.0,521.0,539.0,489.0
503.0,490.0,510.0,535.0,495.0
498.0,486.0,500.0,522.0,504.0
495.0,495.0,501.0,515.0,522.0
504.0,498.0,503.0,508.0,529.0
507.0,505.0,505.0,502.0,529.0
511.0,515.0,507.0,500.0,531.0
516.0,520.0,511.0,501.0,531.0
516.0,521.0,511.0,494.0,532.0
514.0,516.0,512.0,494.0,534.0
517.0,514.0,511.0,494.0,529.0
515.0,515.0,515.0,501.0,528.0
518.0,512.0,520.0,511.0,515.0
521.0,511.0,524.0,521.0,505.0
523.0,511.0,531.0,531.0,497.0
520.0,506.0,528.0,537.0,490.0
518.0,499.0,530.0,540.0,488.0
512.0,496.0,517.0,538.0,494.0
505.0,494.0,511.0,530.0,502.0
500.0,488.0,505.0,519.0,510.0
492.0,492.0,498.0,512.0,518.0
497.0,502.0,501.0,505.0,529.0
504.0,508.0,505.0,502.0,525.0
510.0,516.0,512.0,500.0,535.0
514.0,519.0,509.0,496.0,530.0
517.0,516.0,511.0,494.0,533.0
516.0,513.0,509.0,493.0,531.0
516.0,513.0,514.0,498.0,526.0
517.0,513.0,515.0,503.0,526.0
521.0,512.0,519.0,512.0,513.0
525.0,507.0,525.0,525.0,508.0
530.0,502.0,531.0,531.0,495.0
527.0,503.0,527.0,538.0,489.0
518.0,494.0,516.0,536.0,489.0
502.0,490.0,515.0,533.0,493.0
501.0,490.0,507.0,527.0,492.0
492.0,490.0,502.0,519.0,503.0
495.0,489.0,496.0,503.0,516.0
503.0,500.0,500.0,504.0,519.0
512.0,506.0,505.0,500.0,526.0
512.0,515.0,509.0,498.0,531.0
514.0,521.0,510.0,496.0,531.0
518.0,517.0,513.0,496.0,531.0
518.0,513.0,511.0,496.0,531.0
515.0,513.0,517.0,507.0,525.0
521.0,513.0,520.0,513.0,518.0
519.0,510.0,521.0,518.0,509.0
523.0,511.0,526.0,527.0,495.0
525.0,511.0,532.0,540.0,484.0
521.0,503.0,527.0,542.0,484.0
515.0,496.0,519.0,538.0,489.0
506.0,489.0,510.0,532.0,496.0
498.0,487.0,502.0,523.0,507.0
497.0,489.0,497.0,516.0,515.0
500.0,498.0,499.0,506.0,528.0
504.0,506.0,503.0,502.0,530.0
513.0,513.0,506.0,501.0,533.0
514.0,518.0,510.0,497.0,536.0
517.0,521.0,516.0,498.0,536.0
514.0,515.0,509.0,493.0,534.0
511.0,511.0,511.0,497.0,528.0
518.0,512.0,514.0,502.0,522.0
519.0,510.0,519.0,514.0,512.0
522.0,508.0,524.0,520.0,505.0
524.0,509.0,528.0,531.0,492.0
520.0,504.0,527.0,539.0,488.0
519.0,499.0,524.0,538.0,486.0
511.0,493.0,517.0,534.0,484.0
502.0,488.0,507.0,527.0,494.0
497.0,487.0,501.0,519.0,498.0
498.0,496.0,499.0,512.0,512.0
504.0,503.0,501.0,506.0,516.0
509.0,507.0,505.0,503.0,523.0
509.0,512.0,507.0,498.0,532.0
515.0,518.0,510.0,496.0,532.0
517.0,519.0,512.0,492.0,532.0
515.0,511.0,512.0,494.0,532.0
517.0,514.0,516.0,500.0,528.0
518.0,512.0,518.0,506.0,519.0
518.0,508.0,519.0,515.0,511.0
530.0,513.0,530.0,525.0,507.0
526.0,507.0,529.0,533.0,503.0
521.0,501.0,528.0,538.0,490.0
517.0,499.0,525.0,539.0,492.0
503.0,491.0,512.0,533.0,492.0
500.0,490.0,508.0,527.0,497.0
496.0,490.0,504.0,516.0,510.0
494.0,493.0,497.0,503.0,519.0
503.0,502.0,499.0,502.0,523.0
511.0,511.0,509.0,502.0,525.0
513.0,518.0,513.0,498.0,531.0
513.0,519.0,511.0,496.0,533.0
513.0,516.0,511.0,492.0,533.0
512.0,514.0,516.0,495.0,536.0
514.0,511.0,513.0,504.0,527.0
520.0,510.0,518.0,512.0,513.0
522.0,515.0,522.0,516.0,508.0
522.0,509.0,525.0,524.0,496.0
525.0,503.0,528.0,534.0,480.0
526.0,498.0,521.0,535.0,487.0
509.0,495.0,518.0,535.0,489.0
500.0,488.0,508.0,527.0,497.0
491.0,483.0,499.0,519.0,505.0
490.0,488.0,499.0,511.0,512.0
499.0,498.0,504.0,507.0,518.0
508.0,506.0,505.0,507.0,525.0
514.0,514.0,510.0,502.0,527.0
517.0,519.0,513.0,499.0,532.0
516.0,519.0,512.0,496.0,536.0
521.0,518.0,512.0,493.0,537.0
518.0,513.0,513.0,496.0,535.0
519.0,514.0,519.0,501.0,525.0
522.0,517.0,525.0,512.0,514.0
525.0,511.0,524.0,518.0,510.0
522.0,506.0,527.0,526.0,496.0
517.0,504.0,528.0,537.0,486.0
509.0,498.0,526.0,539.0,489.0
506.0,492.0,518.0,534.0,491.0
508.0,492.0,508.0,530.0,491.0
500.0,486.0,500.0,517.0,506.0
496.0,491.0,499.0,508.0,515.0
501.0,501.0,502.0,504.0,524.0
505.0,507.0,504.0,501.0,527.0
508.0,514.0,508.0,499.0,530.0
515.0,521.0,510.0,498.0,530.0
519.0,520.0,514.0,498.0,534.0
515.0,517.0,513.0,496.0,535.0
518.0,515.0,514.0,500.0,528.0
516.0,511.0,516.0,509.0,523.0
521.0,509.0,520.0,513.0,514.0
525.0,510.0,525.0,519.0,503.0
520.0,505.0,530.0,531.0,497.0
518.0,500.0,527.0,535.0,487.0
515.0,496.0,522.0,540.0,489.0
507.0,490.0,511.0,530.0,494.0
503.0,495.0,508.0,525.0,501.0
501.0,489.0,501.0,518.0,516.0
505.0,497.0,499.0,507.0,521.0
506.0,497.0,501.0,505.0,532.0
508.0,510.0,509.0,501.0,533.0
509.0,516.0,509.0,498.0,531.0
516.0,517.0,511.0,495.0,528.0
515.0,516.0,511.0,494.0,532.0
515.0,517.0,511.0,497.0,531.0
521.0,516.0,519.0,503.0,524.0
523.0,511.0,520.0,508.0,516.0
523.0,512.0,521.0,516.0,512.0
523.0,510.0,526.0,526.0,502.0
524.0,507.0,530.0,534.0,487.0
518.0,502.0,525.0,539.0,487.0
508.0,494.0,518.0,535.0,484.0
503.0,488.0,510.0,531.0,492.0
497.0,488.0,502.0,522.0,501.0
503.0,488.0,499.0,516.0,509.0
504.0,499.0,500.0,510.0,517.0
503.0,505.0,499.0,501.0,530.0
511.0,512.0,505.0,498.0,534.0
516.0,516.0,512.0,496.0,541.0
507.0,514.0,509.0,493.0,540.0
514.0,514.0,509.0,495.0,534.0
515.0,515.0,514.0,498.0,533.0
515.0,510.0,516.0,504.0,524.0
519.0,511.0,520.0,514.0,514.0
518.0,507.0,521.0,520.0,503.0
529.0,510.0,529.0,531.0,493.0
520.0,502.0,524.0,539.0,487.0
517.0,498.0,520.0,539.0,489.0
510.0,497.0,517.0,535.0,490.0
504.0,486.0,508.0,528.0,499.0
496.0,487.0,497.0,518.0,514.0
498.0,492.0,499.0,512.0,525.0
503.0,498.0,500.0,505.0,529.0
506.0,509.0,506.0,504.0,525.0
509.0,515.0,509.0,499.0,529.0
518.0,520.0,513.0,501.0,534.0
515.0,518.0,511.0,495.0,538.0
520.0,521.0,513.0,498.0,535.0
519.0,516.0,517.0,498.0,530.0
521.0,515.0,517.0,512.0,520.0
518.0,509.0,520.0,515.0,511.0
522.0,509.0,527.0,528.0,491.0
521.0,506.0,528.0,535.0,482.0
518.0,502.0,525.0,538.0,478.0
515.0,498.0,521.0,539.0,486.0
508.0,495.0,513.0,534.0,497.0
502.0,493.0,505.0,526.0,499.0
498.0,495.0,501.0,519.0,510.0
497.0,495.0,500.0,508.0,517.0
504.0,508.0,502.0,507.0,522.0
512.0,512.0,506.0,506.0,527.0
514.0,519.0,511.0,501.0,529.0
517.0,521.0,510.0,497.0,528.0
521.0,522.0,515.0,501.0,529.0
514.0,515.0,509.0,494.0,532.0
520.0,512.0,514.0,500.0,528.0
518.0,516.0,519.0,513.0,518.0
522.0,510.0,521.0,522.0,506.0
523.0,508.0,525.0,527.0,496.0
525.0,511.0,529.0,536.0,488.0
523.0,501.0,527.0,540.0,486.0
511.0,496.0,519.0,538.0,488.0
504.0,489.0,509.0,526.0,496.0
495.0,487.0,502.0,524.0,501.0
499.0,489.0,498.0,515.0,507.0
495.0,498.0,500.0,508.0,519.0
499.0,504.0,504.0,502.0,522.0
507.0,515.0,509.0,503.0,529.0
511.0,516.0,510.0,498.0,541.0
522.0,525.0,520.0,500.0,541.0
517.0,514.0,511.0,495.0,541.0
512.0,512.0,512.0,500.0,533.0
522.0,514.0,518.0,508.0,520.0
518.0,510.0,522.0,513.0,512.0
517.0,512.0,526.0,521.0,504.0
516.0,510.0,526.0,531.0,495.0
514.0,508.0,528.0,536.0,492.0
517.0,498.0,523.0,538.0,488.0
511.0,495.0,520.0,535.0,491.0
506.0,490.0,511.0,527.0,496.0
497.0,484.0,498.0,517.0,512.0
497.0,489.0,496.0,508.0,519.0
500.0,501.0,497.0,499.0,524.0
509.0,507.0,498.0,501.0,527.0
510.0,517.0,507.0,498.0,529.0
515.0,520.0,511.0,497.0,525.0
512.0,516.0,510.0,494.0,532.0
516.0,511.0,510.0,491.0,535.0
518.0,514.0,515.0,503.0,530.0
518.0,511.0,517.0,509.0,523.0
517.0,507.0,517.0,515.0,514.0
522.0,506.0,523.0,523.0,500.0
524.0,506.0,527.0,531.0,495.0
523.0,502.0,527.0,539.0,487.0
512.0,496.0,520.0,541.0,485.0
506.0,490.0,515.0,532.0,497.0
500.0,493.0,507.0,523.0,497.0
496.0,490.0,505.0,521.0,507.0
497.0,493.0,498.0,510.0,518.0
504.0,503.0,503.0,507.0,525.0
507.0,510.0,500.0,501.0,530.0
519.0,522.0,517.0,500.0,534.0
516.0,518.0,512.0,496.0,543.0
521.0,518.0,511.0,496.0,538.0
517.0,511.0,510.0,494.0,538.0
522.0,511.0,514.0,500.0,529.0
522.0,509.0,518.0,508.0,513.0
519.0,509.0,524.0,516.0,509.0
516.0,508.0,527.0,528.0,498.0
515.0,503.0,528.0,536.0,485.0
519.0,501.0,527.0,539.0,480.0
513.0,495.0,519.0,538.0,488.0
505.0,495.0,513.0,533.0,496.0
498.0,487.0,502.0,525.0,506.0
497.0,495.0,501.0,516.0,513.0
504.0,495.0,499.0,507.0,518.0
505.0,505.0,501.0,502.0,518.0
507.0,513.0,506.0,502.0,527.0
511.0,519.0,513.0,502.0,532.0
521.0,521.0,515.0,499.0,534.0
514.0,517.0,516.0,499.0,534.0
513.0,513.0,515.0,499.0,534.0
515.0,508.0,519.0,504.0,529.0
517.0,510.0,525.0,511.0,525.0
520.0,512.0,530.0,521.0,514.0
525.0,508.0,528.0,531.0,498.0
521.0,503.0,529.0,539.0,492.0
519.0,500.0,525.0,538.0,485.0
511.0,496.0,518.0,536.0,493.0
509.0,491.0,514.0,529.0,501.0
496.0,487.0,501.0,524.0,513.0
499.0,494.0,498.0,512.0,518.0
501.0,494.0,500.0,504.0,521.0
509.0,510.0,508.0,504.0,520.0
511.0,513.0,507.0,499.0,526.0
515.0,518.0,510.0,497.0,530.0
519.0,517.0,512.0,495.0,534.0
514.0,517.0,511.0,495.0,537.0
517.0,514.0,516.0,498.0,536.0
519.0,510.0,516.0,505.0,522.0
519.0,509.0,521.0,515.0,517.0
522.0,511.0,526.0,523.0,503.0
524.0,510.0,528.0,532.0,494.0
520.0,504.0,527.0,538.0,493.0
512.0,494.0,518.0,535.0,497.0
506.0,489.0,510.0,533.0,497.0
499.0,488.0,504.0,527.0,504.0
497.0,488.0,498.0,515.0,511.0
499.0,492.0,497.0,506.0,517.0
502.0,501.0,502.0,508.0,522.0
505.0,511.0,505.0,501.0,527.0
510.0,518.0,510.0,500.0,530.0
514.0,518.0,512.0,496.0,529.0
515.0,515.0,510.0,494.0,530.0
511.0,509.0,510.0,493.0,535.0
514.0,512.0,515.0,500.0,530.0
519.0,512.0,520.0,509.0,519.0
516.0,510.0,523.0,516.0,513.0
520.0,509.0,528.0,525.0,508.0
524.0,508.0,529.0,535.0,496.0
521.0,501.0,525.0,539.0,485.0
510.0,497.0,520.0,536.0,490.0
502.0,489.0,510.0,532.0,495.0
496.0,486.0,504.0,520.0,501.0
491.0,490.0,500.0,516.0,510.0
504.0,501.0,502.0,509.0,513.0
501.0,503.0,500.0,501.0,526.0
508.0,514.0,508.0,500.0,529.0
511.0,518.0,510.0,498.0,527.0
513.0,517.0,511.0,496.0,528.0
514.0,517.0,515.0,494.0,529.0
520.0,511.0,513.0,497.0,530.0
516.0,510.0,513.0,501.0,531.0
520.0,510.0,521.0,509.0,523.0
531.0,510.0,525.0,524.0,508.0
529.0,507.0,529.0,529.0,498.0
528.0,509.0,528.0,537.0,490.0
527.0,500.0,524.0,537.0,488.0
520.0,495.0,514.0,531.0,497.0
508.0,488.0,507.0,522.0,504.0
501.0,488.0,501.0,519.0,507.0
499.0,493.0,501.0,514.0,513.0
502.0,496.0,501.0,506.0,515.0
509.0,508.0,505.0,505.0,523.0
511.0,515.0,508.0,500.0,529.0
513.0,519.0,516.0,500.0,532.0
514.0,517.0,512.0,496.0,532.0
512.0,515.0,513.0,494.0,534.0
513.0,513.0,514.0,503.0,532.0
516.0,509.0,516.0,506.0,525.0
518.0,510.0,521.0,510.0,514.0
522.0,510.0,527.0,523.0,503.0
523.0,507.0,529.0,532.0,494.0
519.0,502.0,530.0,538.0,489.0
511.0,491.0,521.0,535.0,489.0
504.0,491.0,508.0,533.0,494.0
502.0,489.0,508.0,527.0,498.0
500.0,494.0,502.0,518.0,514.0
499.0,495.0,504.0,509.0,528.0
507.0,503.0,501.0,503.0,535.0
506.0,511.0,506.0,500.0,537.0
514.0,515.0,509.0,498.0,536.0
524.0,520.0,515.0,495.0,530.0
520.0,517.0,517.0,496.0,531.0
514.0,513.0,512.0,495.0,528.0
513.0,514.0,518.0,501.0,523.0
518.0,512.0,518.0,509.0,515.0
517.0,507.0,522.0,516.0,505.0
516.0,507.0,527.0,524.0,497.0
522.0,506.0,528.0,532.0,486.0
517.0,495.0,521.0,535.0,484.0
512.0,493.0,517.0,534.0,487.0
504.0,490.0,510.0,534.0,494.0
501.0,489.0,505.0,523.0,505.0
494.0,486.0,497.0,511.0,512.0
497.0,493.0,498.0,504.0,520.0
501.0,501.0,501.0,500.0,526.0
512.0,512.0,507.0,501.0,528.0
515.0,516.0,511.0,497.0,531.0
519.0,516.0,511.0,499.0,536.0
513.0,512.0,509.0,492.0,532.0
516.0,513.0,516.0,497.0,522.0
521.0,516.0,516.0,504.0,517.0
520.0,511.0,520.0,512.0,513.0
522.0,511.0,524.0,519.0,506.0
524.0,509.0,528.0,529.0,498.0
520.0,507.0,529.0,542.0,490.0
516.0,501.0,522.0,537.0,486.0
509.0,490.0,514.0,532.0,490.0
509.0,492.0,511.0,529.0,497.0
504.0,488.0,500.0,517.0,507.0
500.0,494.0,499.0,510.0,516.0
500.0,502.0,503.0,505.0,527.0
506.0,510.0,506.0,504.0,530.0
508.0,516.0,511.0,500.0,531.0
511.0,519.0,516.0,499.0,529.0
512.0,512.0,512.0,495.0,531.0
509.0,514.0,511.0,495.0,523.0
512.0,513.0,513.0,499.0,512.0
519.0,511.0,521.0,505.0,512.0
523.0,510.0,520.0,513.0,504.0
526.0,509.0,525.0,525.0,499.0
524.0,511.0,531.0,532.0,505.0
524.0,505.0,527.0,534.0,487.0
522.0,499.0,521.0,534.0,483.0
511.0,495.0,511.0,529.0,489.0
499.0,487.0,507.0,526.0,495.0
492.0,488.0,499.0,517.0,507.0
492.0,494.0,499.0,510.0,517.0
499.0,502.0,502.0,502.0,523.0
507.0,510.0,505.0,501.0,531.0
513.0,512.0,510.0,497.0,535.0
513.0,517.0,512.0,496.0,536.0
517.0,522.0,512.0,495.0,536.0
514.0,514.0,513.0,496.0,534.0
516.0,512.0,516.0,506.0,527.0
523.0,511.0,523.0,509.0,516.0
527.0,511.0,522.0,517.0,499.0
526.0,511.0,533.0,528.0,492.0
529.0,508.0,531.0,538.0,485.0
515.0,502.0,526.0,536.0,487.0
507.0,498.0,521.0,536.0,494.0
501.0,489.0,511.0,532.0,501.0
497.0,487.0,503.0,524.0,501.0
497.0,490.0,499.0,516.0,514.0
499.0,496.0,497.0,505.0,523.0
503.0,506.0,504.0,508.0,529.0
511.0,514.0,506.0,499.0,530.0
513.0,517.0,510.0,499.0,535.0
516.0,517.0,511.0,494.0,534.0
514.0,515.0,510.0,492.0,535.0
518.0,513.0,510.0,494.0,532.0
513.0,513.0,513.0,502.0,526.0
515.0,508.0,515.0,508.0,517.0
516.0,508.0,520.0,519.0,502.0
516.0,507.0,529.0,530.0,496.0
512.0,500.0,528.0,537.0,482.0
509.0,500.0,527.0,539.0,481.0
506.0,492.0,518.0,535.0,487.0
503.0,485.0,507.0,526.0,499.0
496.0,484.0,498.0,519.0,510.0
496.0,489.0,495.0,510.0,516.0
500.0,497.0,501.0,505.0,523.0
503.0,505.0,508.0,497.0,528.0
507.0,511.0,512.0,500.0,536.0
518.0,519.0,518.0,498.0,535.0
526.0,519.0,519.0,498.0,531.0
528.0,516.0,517.0,499.0,522.0
524.0,516.0,511.0,498.0,527.0
519.0,512.0,509.0,503.0,519.0
520.0,510.0,519.0,512.0,514.0
523.0,509.0,521.0,524.0,501.0
525.0,507.0,527.0,532.0,490.0
524.0,503.0,528.0,540.0,481.0
515.0,497.0,519.0,538.0,481.0
508.0,489.0,510.0,530.0,488.0
502.0,490.0,505.0,526.0,496.0
501.0,490.0,501.0,516.0,509.0
499.0,494.0,497.0,510.0,519.0
504.0,501.0,499.0,503.0,519.0
506.0,512.0,505.0,503.0,530.0
517.0,516.0,507.0,501.0,527.0
518.0,519.0,510.0,499.0,533.0
522.0,515.0,512.0,499.0,531.0
520.0,516.0,513.0,503.0,527.0
517.0,516.0,516.0,507.0,519.0
518.0,512.0,522.0,513.0,517.0
517.0,510.0,521.0,522.0,509.0
517.0,509.0,527.0,531.0,499.0
520.0,503.0,528.0,537.0,490.0
512.0,499.0,524.0,533.0,492.0
508.0,494.0,518.0,530.0,500.0
502.0,488.0,504.0,518.0,504.0
502.0,486.0,501.0,513.0,511.0
506.0,491.0,503.0,510.0,526.0
507.0,500.0,498.0,503.0,525.0
510.0,506.0,503.0,499.0,526.0
508.0,515.0,509.0,503.0,524.0
512.0,518.0,509.0,496.0,523.0
511.0,519.0,512.0,497.0,533.0
512.0,517.0,509.0,491.0,537.0
517.0,516.0,513.0,493.0,533.0
514.0,515.0,514.0,501.0,514.0
514.0,514.0,520.0,507.0,504.0
515.0,510.0,522.0,519.0,499.0
521.0,511.0,527.0,532.0,490.0
521.0,506.0,527.0,533.0,489.0
509.0,499.0,520.0,540.0,492.0
503.0,493.0,514.0,532.0,493.0
504.0,492.0,507.0,528.0,494.0
503.0,490.0,500.0,523.0,501.0
499.0,492.0,496.0,512.0,514.0
507.0,501.0,499.0,510.0,518.0
508.0,508.0,501.0,507.0,527.0
508.0,517.0,506.0,501.0,531.0
517.0,524.0,507.0,495.0,533.0
524.0,522.0,511.0,493.0,536.0
521.0,517.0,508.0,490.0,536.0
521.0,514.0,510.0,493.0,528.0
518.0,512.0,516.0,500.0,520.0
514.0,511.0,519.0,517.0,514.0
519.0,518.0,534.0,526.0,508.0
521.0,513.0,530.0,536.0,496.0
521.0,509.0,530.0,540.0,495.0
510.0,499.0,522.0,537.0,488.0
502.0,495.0,512.0,535.0,488.0
498.0,494.0,508.0,529.0,495.0
493.0,496.0,502.0,520.0,507.0
493.0,497.0,504.0,515.0,515.0
500.0,505.0,506.0,509.0,512.0
501.0,515.0,511.0,506.0,515.0
511.0,520.0,514.0,502.0,515.0
519.0,524.0,509.0,499.0,526.0
512.0,522.0,508.0,497.0,539.0
512.0,517.0,510.0,493.0,554.0
512.0,515.0,517.0,505.0,538.0
504.0,513.0,512.0,508.0,523.0
501.0,512.0,515.0,516.0,514.0
499.0,510.0,525.0,525.0,498.0
496.0,505.0,525.0,534.0,490.0
498.0,500.0,522.0,538.0,490.0
509.0,498.0,516.0,542.0,492.0
538.0,499.0,512.0,532.0,495.0
523.0,492.0,507.0,522.0,506.0
503.0,489.0,498.0,513.0,517.0
499.0,501.0,499.0,507.0,521.0
513.0,506.0,504.0,506.0,517.0
520.0,516.0,507.0,501.0,514.0
524.0,521.0,510.0,501.0,522.0
527.0,522.0,515.0,495.0,533.0
526.0,517.0,511.0,493.0,542.0
520.0,514.0,512.0,491.0,535.0
524.0,514.0,516.0,504.0,526.0
523.0,512.0,525.0,514.0,514.0
522.0,512.0,525.0,523.0,505.0
524.0,511.0,528.0,533.0,493.0
523.0,504.0,527.0,538.0,486.0
517.0,500.0,523.0,534.0,491.0
508.0,492.0,515.0,534.0,499.0
508.0,492.0,512.0,533.0,495.0
501.0,488.0,503.0,525.0,503.0
503.0,492.0,502.0,514.0,515.0
504.0,504.0,507.0,510.0,521.0
507.0,507.0,511.0,503.0,532.0
512.0,516.0,516.0,505.0,531.0
515.0,517.0,518.0,494.0,537.0
516.0,517.0,515.0,495.0,536.0
513.0,513.0,504.0,496.0,538.0
517.0,512.0,509.0,500.0,530.0
523.0,515.0,520.0,508.0,519.0
520.0,506.0,516.0,513.0,510.0
523.0,508.0,526.0,524.0,501.0
524.0,505.0,526.0,532.0,491.0
522.0,500.0,526.0,537.0,484.0
513.0,493.0,519.0,536.0,486.0
504.0,487.0,511.0,532.0,493.0
499.0,486.0,509.0,527.0,500.0
491.0,486.0,500.0,519.0,508.0
495.0,490.0,496.0,510.0,516.0
502.0,500.0,502.0,505.0,525.0
512.0,512.0,506.0,501.0,526.0
517.0,515.0,508.0,495.0,529.0
514.0,516.0,510.0,495.0,532.0
512.0,513.0,511.0,494.0,536.0
509.0,507.0,507.0,494.0,536.0
513.0,510.0,514.0,505.0,527.0
519.0,511.0,523.0,511.0,515.0
517.0,508.0,521.0,515.0,514.0
518.0,503.0,525.0,523.0,503.0
519.0,503.0,527.0,536.0,490.0
514.0,500.0,527.0,537.0,487.0
512.0,498.0,522.0,537.0,489.0
504.0,490.0,516.0,532.0,495.0
496.0,482.0,498.0,522.0,509.0
499.0,488.0,501.0,515.0,512.0
497.0,492.0,499.0,509.0,522.0
503.0,502.0,501.0,503.0,522.0
509.0,512.0,511.0,500.0,533.0
515.0,517.0,516.0,497.0,534.0
513.0,518.0,521.0,496.0,538.0
513.0,519.0,519.0,492.0,539.0
517.0,518.0,520.0,495.0,539.0
515.0,511.0,512.0,499.0,535.0
518.0,508.0,511.0,505.0,526.0
519.0,508.0,517.0,524.0,505.0
521.0,505.0,527.0,531.0,495.0
525.0,503.0,526.0,537.0,483.0
514.0,495.0,519.0,542.0,485.0
507.0,491.0,509.0,538.0,490.0
502.0,488.0,510.0,533.0,500.0
503.0,487.0,504.0,525.0,504.0
502.0,496.0,500.0,514.0,517.0
505.0,500.0,501.0,505.0,527.0
512.0,507.0,508.0,501.0,529.0
515.0,515.0,505.0,493.0,532.0
516.0,516.0,510.0,497.0,529.0
511.0,516.0,513.0,501.0,535.0
509.0,515.0,514.0,502.0,534.0
511.0,511.0,515.0,499.0,536.0
515.0,506.0,516.0,503.0,528.0
522.0,509.0,525.0,513.0,521.0
521.0,508.0,526.0,522.0,505.0
522.0,506.0,528.0,526.0,490.0
520.0,502.0,532.0,537.0,480.0
516.0,493.0,519.0,535.0,484.0
508.0,490.0,513.0,529.0,489.0
494.0,488.0,505.0,525.0,497.0
484.0,489.0,495.0,512.0,512.0
476.0,497.0,495.0,505.0,520.0
492.0,504.0,503.0,504.0,528.0
498.0,510.0,505.0,501.0,529.0
493.0,515.0,509.0,498.0,532.0
501.0,519.0,519.0,498.0,534.0
532.0,527.0,527.0,501.0,526.0
535.0,515.0,523.0,500.0,527.0
529.0,511.0,517.0,500.0,523.0
524.0,507.0,500.0,508.0,519.0
532.0,510.0,512.0,521.0,504.0
525.0,509.0,528.0,530.0,487.0
518.0,505.0,529.0,537.0,481.0
506.0,498.0,525.0,541.0,482.0
497.0,493.0,522.0,537.0,486.0
482.0,487.0,513.0,530.0,499.0
479.0,482.0,507.0,520.0,514.0
490.0,487.0,505.0,517.0,517.0
510.0,494.0,498.0,507.0,521.0
517.0,507.0,505.0,513.0,525.0
528.0,515.0,510.0,507.0,522.0
527.0,519.0,514.0,499.0,527.0
530.0,520.0,515.0,496.0,538.0
520.0,513.0,508.0,490.0,544.0
521.0,512.0,511.0,494.0,549.0
520.0,511.0,514.0,496.0,543.0
523.0,511.0,523.0,507.0,532.0
513.0,506.0,519.0,515.0,521.0
509.0,506.0,526.0,527.0,505.0
504.0,500.0,522.0,536.0,501.0
501.0,502.0,522.0,538.0,494.0
502.0,495.0,512.0,530.0,494.0
506.0,491.0,505.0,534.0,498.0
513.0,491.0,502.0,524.0,503.0
509.0,493.0,500.0,514.0,512.0
503.0,498.0,498.0,509.0,514.0
507.0,510.0,509.0,512.0,523.0
519.0,516.0,512.0,504.0,528.0
520.0,520.0,516.0,496.0,531.0
516.0,517.0,515.0,492.0,532.0
503.0,514.0,513.0,493.0,534.0
508.0,514.0,515.0,500.0,529.0
520.0,514.0,522.0,508.0,521.0
520.0,507.0,523.0,515.0,509.0
522.0,512.0,530.0,524.0,495.0
522.0,507.0,531.0,532.0,483.0
524.0,502.0,526.0,540.0,481.0
528.0,496.0,522.0,541.0,486.0
516.0,491.0,512.0,535.0,495.0
506.0,486.0,507.0,527.0,502.0
501.0,490.0,503.0,521.0,508.0
499.0,494.0,499.0,510.0,519.0
509.0,503.0,504.0,506.0,521.0
516.0,512.0,507.0,505.0,525.0
519.0,520.0,514.0,503.0,532.0
519.0,521.0,513.0,500.0,530.0
520.0,521.0,515.0,499.0,530.0
514.0,514.0,514.0,498.0,537.0
517.0,514.0,519.0,502.0,526.0
520.0,512.0,522.0,510.0,514.0
520.0,508.0,523.0,517.0,509.0
524.0,508.0,529.0,527.0,497.0
527.0,507.0,530.0,534.0,493.0
521.0,501.0,525.0,538.0,493.0
513.0,497.0,523.0,538.0,493.0
507.0,491.0,511.0,533.0,497.0
500.0,489.0,502.0,525.0,508.0
501.0,492.0,503.0,520.0,518.0
499.0,496.0,501.0,513.0,521.0
506.0,506.0,505.0,504.0,523.0
514.0,517.0,511.0,506.0,530.0
514.0,518.0,512.0,501.0,538.0
516.0,521.0,518.0,498.0,535.0
519.0,520.0,527.0,503.0,526.0
517.0,516.0,528.0,501.0,525.0
515.0,511.0,527.0,502.0,524.0
514.0,506.0,520.0,506.0,515.0
513.0,506.0,504.0,507.0,510.0
520.0,506.0,521.0,525.0,501.0
522.0,506.0,529.0,540.0,484.0
516.0,496.0,525.0,539.0,485.0
513.0,493.0,515.0,532.0,490.0
503.0,489.0,502.0,526.0,498.0
497.0,484.0,496.0,513.0,518.0
495.0,488.0,500.0,503.0,540.0
501.0,499.0,507.0,498.0,529.0
506.0,514.0,515.0,497.0,528.0
504.0,515.0,513.0,495.0,532.0
513.0,517.0,514.0,490.0,537.0
511.0,516.0,492.0,476.0,538.0
510.0,518.0,502.0,481.0,538.0
521.0,518.0,512.0,485.0,531.0
513.0,513.0,521.0,488.0,531.0
509.0,516.0,527.0,500.0,519.0
518.0,513.0,530.0,520.0,505.0
524.0,509.0,531.0,532.0,507.0
523.0,505.0,525.0,536.0,507.0
512.0,496.0,499.0,543.0,498.0
509.0,492.0,501.0,541.0,489.0
511.0,488.0,495.0,532.0,495.0
502.0,485.0,490.0,528.0,501.0
494.0,490.0,490.0,524.0,506.0
500.0,504.0,499.0,524.0,515.0
513.0,511.0,506.0,520.0,530.0
518.0,518.0,506.0,512.0,528.0
524.0,518.0,506.0,502.0,541.0
518.0,515.0,506.0,490.0,556.0
522.0,517.0,511.0,488.0,535.0
519.0,511.0,515.0,493.0,516.0
520.0,506.0,520.0,505.0,507.0
524.0,506.0,522.0,511.0,503.0
525.0,505.0,526.0,511.0,502.0
523.0,502.0,531.0,528.0,498.0
515.0,497.0,526.0,529.0,492.0
509.0,492.0,519.0,528.0,498.0
501.0,487.0,510.0,526.0,502.0
505.0,486.0,498.0,522.0,505.0
509.0,494.0,496.0,519.0,506.0
501.0,499.0,497.0,514.0,514.0
503.0,505.0,488.0,506.0,530.0
501.0,509.0,491.0,500.0,552.0
497.0,512.0,489.0,500.0,556.0
497.0,514.0,491.0,500.0,552.0
496.0,512.0,496.0,496.0,556.0
509.0,506.0,501.0,500.0,540.0
513.0,507.0,508.0,505.0,524.0
520.0,504.0,510.0,513.0,520.0
539.0,506.0,518.0,519.0,507.0
535.0,507.0,531.0,540.0,489.0
520.0,504.0,540.0,551.0,478.0
507.0,503.0,536.0,552.0,473.0
493.0,498.0,525.0,553.0,470.0
479.0,492.0,513.0,539.0,487.0
473.0,490.0,508.0,523.0,501.0
494.0,502.0,507.0,515.0,508.0
522.0,504.0,502.0,496.0,516.0
506.0,507.0,503.0,488.0,531.0
500.0,509.0,497.0,491.0,547.0
516.0,515.0,501.0,490.0,558.0
512.0,514.0,509.0,491.0,566.0
512.0,514.0,513.0,499.0,558.0
497.0,511.0,513.0,490.0,557.0
504.0,510.0,520.0,497.0,533.0
531.0,511.0,522.0,509.0,508.0
540.0,516.0,533.0,520.0,502.0
533.0,510.0,551.0,529.0,496.0
535.0,504.0,546.0,536.0,488.0
542.0,498.0,544.0,539.0,480.0
523.0,497.0,544.0,539.0,488.0
507.0,496.0,541.0,538.0,497.0
499.0,497.0,531.0,533.0,506.0
504.0,496.0,506.0,518.0,521.0
507.0,500.0,505.0,509.0,527.0
517.0,506.0,515.0,507.0,521.0
521.0,512.0,519.0,502.0,506.0
520.0,517.0,520.0,502.0,515.0
520.0,515.0,519.0,502.0,511.0
524.0,515.0,522.0,501.0,510.0
525.0,514.0,521.0,505.0,507.0
523.0,515.0,523.0,514.0,507.0
523.0,515.0,532.0,524.0,500.0
526.0,512.0,536.0,529.0,491.0
522.0,506.0,532.0,534.0,498.0
517.0,502.0,535.0,540.0,490.0
508.0,502.0,539.0,549.0,491.0
505.0,494.0,514.0,541.0,489.0
514.0,492.0,513.0,530.0,496.0
513.0,495.0,518.0,516.0,515.0
502.0,495.0,512.0,504.0,523.0
505.0,508.0,521.0,505.0,525.0
515.0,513.0,519.0,497.0,523.0
517.0,507.0,481.0,499.0,532.0
515.0,510.0,496.0,498.0,545.0
524.0,520.0,526.0,505.0,533.0
519.0,518.0,522.0,508.0,531.0
519.0,509.0,509.0,508.0,522.0
523.0,508.0,512.0,514.0,512.0
523.0,506.0,513.0,524.0,507.0
528.0,505.0,519.0,528.0,496.0
519.0,505.0,524.0,532.0,500.0
509.0,501.0,513.0,528.0,491.0
504.0,490.0,509.0,529.0,485.0
503.0,495.0,513.0,534.0,499.0
502.0,489.0,506.0,516.0,520.0
502.0,493.0,506.0,507.0,516.0
502.0,502.0,510.0,500.0,519.0
509.0,513.0,519.0,497.0,525.0
515.0,518.0,523.0,498.0,524.0
521.0,527.0,514.0,498.0,528.0
519.0,521.0,490.0,497.0,531.0
518.0,516.0,493.0,493.0,530.0
518.0,520.0,499.0,492.0,529.0
516.0,510.0,498.0,495.0,525.0
515.0,504.0,508.0,507.0,518.0
510.0,499.0,511.0,504.0,513.0
520.0,503.0,525.0,514.0,489.0
519.0,501.0,528.0,526.0,474.0
510.0,495.0,532.0,542.0,468.0
508.0,492.0,519.0,540.0,472.0
513.0,489.0,512.0,536.0,479.0
505.0,496.0,505.0,529.0,485.0
499.0,492.0,504.0,523.0,505.0
497.0,500.0,503.0,513.0,528.0
501.0,518.0,507.0,504.0,561.0
497.0,520.0,507.0,497.0,573.0
501.0,525.0,507.0,495.0,579.0
499.0,527.0,523.0,500.0,581.0
497.0,521.0,526.0,491.0,568.0
505.0,517.0,532.0,489.0,549.0
514.0,506.0,512.0,501.0,534.0
506.0,501.0,507.0,515.0,504.0
517.0,497.0,510.0,517.0,493.0
535.0,504.0,527.0,533.0,478.0
528.0,503.0,532.0,547.0,473.0
522.0,500.0,532.0,552.0,466.0
514.0,490.0,516.0,543.0,490.0
516.0,487.0,514.0,540.0,503.0
508.0,492.0,506.0,527.0,512.0
512.0,505.0,505.0,505.0,549.0
512.0,516.0,510.0,511.0,559.0
515.0,523.0,513.0,512.0,564.0
522.0,526.0,526.0,511.0,538.0
516.0,524.0,517.0,505.0,524.0
507.0,512.0,514.0,500.0,512.0
493.0,513.0,518.0,506.0,524.0
473.0,508.0,523.0,512.0,512.0
476.0,509.0,522.0,519.0,508.0
491.0,512.0,522.0,519.0,497.0
504.0,518.0,527.0,547.0,482.0
518.0,516.0,529.0,559.0,475.0
541.0,511.0,530.0,551.0,475.0
525.0,503.0,512.0,528.0,489.0
520.0,501.0,506.0,523.0,484.0
520.0,487.0,495.0,508.0,509.0
501.0,486.0,490.0,491.0,525.0
498.0,502.0,495.0,486.0,529.0
525.0,515.0,506.0,489.0,529.0
532.0,525.0,511.0,495.0,554.0
542.0,530.0,521.0,514.0,539.0
538.0,524.0,515.0,521.0,528.0
521.0,509.0,512.0,514.0,534.0
513.0,505.0,512.0,514.0,528.0
514.0,500.0,509.0,509.0,524.0
506.0,503.0,518.0,522.0,505.0
500.0,503.0,519.0,529.0,499.0
500.0,506.0,531.0,532.0,496.0
506.0,505.0,539.0,524.0,497.0
495.0,494.0,526.0,517.0,494.0
473.0,487.0,519.0,530.0,496.0
451.0,481.0,510.0,519.0,499.0
457.0,486.0,510.0,511.0,509.0
487.0,492.0,494.0,509.0,505.0
485.0,498.0,510.0,515.0,514.0
528.0,513.0,522.0,509.0,511.0
518.0,510.0,515.0,497.0,526.0
541.0,513.0,506.0,495.0,527.0
562.0,518.0,502.0,496.0,527.0
551.0,523.0,493.0,507.0,521.0
532.0,523.0,510.0,502.0,520.0
508.0,510.0,505.0,504.0,521.0
490.0,501.0,503.0,514.0,520.0
497.0,508.0,512.0,529.0,501.0
501.0,509.0,519.0,545.0,485.0
514.0,506.0,508.0,535.0,476.0
538.0,506.0,505.0,524.0,474.0
535.0,498.0,495.0,516.0,483.0
534.0,488.0,479.0,502.0,499.0
526.0,491.0,478.0,501.0,505.0
503.0,500.0,483.0,511.0,513.0
495.0,504.0,487.0,502.0,510.0
514.0,504.0,473.0,483.0,521.0
504.0,512.0,488.0,494.0,525.0
499.0,522.0,514.0,503.0,524.0
513.0,521.0,508.0,488.0,543.0
520.0,513.0,503.0,477.0,560.0
522.0,516.0,518.0,491.0,542.0
532.0,511.0,519.0,500.0,525.0
527.0,513.0,523.0,513.0,505.0
522.0,510.0,542.0,536.0,489.0
524.0,509.0,564.0,558.0,484.0
545.0,512.0,563.0,570.0,478.0
531.0,497.0,530.0,571.0,488.0
524.0,499.0,537.0,570.0,491.0
518.0,504.0,538.0,552.0,495.0
507.0,498.0,531.0,529.0,507.0
510.0,501.0,537.0,527.0,516.0
514.0,509.0,536.0,520.0,516.0
515.0,509.0,541.0,513.0,531.0
520.0,503.0,529.0,512.0,536.0
525.0,514.0,532.0,505.0,538.0
521.0,505.0,527.0,497.0,550.0
520.0,494.0,513.0,500.0,539.0
515.0,496.0,496.0,512.0,527.0
507.0,500.0,510.0,507.0,521.0
516.0,529.0,539.0,517.0,494.0
514.0,525.0,553.0,533.0,480.0
509.0,510.0,538.0,543.0,476.0
510.0,502.0,537.0,541.0,478.0
514.0,497.0,516.0,534.0,470.0
502.0,497.0,509.0,525.0,473.0
482.0,490.0,495.0,515.0,487.0
469.0,489.0,489.0,498.0,512.0
472.0,501.0,485.0,479.0,530.0
480.0,513.0,493.0,475.0,545.0
474.0,523.0,497.0,482.0,550.0
490.0,527.0,507.0,484.0,551.0
493.0,520.0,502.0,503.0,545.0
489.0,524.0,516.0,525.0,529.0
481.0,518.0,513.0,510.0,536.0
515.0,521.0,518.0,508.0,525.0
587.0,523.0,526.0,518.0,512.0
560.0,518.0,535.0,520.0,507.0
527.0,509.0,548.0,543.0,504.0
510.0,499.0,540.0,535.0,507.0
503.0,498.0,527.0,538.0,493.0
474.0,488.0,510.0,532.0,489.0
443.0,481.0,500.0,540.0,497.0
452.0,487.0,491.0,519.0,504.0
464.0,497.0,493.0,492.0,509.0
466.0,501.0,492.0,491.0,522.0
480.0,508.0,499.0,492.0,532.0
508.0,518.0,509.0,481.0,535.0
511.0,522.0,501.0,476.0,524.0
464.0,520.0,502.0,486.0,524.0
462.0,513.0,507.0,487.0,520.0
454.0,504.0,516.0,479.0,524.0
482.0,507.0,528.0,504.0,531.0
512.0,508.0,521.0,518.0,535.0
533.0,519.0,526.0,553.0,502.0
533.0,520.0,538.0,573.0,482.0
524.0,510.0,525.0,573.0,489.0
550.0,505.0,512.0,541.0,484.0
584.0,508.0,506.0,502.0,486.0
557.0,507.0,498.0,482.0,495.0
538.0,496.0,495.0,453.0,530.0
493.0,498.0,487.0,450.0,550.0
464.0,505.0,493.0,453.0,534.0
472.0,512.0,494.0,469.0,522.0
525.0,511.0,490.0,477.0,512.0
527.0,508.0,498.0,501.0,527.0
548.0,511.0,510.0,510.0,537.0
555.0,513.0,511.0,529.0,524.0
556.0,511.0,509.0,529.0,516.0
519.0,514.0,517.0,548.0,500.0
491.0,508.0,519.0,550.0,486.0
487.0,499.0,510.0,538.0,482.0
483.0,489.0,496.0,530.0,477.0
493.0,482.0,489.0,524.0,482.0
539.0,486.0,483.0,507.0,491.0
542.0,480.0,478.0,506.0,493.0
543.0,479.0,479.0,513.0,498.0
540.0,482.0,494.0,505.0,508.0
534.0,497.0,515.0,514.0,520.0
531.0,518.0,538.0,546.0,513.0
506.0,517.0,527.0,555.0,529.0
509.0,518.0,522.0,528.0,538.0
483.0,517.0,520.0,521.0,539.0
483.0,521.0,526.0,522.0,536.0
535.0,533.0,540.0,540.0,508.0
516.0,518.0,525.0,510.0,507.0
500.0,518.0,525.0,479.0,513.0
521.0,514.0,532.0,504.0,505.0
552.0,508.0,532.0,534.0,501.0
514.0,500.0,517.0,559.0,486.0
515.0,501.0,508.0,553.0,474.0
509.0,492.0,495.0,572.0,489.0
517.0,488.0,479.0,540.0,492.0
507.0,493.0,472.0,514.0,500.0
498.0,499.0,501.0,509.0,502.0
497.0,498.0,513.0,486.0,523.0
510.0,510.0,517.0,469.0,517.0
519.0,502.0,505.0,445.0,543.0
533.0,504.0,493.0,457.0,552.0
533.0,509.0,488.0,480.0,542.0
537.0,513.0,504.0,499.0,530.0
543.0,522.0,539.0,515.0,515.0
537.0,522.0,560.0,516.0,508.0
528.0,516.0,552.0,497.0,509.0
524.0,517.0,551.0,542.0,490.0
526.0,516.0,552.0,561.0,472.0
505.0,503.0,538.0,553.0,481.0
498.0,503.0,528.0,556.0,479.0
497.0,497.0,514.0,542.0,483.0
500.0,493.0,505.0,522.0,495.0
489.0,493.0,500.0,486.0,523.0
478.0,497.0,501.0,499.0,522.0
493.0,514.0,510.0,515.0,513.0
486.0,515.0,509.0,503.0,519.0
481.0,513.0,508.0,468.0,527.0
492.0,508.0,493.0,451.0,544.0
499.0,514.0,507.0,456.0,553.0
513.0,523.0,528.0,483.0,541.0
519.0,519.0,534.0,500.0,528.0
512.0,520.0,536.0,512.0,526.0
486.0,510.0,537.0,532.0,504.0
448.0,504.0,535.0,532.0,494.0
431.0,484.0,534.0,526.0,499.0
446.0,478.0,525.0,506.0,512.0
449.0,477.0,519.0,509.0,515.0
522.0,487.0,523.0,516.0,515.0
557.0,499.0,494.0,504.0,500.0
560.0,505.0,478.0,518.0,501.0
567.0,507.0,484.0,524.0,519.0
545.0,509.0,469.0,518.0,529.0
526.0,519.0,487.0,535.0,517.0
534.0,522.0,500.0,553.0,523.0
522.0,515.0,505.0,547.0,533.0
507.0,513.0,498.0,527.0,528.0
507.0,504.0,502.0,529.0,499.0
530.0,508.0,514.0,527.0,468.0
511.0,504.0,522.0,507.0,463.0
494.0,497.0,514.0,448.0,460.0
500.0,497.0,509.0,483.0,449.0
495.0,503.0,511.0,523.0,453.0
455.0,494.0,503.0,514.0,503.0
437.0,482.0,495.0,489.0,542.0
475.0,484.0,521.0,518.0,515.0
437.0,473.0,501.0,497.0,525.0
395.0,473.0,484.0,499.0,548.0
421.0,498.0,493.0,527.0,547.0
492.0,526.0,516.0,488.0,536.0
571.0,535.0,532.0,477.0,532.0
588.0,537.0,531.0,474.0,521.0
587.0,532.0,520.0,475.0,493.0
561.0,529.0,512.0,483.0,494.0
547.0,527.0,513.0,499.0,508.0
548.0,520.0,507.0,501.0,503.0
549.0,510.0,506.0,525.0,497.0
489.0,504.0,535.0,558.0,490.0
452.0,511.0,562.0,584.0,474.0
431.0,494.0,536.0,528.0,498.0
422.0,487.0,517.0,518.0,506.0
410.0,485.0,505.0,553.0,535.0
493.0,495.0,494.0,566.0,508.0
557.0,504.0,493.0,560.0,502.0
570.0,506.0,501.0,549.0,506.0
531.0,505.0,505.0,518.0,519.0
566.0,518.0,505.0,484.0,516.0
585.0,531.0,492.0,451.0,504.0
578.0,527.0,490.0,512.0,498.0
554.0,502.0,480.0,468.0,504.0
538.0,504.0,489.0,451.0,511.0
536.0,513.0,516.0,479.0,504.0
520.0,504.0,518.0,473.0,498.0
506.0,507.0,522.0,468.0,512.0
516.0,510.0,535.0,521.0,493.0
509.0,502.0,544.0,562.0,491.0
489.0,500.0,538.0,561.0,491.0
503.0,491.0,512.0,539.0,480.0
486.0,490.0,501.0,543.0,486.0
473.0,487.0,493.0,536.0,507.0
472.0,481.0,472.0,495.0,508.0
512.0,482.0,455.0,501.0,523.0
519.0,491.0,471.0,506.0,528.0
501.0,498.0,490.0,505.0,528.0
500.0,513.0,524.0,509.0,529.0
495.0,529.0,545.0,502.0,524.0
520.0,537.0,554.0,487.0,499.0
547.0,541.0,551.0,489.0,506.0
537.0,526.0,550.0,486.0,518.0
541.0,524.0,548.0,511.0,498.0
526.0,512.0,546.0,538.0,486.0
493.0,508.0,541.0,541.0,475.0
471.0,499.0,529.0,524.0,473.0
458.0,491.0,529.0,524.0,492.0
456.0,496.0,524.0,513.0,489.0
480.0,493.0,505.0,481.0,482.0
578.0,504.0,485.0,479.0,481.0
582.0,515.0,482.0,513.0,510.0
511.0,505.0,473.0,496.0,532.0
485.0,501.0,457.0,510.0,532.0
470.0,498.0,449.0,485.0,546.0
473.0,503.0,475.0,505.0,545.0
453.0,499.0,498.0,499.0,552.0
505.0,508.0,495.0,466.0,553.0
581.0,526.0,517.0,473.0,524.0
563.0,525.0,541.0,512.0,515.0
511.0,497.0,536.0,512.0,515.0
490.0,503.0,553.0,518.0,501.0
486.0,499.0,544.0,511.0,507.0
498.0,502.0,546.0,504.0,509.0
536.0,507.0,549.0,508.0,509.0
568.0,500.0,539.0,513.0,479.0
555.0,497.0,516.0,509.0,489.0
544.0,497.0,527.0,525.0,511.0
518.0,500.0,517.0,523.0,518.0
528.0,513.0,507.0,532.0,519.0
531.0,521.0,503.0,527.0,503.0
512.0,517.0,512.0,521.0,509.0
506.0,516.0,515.0,525.0,511.0
496.0,506.0,507.0,495.0,515.0
495.0,519.0,511.0,460.0,528.0
493.0,525.0,547.0,538.0,496.0
518.0,525.0,533.0,586.0,463.0
536.0,510.0,528.0,623.0,458.0
530.0,498.0,518.0,624.0,449.0
500.0,495.0,517.0,616.0,460.0
477.0,491.0,522.0,596.0,483.0
452.0,485.0,518.0,502.0,504.0
451.0,487.0,515.0,483.0,524.0
481.0,495.0,475.0,448.0,537.0
517.0,498.0,467.0,424.0,532.0
528.0,505.0,470.0,441.0,529.0
567.0,516.0,491.0,463.0,522.0
557.0,514.0,498.0,474.0,521.0
533.0,517.0,517.0,463.0,523.0
509.0,520.0,529.0,462.0,517.0
504.0,511.0,530.0,465.0,518.0
493.0,506.0,510.0,461.0,520.0
463.0,510.0,524.0,483.0,521.0
428.0,510.0,529.0,501.0,513.0
386.0,503.0,527.0,507.0,506.0
346.0,489.0,520.0,508.0,481.0
349.0,487.0,514.0,511.0,500.0
453.0,494.0,529.0,526.0,483.0
565.0,514.0,536.0,547.0,471.0
659.0,518.0,527.0,589.0,461.0
566.0,501.0,516.0,600.0,499.0
519.0,506.0,502.0,586.0,516.0
485.0,496.0,481.0,543.0,538.0
503.0,511.0,489.0,495.0,536.0
513.0,520.0,511.0,491.0,518.0
528.0,521.0,515.0,449.0,523.0
558.0,518.0,512.0,480.0,519.0
506.0,514.0,518.0,500.0,528.0
479.0,518.0,517.0,482.0,528.0
511.0,527.0,517.0,495.0,499.0
478.0,507.0,516.0,521.0,486.0
453.0,498.0,515.0,522.0,495.0
419.0,510.0,509.0,507.0,517.0
479.0,522.0,528.0,514.0,489.0
554.0,513.0,523.0,513.0,466.0
541.0,500.0,509.0,524.0,480.0
519.0,472.0,468.0,514.0,520.0
524.0,475.0,472.0,490.0,504.0
558.0,492.0,484.0,453.0,485.0
530.0,494.0,480.0,485.0,489.0
526.0,505.0,489.0,551.0,490.0
524.0,504.0,481.0,588.0,481.0
538.0,507.0,479.0,568.0,486.0
567.0,511.0,497.0,546.0,489.0
555.0,524.0,513.0,541.0,479.0
514.0,520.0,495.0,475.0,503.0
466.0,499.0,434.0,440.0,534.0
444.0,500.0,434.0,488.0,504.0
454.0,494.0,447.0,496.0,476.0
473.0,504.0,493.0,520.0,460.0
454.0,499.0,517.0,549.0,476.0
447.0,478.0,507.0,539.0,497.0
502.0,466.0,524.0,555.0,503.0
563.0,498.0,556.0,538.0,508.0
621.0,533.0,585.0,496.0,517.0
617.0,535.0,593.0,525.0,519.0
580.0,515.0,583.0,501.0,518.0
546.0,509.0,552.0,445.0,533.0
546.0,514.0,550.0,456.0,531.0
524.0,502.0,523.0,454.0,530.0
539.0,504.0,490.0,480.0,518.0
571.0,522.0,502.0,517.0,511.0
557.0,521.0,516.0,526.0,527.0
524.0,524.0,529.0,545.0,532.0
532.0,521.0,543.0,549.0,520.0
534.0,514.0,542.0,552.0,487.0
538.0,505.0,537.0,588.0,486.0
515.0,506.0,537.0,588.0,472.0
515.0,517.0,542.0,577.0,450.0
500.0,501.0,526.0,530.0,440.0
482.0,509.0,517.0,478.0,481.0
490.0,502.0,469.0,436.0,500.0
500.0,510.0,479.0,430.0,509.0
524.0,508.0,499.0,438.0,512.0
523.0,516.0,498.0,415.0,524.0
522.0,518.0,499.0,415.0,534.0
543.0,518.0,493.0,373.0,533.0
552.0,512.0,505.0,436.0,506.0
540.0,521.0,535.0,515.0,481.0
511.0,513.0,533.0,512.0,496.0
522.0,526.0,552.0,515.0,495.0
518.0,523.0,558.0,570.0,463.0
512.0,525.0,573.0,626.0,471.0
475.0,508.0,568.0,656.0,474.0
434.0,493.0,569.0,664.0,507.0
471.0,487.0,523.0,550.0,527.0
486.0,472.0,482.0,506.0,542.0
489.0,469.0,474.0,480.0,544.0
490.0,480.0,482.0,504.0,540.0
483.0,490.0,475.0,510.0,546.0
464.0,498.0,481.0,507.0,522.0
465.0,508.0,495.0,537.0,503.0
485.0,516.0,505.0,524.0,514.0
464.0,503.0,504.0,505.0,544.0
414.0,495.0,514.0,480.0,564.0
461.0,504.0,505.0,463.0,548.0
522.0,519.0,545.0,509.0,505.0
505.0,516.0,559.0,502.0,513.0
484.0,494.0,534.0,483.0,535.0
506.0,498.0,523.0,490.0,513.0
512.0,498.0,530.0,509.0,507.0
440.0,487.0,513.0,501.0,532.0
428.0,477.0,512.0,508.0,527.0
514.0,494.0,509.0,521.0,483.0
581.0,502.0,496.0,501.0,462.0
585.0,504.0,498.0,500.0,473.0
560.0,510.0,495.0,483.0,491.0
514.0,511.0,501.0,458.0,538.0
458.0,509.0,517.0,468.0,534.0
439.0,513.0,516.0,527.0,504.0
423.0,509.0,509.0,535.0,499.0
397.0,502.0,505.0,512.0,502.0
367.0,497.0,492.0,491.0,497.0
374.0,495.0,502.0,504.0,468.0
394.0,508.0,524.0,525.0,477.0
405.0,489.0,499.0,505.0,542.0
532.0,495.0,497.0,585.0,496.0
636.0,517.0,510.0,616.0,461.0
608.0,499.0,503.0,591.0,459.0
582.0,515.0,502.0,538.0,461.0
552.0,539.0,541.0,485.0,468.0
548.0,559.0,577.0,495.0,495.0
599.0,529.0,541.0,502.0,521.0
653.0,520.0,506.0,486.0,519.0
633.0,518.0,526.0,465.0,509.0
580.0,493.0,500.0,441.0,519.0
554.0,484.0,482.0,444.0,523.0
542.0,494.0,484.0,481.0,528.0
583.0,520.0,517.0,560.0,517.0
552.0,501.0,512.0,586.0,527.0
545.0,490.0,453.0,553.0,535.0
511.0,496.0,443.0,639.0,515.0
401.0,489.0,476.0,679.0,502.0
323.0,485.0,472.0,723.0,500.0
321.0,469.0,439.0,641.0,513.0
377.0,477.0,457.0,590.0,473.0
596.0,498.0,495.0,546.0,435.0
649.0,507.0,514.0,479.0,472.0
639.0,529.0,497.0,372.0,526.0
627.0,547.0,497.0,369.0,524.0
600.0,532.0,506.0,427.0,516.0
596.0,525.0,510.0,414.0,516.0
592.0,517.0,501.0,423.0,515.0
566.0,520.0,516.0,467.0,520.0
545.0,512.0,542.0,480.0,523.0
554.0,517.0,539.0,495.0,501.0
545.0,507.0,524.0,473.0,509.0
527.0,502.0,480.0,428.0,508.0
533.0,513.0,477.0,390.0,510.0
540.0,515.0,482.0,394.0,525.0
544.0,495.0,464.0,448.0,518.0
523.0,479.0,473.0,505.0,507.0
520.0,483.0,483.0,601.0,496.0
509.0,489.0,525.0,578.0,505.0
485.0,493.0,550.0,552.0,542.0
507.0,516.0,584.0,574.0,519.0
525.0,537.0,602.0,580.0,499.0
511.0,548.0,599.0,528.0,505.0
511.0,531.0,566.0,504.0,508.0
522.0,530.0,534.0,439.0,518.0
506.0,512.0,513.0,439.0,553.0
444.0,504.0,508.0,582.0,541.0
424.0,493.0,463.0,601.0,513.0
427.0,486.0,439.0,561.0,492.0
437.0,513.0,482.0,645.0,475.0
498.0,525.0,522.0,748.0,449.0
548.0,510.0,523.0,703.0,448.0
537.0,497.0,546.0,590.0,474.0
487.0,467.0,527.0,500.0,514.0
469.0,462.0,536.0,461.0,511.0
455.0,476.0,542.0,405.0,546.0
530.0,485.0,530.0,378.0,578.0
566.0,495.0,526.0,407.0,556.0
520.0,510.0,544.0,450.0,545.0
503.0,530.0,561.0,500.0,539.0
506.0,531.0,537.0,460.0,543.0
533.0,527.0,518.0,454.0,538.0
533.0,517.0,530.0,462.0,558.0
499.0,506.0,536.0,484.0,554.0
459.0,496.0,535.0,488.0,557.0
412.0,483.0,528.0,479.0,560.0
369.0,488.0,509.0,473.0,541.0
387.0,479.0,481.0,452.0,526.0
479.0,503.0,456.0,457.0,498.0
406.0,486.0,424.0,476.0,496.0
365.0,488.0,425.0,506.0,499.0
398.0,474.0,409.0,553.0,481.0
399.0,445.0,394.0,512.0,522.0
465.0,474.0,434.0,508.0,532.0
601.0,513.0,473.0,547.0,518.0
711.0,531.0,534.0,567.0,480.0
640.0,531.0,558.0,509.0,504.0
603.0,528.0,579.0,492.0,530.0
597.0,531.0,577.0,529.0,524.0
596.0,536.0,586.0,571.0,518.0
584.0,522.0,576.0,561.0,529.0
550.0,529.0,601.0,549.0,509.0
485.0,518.0,591.0,556.0,495.0
492.0,524.0,569.0,510.0,475.0
486.0,531.0,558.0,510.0,501.0
526.0,518.0,538.0,546.0,532.0
609.0,494.0,521.0,545.0,509.0
617.0,480.0,508.0,522.0,501.0
598.0,492.0,521.0,502.0,481.0
528.0,502.0,537.0,498.0,484.0
453.0,500.0,529.0,520.0,508.0
359.0,486.0,493.0,498.0,524.0
290.0,485.0,475.0,537.0,551.0
266.0,472.0,448.0,533.0,534.0
314.0,470.0,437.0,560.0,523.0
400.0,489.0,467.0,578.0,540.0
609.0,528.0,522.0,552.0,499.0
763.0,549.0,530.0,548.0,460.0
741.0,544.0,566.0,574.0,456.0
670.0,518.0,558.0,475.0,491.0
602.0,503.0,512.0,438.0,517.0
568.0,502.0,481.0,548.0,498.0
562.0,493.0,489.0,589.0,442.0
555.0,481.0,485.0,558.0,455.0
552.0,476.0,471.0,502.0,543.0
520.0,479.0,487.0,478.0,527.0
513.0,491.0,493.0,462.0,493.0
562.0,518.0,500.0,435.0,513.0
536.0,533.0,531.0,444.0,538.0
518.0,550.0,546.0,454.0,551.0
467.0,534.0,519.0,429.0,579.0
414.0,517.0,501.0,429.0,593.0
451.0,528.0,513.0,462.0,563.0
494.0,549.0,538.0,508.0,532.0
518.0,541.0,526.0,499.0,529.0
567.0,524.0,507.0,516.0,514.0
609.0,506.0,513.0,572.0,489.0
579.0,507.0,508.0,539.0,474.0
536.0,503.0,502.0,500.0,484.0
459.0,488.0,477.0,504.0,498.0
428.0,492.0,497.0,473.0,500.0
410.0,478.0,503.0,541.0,484.0
439.0,492.0,531.0,535.0,494.0
475.0,510.0,526.0,516.0,489.0
572.0,523.0,507.0,503.0,495.0
601.0,526.0,480.0,521.0,524.0
562.0,512.0,416.0,422.0,546.0
535.0,507.0,405.0,536.0,549.0
557.0,503.0,426.0,627.0,540.0
555.0,462.0,392.0,648.0,549.0
532.0,460.0,439.0,601.0,535.0
534.0,508.0,585.0,591.0,501.0
527.0,528.0,650.0,548.0,484.0
522.0,525.0,630.0,508.0,502.0
542.0,500.0,581.0,502.0,513.0
505.0,464.0,532.0,454.0,538.0
490.0,488.0,534.0,434.0,521.0
472.0,484.0,513.0,423.0,542.0
459.0,484.0,506.0,475.0,534.0
471.0,500.0,562.0,553.0,511.0
491.0,518.0,560.0,557.0,509.0
514.0,514.0,546.0,503.0,503.0
549.0,536.0,563.0,497.0,507.0
535.0,540.0,571.0,480.0,512.0
515.0,539.0,534.0,401.0,557.0
501.0,536.0,495.0,377.0,565.0
497.0,530.0,492.0,463.0,548.0
460.0,492.0,463.0,500.0,536.0
418.0,472.0,460.0,535.0,512.0
412.0,478.0,453.0,570.0,479.0
409.0,502.0,514.0,668.0,434.0
419.0,504.0,565.0,601.0,440.0
497.0,479.0,521.0,500.0,503.0
458.0,457.0,496.0,471.0,540.0
526.0,468.0,521.0,535.0,544.0
550.0,501.0,540.0,547.0,541.0
546.0,504.0,550.0,549.0,531.0
546.0,512.0,521.0,490.0,557.0
534.0,519.0,540.0,434.0,563.0
496.0,521.0,566.0,493.0,567.0
483.0,526.0,560.0,521.0,561.0
488.0,522.0,524.0,511.0,554.0
468.0,526.0,531.0,510.0,530.0
460.0,508.0,525.0,483.0,550.0
537.0,515.0,525.0,504.0,531.0
517.0,507.0,529.0,531.0,500.0
540.0,503.0,534.0,507.0,478.0
565.0,514.0,532.0,520.0,449.0
589.0,522.0,515.0,560.0,451.0
528.0,510.0,504.0,508.0,477.0
498.0,509.0,513.0,505.0,476.0
465.0,508.0,541.0,559.0,464.0
421.0,483.0,500.0,551.0,492.0
352.0,460.0,413.0,442.0,543.0
327.0,453.0,370.0,396.0,578.0
412.0,459.0,383.0,430.0,542.0
483.0,495.0,413.0,506.0,529.0
460.0,521.0,463.0,594.0,550.0
595.0,523.0,495.0,588.0,542.0
592.0,523.0,542.0,604.0,557.0
628.0,529.0,533.0,612.0,524.0
685.0,527.0,534.0,543.0,466.0
664.0,513.0,541.0,504.0,453.0
621.0,514.0,573.0,588.0,445.0
647.0,555.0,597.0,561.0,397.0
626.0,521.0,528.0,484.0,469.0
581.0,520.0,498.0,482.0,496.0
516.0,494.0,494.0,447.0,480.0
492.0,492.0,535.0,471.0,483.0
488.0,481.0,542.0,512.0,511.0
487.0,505.0,532.0,481.0,539.0
513.0,532.0,540.0,482.0,548.0
521.0,547.0,554.0,520.0,504.0
536.0,524.0,520.0,518.0,541.0
523.0,496.0,477.0,489.0,583.0
530.0,476.0,418.0,479.0,543.0
538.0,506.0,426.0,517.0,502.0
530.0,520.0,430.0,463.0,487.0
505.0,513.0,437.0,462.0,478.0
484.0,479.0,446.0,484.0,497.0
482.0,453.0,436.0,454.0,511.0
485.0,467.0,455.0,485.0,505.0
486.0,483.0,498.0,528.0,521.0
471.0,496.0,506.0,565.0,539.0
475.0,489.0,500.0,530.0,525.0
540.0,500.0,528.0,505.0,485.0
563.0,503.0,542.0,503.0,505.0
555.0,523.0,572.0,497.0,526.0
569.0,574.0,612.0,550.0,512.0
554.0,569.0,608.0,544.0,526.0
556.0,559.0,552.0,572.0,529.0
517.0,519.0,502.0,589.0,546.0
492.0,504.0,500.0,527.0,554.0
496.0,523.0,508.0,499.0,520.0
495.0,531.0,525.0,423.0,513.0
498.0,526.0,562.0,472.0,490.0
530.0,521.0,615.0,587.0,478.0
485.0,523.0,608.0,562.0,508.0
477.0,508.0,582.0,537.0,514.0
482.0,503.0,553.0,522.0,517.0
477.0,471.0,525.0,566.0,518.0
473.0,458.0,509.0,595.0,543.0
486.0,477.0,508.0,567.0,551.0
518.0,480.0,497.0,536.0,512.0
511.0,491.0,533.0,490.0,515.0
512.0,510.0,551.0,421.0,545.0
520.0,522.0,551.0,446.0,554.0
486.0,511.0,539.0,460.0,553.0
454.0,502.0,492.0,446.0,549.0
421.0,502.0,470.0,528.0,535.0
419.0,516.0,515.0,549.0,534.0
405.0,520.0,494.0,497.0,547.0
413.0,513.0,524.0,516.0,510.0
454.0,507.0,559.0,571.0,509.0
531.0,512.0,544.0,546.0,528.0
596.0,508.0,525.0,472.0,480.0
610.0,497.0,525.0,442.0,468.0
591.0,498.0,523.0,406.0,482.0
558.0,498.0,525.0,427.0,541.0
566.0,503.0,503.0,446.0,551.0
586.0,534.0,507.0,489.0,494.0
548.0,545.0,509.0,609.0,481.0
486.0,534.0,484.0,623.0,508.0
433.0,511.0,453.0,606.0,509.0
381.0,471.0,424.0,528.0,539.0
354.0,467.0,410.0,469.0,592.0
438.0,481.0,424.0,439.0,590.0
564.0,487.0,480.0,410.0,547.0
664.0,495.0,502.0,460.0,519.0
596.0,494.0,490.0,534.0,510.0
516.0,473.0,482.0,557.0,505.0
502.0,470.0,471.0,565.0,494.0
462.0,473.0,492.0,572.0,495.0
416.0,464.0,509.0,542.0,505.0
383.0,475.0,526.0,549.0,539.0
326.0,472.0,510.0,500.0,596.0
399.0,497.0,491.0,477.0,572.0
601.0,553.0,520.0,530.0,515.0
651.0,574.0,498.0,515.0,486.0
630.0,532.0,474.0,483.0,488.0
583.0,515.0,477.0,430.0,515.0
644.0,514.0,509.0,448.0,494.0
625.0,525.0,505.0,450.0,499.0
599.0,519.0,511.0,524.0,478.0
608.0,515.0,538.0,552.0,479.0
581.0,509.0,537.0,507.0,510.0
597.0,524.0,557.0,547.0,481.0
570.0,521.0,548.0,588.0,473.0
527.0,498.0,532.0,585.0,477.0
499.0,488.0,479.0,569.0,489.0
467.0,474.0,438.0,513.0,505.0
449.0,488.0,435.0,624.0,475.0
427.0,483.0,425.0,633.0,475.0
437.0,472.0,427.0,577.0,498.0
456.0,479.0,443.0,461.0,491.0
572.0,534.0,520.0,376.0,477.0
610.0,540.0,590.0,396.0,518.0
589.0,520.0,566.0,476.0,569.0
570.0,535.0,572.0,546.0,538.0
556.0,557.0,583.0,551.0,549.0
539.0,570.0,561.0,499.0,587.0
542.0,550.0,504.0,470.0,537.0
558.0,564.0,520.0,502.0,517.0
572.0,554.0,547.0,537.0,519.0
560.0,539.0,582.0,545.0,505.0
532.0,536.0,625.0,535.0,473.0
484.0,517.0,633.0,567.0,492.0
436.0,474.0,593.0,520.0,523.0
440.0,463.0,573.0,489.0,531.0
460.0,468.0,532.0,498.0,562.0
540.0,479.0,463.0,506.0,525.0
558.0,498.0,414.0,505.0,536.0
546.0,523.0,418.0,512.0,535.0
524.0,520.0,420.0,521.0,528.0
494.0,518.0,446.0,537.0,521.0
476.0,510.0,514.0,522.0,529.0
503.0,515.0,564.0,499.0,519.0
461.0,480.0,537.0,448.0,562.0
480.0,484.0,535.0,366.0,603.0
527.0,520.0,590.0,422.0,541.0
569.0,508.0,575.0,478.0,516.0
543.0,508.0,573.0,549.0,496.0
510.0,500.0,555.0,490.0,515.0
514.0,509.0,554.0,520.0,516.0
531.0,523.0,568.0,561.0,503.0
505.0,509.0,525.0,627.0,505.0
486.0,477.0,486.0,625.0,515.0
483.0,491.0,486.0,620.0,495.0
470.0,491.0,463.0,551.0,498.0
458.0,516.0,502.0,472.0,508.0
431.0,522.0,535.0,404.0,552.0
368.0,505.0,521.0,437.0,587.0
337.0,493.0,486.0,480.0,589.0
343.0,489.0,458.0,509.0,581.0
343.0,506.0,449.0,506.0,546.0
436.0,510.0,441.0,516.0,514.0
487.0,496.0,454.0,502.0,460.0
442.0,421.0,449.0,450.0,479.0
453.0,433.0,472.0,465.0,509.0
533.0,448.0,482.0,515.0,501.0
549.0,466.0,496.0,606.0,504.0
488.0,482.0,496.0,638.0,523.0
559.0,503.0,506.0,611.0,513.0
619.0,516.0,494.0,513.0,494.0
619.0,502.0,490.0,422.0,503.0
627.0,514.0,534.0,472.0,462.0
677.0,560.0,592.0,532.0,453.0
641.0,557.0,585.0,479.0,500.0
579.0,521.0,561.0,428.0,583.0
576.0,528.0,585.0,431.0,617.0
565.0,524.0,565.0,448.0,605.0
553.0,522.0,587.0,480.0,573.0
553.0,549.0,627.0,539.0,541.0
542.0,545.0,619.0,547.0,490.0
517.0,526.0,593.0,567.0,463.0
478.0,502.0,561.0,582.0,468.0
455.0,489.0,548.0,567.0,488.0
402.0,495.0,532.0,522.0,530.0
366.0,494.0,522.0,521.0,542.0
450.0,505.0,529.0,539.0,545.0
534.0,509.0,520.0,537.0,540.0
522.0,488.0,482.0,503.0,535.0
579.0,511.0,482.0,489.0,500.0
587.0,529.0,477.0,496.0,503.0
589.0,527.0,493.0,502.0,497.0
564.0,526.0,494.0,515.0,488.0
568.0,531.0,510.0,521.0,505.0
573.0,520.0,493.0,510.0,466.0
556.0,510.0,499.0,538.0,452.0
561.0,514.0,493.0,555.0,474.0
550.0,490.0,473.0,549.0,496.0
516.0,475.0,471.0,572.0,491.0
501.0,476.0,477.0,586.0,507.0
523.0,491.0,467.0,548.0,488.0
527.0,482.0,473.0,579.0,483.0
482.0,475.0,483.0,565.0,511.0
518.0,513.0,491.0,439.0,512.0
512.0,516.0,507.0,429.0,510.0
508.0,520.0,523.0,438.0,552.0
524.0,527.0,498.0,517.0,545.0
532.0,547.0,501.0,585.0,514.0
553.0,555.0,507.0,591.0,522.0
531.0,521.0,458.0,540.0,535.0
500.0,479.0,442.0,484.0,521.0
508.0,465.0,368.0,415.0,503.0
565.0,529.0,383.0,462.0,448.0
530.0,521.0,380.0,406.0,488.0
517.0,523.0,443.0,454.0,497.0
531.0,513.0,513.0,532.0,494.0
498.0,473.0,528.0,600.0,513.0
476.0,467.0,509.0,502.0,534.0
470.0,468.0,510.0,433.0,549.0
477.0,484.0,532.0,442.0,535.0
465.0,473.0,499.0,412.0,533.0
476.0,519.0,509.0,398.0,526.0
471.0,499.0,504.0,434.0,534.0
476.0,491.0,532.0,538.0,551.0
486.0,522.0,556.0,586.0,545.0
493.0,529.0,550.0,557.0,532.0
533.0,534.0,569.0,572.0,507.0
506.0,522.0,622.0,620.0,514.0
490.0,510.0,605.0,552.0,548.0
486.0,514.0,624.0,539.0,540.0
534.0,531.0,676.0,583.0,504.0
547.0,524.0,646.0,546.0,520.0
524.0,505.0,583.0,502.0,527.0
520.0,502.0,562.0,484.0,504.0
442.0,478.0,555.0,543.0,497.0
377.0,468.0,529.0,624.0,520.0
361.0,486.0,525.0,686.0,505.0
365.0,499.0,534.0,703.0,501.0
476.0,495.0,534.0,614.0,504.0
626.0,517.0,518.0,420.0,523.0
680.0,533.0,505.0,352.0,494.0
581.0,522.0,517.0,368.0,512.0
538.0,513.0,501.0,406.0,538.0
528.0,520.0,500.0,514.0,516.0
504.0,529.0,494.0,515.0,518.0
466.0,523.0,486.0,545.0,540.0
442.0,520.0,486.0,558.0,523.0
428.0,502.0,478.0,552.0,492.0
420.0,492.0,482.0,547.0,495.0
375.0,485.0,468.0,472.0,498.0
423.0,465.0,447.0,442.0,517.0
440.0,464.0,442.0,421.0,542.0
380.0,489.0,509.0,466.0,590.0
634.0,523.0,513.0,445.0,521.0
743.0,533.0,549.0,478.0,497.0
687.0,521.0,560.0,499.0,509.0
580.0,518.0,563.0,516.0,507.0
616.0,538.0,563.0,552.0,497.0
607.0,535.0,549.0,513.0,494.0
581.0,503.0,516.0,485.0,528.0
541.0,505.0,515.0,498.0,527.0
484.0,501.0,530.0,538.0,526.0
464.0,503.0,548.0,541.0,524.0
443.0,505.0,548.0,558.0,525.0
485.0,521.0,563.0,562.0,505.0
567.0,524.0,563.0,554.0,480.0
581.0,505.0,532.0,517.0,482.0
570.0,489.0,479.0,499.0,484.0
511.0,474.0,464.0,510.0,477.0
503.0,481.0,446.0,479.0,498.0
536.0,516.0,463.0,490.0,506.0
556.0,541.0,493.0,602.0,516.0
536.0,508.0,468.0,620.0,507.0
512.0,483.0,460.0,578.0,514.0
560.0,488.0,477.0,550.0,495.0
575.0,502.0,481.0,491.0,493.0
540.0,511.0,490.0,468.0,496.0
556.0,527.0,465.0,455.0,444.0
558.0,555.0,460.0,546.0,407.0
533.0,543.0,484.0,565.0,441.0
508.0,514.0,513.0,540.0,493.0
486.0,495.0,473.0,472.0,521.0
485.0,502.0,481.0,452.0,521.0
441.0,460.0,439.0,436.0,565.0
440.0,462.0,457.0,427.0,566.0
507.0,486.0,478.0,480.0,528.0
509.0,469.0,440.0,521.0,529.0
518.0,464.0,418.0,571.0,495.0
526.0,483.0,429.0,576.0,519.0
528.0,509.0,434.0,583.0,514.0
506.0,523.0,444.0,532.0,520.0
524.0,522.0,492.0,466.0,534.0
525.0,499.0,497.0,364.0,591.0
495.0,489.0,529.0,411.0,613.0
513.0,483.0,533.0,485.0,565.0
518.0,500.0,601.0,518.0,529.0
541.0,535.0,651.0,528.0,498.0
550.0,550.0,655.0,550.0,465.0
538.0,534.0,655.0,534.0,471.0
523.0,513.0,598.0,505.0,496.0
507.0,520.0,594.0,537.0,524.0
512.0,517.0,575.0,598.0,505.0
509.0,497.0,556.0,594.0,493.0
516.0,504.0,567.0,589.0,466.0
530.0,524.0,612.0,621.0,459.0
516.0,519.0,572.0,516.0,493.0
509.0,528.0,590.0,436.0,549.0
506.0,524.0,581.0,476.0,564.0
500.0,505.0,545.0,454.0,578.0
502.0,510.0,537.0,448.0,558.0
511.0,522.0,543.0,488.0,537.0
511.0,529.0,549.0,533.0,533.0
504.0,524.0,544.0,518.0,523.0
483.0,519.0,545.0,513.0,503.0
419.0,500.0,530.0,520.0,488.0
401.0,485.0,501.0,553.0,468.0
366.0,493.0,482.0,567.0,481.0
363.0,492.0,489.0,573.0,500.0
446.0,484.0,474.0,571.0,500.0
539.0,480.0,484.0,580.0,501.0
471.0,478.0,487.0,505.0,529.0
498.0,499.0,496.0,470.0,527.0
589.0,535.0,534.0,477.0,511.0
610.0,538.0,544.0,484.0,535.0
633.0,538.0,548.0,478.0,516.0
621.0,540.0,549.0,479.0,526.0
585.0,525.0,530.0,480.0,545.0
582.0,513.0,527.0,496.0,547.0
579.0,517.0,530.0,530.0,536.0
577.0,530.0,536.0,530.0,510.0
555.0,512.0,529.0,538.0,499.0
542.0,506.0,523.0,547.0,493.0
526.0,494.0,508.0,535.0,491.0
486.0,487.0,505.0,555.0,484.0
451.0,484.0,498.0,542.0,473.0
428.0,477.0,480.0,513.0,503.0
412.0,489.0,474.0,466.0,529.0
445.0,514.0,468.0,504.0,523.0
545.0,532.0,455.0,572.0,491.0
483.0,516.0,426.0,626.0,503.0
378.0,481.0,382.0,561.0,519.0
296.0,462.0,390.0,483.0,526.0
278.0,478.0,427.0,454.0,536.0
278.0,480.0,456.0,377.0,614.0
498.0,482.0,469.0,389.0,612.0
699.0,513.0,522.0,474.0,541.0
762.0,539.0,571.0,528.0,501.0
729.0,553.0,618.0,533.0,492.0
641.0,547.0,611.0,486.0,501.0
616.0,507.0,572.0,481.0,502.0
589.0,493.0,553.0,506.0,505.0
567.0,489.0,515.0,515.0,498.0
568.0,508.0,513.0,547.0,485.0
553.0,519.0,520.0,613.0,465.0
530.0,512.0,516.0,553.0,483.0
519.0,509.0,508.0,497.0,522.0
528.0,502.0,503.0,473.0,519.0
504.0,503.0,509.0,489.0,531.0
522.0,500.0,478.0,490.0,527.0
516.0,504.0,458.0,499.0,544.0
525.0,513.0,455.0,504.0,513.0
535.0,515.0,484.0,519.0,476.0
523.0,495.0,425.0,500.0,487.0
500.0,497.0,412.0,514.0,491.0
467.0,483.0,420.0,518.0,519.0
472.0,486.0,423.0,517.0,509.0
483.0,505.0,492.0,560.0,482.0
513.0,495.0,513.0,549.0,450.0
505.0,491.0,550.0,528.0,469.0
516.0,480.0,539.0,496.0,508.0
557.0,500.0,574.0,514.0,516.0
529.0,513.0,624.0,529.0,514.0
518.0,522.0,626.0,553.0,527.0
545.0,532.0,584.0,445.0,537.0
516.0,528.0,575.0,488.0,567.0
526.0,533.0,569.0,519.0,562.0
520.0,521.0,519.0,548.0,538.0
521.0,522.0,507.0,585.0,520.0
525.0,495.0,480.0,576.0,497.0
536.0,481.0,475.0,539.0,461.0
527.0,471.0,494.0,544.0,454.0
539.0,490.0,530.0,515.0,454.0
508.0,480.0,539.0,480.0,471.0
501.0,501.0,562.0,507.0,481.0
499.0,505.0,570.0,546.0,529.0
489.0,501.0,569.0,517.0,530.0
477.0,508.0,561.0,484.0,562.0
489.0,531.0,564.0,495.0,566.0
492.0,545.0,543.0,497.0,541.0
484.0,539.0,506.0,489.0,536.0
496.0,533.0,477.0,447.0,540.0
545.0,521.0,470.0,485.0,533.0
530.0,515.0,497.0,511.0,538.0
513.0,507.0,540.0,567.0,544.0
533.0,495.0,538.0,526.0,556.0
542.0,504.0,549.0,466.0,538.0
492.0,506.0,582.0,461.0,522.0
486.0,508.0,589.0,520.0,496.0
461.0,499.0,573.0,550.0,502.0
438.0,495.0,538.0,547.0,524.0
507.0,495.0,514.0,575.0,511.0
527.0,496.0,503.0,558.0,518.0
520.0,496.0,494.0,519.0,517.0
499.0,491.0,499.0,510.0,519.0
499.0,494.0,503.0,472.0,518.0
472.0,505.0,508.0,486.0,530.0
487.0,517.0,514.0,492.0,538.0
509.0,516.0,517.0,477.0,537.0
520.0,516.0,515.0,474.0,567.0
536.0,524.0,524.0,512.0,563.0
489.0,507.0,510.0,583.0,549.0
415.0,487.0,494.0,534.0,531.0
416.0,492.0,494.0,494.0,488.0
448.0,503.0,498.0,487.0,477.0
520.0,508.0,510.0,516.0,481.0
623.0,525.0,528.0,553.0,466.0
667.0,551.0,563.0,614.0,453.0
620.0,540.0,575.0,610.0,472.0
570.0,512.0,546.0,549.0,487.0
532.0,484.0,497.0,510.0,491.0
516.0,481.0,484.0,488.0,502.0
535.0,501.0,477.0,491.0,507.0
532.0,507.0,485.0,495.0,528.0
524.0,508.0,497.0,480.0,537.0
527.0,509.0,480.0,493.0,567.0
515.0,500.0,489.0,501.0,544.0
515.0,498.0,509.0,527.0,523.0
537.0,507.0,492.0,520.0,516.0
522.0,505.0,493.0,520.0,522.0
530.0,512.0,489.0,473.0,501.0
543.0,513.0,483.0,501.0,494.0
534.0,503.0,478.0,533.0,491.0
525.0,494.0,482.0,544.0,496.0
511.0,483.0,481.0,547.0,496.0
485.0,481.0,498.0,516.0,515.0
444.0,483.0,509.0,502.0,543.0
436.0,487.0,524.0,487.0,539.0
419.0,483.0,533.0,510.0,557.0
509.0,508.0,497.0,477.0,534.0
549.0,515.0,481.0,469.0,526.0
513.0,481.0,467.0,482.0,525.0
551.0,447.0,434.0,482.0,490.0
571.0,427.0,466.0,522.0,486.0
546.0,432.0,521.0,525.0,501.0
539.0,440.0,532.0,531.0,508.0
533.0,432.0,494.0,518.0,505.0
529.0,459.0,505.0,518.0,503.0
526.0,481.0,509.0,540.0,506.0
534.0,521.0,503.0,518.0,474.0
524.0,537.0,539.0,526.0,473.0
505.0,553.0,579.0,559.0,484.0
501.0,530.0,550.0,528.0,523.0
498.0,523.0,552.0,507.0,520.0
491.0,531.0,567.0,515.0,521.0
505.0,548.0,559.0,510.0,532.0
525.0,565.0,558.0,486.0,532.0
515.0,564.0,567.0,516.0,533.0
507.0,547.0,552.0,524.0,538.0
535.0,551.0,525.0,499.0,550.0
538.0,559.0,522.0,490.0,529.0
527.0,549.0,522.0,502.0,522.0
529.0,528.0,492.0,492.0,535.0
522.0,522.0,512.0,502.0,530.0
526.0,522.0,513.0,509.0,511.0
531.0,521.0,537.0,544.0,487.0
520.0,529.0,582.0,587.0,473.0
513.0,526.0,566.0,591.0,479.0
506.0,515.0,541.0,559.0,482.0
495.0,508.0,512.0,555.0,512.0
488.0,502.0,473.0,515.0,530.0
492.0,516.0,501.0,507.0,534.0
498.0,522.0,512.0,485.0,520.0
505.0,516.0,507.0,523.0,515.0
486.0,513.0,522.0,555.0,530.0
463.0,521.0,526.0,550.0,537.0
450.0,525.0,536.0,559.0,544.0
457.0,519.0,530.0,496.0,521.0
457.0,510.0,526.0,505.0,516.0
518.0,503.0,528.0,460.0,520.0
600.0,520.0,535.0,462.0,534.0
568.0,515.0,529.0,511.0,548.0
548.0,517.0,527.0,541.0,531.0
541.0,516.0,548.0,545.0,476.0
533.0,508.0,536.0,552.0,470.0
530.0,500.0,525.0,532.0,483.0
509.0,495.0,501.0,508.0,494.0
486.0,488.0,489.0,490.0,509.0
471.0,490.0,491.0,479.0,529.0
474.0,504.0,499.0,482.0,538.0
463.0,505.0,503.0,490.0,553.0
488.0,512.0,501.0,481.0,559.0
515.0,523.0,509.0,475.0,559.0
529.0,527.0,511.0,465.0,556.0
558.0,527.0,524.0,490.0,548.0
597.0,529.0,523.0,507.0,517.0
548.0,522.0,528.0,511.0,522.0
532.0,517.0,529.0,535.0,498.0
519.0,515.0,532.0,559.0,459.0
505.0,505.0,539.0,575.0,471.0
495.0,493.0,516.0,562.0,505.0
510.0,496.0,512.0,527.0,492.0
496.0,492.0,505.0,534.0,494.0
510.0,494.0,502.0,521.0,518.0
551.0,504.0,502.0,506.0,501.0
567.0,513.0,508.0,544.0,505.0
559.0,516.0,507.0,531.0,508.0
543.0,517.0,511.0,516.0,509.0
530.0,517.0,516.0,499.0,546.0
520.0,500.0,504.0,460.0,552.0
513.0,483.0,501.0,476.0,550.0
504.0,481.0,499.0,491.0,544.0
517.0,494.0,514.0,507.0,516.0
519.0,501.0,515.0,523.0,482.0
547.0,505.0,532.0,537.0,476.0
542.0,486.0,527.0,530.0,479.0
523.0,454.0,512.0,539.0,492.0
516.0,450.0,496.0,532.0,498.0
500.0,451.0,492.0,525.0,508.0
489.0,455.0,485.0,498.0,515.0
487.0,479.0,476.0,489.0,517.0
508.0,511.0,460.0,493.0,513.0
522.0,526.0,489.0,510.0,502.0
522.0,484.0,489.0,526.0,524.0
525.0,479.0,503.0,533.0,537.0
514.0,478.0,500.0,515.0,524.0
510.0,489.0,482.0,502.0,530.0
506.0,487.0,446.0,456.0,539.0
503.0,500.0,474.0,494.0,540.0
508.0,515.0,493.0,537.0,521.0
514.0,542.0,526.0,530.0,505.0
512.0,505.0,560.0,511.0,488.0
515.0,481.0,565.0,491.0,495.0
522.0,456.0,571.0,525.0,469.0
502.0,426.0,549.0,537.0,479.0
500.0,441.0,543.0,540.0,489.0
501.0,451.0,524.0,534.0,486.0
500.0,469.0,507.0,513.0,497.0
502.0,499.0,530.0,506.0,523.0
507.0,540.0,529.0,513.0,534.0
503.0,545.0,498.0,487.0,564.0
509.0,543.0,524.0,501.0,573.0
516.0,536.0,519.0,490.0,554.0
517.0,539.0,508.0,489.0,548.0
522.0,525.0,519.0,507.0,529.0
512.0,519.0,487.0,516.0,529.0
521.0,524.0,510.0,500.0,509.0
525.0,533.0,527.0,516.0,497.0
532.0,549.0,552.0,544.0,493.0
532.0,534.0,573.0,555.0,493.0
522.0,522.0,565.0,553.0,513.0
511.0,505.0,526.0,537.0,515.0
506.0,497.0,516.0,537.0,505.0
503.0,504.0,519.0,532.0,501.0
505.0,505.0,520.0,521.0,522.0
505.0,502.0,513.0,510.0,528.0
513.0,512.0,516.0,511.0,527.0
521.0,530.0,522.0,506.0,520.0
523.0,542.0,524.0,507.0,517.0
518.0,529.0,517.0,498.0,526.0
522.0,523.0,517.0,503.0,528.0
523.0,528.0,528.0,514.0,515.0
524.0,525.0,533.0,520.0,507.0
521.0,525.0,533.0,524.0,508.0
532.0,521.0,543.0,536.0,501.0
524.0,514.0,545.0,542.0,503.0
513.0,505.0,535.0,540.0,517.0
497.0,498.0,519.0,533.0,527.0
491.0,494.0,520.0,529.0,528.0
481.0,491.0,503.0,521.0,542.0
476.0,492.0,496.0,500.0,547.0
487.0,500.0,499.0,500.0,536.0
536.0,514.0,509.0,508.0,532.0
519.0,525.0,513.0,501.0,547.0
497.0,518.0,513.0,502.0,543.0
494.0,508.0,513.0,497.0,536.0
475.0,504.0,509.0,500.0,537.0
470.0,505.0,512.0,497.0,535.0
487.0,510.0,515.0,504.0,525.0
482.0,505.0,521.0,513.0,522.0
501.0,515.0,533.0,525.0,515.0
531.0,515.0,539.0,536.0,499.0
541.0,511.0,538.0,541.0,493.0
574.0,508.0,531.0,540.0,493.0
578.0,497.0,521.0,536.0,494.0
558.0,491.0,510.0,528.0,480.0
545.0,493.0,507.0,519.0,500.0
529.0,499.0,505.0,519.0,500.0
533.0,506.0,505.0,521.0,514.0
533.0,510.0,513.0,523.0,531.0
531.0,520.0,517.0,500.0,539.0
515.0,514.0,512.0,498.0,555.0
522.0,514.0,513.0,497.0,548.0
508.0,502.0,508.0,505.0,551.0
506.0,508.0,503.0,505.0,524.0
504.0,508.0,512.0,507.0,505.0
545.0,511.0,522.0,519.0,494.0
521.0,506.0,523.0,527.0,493.0
504.0,499.0,524.0,531.0,484.0
490.0,491.0,526.0,539.0,489.0
500.0,488.0,519.0,529.0,489.0
493.0,483.0,511.0,521.0,484.0
556.0,495.0,510.0,524.0,478.0
564.0,495.0,503.0,516.0,492.0
524.0,487.0,495.0,506.0,518.0
522.0,494.0,496.0,491.0,520.0
519.0,497.0,509.0,509.0,536.0
518.0,492.0,516.0,514.0,545.0
523.0,489.0,510.0,511.0,550.0
519.0,482.0,503.0,503.0,550.0
509.0,485.0,505.0,507.0,552.0
518.0,493.0,522.0,508.0,525.0
527.0,489.0,535.0,522.0,503.0
531.0,507.0,545.0,528.0,514.0
534.0,501.0,534.0,526.0,480.0
524.0,471.0,516.0,533.0,464.0
518.0,469.0,508.0,536.0,463.0
514.0,496.0,515.0,535.0,484.0
509.0,485.0,529.0,530.0,504.0
494.0,481.0,523.0,518.0,519.0
499.0,491.0,520.0,502.0,524.0
503.0,485.0,519.0,494.0,529.0
499.0,459.0,503.0,493.0,537.0
499.0,462.0,487.0,487.0,548.0
511.0,500.0,519.0,488.0,541.0
509.0,510.0,470.0,495.0,545.0
514.0,533.0,494.0,514.0,537.0
523.0,542.0,517.0,527.0,528.0
519.0,537.0,497.0,499.0,527.0
521.0,528.0,513.0,508.0,516.0
526.0,533.0,533.0,519.0,510.0
528.0,539.0,536.0,530.0,508.0
531.0,526.0,526.0,535.0,488.0
516.0,518.0,518.0,534.0,494.0
516.0,507.0,508.0,530.0,498.0
509.0,498.0,496.0,521.0,510.0
496.0,504.0,482.0,505.0,531.0
500.0,522.0,482.0,503.0,543.0
504.0,511.0,488.0,501.0,535.0
501.0,512.0,498.0,496.0,540.0
504.0,521.0,531.0,501.0,534.0
510.0,517.0,526.0,511.0,530.0
520.0,518.0,519.0,503.0,527.0
516.0,515.0,513.0,502.0,536.0
513.0,521.0,523.0,509.0,540.0
522.0,511.0,533.0,524.0,528.0
524.0,506.0,542.0,532.0,501.0
523.0,504.0,547.0,542.0,491.0
521.0,496.0,537.0,543.0,478.0
526.0,501.0,532.0,540.0,473.0
527.0,515.0,525.0,538.0,482.0
512.0,508.0,525.0,534.0,492.0
499.0,500.0,510.0,532.0,518.0
504.0,493.0,496.0,517.0,532.0
500.0,500.0,493.0,507.0,533.0
508.0,505.0,498.0,511.0,527.0
511.0,511.0,504.0,508.0,524.0
508.0,521.0,508.0,505.0,533.0
516.0,531.0,515.0,500.0,554.0
517.0,535.0,522.0,503.0,551.0
515.0,522.0,515.0,503.0,543.0
523.0,516.0,519.0,508.0,536.0
523.0,513.0,522.0,514.0,531.0
530.0,513.0,524.0,523.0,514.0
534.0,512.0,534.0,536.0,490.0
532.0,508.0,531.0,540.0,490.0
522.0,504.0,528.0,537.0,490.0
509.0,498.0,529.0,542.0,493.0
510.0,492.0,513.0,534.0,501.0
502.0,486.0,504.0,518.0,509.0
504.0,494.0,504.0,512.0,512.0
507.0,497.0,499.0,507.0,527.0
513.0,504.0,503.0,504.0,530.0
510.0,510.0,507.0,503.0,530.0
512.0,517.0,510.0,502.0,531.0
520.0,518.0,512.0,498.0,541.0
530.0,518.0,511.0,500.0,536.0
522.0,516.0,520.0,508.0,537.0
515.0,510.0,520.0,511.0,533.0
519.0,509.0,521.0,519.0,544.0
530.0,511.0,523.0,528.0,515.0
534.0,511.0,533.0,537.0,501.0
526.0,510.0,537.0,545.0,493.0
510.0,496.0,522.0,531.0,492.0
503.0,488.0,513.0,532.0,484.0
508.0,488.0,509.0,525.0,490.0
501.0,482.0,501.0,517.0,508.0
493.0,486.0,500.0,512.0,517.0
505.0,497.0,502.0,506.0,525.0
517.0,506.0,505.0,500.0,529.0
527.0,512.0,507.0,497.0,535.0
525.0,514.0,507.0,496.0,548.0
517.0,513.0,510.0,495.0,541.0
504.0,509.0,513.0,516.0,544.0
517.0,514.0,515.0,500.0,533.0
519.0,512.0,519.0,503.0,529.0
510.0,507.0,516.0,512.0,519.0
510.0,509.0,526.0,525.0,500.0
526.0,510.0,534.0,537.0,482.0
530.0,498.0,528.0,540.0,477.0
516.0,490.0,519.0,536.0,491.0
496.0,492.0,514.0,528.0,522.0
498.0,489.0,504.0,518.0,507.0
508.0,487.0,503.0,518.0,509.0
509.0,500.0,508.0,521.0,514.0
505.0,501.0,507.0,517.0,533.0
505.0,501.0,504.0,513.0,519.0
508.0,505.0,506.0,509.0,527.0
516.0,500.0,502.0,505.0,528.0
517.0,501.0,498.0,498.0,524.0
512.0,519.0,504.0,494.0,534.0
525.0,533.0,518.0,497.0,528.0
532.0,515.0,516.0,505.0,517.0
525.0,512.0,527.0,522.0,518.0
523.0,507.0,530.0,531.0,511.0
518.0,505.0,525.0,538.0,494.0
511.0,497.0,526.0,541.0,493.0
499.0,490.0,518.0,534.0,492.0
503.0,496.0,511.0,525.0,500.0
506.0,500.0,505.0,514.0,507.0
504.0,496.0,502.0,512.0,517.0
505.0,500.0,501.0,506.0,525.0
508.0,507.0,505.0,507.0,533.0
509.0,511.0,502.0,498.0,535.0
510.0,519.0,508.0,496.0,538.0
516.0,517.0,511.0,500.0,530.0
520.0,508.0,507.0,502.0,525.0
524.0,507.0,511.0,500.0,522.0
523.0,514.0,518.0,506.0,520.0
519.0,513.0,521.0,509.0,511.0
522.0,508.0,528.0,524.0,496.0
524.0,506.0,530.0,537.0,499.0
532.0,500.0,528.0,553.0,488.0
515.0,487.0,525.0,542.0,511.0
501.0,478.0,511.0,538.0,512.0
501.0,475.0,507.0,533.0,505.0
498.0,466.0,496.0,519.0,496.0
504.0,478.0,492.0,500.0,502.0
497.0,488.0,496.0,495.0,523.0
505.0,505.0,501.0,496.0,518.0
507.0,517.0,503.0,502.0,534.0
509.0,514.0,508.0,504.0,561.0
517.0,517.0,508.0,500.0,521.0
522.0,523.0,515.0,502.0,515.0
522.0,525.0,514.0,505.0,497.0
526.0,519.0,519.0,510.0,506.0
527.0,516.0,511.0,514.0,526.0
530.0,525.0,517.0,523.0,517.0
512.0,512.0,515.0,528.0,536.0
514.0,505.0,512.0,527.0,495.0
517.0,497.0,511.0,532.0,462.0
508.0,490.0,518.0,533.0,473.0
510.0,483.0,527.0,526.0,482.0
496.0,478.0,512.0,518.0,508.0
494.0,481.0,517.0,504.0,538.0
498.0,489.0,528.0,506.0,583.0
512.0,507.0,529.0,495.0,605.0
520.0,526.0,527.0,502.0,571.0
522.0,529.0,518.0,500.0,554.0
515.0,521.0,488.0,489.0,546.0
515.0,516.0,500.0,499.0,542.0
525.0,517.0,514.0,514.0,505.0
535.0,512.0,521.0,518.0,504.0
525.0,509.0,523.0,518.0,518.0
517.0,514.0,528.0,527.0,521.0
527.0,519.0,531.0,528.0,515.0
530.0,512.0,537.0,542.0,488.0
519.0,501.0,534.0,547.0,478.0
494.0,484.0,523.0,535.0,469.0
486.0,480.0,513.0,527.0,472.0
491.0,488.0,503.0,537.0,485.0
494.0,493.0,483.0,510.0,503.0
504.0,506.0,487.0,502.0,520.0
517.0,528.0,503.0,500.0,534.0
518.0,533.0,506.0,499.0,557.0
521.0,523.0,509.0,491.0,555.0
521.0,514.0,514.0,494.0,548.0
523.0,513.0,522.0,504.0,517.0
526.0,514.0,532.0,520.0,493.0
520.0,507.0,535.0,529.0,494.0
526.0,500.0,538.0,537.0,500.0
520.0,486.0,528.0,541.0,502.0
498.0,485.0,509.0,540.0,478.0
499.0,493.0,506.0,523.0,482.0
504.0,492.0,506.0,515.0,478.0
508.0,496.0,500.0,515.0,490.0
512.0,496.0,493.0,513.0,486.0
506.0,496.0,501.0,512.0,494.0
512.0,507.0,506.0,507.0,503.0
512.0,510.0,506.0,507.0,505.0
513.0,508.0,508.0,504.0,517.0
502.0,504.0,501.0,494.0,543.0
502.0,522.0,510.0,494.0,538.0
498.0,519.0,507.0,498.0,540.0
520.0,521.0,515.0,506.0,533.0
530.0,514.0,518.0,512.0,530.0
532.0,503.0,520.0,522.0,524.0
532.0,514.0,527.0,527.0,501.0
533.0,513.0,529.0,533.0,479.0
529.0,500.0,524.0,539.0,466.0
513.0,488.0,517.0,528.0,463.0
496.0,481.0,508.0,522.0,495.0
494.0,478.0,500.0,520.0,516.0
495.0,483.0,498.0,514.0,507.0
501.0,495.0,500.0,512.0,510.0
497.0,506.0,503.0,509.0,532.0
508.0,511.0,506.0,503.0,541.0
511.0,518.0,510.0,496.0,540.0
511.0,514.0,509.0,495.0,545.0
516.0,512.0,508.0,495.0,534.0
517.0,517.0,514.0,500.0,525.0
520.0,524.0,517.0,506.0,511.0
524.0,524.0,525.0,515.0,509.0
531.0,519.0,531.0,523.0,509.0
528.0,514.0,532.0,536.0,505.0
516.0,505.0,529.0,537.0,499.0
517.0,500.0,527.0,541.0,503.0
509.0,497.0,522.0,542.0,496.0
502.0,492.0,513.0,535.0,490.0
497.0,484.0,499.0,525.0,502.0
496.0,491.0,497.0,513.0,511.0
498.0,495.0,495.0,504.0,504.0
502.0,501.0,499.0,514.0,511.0
504.0,508.0,500.0,494.0,535.0
514.0,519.0,507.0,485.0,542.0
512.0,518.0,510.0,490.0,566.0
502.0,517.0,513.0,492.0,582.0
509.0,520.0,525.0,501.0,558.0
515.0,520.0,521.0,501.0,524.0
521.0,520.0,531.0,517.0,507.0
518.0,508.0,532.0,530.0,500.0
519.0,500.0,523.0,532.0,482.0
520.0,510.0,529.0,538.0,446.0
517.0,505.0,527.0,540.0,456.0
510.0,493.0,515.0,533.0,503.0
508.0,490.0,508.0,532.0,486.0
509.0,489.0,495.0,511.0,476.0
523.0,495.0,494.0,504.0,464.0
516.0,501.0,498.0,506.0,500.0
515.0,510.0,503.0,501.0,545.0
517.0,512.0,507.0,501.0,526.0
516.0,518.0,513.0,501.0,514.0
513.0,518.0,505.0,492.0,540.0
511.0,512.0,497.0,484.0,519.0
514.0,508.0,494.0,488.0,542.0
513.0,508.0,493.0,490.0,577.0
520.0,507.0,501.0,500.0,530.0
526.0,504.0,509.0,517.0,499.0
524.0,502.0,533.0,532.0,503.0
517.0,499.0,542.0,548.0,499.0
517.0,500.0,536.0,547.0,487.0
515.0,491.0,522.0,531.0,476.0
506.0,472.0,508.0,519.0,503.0
502.0,472.0,499.0,509.0,516.0
505.0,485.0,501.0,505.0,528.0
509.0,493.0,529.0,500.0,536.0
513.0,508.0,536.0,500.0,538.0
509.0,524.0,535.0,499.0,541.0
501.0,541.0,530.0,495.0,533.0
500.0,519.0,503.0,498.0,536.0
500.0,505.0,481.0,500.0,540.0
520.0,510.0,510.0,511.0,518.0
526.0,507.0,518.0,519.0,493.0
520.0,501.0,514.0,516.0,492.0
525.0,501.0,518.0,522.0,485.0
529.0,500.0,521.0,529.0,482.0
517.0,488.0,514.0,527.0,495.0
509.0,488.0,515.0,529.0,509.0
510.0,497.0,506.0,526.0,508.0
504.0,489.0,498.0,519.0,514.0
498.0,493.0,496.0,520.0,530.0
501.0,504.0,501.0,524.0,542.0
500.0,512.0,503.0,514.0,536.0
509.0,510.0,503.0,511.0,518.0
522.0,516.0,509.0,511.0,525.0
520.0,509.0,508.0,506.0,527.0
518.0,509.0,508.0,500.0,523.0
522.0,519.0,522.0,505.0,513.0
527.0,522.0,519.0,511.0,506.0
520.0,514.0,520.0,516.0,511.0
523.0,517.0,526.0,526.0,511.0
519.0,517.0,531.0,531.0,515.0
512.0,508.0,529.0,537.0,511.0
507.0,501.0,522.0,531.0,498.0
507.0,491.0,513.0,531.0,492.0
503.0,488.0,509.0,528.0,488.0
499.0,489.0,507.0,521.0,495.0
510.0,491.0,499.0,515.0,487.0
504.0,494.0,500.0,507.0,512.0
496.0,515.0,508.0,503.0,518.0
505.0,525.0,508.0,497.0,536.0
508.0,519.0,509.0,488.0,572.0
516.0,517.0,511.0,491.0,565.0
529.0,518.0,512.0,497.0,533.0
528.0,514.0,515.0,500.0,510.0
526.0,514.0,513.0,504.0,524.0
523.0,507.0,514.0,512.0,517.0
533.0,507.0,523.0,526.0,503.0
530.0,505.0,524.0,536.0,502.0
515.0,500.0,522.0,534.0,488.0
502.0,496.0,518.0,539.0,482.0
502.0,491.0,508.0,530.0,499.0
493.0,488.0,511.0,527.0,515.0
489.0,485.0,506.0,518.0,535.0
494.0,490.0,499.0,504.0,536.0
498.0,495.0,500.0,489.0,534.0
515.0,501.0,505.0,490.0,512.0
518.0,508.0,504.0,496.0,517.0
519.0,526.0,515.0,498.0,517.0
521.0,530.0,508.0,496.0,542.0
522.0,518.0,512.0,501.0,533.0
519.0,512.0,513.0,500.0,547.0
517.0,511.0,519.0,514.0,524.0
519.0,510.0,525.0,523.0,506.0
518.0,509.0,530.0,534.0,508.0
523.0,505.0,530.0,545.0,488.0
520.0,498.0,522.0,539.0,482.0
509.0,491.0,512.0,535.0,489.0
511.0,494.0,509.0,533.0,501.0
495.0,481.0,494.0,515.0,514.0
501.0,488.0,494.0,509.0,526.0
505.0,497.0,496.0,506.0,521.0
509.0,502.0,507.0,501.0,499.0
509.0,504.0,521.0,503.0,481.0
508.0,511.0,518.0,497.0,515.0
514.0,521.0,519.0,485.0,518.0
521.0,512.0,507.0,487.0,544.0
521.0,505.0,505.0,492.0,545.0
516.0,506.0,510.0,504.0,512.0
522.0,510.0,517.0,515.0,510.0
527.0,505.0,522.0,519.0,497.0
526.0,504.0,526.0,531.0,513.0
525.0,509.0,527.0,537.0,495.0
516.0,497.0,520.0,531.0,493.0
507.0,491.0,510.0,521.0,505.0
502.0,491.0,504.0,524.0,490.0
498.0,490.0,497.0,530.0,501.0
493.0,490.0,494.0,516.0,509.0
504.0,502.0,501.0,512.0,500.0
514.0,513.0,508.0,512.0,512.0
508.0,522.0,509.0,503.0,539.0
516.0,524.0,513.0,504.0,524.0
513.0,518.0,510.0,502.0,514.0
511.0,513.0,508.0,498.0,522.0
515.0,516.0,515.0,504.0,537.0
520.0,508.0,518.0,512.0,524.0
525.0,508.0,509.0,517.0,514.0
527.0,508.0,506.0,522.0,497.0
521.0,506.0,516.0,530.0,483.0
513.0,505.0,507.0,527.0,474.0
512.0,498.0,510.0,529.0,468.0
506.0,494.0,513.0,521.0,480.0
499.0,488.0,520.0,517.0,499.0
498.0,486.0,506.0,518.0,521.0
500.0,498.0,506.0,519.0,558.0
506.0,509.0,513.0,524.0,540.0
505.0,515.0,512.0,518.0,529.0
516.0,518.0,513.0,496.0,534.0
519.0,520.0,518.0,487.0,549.0
512.0,517.0,516.0,490.0,546.0
512.0,517.0,519.0,499.0,535.0
513.0,512.0,518.0,502.0,530.0
519.0,510.0,521.0,508.0,520.0
525.0,509.0,523.0,514.0,509.0
527.0,507.0,527.0,525.0,502.0
531.0,507.0,529.0,534.0,489.0
523.0,499.0,523.0,536.0,480.0
515.0,493.0,520.0,533.0,489.0
508.0,488.0,508.0,530.0,484.0
498.0,485.0,500.0,520.0,505.0
499.0,493.0,500.0,512.0,525.0
496.0,502.0,500.0,506.0,527.0
497.0,506.0,503.0,501.0,518.0
512.0,516.0,510.0,499.0,529.0
513.0,516.0,509.0,496.0,532.0
514.0,517.0,509.0,493.0,522.0
509.0,520.0,511.0,491.0,552.0
511.0,515.0,516.0,500.0,538.0
517.0,512.0,517.0,506.0,524.0
519.0,509.0,523.0,512.0,514.0
529.0,508.0,523.0,522.0,500.0
520.0,507.0,523.0,530.0,488.0
518.0,501.0,525.0,535.0,487.0
512.0,495.0,514.0,530.0,491.0
506.0,492.0,505.0,527.0,504.0
505.0,490.0,506.0,523.0,531.0
498.0,489.0,498.0,514.0,551.0
500.0,493.0,495.0,508.0,556.0
502.0,495.0,499.0,501.0,550.0
519.0,510.0,504.0,505.0,490.0
525.0,516.0,509.0,508.0,502.0
522.0,519.0,512.0,508.0,499.0
515.0,517.0,513.0,506.0,494.0
512.0,510.0,507.0,500.0,507.0
517.0,508.0,510.0,500.0,492.0
514.0,509.0,515.0,498.0,485.0
518.0,508.0,519.0,506.0,466.0
523.0,503.0,526.0,521.0,472.0
518.0,502.0,532.0,528.0,534.0
519.0,504.0,527.0,529.0,525.0
522.0,499.0,518.0,533.0,505.0
503.0,488.0,507.0,531.0,504.0
492.0,489.0,505.0,525.0,509.0
495.0,491.0,501.0,518.0,511.0
501.0,498.0,499.0,507.0,529.0
498.0,503.0,501.0,501.0,537.0
507.0,511.0,504.0,498.0,534.0
516.0,515.0,510.0,497.0,543.0
516.0,515.0,513.0,498.0,540.0
512.0,513.0,514.0,498.0,544.0
510.0,508.0,515.0,497.0,543.0
516.0,509.0,518.0,505.0,531.0
520.0,512.0,520.0,514.0,502.0
526.0,516.0,525.0,521.0,483.0
536.0,518.0,530.0,532.0,474.0
530.0,507.0,527.0,534.0,472.0
518.0,496.0,518.0,532.0,473.0
513.0,494.0,512.0,529.0,491.0
503.0,489.0,507.0,522.0,512.0
501.0,490.0,501.0,512.0,504.0
507.0,492.0,499.0,508.0,482.0
511.0,502.0,498.0,505.0,498.0
520.0,510.0,503.0,500.0,539.0
517.0,516.0,506.0,497.0,559.0
507.0,516.0,510.0,499.0,554.0
508.0,517.0,512.0,496.0,532.0
512.0,515.0,512.0,500.0,532.0
515.0,512.0,516.0,499.0,524.0
515.0,509.0,512.0,505.0,533.0
516.0,512.0,518.0,518.0,519.0
519.0,511.0,527.0,528.0,508.0
520.0,505.0,523.0,533.0,497.0
515.0,502.0,525.0,540.0,491.0
507.0,496.0,523.0,537.0,495.0
503.0,494.0,512.0,528.0,509.0
503.0,489.0,507.0,525.0,514.0
498.0,489.0,501.0,518.0,511.0
496.0,492.0,497.0,506.0,513.0
502.0,503.0,501.0,502.0,519.0
510.0,514.0,506.0,504.0,517.0
515.0,515.0,505.0,502.0,526.0
515.0,520.0,510.0,497.0,542.0
512.0,517.0,512.0,496.0,543.0
512.0,513.0,511.0,499.0,530.0
513.0,511.0,514.0,503.0,525.0
518.0,509.0,517.0,505.0,519.0
521.0,507.0,516.0,514.0,508.0
522.0,508.0,525.0,525.0,497.0
524.0,506.0,527.0,526.0,492.0
513.0,502.0,525.0,536.0,494.0
511.0,499.0,519.0,533.0,501.0
502.0,491.0,508.0,527.0,500.0
500.0,485.0,501.0,522.0,497.0
497.0,487.0,498.0,515.0,503.0
503.0,496.0,502.0,505.0,514.0
501.0,502.0,499.0,498.0,535.0
511.0,509.0,506.0,498.0,541.0
509.0,514.0,507.0,499.0,533.0
518.0,520.0,514.0,498.0,534.0
516.0,516.0,508.0,496.0,525.0
514.0,513.0,511.0,497.0,526.0
513.0,510.0,516.0,503.0,520.0
517.0,511.0,521.0,511.0,513.0
519.0,512.0,524.0,520.0,513.0
520.0,513.0,530.0,529.0,513.0
528.0,506.0,527.0,535.0,507.0
525.0,502.0,525.0,537.0,510.0
516.0,490.0,509.0,528.0,511.0
505.0,484.0,508.0,527.0,500.0
496.0,489.0,503.0,520.0,512.0
498.0,492.0,499.0,510.0,518.0
499.0,498.0,500.0,505.0,511.0
502.0,511.0,505.0,502.0,506.0
507.0,513.0,506.0,496.0,517.0
511.0,516.0,511.0,496.0,522.0
514.0,516.0,514.0,502.0,525.0
513.0,513.0,512.0,498.0,534.0
516.0,519.0,518.0,503.0,527.0
518.0,511.0,518.0,508.0,522.0
523.0,507.0,522.0,516.0,506.0
530.0,509.0,526.0,525.0,504.0
525.0,508.0,530.0,531.0,485.0
517.0,497.0,527.0,535.0,471.0
512.0,495.0,515.0,538.0,492.0
509.0,490.0,509.0,532.0,499.0
504.0,489.0,504.0,524.0,503.0
502.0,489.0,497.0,518.0,519.0
500.0,495.0,496.0,507.0,522.0
499.0,501.0,504.0,504.0,516.0
514.0,512.0,506.0,502.0,511.0
516.0,516.0,509.0,498.0,523.0
514.0,520.0,511.0,496.0,553.0
509.0,515.0,513.0,500.0,544.0
513.0,512.0,512.0,502.0,520.0
519.0,512.0,519.0,504.0,531.0
521.0,511.0,519.0,508.0,518.0
525.0,512.0,523.0,518.0,507.0
528.0,507.0,528.0,528.0,494.0
529.0,503.0,528.0,533.0,496.0
517.0,495.0,525.0,533.0,498.0
517.0,497.0,517.0,528.0,493.0
509.0,492.0,510.0,527.0,503.0
502.0,488.0,501.0,519.0,517.0
501.0,491.0,498.0,514.0,516.0
501.0,497.0,497.0,508.0,519.0
504.0,504.0,505.0,506.0,522.0
510.0,511.0,509.0,507.0,522.0
518.0,515.0,510.0,497.0,535.0
512.0,520.0,516.0,505.0,542.0
507.0,518.0,516.0,507.0,543.0
504.0,512.0,514.0,508.0,533.0
507.0,513.0,517.0,511.0,526.0
511.0,506.0,512.0,508.0,512.0
517.0,506.0,522.0,502.0,516.0
534.0,513.0,533.0,520.0,501.0
529.0,506.0,528.0,530.0,507.0
522.0,498.0,522.0,533.0,515.0
512.0,493.0,514.0,530.0,516.0
509.0,490.0,509.0,524.0,503.0
511.0,487.0,501.0,515.0,490.0
506.0,484.0,494.0,507.0,514.0
495.0,496.0,499.0,505.0,512.0
495.0,509.0,505.0,501.0,509.0
506.0,516.0,508.0,495.0,525.0
518.0,517.0,512.0,497.0,522.0
516.0,516.0,512.0,494.0,533.0
513.0,511.0,504.0,493.0,538.0
514.0,514.0,517.0,505.0,532.0
518.0,513.0,520.0,509.0,519.0
519.0,509.0,523.0,515.0,508.0
527.0,514.0,529.0,525.0,490.0
530.0,507.0,526.0,531.0,472.0
528.0,504.0,528.0,538.0,465.0
514.0,500.0,522.0,538.0,475.0
505.0,493.0,515.0,531.0,495.0
502.0,489.0,505.0,521.0,525.0
502.0,486.0,499.0,513.0,527.0
501.0,494.0,501.0,508.0,521.0
502.0,503.0,502.0,505.0,524.0
506.0,511.0,507.0,503.0,534.0
510.0,515.0,510.0,500.0,534.0
516.0,518.0,512.0,497.0,533.0
516.0,515.0,512.0,495.0,525.0
512.0,513.0,512.0,496.0,527.0
514.0,511.0,515.0,503.0,527.0
517.0,511.0,519.0,508.0,519.0
520.0,511.0,522.0,516.0,509.0
523.0,510.0,526.0,527.0,496.0
524.0,506.0,529.0,535.0,490.0
518.0,503.0,526.0,538.0,489.0
510.0,497.0,521.0,536.0,492.0
507.0,492.0,514.0,529.0,494.0
500.0,487.0,504.0,518.0,498.0
500.0,495.0,499.0,515.0,507.0
503.0,498.0,499.0,508.0,519.0
507.0,506.0,503.0,504.0,525.0
513.0,514.0,504.0,500.0,532.0
513.0,517.0,510.0,499.0,537.0
516.0,518.0,513.0,498.0,533.0
510.0,513.0,510.0,495.0,541.0
515.0,514.0,512.0,496.0,542.0
518.0,508.0,514.0,501.0,525.0
523.0,507.0,521.0,509.0,516.0
515.0,508.0,524.0,520.0,507.0
519.0,503.0,527.0,527.0,513.0
522.0,503.0,527.0,532.0,500.0
515.0,498.0,521.0,536.0,495.0
513.0,492.0,513.0,530.0,490.0
507.0,490.0,509.0,529.0,491.0
503.0,490.0,505.0,520.0,501.0
497.0,491.0,498.0,509.0,511.0
503.0,500.0,496.0,505.0,514.0
508.0,509.0,504.0,500.0,528.0
510.0,511.0,506.0,496.0,535.0
514.0,518.0,511.0,497.0,532.0
513.0,516.0,514.0,494.0,537.0
507.0,511.0,507.0,492.0,539.0
516.0,513.0,515.0,499.0,538.0
513.0,514.0,521.0,506.0,530.0
516.0,510.0,521.0,512.0,527.0
518.0,507.0,526.0,529.0,506.0
522.0,506.0,528.0,535.0,490.0
514.0,502.0,527.0,545.0,489.0
503.0,491.0,519.0,535.0,498.0
503.0,492.0,511.0,530.0,504.0
506.0,492.0,510.0,525.0,496.0
502.0,491.0,504.0,519.0,506.0
494.0,489.0,498.0,505.0,512.0
511.0,501.0,503.0,504.0,513.0
514.0,512.0,508.0,507.0,529.0
512.0,517.0,506.0,497.0,528.0
517.0,517.0,507.0,496.0,546.0
523.0,518.0,513.0,496.0,552.0
526.0,516.0,514.0,495.0,546.0
520.0,513.0,518.0,496.0,540.0
521.0,507.0,515.0,506.0,526.0
530.0,508.0,522.0,513.0,508.0
524.0,511.0,533.0,527.0,498.0
519.0,505.0,528.0,536.0,482.0
518.0,499.0,524.0,536.0,489.0
508.0,493.0,515.0,531.0,499.0
504.0,491.0,512.0,528.0,502.0
497.0,490.0,502.0,519.0,497.0
496.0,489.0,498.0,511.0,490.0
507.0,498.0,500.0,505.0,501.0
509.0,508.0,510.0,505.0,533.0
511.0,511.0,509.0,492.0,567.0
516.0,516.0,519.0,497.0,545.0
526.0,517.0,514.0,495.0,527.0
519.0,514.0,511.0,497.0,528.0
513.0,509.0,513.0,496.0,538.0
515.0,508.0,510.0,500.0,531.0
520.0,510.0,520.0,512.0,508.0
516.0,508.0,525.0,519.0,510.0
523.0,508.0,528.0,529.0,487.0
523.0,505.0,525.0,539.0,482.0
514.0,498.0,523.0,538.0,489.0
505.0,489.0,512.0,531.0,494.0
508.0,490.0,507.0,524.0,502.0
499.0,488.0,500.0,519.0,514.0
499.0,493.0,500.0,510.0,527.0
499.0,499.0,500.0,506.0,534.0
506.0,505.0,504.0,501.0,532.0
515.0,512.0,511.0,497.0,532.0
520.0,517.0,511.0,495.0,527.0
525.0,516.0,511.0,501.0,515.0
521.0,516.0,513.0,498.0,528.0
517.0,517.0,518.0,505.0,523.0
522.0,510.0,519.0,508.0,520.0
520.0,506.0,518.0,512.0,513.0
518.0,507.0,524.0,523.0,498.0
524.0,509.0,532.0,533.0,483.0
518.0,504.0,527.0,535.0,486.0
515.0,498.0,521.0,534.0,494.0
503.0,489.0,512.0,529.0,503.0
503.0,490.0,508.0,525.0,501.0
501.0,490.0,502.0,518.0,509.0
497.0,493.0,497.0,507.0,521.0
501.0,500.0,502.0,504.0,528.0
509.0,507.0,507.0,500.0,533.0
511.0,512.0,508.0,495.0,545.0
516.0,517.0,513.0,494.0,544.0
516.0,516.0,513.0,494.0,539.0
516.0,515.0,514.0,494.0,542.0
522.0,512.0,517.0,499.0,535.0
515.0,510.0,519.0,509.0,524.0
521.0,509.0,521.0,516.0,513.0
527.0,507.0,531.0,527.0,504.0
521.0,504.0,529.0,533.0,499.0
509.0,496.0,525.0,535.0,499.0
505.0,492.0,516.0,534.0,496.0
501.0,491.0,515.0,529.0,502.0
504.0,487.0,504.0,517.0,516.0
502.0,489.0,500.0,512.0,523.0
504.0,498.0,497.0,505.0,520.0
509.0,504.0,503.0,505.0,520.0
511.0,508.0,507.0,503.0,519.0
515.0,512.0,512.0,500.0,523.0
514.0,522.0,518.0,501.0,532.0
509.0,514.0,514.0,497.0,539.0
513.0,512.0,514.0,500.0,527.0
518.0,511.0,518.0,506.0,517.0
516.0,513.0,521.0,512.0,513.0
520.0,510.0,526.0,523.0,503.0
528.0,512.0,532.0,530.0,502.0
524.0,506.0,529.0,536.0,491.0
520.0,503.0,527.0,539.0,491.0
509.0,490.0,517.0,533.0,497.0
496.0,489.0,508.0,522.0,510.0
499.0,490.0,504.0,520.0,517.0
496.0,493.0,502.0,519.0,524.0
503.0,502.0,501.0,508.0,531.0
505.0,506.0,507.0,499.0,537.0
510.0,515.0,511.0,496.0,532.0
520.0,518.0,515.0,495.0,536.0
515.0,517.0,514.0,494.0,539.0
516.0,515.0,515.0,500.0,540.0
520.0,513.0,517.0,501.0,532.0
514.0,514.0,518.0,501.0,540.0
513.0,510.0,524.0,512.0,534.0
515.0,512.0,529.0,526.0,503.0
518.0,511.0,533.0,533.0,492.0
520.0,506.0,528.0,536.0,484.0
519.0,500.0,523.0,535.0,476.0
509.0,494.0,516.0,528.0,487.0
502.0,488.0,507.0,520.0,513.0
497.0,489.0,501.0,509.0,524.0
497.0,492.0,499.0,503.0,519.0
502.0,501.0,501.0,502.0,526.0
511.0,514.0,505.0,502.0,530.0
517.0,520.0,512.0,501.0,533.0
513.0,518.0,513.0,500.0,536.0
518.0,515.0,513.0,497.0,535.0
519.0,514.0,511.0,496.0,534.0
521.0,511.0,516.0,501.0,527.0
523.0,509.0,518.0,508.0,519.0
524.0,507.0,522.0,517.0,509.0
526.0,508.0,526.0,527.0,497.0
526.0,502.0,534.0,535.0,486.0
518.0,500.0,527.0,538.0,483.0
509.0,495.0,518.0,541.0,495.0
506.0,492.0,511.0,529.0,508.0
500.0,489.0,503.0,520.0,511.0
493.0,488.0,498.0,510.0,528.0
495.0,492.0,496.0,504.0,533.0
495.0,504.0,499.0,501.0,541.0
497.0,512.0,507.0,503.0,547.0
505.0,514.0,511.0,494.0,536.0
513.0,517.0,512.0,494.0,538.0
515.0,514.0,511.0,496.0,533.0
512.0,509.0,508.0,494.0,529.0
518.0,508.0,515.0,506.0,520.0
518.0,510.0,522.0,512.0,521.0
517.0,506.0,522.0,518.0,513.0
525.0,505.0,525.0,529.0,491.0
521.0,497.0,527.0,535.0,486.0
516.0,502.0,526.0,539.0,480.0
510.0,492.0,513.0,534.0,479.0
506.0,491.0,510.0,528.0,499.0
503.0,489.0,502.0,514.0,512.0
505.0,493.0,500.0,512.0,526.0
517.0,501.0,505.0,507.0,526.0
518.0,515.0,506.0,509.0,525.0
516.0,514.0,509.0,500.0,536.0
513.0,518.0,512.0,499.0,541.0
511.0,515.0,505.0,495.0,526.0
509.0,516.0,512.0,500.0,521.0
518.0,510.0,514.0,502.0,513.0
525.0,511.0,519.0,511.0,507.0
527.0,508.0,521.0,517.0,499.0
531.0,507.0,521.0,521.0,502.0
533.0,507.0,523.0,531.0,493.0
521.0,500.0,525.0,539.0,485.0
517.0,498.0,522.0,539.0,489.0
506.0,492.0,512.0,532.0,496.0
498.0,490.0,506.0,529.0,490.0
496.0,495.0,503.0,519.0,512.0
490.0,492.0,498.0,510.0,524.0
498.0,504.0,503.0,504.0,535.0
509.0,514.0,505.0,499.0,539.0
514.0,515.0,509.0,497.0,533.0
514.0,516.0,510.0,498.0,537.0
515.0,516.0,507.0,497.0,532.0
517.0,514.0,512.0,501.0,534.0
512.0,514.0,516.0,503.0,529.0
513.0,513.0,524.0,511.0,521.0
515.0,508.0,520.0,514.0,514.0
521.0,509.0,525.0,524.0,503.0
524.0,506.0,527.0,535.0,496.0
514.0,500.0,524.0,539.0,493.0
515.0,495.0,516.0,538.0,492.0
506.0,494.0,509.0,533.0,494.0
497.0,487.0,502.0,520.0,500.0
500.0,492.0,499.0,516.0,509.0
504.0,499.0,501.0,508.0,517.0
511.0,504.0,504.0,505.0,528.0
513.0,511.0,507.0,502.0,534.0
517.0,516.0,510.0,498.0,542.0
513.0,517.0,511.0,493.0,545.0
511.0,516.0,513.0,495.0,548.0
514.0,512.0,514.0,492.0,537.0
517.0,512.0,521.0,507.0,528.0
520.0,511.0,524.0,517.0,520.0
517.0,508.0,524.0,520.0,510.0
522.0,507.0,528.0,527.0,499.0
520.0,504.0,525.0,536.0,487.0
513.0,500.0,519.0,533.0,497.0
509.0,498.0,512.0,527.0,504.0
500.0,488.0,504.0,529.0,510.0
497.0,489.0,497.0,517.0,515.0
498.0,493.0,495.0,509.0,525.0
501.0,504.0,500.0,505.0,526.0
508.0,504.0,501.0,500.0,530.0
507.0,508.0,505.0,496.0,531.0
514.0,518.0,512.0,498.0,532.0
521.0,514.0,514.0,495.0,536.0
518.0,512.0,512.0,498.0,531.0
515.0,512.0,517.0,500.0,531.0
517.0,512.0,524.0,508.0,522.0
517.0,510.0,520.0,514.0,513.0
522.0,507.0,525.0,523.0,502.0
524.0,512.0,531.0,533.0,489.0
519.0,504.0,528.0,538.0,495.0
511.0,497.0,522.0,535.0,495.0
503.0,490.0,512.0,529.0,500.0
502.0,489.0,507.0,524.0,506.0
497.0,490.0,503.0,515.0,512.0
500.0,499.0,504.0,509.0,513.0
508.0,502.0,505.0,506.0,512.0
510.0,512.0,510.0,504.0,524.0
508.0,515.0,512.0,501.0,533.0
508.0,516.0,510.0,494.0,546.0
512.0,514.0,508.0,499.0,541.0
515.0,512.0,511.0,497.0,533.0
520.0,509.0,517.0,506.0,513.0
524.0,514.0,526.0,514.0,511.0
521.0,512.0,522.0,520.0,520.0
526.0,511.0,530.0,530.0,507.0
526.0,505.0,528.0,532.0,499.0
521.0,499.0,521.0,532.0,500.0
517.0,494.0,515.0,527.0,498.0
514.0,492.0,512.0,528.0,499.0
503.0,487.0,508.0,522.0,503.0
499.0,488.0,500.0,515.0,512.0
501.0,497.0,499.0,507.0,515.0
504.0,500.0,506.0,505.0,526.0
512.0,517.0,510.0,503.0,532.0
518.0,517.0,513.0,501.0,535.0
519.0,519.0,515.0,497.0,537.0
514.0,514.0,513.0,496.0,540.0
516.0,515.0,513.0,497.0,534.0
519.0,510.0,518.0,506.0,531.0
522.0,510.0,522.0,511.0,515.0
524.0,508.0,525.0,520.0,497.0
520.0,506.0,528.0,528.0,488.0
524.0,504.0,534.0,535.0,479.0
519.0,500.0,523.0,536.0,480.0
513.0,491.0,517.0,531.0,492.0
504.0,491.0,509.0,530.0,495.0
498.0,487.0,500.0,523.0,509.0
499.0,490.0,501.0,509.0,517.0
499.0,499.0,503.0,506.0,512.0
507.0,509.0,509.0,506.0,522.0
514.0,513.0,508.0,499.0,532.0
515.0,516.0,512.0,502.0,542.0
520.0,515.0,513.0,496.0,549.0
516.0,511.0,511.0,498.0,540.0
516.0,514.0,512.0,502.0,528.0
520.0,509.0,518.0,507.0,526.0
511.0,507.0,523.0,517.0,514.0
509.0,509.0,527.0,529.0,488.0
511.0,505.0,529.0,535.0,491.0
518.0,502.0,524.0,535.0,483.0
518.0,493.0,516.0,533.0,485.0
510.0,487.0,510.0,528.0,482.0
506.0,486.0,503.0,521.0,483.0
498.0,488.0,500.0,516.0,496.0
496.0,490.0,497.0,509.0,514.0
506.0,500.0,499.0,499.0,522.0
510.0,509.0,501.0,500.0,523.0
515.0,512.0,509.0,500.0,525.0
516.0,513.0,512.0,497.0,540.0
516.0,514.0,511.0,493.0,543.0
518.0,512.0,511.0,499.0,536.0
520.0,512.0,516.0,505.0,528.0
522.0,508.0,520.0,509.0,520.0
517.0,506.0,520.0,516.0,506.0
516.0,509.0,527.0,530.0,491.0
523.0,507.0,530.0,541.0,477.0
513.0,499.0,526.0,539.0,479.0
512.0,496.0,519.0,536.0,482.0
505.0,490.0,510.0,529.0,494.0
500.0,486.0,501.0,520.0,506.0
498.0,490.0,500.0,514.0,513.0
500.0,501.0,502.0,508.0,519.0
507.0,504.0,502.0,503.0,522.0
523.0,514.0,509.0,503.0,523.0
519.0,516.0,511.0,499.0,526.0
520.0,516.0,511.0,500.0,520.0
524.0,517.0,515.0,503.0,517.0
515.0,515.0,515.0,507.0,529.0
518.0,511.0,515.0,502.0,522.0
519.0,508.0,517.0,508.0,527.0
520.0,510.0,524.0,517.0,523.0
524.0,510.0,526.0,524.0,505.0
519.0,503.0,527.0,536.0,490.0
509.0,500.0,526.0,541.0,480.0
506.0,493.0,518.0,535.0,480.0
501.0,492.0,510.0,528.0,490.0
497.0,487.0,500.0,517.0,502.0
498.0,491.0,497.0,510.0,517.0
499.0,499.0,501.0,503.0,525.0
512.0,509.0,505.0,502.0,529.0
514.0,514.0,512.0,501.0,532.0
517.0,518.0,515.0,503.0,529.0
516.0,514.0,511.0,498.0,524.0
517.0,514.0,514.0,496.0,528.0
516.0,515.0,515.0,504.0,525.0
515.0,511.0,518.0,506.0,523.0
522.0,510.0,521.0,515.0,506.0
526.0,509.0,527.0,525.0,496.0
527.0,508.0,529.0,535.0,488.0
525.0,504.0,528.0,539.0,484.0
515.0,497.0,521.0,535.0,486.0
509.0,492.0,513.0,530.0,496.0
503.0,491.0,503.0,523.0,509.0
499.0,492.0,500.0,516.0,516.0
500.0,494.0,501.0,508.0,522.0
504.0,499.0,500.0,504.0,529.0
506.0,508.0,506.0,499.0,533.0
515.0,517.0,511.0,499.0,535.0
513.0,518.0,510.0,498.0,536.0
511.0,514.0,510.0,496.0,530.0
510.0,509.0,508.0,497.0,529.0
518.0,508.0,514.0,502.0,524.0
516.0,510.0,517.0,510.0,525.0
519.0,508.0,524.0,522.0,514.0
528.0,509.0,530.0,531.0,496.0
525.0,506.0,528.0,533.0,489.0
518.0,498.0,521.0,533.0,491.0
506.0,491.0,512.0,532.0,498.0
504.0,486.0,508.0,529.0,510.0
501.0,490.0,504.0,520.0,509.0
497.0,491.0,498.0,512.0,518.0
496.0,497.0,496.0,506.0,519.0
505.0,503.0,501.0,503.0,520.0
512.0,513.0,509.0,500.0,515.0
517.0,515.0,510.0,499.0,526.0
521.0,518.0,513.0,497.0,531.0
521.0,515.0,512.0,501.0,532.0
519.0,513.0,514.0,500.0,531.0
517.0,508.0,512.0,503.0,521.0
524.0,508.0,517.0,512.0,515.0
527.0,510.0,523.0,528.0,499.0
528.0,508.0,528.0,533.0,492.0
521.0,506.0,531.0,539.0,488.0
516.0,498.0,521.0,539.0,483.0
508.0,490.0,513.0,532.0,488.0
500.0,491.0,510.0,531.0,484.0
497.0,491.0,503.0,522.0,490.0
498.0,492.0,498.0,517.0,512.0
502.0,501.0,501.0,507.0,540.0
505.0,508.0,505.0,506.0,536.0
511.0,514.0,508.0,502.0,534.0
516.0,519.0,515.0,499.0,538.0
517.0,516.0,511.0,496.0,527.0
521.0,517.0,513.0,497.0,527.0
519.0,512.0,514.0,502.0,524.0
519.0,508.0,515.0,507.0,519.0
520.0,508.0,519.0,516.0,512.0
523.0,511.0,529.0,526.0,512.0
525.0,512.0,537.0,536.0,496.0
521.0,504.0,525.0,539.0,497.0
516.0,501.0,522.0,536.0,495.0
507.0,493.0,515.0,533.0,504.0
505.0,489.0,511.0,526.0,509.0
499.0,490.0,501.0,519.0,521.0
496.0,492.0,501.0,507.0,522.0
499.0,499.0,502.0,504.0,523.0
505.0,511.0,506.0,501.0,516.0
512.0,514.0,511.0,498.0,517.0
515.0,519.0,514.0,499.0,525.0
517.0,515.0,512.0,497.0,529.0
513.0,514.0,511.0,498.0,526.0
514.0,511.0,511.0,502.0,524.0
525.0,510.0,521.0,512.0,515.0
529.0,513.0,527.0,522.0,497.0
522.0,509.0,529.0,531.0,488.0
520.0,502.0,533.0,542.0,478.0
520.0,500.0,528.0,536.0,473.0
511.0,490.0,516.0,530.0,486.0
504.0,490.0,510.0,528.0,495.0
499.0,490.0,502.0,524.0,505.0
490.0,490.0,499.0,513.0,520.0
495.0,496.0,500.0,507.0,526.0
503.0,502.0,505.0,502.0,528.0
508.0,512.0,508.0,503.0,526.0
515.0,518.0,513.0,496.0,534.0
523.0,517.0,513.0,498.0,539.0
516.0,513.0,511.0,494.0,548.0
509.0,509.0,512.0,495.0,554.0
515.0,512.0,515.0,501.0,536.0
526.0,511.0,523.0,518.0,517.0
526.0,512.0,528.0,522.0,507.0
524.0,508.0,531.0,530.0,497.0
516.0,500.0,526.0,534.0,492.0
511.0,497.0,523.0,533.0,492.0
505.0,491.0,509.0,530.0,495.0
497.0,488.0,507.0,525.0,497.0
489.0,488.0,500.0,517.0,508.0
490.0,488.0,496.0,513.0,523.0
494.0,497.0,500.0,503.0,529.0
508.0,513.0,508.0,508.0,525.0
510.0,515.0,510.0,503.0,524.0
518.0,518.0,514.0,501.0,518.0
514.0,520.0,511.0,497.0,521.0
513.0,513.0,507.0,496.0,524.0
512.0,518.0,517.0,502.0,543.0
520.0,514.0,520.0,506.0,525.0
522.0,510.0,520.0,514.0,516.0
527.0,514.0,533.0,527.0,504.0
525.0,510.0,531.0,538.0,490.0
520.0,501.0,526.0,538.0,486.0
511.0,498.0,520.0,535.0,488.0
504.0,489.0,512.0,531.0,495.0
499.0,490.0,507.0,526.0,508.0
496.0,489.0,503.0,516.0,517.0
501.0,490.0,497.0,505.0,523.0
503.0,502.0,503.0,504.0,530.0
513.0,515.0,509.0,503.0,535.0
520.0,519.0,513.0,501.0,537.0
520.0,520.0,513.0,498.0,538.0
520.0,515.0,511.0,496.0,532.0
517.0,514.0,515.0,498.0,529.0
516.0,519.0,519.0,505.0,527.0
515.0,511.0,521.0,510.0,523.0
515.0,510.0,524.0,519.0,506.0
524.0,504.0,530.0,528.0,490.0
525.0,511.0,530.0,536.0,482.0
517.0,502.0,528.0,536.0,498.0
511.0,496.0,516.0,533.0,501.0
504.0,490.0,510.0,529.0,504.0
498.0,490.0,504.0,522.0,513.0
494.0,491.0,502.0,511.0,514.0
500.0,498.0,501.0,507.0,521.0
509.0,506.0,505.0,504.0,527.0
514.0,510.0,510.0,501.0,533.0
516.0,519.0,512.0,500.0,532.0
523.0,519.0,515.0,499.0,533.0
518.0,514.0,510.0,497.0,530.0
517.0,520.0,516.0,502.0,518.0
512.0,511.0,520.0,503.0,519.0
520.0,511.0,526.0,509.0,518.0
521.0,511.0,531.0,522.0,505.0
523.0,510.0,532.0,533.0,496.0
518.0,504.0,526.0,540.0,491.0
516.0,500.0,524.0,536.0,487.0
510.0,495.0,509.0,528.0,481.0
506.0,492.0,505.0,530.0,493.0
497.0,487.0,501.0,517.0,519.0
501.0,492.0,497.0,509.0,515.0
503.0,500.0,497.0,504.0,523.0
515.0,511.0,509.0,502.0,529.0
507.0,510.0,505.0,497.0,536.0
515.0,519.0,513.0,500.0,540.0
516.0,519.0,518.0,499.0,542.0
510.0,515.0,511.0,493.0,538.0
514.0,512.0,515.0,503.0,530.0
515.0,510.0,517.0,509.0,515.0
520.0,511.0,522.0,522.0,510.0
521.0,510.0,525.0,524.0,505.0
521.0,507.0,528.0,534.0,501.0
516.0,500.0,524.0,536.0,498.0
507.0,497.0,518.0,532.0,497.0
506.0,492.0,511.0,528.0,510.0
504.0,491.0,503.0,523.0,504.0
503.0,490.0,500.0,516.0,510.0
503.0,502.0,502.0,514.0,519.0
503.0,507.0,505.0,508.0,530.0
505.0,515.0,509.0,503.0,532.0
510.0,518.0,509.0,499.0,538.0
512.0,519.0,512.0,497.0,536.0
514.0,520.0,513.0,496.0,536.0
506.0,513.0,510.0,500.0,531.0
517.0,510.0,512.0,498.0,527.0
522.0,508.0,518.0,509.0,522.0
522.0,507.0,520.0,519.0,515.0
525.0,510.0,524.0,528.0,504.0
525.0,507.0,528.0,539.0,503.0
521.0,506.0,524.0,536.0,491.0
512.0,494.0,515.0,533.0,505.0
506.0,492.0,510.0,528.0,515.0
498.0,483.0,501.0,517.0,527.0
502.0,492.0,498.0,511.0,529.0
501.0,498.0,495.0,504.0,518.0
509.0,504.0,500.0,501.0,509.0
517.0,518.0,508.0,503.0,509.0
516.0,519.0,513.0,499.0,526.0
516.0,519.0,513.0,498.0,528.0
514.0,517.0,511.0,494.0,540.0
513.0,516.0,511.0,496.0,539.0
516.0,513.0,517.0,504.0,535.0
514.0,510.0,520.0,514.0,524.0
520.0,512.0,525.0,517.0,508.0
523.0,509.0,528.0,526.0,498.0
519.0,510.0,527.0,533.0,494.0
517.0,502.0,524.0,537.0,492.0
513.0,495.0,519.0,532.0,493.0
499.0,488.0,509.0,525.0,494.0
494.0,488.0,498.0,516.0,502.0
496.0,495.0,499.0,509.0,514.0
499.0,501.0,500.0,505.0,524.0
505.0,509.0,505.0,502.0,530.0
510.0,516.0,508.0,498.0,533.0
513.0,522.0,514.0,494.0,534.0
514.0,518.0,512.0,499.0,534.0
517.0,513.0,511.0,496.0,529.0
517.0,516.0,514.0,501.0,525.0
518.0,514.0,516.0,507.0,520.0
520.0,512.0,519.0,514.0,509.0
522.0,509.0,524.0,523.0,504.0
522.0,507.0,527.0,532.0,498.0
518.0,500.0,524.0,535.0,493.0
515.0,498.0,518.0,533.0,492.0
509.0,491.0,509.0,527.0,499.0
500.0,489.0,505.0,525.0,503.0
497.0,486.0,495.0,511.0,517.0
498.0,495.0,495.0,505.0,524.0
503.0,503.0,504.0,503.0,525.0
509.0,510.0,506.0,502.0,533.0
515.0,519.0,508.0,497.0,539.0
516.0,517.0,511.0,495.0,539.0
518.0,516.0,510.0,496.0,541.0
517.0,513.0,510.0,498.0,537.0
522.0,513.0,516.0,503.0,524.0
515.0,509.0,517.0,512.0,516.0
515.0,506.0,520.0,517.0,509.0
520.0,507.0,525.0,526.0,498.0
521.0,505.0,529.0,536.0,483.0
521.0,501.0,524.0,542.0,488.0
516.0,496.0,516.0,535.0,495.0
512.0,492.0,509.0,528.0,503.0
505.0,489.0,503.0,521.0,522.0
503.0,495.0,500.0,514.0,527.0
503.0,501.0,500.0,502.0,522.0
502.0,504.0,501.0,499.0,524.0
506.0,515.0,507.0,499.0,521.0
515.0,517.0,514.0,499.0,522.0
521.0,518.0,514.0,497.0,527.0
514.0,515.0,517.0,499.0,527.0
514.0,513.0,512.0,498.0,530.0
516.0,514.0,517.0,504.0,532.0
518.0,512.0,521.0,515.0,518.0
526.0,513.0,526.0,524.0,500.0
527.0,514.0,528.0,532.0,488.0
524.0,509.0,526.0,536.0,490.0
517.0,501.0,521.0,535.0,483.0
505.0,495.0,514.0,531.0,489.0
502.0,490.0,512.0,527.0,499.0
497.0,490.0,503.0,515.0,502.0
494.0,494.0,504.0,510.0,510.0
505.0,500.0,504.0,508.0,519.0
512.0,510.0,503.0,503.0,524.0
517.0,514.0,506.0,503.0,532.0
518.0,518.0,511.0,501.0,537.0
522.0,519.0,514.0,502.0,528.0
514.0,516.0,509.0,501.0,532.0
512.0,513.0,513.0,495.0,529.0
517.0,514.0,518.0,506.0,525.0
518.0,515.0,522.0,515.0,520.0
521.0,507.0,526.0,524.0,508.0
520.0,508.0,528.0,533.0,499.0
516.0,502.0,526.0,537.0,495.0
505.0,493.0,517.0,533.0,494.0
506.0,487.0,508.0,529.0,487.0
508.0,487.0,503.0,529.0,495.0
509.0,490.0,498.0,515.0,512.0
506.0,492.0,497.0,507.0,518.0
514.0,508.0,505.0,505.0,524.0
515.0,514.0,507.0,501.0,532.0
513.0,516.0,507.0,500.0,532.0
514.0,514.0,513.0,500.0,526.0
511.0,516.0,516.0,502.0,535.0
515.0,515.0,517.0,498.0,535.0
516.0,513.0,519.0,503.0,531.0
521.0,510.0,519.0,504.0,520.0
522.0,508.0,518.0,506.0,509.0
525.0,512.0,527.0,521.0,503.0
523.0,506.0,523.0,538.0,504.0
519.0,501.0,524.0,539.0,495.0
507.0,490.0,512.0,526.0,499.0
498.0,490.0,509.0,527.0,498.0
490.0,486.0,499.0,518.0,511.0
495.0,493.0,501.0,514.0,513.0
503.0,502.0,500.0,506.0,521.0
505.0,505.0,502.0,501.0,526.0
512.0,511.0,506.0,498.0,528.0
512.0,515.0,509.0,500.0,529.0
513.0,520.0,513.0,498.0,529.0
515.0,517.0,510.0,495.0,530.0
511.0,517.0,514.0,499.0,533.0
516.0,510.0,515.0,504.0,526.0
519.0,514.0,520.0,514.0,517.0
524.0,514.0,521.0,524.0,507.0
522.0,513.0,530.0,532.0,501.0
520.0,512.0,527.0,532.0,501.0
514.0,504.0,523.0,535.0,501.0
511.0,500.0,517.0,533.0,502.0
508.0,496.0,511.0,529.0,492.0
503.0,492.0,500.0,516.0,496.0
503.0,500.0,501.0,514.0,510.0
505.0,506.0,499.0,503.0,523.0
510.0,514.0,504.0,507.0,523.0
513.0,521.0,507.0,497.0,525.0
519.0,522.0,511.0,498.0,526.0
515.0,520.0,511.0,498.0,526.0
521.0,518.0,512.0,497.0,527.0
519.0,516.0,514.0,505.0,523.0
520.0,513.0,517.0,502.0,521.0
521.0,513.0,520.0,514.0,513.0
525.0,512.0,528.0,525.0,503.0
525.0,511.0,528.0,533.0,492.0
525.0,508.0,532.0,536.0,492.0
516.0,503.0,520.0,538.0,503.0
510.0,496.0,511.0,529.0,511.0
498.0,491.0,504.0,523.0,516.0
496.0,493.0,500.0,516.0,521.0
504.0,498.0,504.0,511.0,521.0
502.0,504.0,504.0,506.0,520.0
508.0,515.0,509.0,508.0,519.0
514.0,520.0,512.0,502.0,500.0
516.0,521.0,514.0,500.0,502.0
517.0,516.0,513.0,495.0,515.0
516.0,516.0,513.0,496.0,525.0
512.0,512.0,513.0,500.0,544.0
522.0,516.0,519.0,511.0,530.0
525.0,514.0,520.0,522.0,520.0
524.0,511.0,527.0,525.0,514.0
523.0,512.0,528.0,531.0,506.0
519.0,503.0,523.0,535.0,500.0
511.0,496.0,515.0,527.0,498.0
506.0,493.0,510.0,529.0,483.0
502.0,493.0,504.0,521.0,487.0
494.0,495.0,497.0,512.0,503.0
499.0,501.0,499.0,507.0,516.0
504.0,506.0,502.0,500.0,522.0
511.0,515.0,508.0,499.0,524.0
518.0,518.0,512.0,499.0,528.0
519.0,521.0,513.0,498.0,532.0
513.0,519.0,515.0,499.0,533.0
515.0,515.0,514.0,500.0,533.0
523.0,515.0,518.0,505.0,523.0
529.0,513.0,521.0,514.0,512.0
528.0,511.0,526.0,522.0,507.0
524.0,505.0,525.0,526.0,500.0
514.0,498.0,522.0,531.0,493.0
510.0,498.0,523.0,533.0,484.0
503.0,491.0,514.0,531.0,486.0
501.0,489.0,506.0,526.0,496.0
492.0,485.0,498.0,519.0,513.0
490.0,490.0,496.0,505.0,522.0
500.0,499.0,495.0,503.0,524.0
508.0,509.0,501.0,500.0,526.0
510.0,513.0,508.0,498.0,535.0
514.0,520.0,512.0,495.0,534.0
509.0,514.0,511.0,498.0,539.0
511.0,510.0,511.0,497.0,536.0
509.0,506.0,514.0,497.0,532.0
521.0,510.0,517.0,506.0,521.0
521.0,506.0,521.0,515.0,505.0
524.0,506.0,526.0,524.0,498.0
528.0,506.0,527.0,533.0,488.0
529.0,500.0,521.0,535.0,492.0
513.0,494.0,517.0,536.0,496.0
508.0,493.0,511.0,533.0,497.0
500.0,486.0,501.0,522.0,501.0
499.0,490.0,500.0,518.0,512.0
503.0,494.0,499.0,509.0,520.0
506.0,501.0,501.0,509.0,528.0
508.0,509.0,506.0,501.0,534.0
516.0,514.0,509.0,498.0,533.0
520.0,519.0,517.0,499.0,528.0
519.0,514.0,510.0,496.0,528.0
512.0,511.0,510.0,502.0,536.0
518.0,509.0,515.0,501.0,531.0
518.0,508.0,518.0,508.0,522.0
518.0,508.0,522.0,523.0,513.0
522.0,510.0,529.0,529.0,501.0
523.0,502.0,527.0,535.0,489.0
519.0,499.0,524.0,541.0,486.0
510.0,494.0,517.0,534.0,496.0
507.0,487.0,508.0,527.0,495.0
504.0,487.0,505.0,519.0,505.0
497.0,491.0,502.0,511.0,516.0
499.0,498.0,500.0,509.0,527.0
506.0,508.0,509.0,504.0,527.0
512.0,511.0,506.0,501.0,530.0
518.0,516.0,510.0,498.0,529.0
516.0,519.0,516.0,500.0,536.0
514.0,516.0,511.0,496.0,537.0
516.0,513.0,515.0,500.0,535.0
516.0,510.0,516.0,502.0,526.0
518.0,509.0,521.0,515.0,512.0
520.0,507.0,525.0,522.0,502.0
520.0,505.0,527.0,529.0,495.0
521.0,504.0,525.0,535.0,493.0
516.0,500.0,522.0,536.0,487.0
505.0,491.0,511.0,530.0,494.0
501.0,488.0,506.0,527.0,503.0
503.0,485.0,493.0,513.0,517.0
505.0,489.0,493.0,507.0,521.0
505.0,499.0,500.0,509.0,526.0
511.0,506.0,504.0,498.0,533.0
516.0,514.0,508.0,499.0,537.0
520.0,517.0,510.0,497.0,535.0
519.0,515.0,511.0,496.0,536.0
514.0,510.0,510.0,495.0,531.0
511.0,512.0,515.0,501.0,526.0
511.0,508.0,519.0,508.0,521.0
513.0,507.0,520.0,515.0,517.0
516.0,507.0,525.0,525.0,508.0
517.0,503.0,527.0,532.0,492.0
516.0,498.0,523.0,535.0,472.0
513.0,496.0,516.0,533.0,469.0
506.0,488.0,509.0,526.0,479.0
503.0,491.0,504.0,527.0,486.0
494.0,486.0,496.0,516.0,505.0
496.0,490.0,496.0,501.0,524.0
506.0,500.0,501.0,500.0,535.0
512.0,509.0,505.0,498.0,536.0
516.0,510.0,507.0,495.0,529.0
519.0,514.0,509.0,495.0,530.0
521.0,512.0,509.0,494.0,536.0
524.0,513.0,513.0,497.0,528.0
527.0,511.0,514.0,503.0,523.0
524.0,510.0,520.0,507.0,527.0
525.0,512.0,523.0,514.0,510.0
526.0,507.0,528.0,529.0,494.0
530.0,505.0,530.0,537.0,487.0
517.0,502.0,525.0,538.0,492.0
496.0,493.0,517.0,536.0,495.0
492.0,490.0,513.0,532.0,503.0
494.0,487.0,502.0,518.0,511.0
493.0,488.0,498.0,507.0,512.0
499.0,497.0,501.0,508.0,512.0
503.0,506.0,507.0,502.0,515.0
507.0,511.0,507.0,497.0,521.0
511.0,515.0,513.0,498.0,529.0
515.0,516.0,513.0,497.0,532.0
514.0,519.0,513.0,497.0,531.0
519.0,515.0,516.0,498.0,523.0
521.0,514.0,519.0,506.0,518.0
523.0,512.0,521.0,512.0,512.0
522.0,508.0,525.0,523.0,510.0
526.0,511.0,529.0,526.0,509.0
520.0,506.0,529.0,536.0,501.0
511.0,496.0,521.0,535.0,489.0
503.0,488.0,512.0,528.0,491.0
501.0,489.0,515.0,528.0,489.0
498.0,487.0,505.0,518.0,503.0
496.0,490.0,495.0,508.0,522.0
499.0,499.0,500.0,505.0,532.0
506.0,509.0,507.0,501.0,529.0
510.0,515.0,509.0,499.0,533.0
518.0,518.0,512.0,496.0,533.0
516.0,514.0,512.0,495.0,527.0
517.0,511.0,513.0,497.0,527.0
518.0,513.0,517.0,503.0,524.0
520.0,509.0,518.0,508.0,518.0
520.0,506.0,520.0,515.0,516.0
525.0,509.0,527.0,525.0,502.0
521.0,506.0,529.0,532.0,495.0
518.0,502.0,525.0,535.0,488.0
515.0,497.0,519.0,534.0,490.0
509.0,493.0,512.0,528.0,499.0
501.0,486.0,503.0,521.0,510.0
501.0,492.0,500.0,515.0,515.0
504.0,497.0,503.0,508.0,514.0
503.0,506.0,503.0,503.0,520.0
509.0,515.0,509.0,503.0,532.0
510.0,516.0,512.0,504.0,537.0
512.0,517.0,511.0,495.0,537.0
513.0,512.0,509.0,496.0,534.0
513.0,514.0,511.0,496.0,533.0
518.0,511.0,513.0,501.0,527.0
518.0,511.0,519.0,510.0,518.0
522.0,509.0,524.0,516.0,514.0
526.0,506.0,522.0,525.0,501.0
529.0,507.0,527.0,534.0,487.0
517.0,496.0,522.0,534.0,491.0
513.0,494.0,515.0,527.0,500.0
505.0,490.0,507.0,525.0,505.0
