CH1,CH2,CH3,CH4,CH5
502.0,496.0,515.0,531.0,498.0
498.0,491.0,506.0,523.0,504.0
494.0,491.0,497.0,512.0,513.0
497.0,494.0,499.0,507.0,522.0
502.0,504.0,501.0,503.0,526.0
505.0,509.0,504.0,501.0,529.0
511.0,511.0,513.0,503.0,533.0
518.0,520.0,513.0,503.0,534.0
517.0,519.0,513.0,501.0,534.0
518.0,519.0,511.0,499.0,528.0
516.0,512.0,512.0,504.0,523.0
520.0,514.0,520.0,518.0,518.0
519.0,511.0,521.0,518.0,516.0
521.0,511.0,528.0,531.0,503.0
519.0,510.0,533.0,542.0,490.0
515.0,505.0,525.0,540.0,491.0
510.0,500.0,520.0,539.0,497.0
507.0,493.0,510.0,530.0,503.0
503.0,491.0,502.0,517.0,514.0
498.0,493.0,498.0,502.0,518.0
501.0,500.0,494.0,494.0,523.0
504.0,509.0,503.0,497.0,529.0
508.0,514.0,507.0,496.0,528.0
511.0,517.0,510.0,499.0,535.0
517.0,520.0,513.0,501.0,538.0
514.0,516.0,511.0,499.0,532.0
516.0,514.0,512.0,500.0,527.0
522.0,516.0,516.0,508.0,514.0
522.0,512.0,520.0,515.0,515.0
523.0,508.0,524.0,527.0,509.0
519.0,506.0,526.0,531.0,499.0
520.0,508.0,529.0,536.0,496.0
514.0,510.0,526.0,535.0,494.0
511.0,499.0,517.0,528.0,494.0
507.0,496.0,511.0,526.0,501.0
501.0,491.0,505.0,515.0,510.0
500.0,494.0,500.0,506.0,516.0
504.0,502.0,502.0,504.0,520.0
510.0,512.0,505.0,504.0,519.0
513.0,513.0,507.0,498.0,526.0
516.0,515.0,510.0,501.0,528.0
514.0,517.0,511.0,503.0,532.0
516.0,515.0,514.0,503.0,533.0
521.0,517.0,518.0,509.0,528.0
520.0,514.0,519.0,512.0,519.0
519.0,512.0,523.0,522.0,521.0
523.0,513.0,527.0,523.0,514.0
521.0,512.0,531.0,532.0,510.0
515.0,507.0,529.0,533.0,517.0
509.0,503.0,528.0,532.0,510.0
507.0,496.0,516.0,529.0,502.0
502.0,490.0,506.0,522.0,491.0
503.0,489.0,498.0,511.0,479.0
506.0,492.0,495.0,504.0,496.0
509.0,505.0,499.0,502.0,516.0
519.0,513.0,507.0,506.0,523.0
520.0,515.0,508.0,504.0,525.0
518.0,516.0,510.0,503.0,536.0
518.0,518.0,511.0,501.0,537.0
520.0,514.0,511.0,501.0,543.0
523.0,517.0,517.0,511.0,530.0
516.0,506.0,518.0,512.0,526.0
517.0,509.0,523.0,519.0,502.0
518.0,507.0,527.0,527.0,492.0
524.0,509.0,531.0,535.0,488.0
517.0,503.0,527.0,535.0,486.0
511.0,501.0,518.0,530.0,490.0
507.0,494.0,509.0,520.0,496.0
500.0,490.0,504.0,518.0,499.0
498.0,497.0,504.0,514.0,509.0
504.0,501.0,503.0,507.0,519.0
506.0,505.0,502.0,505.0,527.0
515.0,514.0,510.0,502.0,524.0
515.0,519.0,515.0,505.0,524.0
516.0,518.0,513.0,504.0,522.0
516.0,514.0,511.0,503.0,528.0
518.0,511.0,512.0,503.0,523.0
515.0,511.0,514.0,508.0,515.0
514.0,511.0,522.0,514.0,509.0
517.0,516.0,525.0,524.0,509.0
520.0,516.0,534.0,532.0,495.0
520.0,509.0,530.0,538.0,489.0
512.0,502.0,522.0,537.0,494.0
511.0,497.0,516.0,530.0,491.0
507.0,493.0,509.0,527.0,497.0
500.0,491.0,501.0,514.0,507.0
500.0,492.0,499.0,508.0,515.0
504.0,503.0,501.0,505.0,522.0
511.0,508.0,505.0,504.0,521.0
516.0,511.0,508.0,501.0,524.0
516.0,515.0,510.0,502.0,528.0
514.0,522.0,515.0,504.0,524.0
514.0,515.0,514.0,499.0,524.0
515.0,515.0,516.0,505.0,521.0
517.0,511.0,517.0,507.0,519.0
520.0,511.0,525.0,515.0,516.0
526.0,514.0,530.0,529.0,502.0
526.0,515.0,532.0,535.0,505.0
524.0,507.0,529.0,536.0,495.0
516.0,500.0,523.0,533.0,494.0
510.0,497.0,519.0,530.0,500.0
498.0,494.0,509.0,522.0,511.0
489.0,491.0,503.0,511.0,526.0
497.0,496.0,501.0,505.0,526.0
505.0,504.0,504.0,500.0,530.0
508.0,512.0,508.0,505.0,532.0
512.0,514.0,512.0,503.0,527.0
512.0,515.0,511.0,500.0,525.0
520.0,516.0,510.0,499.0,526.0
515.0,516.0,512.0,499.0,531.0
519.0,511.0,515.0,504.0,528.0
523.0,512.0,521.0,512.0,521.0
520.0,510.0,524.0,517.0,515.0
522.0,509.0,528.0,528.0,503.0
519.0,503.0,526.0,531.0,499.0
522.0,502.0,528.0,535.0,491.0
511.0,499.0,521.0,536.0,497.0
502.0,495.0,513.0,527.0,509.0
499.0,491.0,507.0,518.0,520.0
500.0,493.0,505.0,513.0,527.0
503.0,499.0,503.0,506.0,533.0
510.0,509.0,506.0,505.0,537.0
514.0,514.0,509.0,502.0,533.0
525.0,518.0,512.0,502.0,534.0
522.0,517.0,511.0,504.0,529.0
518.0,517.0,512.0,505.0,522.0
506.0,507.0,509.0,500.0,521.0
509.0,508.0,514.0,506.0,514.0
511.0,509.0,520.0,511.0,514.0
522.0,510.0,526.0,520.0,507.0
524.0,511.0,530.0,528.0,492.0
521.0,509.0,533.0,533.0,489.0
515.0,504.0,529.0,535.0,492.0
508.0,498.0,519.0,530.0,492.0
501.0,496.0,515.0,526.0,504.0
497.0,492.0,505.0,519.0,516.0
497.0,495.0,501.0,510.0,520.0
502.0,502.0,504.0,511.0,520.0
504.0,508.0,506.0,507.0,516.0
514.0,514.0,507.0,503.0,519.0
522.0,515.0,509.0,501.0,524.0
525.0,515.0,511.0,502.0,531.0
521.0,512.0,511.0,500.0,526.0
516.0,514.0,515.0,506.0,525.0
518.0,512.0,521.0,509.0,518.0
519.0,513.0,521.0,517.0,513.0
521.0,512.0,528.0,528.0,507.0
520.0,510.0,530.0,532.0,499.0
519.0,505.0,528.0,532.0,496.0
514.0,501.0,523.0,533.0,493.0
512.0,497.0,514.0,527.0,495.0
509.0,493.0,509.0,523.0,502.0
503.0,492.0,505.0,513.0,512.0
507.0,496.0,499.0,506.0,519.0
504.0,503.0,501.0,505.0,525.0
505.0,510.0,505.0,503.0,521.0
512.0,518.0,511.0,504.0,524.0
517.0,519.0,511.0,502.0,530.0
517.0,515.0,511.0,501.0,530.0
514.0,512.0,510.0,498.0,531.0
521.0,512.0,517.0,503.0,527.0
524.0,512.0,519.0,514.0,516.0
520.0,511.0,522.0,516.0,515.0
522.0,508.0,528.0,529.0,494.0
524.0,508.0,534.0,534.0,482.0
519.0,502.0,528.0,534.0,488.0
511.0,498.0,521.0,532.0,494.0
506.0,493.0,512.0,527.0,496.0
502.0,491.0,504.0,518.0,505.0
499.0,494.0,500.0,512.0,513.0
500.0,498.0,501.0,506.0,518.0
505.0,504.0,504.0,504.0,521.0
511.0,510.0,503.0,503.0,525.0
518.0,518.0,510.0,503.0,525.0
516.0,518.0,511.0,501.0,527.0
521.0,516.0,512.0,502.0,527.0
522.0,514.0,512.0,502.0,528.0
519.0,512.0,514.0,509.0,519.0
517.0,507.0,513.0,512.0,522.0
523.0,508.0,516.0,519.0,508.0
518.0,509.0,528.0,528.0,506.0
521.0,509.0,529.0,532.0,500.0
515.0,503.0,526.0,534.0,489.0
508.0,494.0,516.0,529.0,490.0
504.0,491.0,507.0,525.0,496.0
499.0,489.0,499.0,516.0,504.0
503.0,494.0,500.0,510.0,507.0
501.0,501.0,501.0,508.0,514.0
507.0,509.0,505.0,502.0,530.0
514.0,513.0,509.0,503.0,533.0
513.0,516.0,509.0,496.0,533.0
518.0,517.0,509.0,501.0,528.0
514.0,512.0,504.0,496.0,525.0
518.0,514.0,509.0,502.0,524.0
521.0,513.0,518.0,514.0,518.0
526.0,511.0,521.0,522.0,509.0
525.0,510.0,526.0,529.0,504.0
523.0,512.0,536.0,543.0,501.0
516.0,505.0,528.0,537.0,504.0
514.0,505.0,524.0,536.0,503.0
507.0,496.0,516.0,523.0,505.0
501.0,493.0,505.0,512.0,505.0
496.0,492.0,501.0,506.0,507.0
501.0,494.0,498.0,502.0,519.0
504.0,502.0,502.0,503.0,521.0
509.0,511.0,506.0,502.0,523.0
513.0,513.0,509.0,501.0,526.0
516.0,522.0,511.0,501.0,526.0
515.0,515.0,510.0,499.0,521.0
518.0,515.0,511.0,500.0,521.0
520.0,517.0,515.0,504.0,518.0
523.0,514.0,520.0,511.0,514.0
520.0,510.0,521.0,515.0,506.0
522.0,513.0,528.0,526.0,503.0
521.0,510.0,532.0,534.0,496.0
519.0,506.0,528.0,535.0,493.0
513.0,501.0,521.0,531.0,496.0
508.0,493.0,511.0,525.0,501.0
503.0,491.0,504.0,518.0,511.0
500.0,493.0,501.0,514.0,517.0
501.0,499.0,501.0,506.0,520.0
507.0,507.0,505.0,509.0,527.0
515.0,512.0,507.0,502.0,529.0
519.0,513.0,509.0,502.0,529.0
520.0,516.0,512.0,500.0,528.0
520.0,514.0,509.0,498.0,526.0
522.0,514.0,514.0,498.0,523.0
520.0,513.0,517.0,505.0,524.0
523.0,515.0,523.0,520.0,517.0
518.0,512.0,526.0,520.0,513.0
514.0,513.0,530.0,531.0,509.0
527.0,510.0,529.0,537.0,498.0
522.0,503.0,530.0,533.0,497.0
516.0,497.0,516.0,534.0,498.0
507.0,494.0,511.0,523.0,495.0
502.0,491.0,503.0,518.0,495.0
501.0,495.0,500.0,508.0,498.0
494.0,497.0,500.0,506.0,495.0
503.0,507.0,504.0,504.0,505.0
507.0,515.0,507.0,502.0,538.0
511.0,516.0,506.0,501.0,537.0
510.0,513.0,508.0,499.0,525.0
513.0,514.0,513.0,502.0,528.0
516.0,515.0,515.0,506.0,532.0
514.0,514.0,514.0,507.0,520.0
518.0,510.0,519.0,514.0,506.0
521.0,512.0,528.0,526.0,489.0
524.0,511.0,536.0,532.0,484.0
518.0,505.0,527.0,533.0,491.0
511.0,499.0,522.0,534.0,500.0
508.0,498.0,514.0,527.0,495.0
506.0,493.0,510.0,522.0,498.0
499.0,492.0,503.0,514.0,503.0
499.0,494.0,500.0,509.0,520.0
502.0,502.0,501.0,506.0,525.0
508.0,509.0,506.0,505.0,531.0
511.0,514.0,508.0,503.0,529.0
513.0,519.0,513.0,504.0,533.0
516.0,517.0,514.0,502.0,528.0
517.0,513.0,510.0,499.0,527.0
520.0,516.0,516.0,505.0,526.0
520.0,510.0,519.0,511.0,520.0
528.0,513.0,523.0,518.0,511.0
531.0,515.0,528.0,525.0,503.0
527.0,513.0,532.0,535.0,489.0
522.0,506.0,530.0,538.0,479.0
515.0,502.0,521.0,534.0,489.0
514.0,493.0,513.0,527.0,492.0
502.0,492.0,505.0,520.0,503.0
497.0,494.0,498.0,514.0,521.0
501.0,495.0,500.0,507.0,532.0
508.0,507.0,502.0,505.0,526.0
510.0,511.0,506.0,504.0,530.0
513.0,512.0,508.0,501.0,528.0
518.0,517.0,507.0,503.0,525.0
519.0,513.0,513.0,503.0,522.0
520.0,514.0,512.0,501.0,519.0
528.0,512.0,510.0,505.0,521.0
522.0,514.0,521.0,515.0,516.0
521.0,510.0,524.0,522.0,507.0
525.0,515.0,530.0,530.0,499.0
526.0,508.0,531.0,536.0,488.0
521.0,503.0,527.0,537.0,489.0
519.0,499.0,518.0,535.0,490.0
509.0,493.0,512.0,529.0,501.0
496.0,493.0,503.0,523.0,512.0
496.0,493.0,498.0,514.0,520.0
502.0,498.0,499.0,504.0,527.0
509.0,506.0,501.0,501.0,524.0
515.0,513.0,507.0,500.0,526.0
515.0,519.0,509.0,498.0,526.0
518.0,517.0,511.0,502.0,528.0
522.0,516.0,514.0,499.0,528.0
519.0,513.0,514.0,505.0,530.0
515.0,512.0,519.0,509.0,525.0
517.0,509.0,521.0,513.0,513.0
522.0,511.0,527.0,524.0,507.0
524.0,510.0,526.0,533.0,491.0
527.0,504.0,525.0,533.0,489.0
518.0,501.0,520.0,535.0,487.0
508.0,498.0,513.0,535.0,495.0
506.0,496.0,508.0,524.0,503.0
499.0,486.0,500.0,514.0,505.0
502.0,492.0,496.0,508.0,513.0
508.0,501.0,496.0,504.0,516.0
505.0,512.0,504.0,501.0,534.0
516.0,515.0,511.0,499.0,531.0
515.0,513.0,508.0,498.0,530.0
512.0,513.0,510.0,502.0,533.0
510.0,510.0,508.0,498.0,530.0
517.0,513.0,514.0,505.0,526.0
515.0,510.0,522.0,511.0,521.0
517.0,509.0,522.0,519.0,519.0
518.0,506.0,525.0,525.0,505.0
516.0,505.0,527.0,531.0,497.0
518.0,502.0,529.0,535.0,489.0
514.0,503.0,526.0,534.0,490.0
507.0,496.0,513.0,532.0,496.0
498.0,489.0,504.0,516.0,510.0
498.0,490.0,498.0,507.0,515.0
500.0,500.0,498.0,501.0,523.0
509.0,504.0,502.0,505.0,527.0
514.0,515.0,511.0,504.0,531.0
517.0,521.0,511.0,505.0,529.0
518.0,521.0,512.0,503.0,527.0
515.0,520.0,514.0,502.0,530.0
515.0,512.0,509.0,502.0,525.0
519.0,520.0,517.0,507.0,520.0
521.0,505.0,520.0,513.0,508.0
523.0,514.0,525.0,521.0,492.0
524.0,511.0,530.0,530.0,493.0
524.0,511.0,534.0,536.0,496.0
520.0,505.0,526.0,534.0,498.0
521.0,499.0,517.0,528.0,503.0
508.0,492.0,513.0,523.0,508.0
502.0,492.0,504.0,517.0,507.0
498.0,493.0,499.0,509.0,517.0
503.0,500.0,501.0,504.0,523.0
509.0,507.0,503.0,505.0,531.0
514.0,514.0,510.0,504.0,536.0
519.0,519.0,511.0,500.0,528.0
517.0,516.0,512.0,501.0,529.0
519.0,515.0,512.0,501.0,526.0
521.0,514.0,515.0,504.0,518.0
522.0,511.0,513.0,508.0,502.0
519.0,511.0,521.0,514.0,498.0
526.0,511.0,531.0,525.0,492.0
532.0,512.0,532.0,533.0,486.0
524.0,507.0,529.0,532.0,500.0
515.0,500.0,522.0,533.0,504.0
508.0,496.0,517.0,527.0,504.0
503.0,496.0,510.0,525.0,501.0
482.0,477.0,487.0,502.0,521.0
484.0,480.0,483.0,494.0,529.0
495.0,489.0,489.0,495.0,531.0
502.0,494.0,491.0,492.0,532.0
539.0,529.0,548.0,543.0,481.0
538.0,529.0,547.0,550.0,468.0
535.0,524.0,540.0,551.0,463.0
525.0,513.0,533.0,543.0,473.0
523.0,513.0,524.0,540.0,483.0
518.0,506.0,516.0,531.0,492.0
515.0,508.0,513.0,522.0,496.0
517.0,516.0,514.0,513.0,506.0
522.0,523.0,515.0,507.0,511.0
524.0,526.0,518.0,506.0,513.0
524.0,527.0,521.0,508.0,517.0
530.0,526.0,524.0,505.0,520.0
524.0,522.0,523.0,503.0,523.0
528.0,526.0,525.0,510.0,522.0
529.0,522.0,528.0,515.0,510.0
526.0,520.0,530.0,521.0,507.0
532.0,525.0,538.0,533.0,498.0
538.0,526.0,541.0,543.0,483.0
535.0,520.0,539.0,547.0,475.0
530.0,514.0,534.0,545.0,483.0
521.0,504.0,521.0,537.0,494.0
513.0,506.0,521.0,532.0,500.0
507.0,499.0,509.0,519.0,512.0
506.0,504.0,505.0,511.0,523.0
510.0,507.0,508.0,506.0,525.0
511.0,512.0,502.0,501.0,526.0
514.0,519.0,516.0,503.0,526.0
519.0,521.0,515.0,502.0,525.0
519.0,519.0,516.0,501.0,520.0
517.0,514.0,515.0,504.0,521.0
523.0,516.0,522.0,511.0,518.0
522.0,518.0,528.0,522.0,505.0
523.0,516.0,528.0,523.0,498.0
526.0,517.0,532.0,532.0,490.0
526.0,518.0,530.0,540.0,481.0
526.0,515.0,538.0,544.0,479.0
523.0,508.0,525.0,541.0,482.0
513.0,501.0,518.0,533.0,492.0
505.0,497.0,508.0,526.0,503.0
503.0,502.0,507.0,521.0,510.0
510.0,505.0,505.0,511.0,518.0
512.0,514.0,507.0,505.0,526.0
514.0,510.0,513.0,503.0,523.0
528.0,517.0,512.0,501.0,524.0
521.0,517.0,515.0,500.0,525.0
513.0,516.0,518.0,502.0,527.0
519.0,513.0,515.0,500.0,522.0
519.0,512.0,517.0,506.0,520.0
523.0,515.0,523.0,515.0,516.0
523.0,515.0,529.0,525.0,508.0
529.0,519.0,533.0,536.0,493.0
528.0,514.0,538.0,541.0,487.0
521.0,510.0,532.0,540.0,489.0
512.0,504.0,520.0,533.0,494.0
509.0,503.0,514.0,527.0,498.0
504.0,496.0,505.0,520.0,508.0
504.0,498.0,503.0,515.0,518.0
503.0,506.0,501.0,505.0,521.0
509.0,506.0,504.0,502.0,521.0
509.0,513.0,508.0,501.0,527.0
510.0,518.0,512.0,501.0,533.0
508.0,512.0,512.0,499.0,528.0
511.0,511.0,514.0,499.0,523.0
509.0,512.0,515.0,499.0,524.0
513.0,510.0,520.0,505.0,526.0
525.0,513.0,524.0,516.0,516.0
528.0,518.0,532.0,527.0,507.0
526.0,516.0,533.0,535.0,501.0
524.0,518.0,534.0,541.0,495.0
520.0,510.0,525.0,535.0,490.0
509.0,498.0,515.0,531.0,494.0
508.0,501.0,515.0,530.0,494.0
499.0,492.0,505.0,516.0,505.0
495.0,493.0,500.0,508.0,513.0
506.0,505.0,506.0,504.0,521.0
515.0,515.0,508.0,504.0,529.0
517.0,516.0,513.0,505.0,529.0
516.0,517.0,511.0,493.0,529.0
515.0,515.0,514.0,500.0,534.0
511.0,513.0,513.0,504.0,531.0
515.0,512.0,516.0,503.0,521.0
518.0,516.0,520.0,507.0,518.0
521.0,510.0,523.0,519.0,506.0
524.0,517.0,529.0,531.0,495.0
521.0,511.0,531.0,535.0,490.0
522.0,512.0,532.0,539.0,491.0
519.0,506.0,525.0,536.0,495.0
510.0,499.0,515.0,527.0,503.0
503.0,494.0,505.0,521.0,513.0
500.0,495.0,505.0,515.0,524.0
499.0,503.0,503.0,508.0,528.0
501.0,505.0,504.0,504.0,530.0
503.0,509.0,506.0,496.0,532.0
509.0,510.0,507.0,497.0,526.0
514.0,514.0,511.0,500.0,522.0
517.0,513.0,513.0,502.0,529.0
521.0,512.0,513.0,494.0,535.0
519.0,511.0,518.0,505.0,532.0
527.0,514.0,525.0,515.0,523.0
528.0,514.0,528.0,524.0,510.0
533.0,515.0,533.0,533.0,497.0
531.0,516.0,534.0,540.0,489.0
518.0,507.0,527.0,537.0,484.0
514.0,507.0,521.0,532.0,487.0
505.0,498.0,515.0,528.0,498.0
501.0,494.0,507.0,519.0,508.0
494.0,494.0,499.0,511.0,524.0
495.0,501.0,502.0,507.0,512.0
503.0,506.0,503.0,502.0,517.0
521.0,513.0,509.0,500.0,523.0
520.0,520.0,512.0,499.0,525.0
517.0,513.0,512.0,498.0,526.0
514.0,511.0,511.0,497.0,526.0
514.0,511.0,514.0,501.0,523.0
515.0,510.0,519.0,508.0,519.0
520.0,511.0,521.0,515.0,516.0
524.0,514.0,533.0,527.0,508.0
527.0,518.0,530.0,536.0,500.0
528.0,509.0,534.0,539.0,491.0
521.0,507.0,526.0,538.0,488.0
510.0,499.0,516.0,531.0,501.0
505.0,495.0,509.0,524.0,505.0
504.0,494.0,501.0,513.0,513.0
502.0,498.0,497.0,501.0,521.0
503.0,501.0,500.0,500.0,523.0
507.0,508.0,504.0,500.0,525.0
509.0,509.0,507.0,502.0,529.0
517.0,514.0,510.0,497.0,530.0
515.0,514.0,512.0,497.0,535.0
513.0,512.0,513.0,500.0,530.0
514.0,511.0,517.0,508.0,522.0
515.0,511.0,519.0,511.0,517.0
518.0,510.0,523.0,519.0,514.0
529.0,515.0,528.0,529.0,500.0
526.0,511.0,531.0,536.0,492.0
522.0,511.0,531.0,541.0,487.0
515.0,503.0,523.0,537.0,493.0
503.0,495.0,513.0,530.0,498.0
504.0,491.0,503.0,521.0,508.0
499.0,492.0,500.0,512.0,518.0
502.0,496.0,499.0,505.0,524.0
503.0,503.0,501.0,500.0,523.0
511.0,510.0,506.0,501.0,528.0
518.0,513.0,509.0,497.0,536.0
514.0,516.0,512.0,497.0,537.0
516.0,512.0,507.0,497.0,535.0
512.0,507.0,509.0,499.0,536.0
515.0,510.0,517.0,510.0,526.0
517.0,508.0,521.0,512.0,516.0
522.0,511.0,525.0,523.0,507.0
520.0,514.0,531.0,536.0,495.0
525.0,512.0,531.0,539.0,489.0
517.0,503.0,523.0,539.0,497.0
511.0,501.0,518.0,534.0,499.0
505.0,501.0,510.0,528.0,499.0
494.0,488.0,499.0,515.0,509.0
492.0,492.0,493.0,508.0,521.0
496.0,497.0,501.0,501.0,528.0
504.0,506.0,502.0,500.0,531.0
516.0,511.0,507.0,499.0,529.0
518.0,514.0,513.0,505.0,532.0
521.0,513.0,509.0,497.0,532.0
514.0,514.0,511.0,497.0,531.0
516.0,511.0,515.0,503.0,532.0
517.0,511.0,520.0,510.0,524.0
519.0,511.0,520.0,513.0,514.0
522.0,513.0,528.0,526.0,503.0
527.0,516.0,534.0,540.0,490.0
523.0,506.0,530.0,538.0,490.0
514.0,506.0,523.0,537.0,491.0
510.0,498.0,515.0,528.0,496.0
503.0,495.0,506.0,526.0,505.0
500.0,492.0,499.0,513.0,514.0
499.0,496.0,499.0,506.0,520.0
501.0,499.0,503.0,500.0,524.0
506.0,506.0,503.0,493.0,529.0
508.0,509.0,506.0,496.0,529.0
512.0,513.0,508.0,496.0,528.0
518.0,511.0,507.0,494.0,532.0
517.0,509.0,510.0,497.0,533.0
518.0,508.0,514.0,503.0,528.0
518.0,505.0,519.0,510.0,516.0
521.0,510.0,522.0,519.0,511.0
524.0,511.0,529.0,529.0,499.0
527.0,510.0,528.0,537.0,490.0
521.0,507.0,528.0,539.0,489.0
515.0,501.0,520.0,536.0,492.0
511.0,497.0,513.0,528.0,500.0
501.0,491.0,503.0,518.0,513.0
504.0,492.0,502.0,508.0,516.0
503.0,498.0,500.0,503.0,526.0
506.0,506.0,501.0,500.0,531.0
510.0,508.0,505.0,498.0,535.0
512.0,513.0,511.0,496.0,535.0
518.0,513.0,510.0,501.0,532.0
519.0,512.0,511.0,498.0,532.0
519.0,514.0,512.0,498.0,525.0
520.0,508.0,516.0,505.0,520.0
520.0,507.0,518.0,512.0,525.0
521.0,511.0,525.0,519.0,516.0
518.0,510.0,528.0,530.0,504.0
518.0,509.0,530.0,537.0,495.0
513.0,509.0,528.0,541.0,482.0
507.0,498.0,517.0,535.0,479.0
505.0,499.0,511.0,529.0,491.0
496.0,491.0,503.0,520.0,508.0
493.0,493.0,498.0,509.0,517.0
498.0,499.0,500.0,504.0,533.0
513.0,503.0,501.0,498.0,531.0
509.0,509.0,505.0,498.0,530.0
509.0,512.0,509.0,498.0,535.0
510.0,511.0,510.0,496.0,536.0
512.0,506.0,508.0,495.0,529.0
511.0,508.0,514.0,505.0,522.0
513.0,508.0,518.0,510.0,514.0
510.0,507.0,519.0,515.0,513.0
526.0,509.0,526.0,525.0,505.0
530.0,508.0,524.0,531.0,492.0
525.0,510.0,531.0,541.0,490.0
513.0,502.0,523.0,536.0,494.0
508.0,497.0,515.0,529.0,503.0
504.0,493.0,508.0,524.0,507.0
497.0,491.0,502.0,513.0,515.0
496.0,497.0,498.0,505.0,523.0
499.0,501.0,501.0,504.0,528.0
503.0,511.0,507.0,501.0,529.0
508.0,509.0,507.0,498.0,521.0
516.0,514.0,511.0,500.0,525.0
518.0,513.0,511.0,497.0,524.0
520.0,507.0,508.0,491.0,524.0
519.0,505.0,513.0,503.0,518.0
525.0,512.0,522.0,514.0,510.0
522.0,510.0,523.0,520.0,506.0
521.0,510.0,527.0,528.0,498.0
526.0,513.0,531.0,537.0,495.0
517.0,509.0,527.0,540.0,491.0
514.0,503.0,520.0,535.0,488.0
513.0,498.0,511.0,526.0,496.0
498.0,494.0,508.0,520.0,511.0
489.0,491.0,499.0,509.0,517.0
489.0,496.0,499.0,505.0,524.0
492.0,498.0,500.0,499.0,525.0
497.0,507.0,505.0,501.0,531.0
521.0,513.0,508.0,497.0,531.0
528.0,516.0,512.0,503.0,533.0
522.0,508.0,512.0,498.0,530.0
514.0,513.0,511.0,496.0,528.0
521.0,514.0,515.0,506.0,520.0
528.0,510.0,519.0,512.0,518.0
528.0,511.0,527.0,525.0,503.0
530.0,514.0,531.0,535.0,492.0
528.0,512.0,531.0,540.0,489.0
525.0,507.0,528.0,538.0,492.0
510.0,500.0,516.0,537.0,499.0
511.0,497.0,514.0,529.0,508.0
505.0,491.0,502.0,515.0,517.0
505.0,496.0,498.0,508.0,523.0
509.0,500.0,498.0,505.0,520.0
507.0,505.0,502.0,502.0,530.0
507.0,509.0,505.0,498.0,530.0
510.0,511.0,509.0,498.0,524.0
510.0,512.0,512.0,498.0,529.0
513.0,511.0,510.0,499.0,530.0
515.0,513.0,516.0,503.0,527.0
514.0,509.0,517.0,511.0,520.0
518.0,511.0,522.0,517.0,507.0
520.0,515.0,526.0,527.0,490.0
518.0,512.0,530.0,534.0,486.0
519.0,509.0,528.0,540.0,484.0
517.0,509.0,523.0,537.0,484.0
512.0,496.0,513.0,528.0,495.0
502.0,494.0,512.0,526.0,506.0
495.0,491.0,499.0,515.0,514.0
493.0,494.0,498.0,506.0,525.0
492.0,498.0,498.0,500.0,531.0
498.0,505.0,505.0,499.0,530.0
508.0,508.0,505.0,497.0,528.0
513.0,515.0,510.0,497.0,525.0
514.0,512.0,510.0,496.0,529.0
512.0,505.0,509.0,500.0,529.0
513.0,507.0,511.0,500.0,527.0
520.0,506.0,519.0,512.0,515.0
521.0,507.0,522.0,522.0,510.0
528.0,506.0,524.0,526.0,501.0
525.0,507.0,527.0,532.0,492.0
518.0,502.0,525.0,535.0,489.0
513.0,498.0,517.0,532.0,491.0
506.0,493.0,512.0,529.0,494.0
501.0,494.0,504.0,525.0,502.0
498.0,493.0,501.0,514.0,518.0
501.0,500.0,505.0,506.0,527.0
504.0,505.0,508.0,501.0,532.0
509.0,509.0,508.0,500.0,532.0
514.0,513.0,512.0,496.0,529.0
516.0,514.0,512.0,498.0,534.0
515.0,514.0,514.0,498.0,533.0
516.0,509.0,511.0,499.0,528.0
517.0,513.0,517.0,505.0,522.0
522.0,511.0,527.0,514.0,518.0
519.0,512.0,524.0,524.0,513.0
524.0,511.0,530.0,531.0,497.0
522.0,509.0,528.0,539.0,485.0
516.0,503.0,529.0,540.0,480.0
512.0,499.0,517.0,533.0,475.0
503.0,493.0,509.0,526.0,490.0
495.0,489.0,501.0,516.0,514.0
496.0,492.0,498.0,507.0,530.0
501.0,500.0,502.0,509.0,530.0
509.0,507.0,505.0,499.0,532.0
510.0,507.0,504.0,493.0,535.0
515.0,513.0,509.0,496.0,535.0
515.0,513.0,515.0,500.0,529.0
509.0,509.0,511.0,498.0,531.0
514.0,509.0,515.0,503.0,526.0
515.0,509.0,516.0,507.0,521.0
519.0,508.0,515.0,516.0,516.0
520.0,510.0,528.0,526.0,507.0
524.0,513.0,532.0,536.0,499.0
522.0,510.0,530.0,540.0,494.0
516.0,502.0,523.0,535.0,498.0
509.0,496.0,517.0,532.0,499.0
506.0,494.0,512.0,525.0,499.0
496.0,490.0,502.0,516.0,503.0
495.0,496.0,498.0,505.0,511.0
499.0,500.0,502.0,502.0,524.0
497.0,505.0,506.0,500.0,525.0
506.0,508.0,510.0,500.0,530.0
517.0,516.0,512.0,498.0,532.0
516.0,513.0,516.0,496.0,540.0
511.0,507.0,511.0,497.0,537.0
509.0,506.0,514.0,502.0,532.0
519.0,509.0,521.0,512.0,516.0
519.0,507.0,517.0,522.0,501.0
515.0,510.0,533.0,530.0,491.0
527.0,510.0,533.0,539.0,480.0
520.0,505.0,528.0,539.0,478.0
513.0,501.0,521.0,534.0,486.0
501.0,496.0,512.0,529.0,494.0
495.0,490.0,504.0,517.0,505.0
492.0,491.0,497.0,509.0,512.0
494.0,493.0,496.0,501.0,519.0
516.0,501.0,500.0,498.0,524.0
519.0,508.0,506.0,499.0,528.0
518.0,512.0,510.0,498.0,531.0
517.0,512.0,510.0,496.0,534.0
511.0,507.0,508.0,496.0,538.0
513.0,506.0,509.0,499.0,531.0
519.0,510.0,515.0,505.0,527.0
521.0,506.0,516.0,513.0,513.0
522.0,510.0,524.0,522.0,500.0
526.0,508.0,527.0,535.0,494.0
525.0,510.0,531.0,539.0,496.0
517.0,506.0,524.0,540.0,492.0
514.0,498.0,515.0,532.0,499.0
511.0,497.0,514.0,527.0,510.0
500.0,487.0,500.0,515.0,516.0
499.0,492.0,497.0,511.0,516.0
497.0,498.0,499.0,504.0,524.0
503.0,509.0,506.0,503.0,528.0
510.0,517.0,512.0,502.0,526.0
513.0,514.0,515.0,500.0,532.0
514.0,512.0,510.0,496.0,534.0
512.0,509.0,510.0,496.0,537.0
516.0,511.0,516.0,501.0,530.0
520.0,511.0,518.0,509.0,514.0
523.0,509.0,520.0,515.0,508.0
526.0,512.0,526.0,526.0,499.0
530.0,514.0,532.0,538.0,492.0
521.0,507.0,528.0,536.0,480.0
511.0,503.0,522.0,540.0,483.0
504.0,498.0,513.0,531.0,488.0
501.0,494.0,506.0,524.0,499.0
498.0,494.0,501.0,513.0,514.0
498.0,492.0,497.0,505.0,523.0
504.0,503.0,501.0,502.0,526.0
506.0,509.0,506.0,500.0,529.0
510.0,513.0,510.0,501.0,532.0
510.0,514.0,511.0,499.0,532.0
510.0,513.0,511.0,498.0,531.0
509.0,509.0,510.0,497.0,531.0
513.0,507.0,515.0,503.0,528.0
514.0,511.0,519.0,513.0,522.0
521.0,513.0,524.0,522.0,507.0
527.0,512.0,527.0,528.0,492.0
524.0,510.0,530.0,536.0,482.0
522.0,506.0,524.0,539.0,482.0
515.0,500.0,520.0,534.0,498.0
512.0,497.0,514.0,526.0,508.0
501.0,491.0,504.0,521.0,518.0
501.0,492.0,499.0,512.0,516.0
497.0,499.0,501.0,507.0,532.0
503.0,504.0,502.0,500.0,527.0
506.0,508.0,505.0,499.0,528.0
511.0,515.0,508.0,498.0,526.0
515.0,511.0,512.0,498.0,524.0
511.0,509.0,512.0,495.0,530.0
514.0,506.0,508.0,495.0,533.0
526.0,510.0,516.0,503.0,518.0
527.0,514.0,521.0,512.0,512.0
528.0,510.0,522.0,522.0,509.0
523.0,511.0,529.0,531.0,499.0
525.0,511.0,535.0,539.0,490.0
515.0,497.0,524.0,535.0,492.0
506.0,497.0,516.0,533.0,500.0
501.0,492.0,508.0,525.0,501.0
497.0,494.0,507.0,519.0,507.0
496.0,492.0,497.0,510.0,521.0
500.0,496.0,499.0,502.0,530.0
503.0,502.0,502.0,500.0,533.0
507.0,509.0,507.0,498.0,530.0
512.0,516.0,510.0,498.0,526.0
512.0,511.0,510.0,499.0,536.0
514.0,502.0,511.0,494.0,530.0
517.0,508.0,511.0,504.0,528.0
523.0,508.0,515.0,507.0,518.0
522.0,505.0,519.0,516.0,511.0
527.0,511.0,527.0,529.0,500.0
524.0,511.0,531.0,541.0,493.0
520.0,511.0,529.0,539.0,492.0
515.0,505.0,522.0,533.0,497.0
509.0,496.0,513.0,529.0,501.0
505.0,495.0,512.0,526.0,502.0
504.0,496.0,503.0,518.0,510.0
503.0,497.0,500.0,509.0,519.0
506.0,502.0,502.0,504.0,524.0
509.0,508.0,506.0,503.0,522.0
515.0,512.0,507.0,498.0,523.0
514.0,513.0,513.0,497.0,528.0
512.0,510.0,510.0,497.0,533.0
510.0,511.0,510.0,499.0,529.0
522.0,509.0,515.0,505.0,521.0
525.0,512.0,522.0,515.0,515.0
521.0,510.0,523.0,519.0,503.0
520.0,514.0,528.0,530.0,497.0
524.0,510.0,532.0,539.0,488.0
518.0,506.0,531.0,540.0,484.0
507.0,500.0,518.0,536.0,494.0
508.0,497.0,512.0,531.0,497.0
507.0,494.0,506.0,522.0,504.0
498.0,495.0,499.0,511.0,514.0
501.0,498.0,500.0,508.0,520.0
505.0,502.0,501.0,501.0,525.0
508.0,508.0,507.0,499.0,529.0
513.0,513.0,509.0,502.0,532.0
517.0,512.0,511.0,497.0,532.0
517.0,510.0,509.0,498.0,535.0
513.0,510.0,514.0,501.0,532.0
518.0,509.0,517.0,507.0,526.0
519.0,508.0,521.0,514.0,517.0
520.0,509.0,524.0,521.0,508.0
527.0,511.0,524.0,535.0,496.0
524.0,509.0,530.0,535.0,488.0
517.0,504.0,523.0,537.0,487.0
509.0,502.0,516.0,531.0,490.0
504.0,494.0,513.0,529.0,495.0
501.0,494.0,500.0,521.0,502.0
498.0,494.0,498.0,511.0,519.0
497.0,498.0,499.0,504.0,525.0
501.0,508.0,502.0,500.0,531.0
513.0,511.0,507.0,500.0,537.0
519.0,514.0,511.0,500.0,535.0
512.0,515.0,512.0,502.0,539.0
507.0,510.0,510.0,497.0,532.0
524.0,510.0,515.0,501.0,530.0
522.0,508.0,516.0,507.0,514.0
520.0,508.0,523.0,516.0,507.0
522.0,509.0,526.0,528.0,499.0
520.0,508.0,529.0,533.0,494.0
519.0,506.0,529.0,542.0,493.0
520.0,503.0,522.0,538.0,494.0
511.0,497.0,513.0,528.0,501.0
507.0,493.0,505.0,520.0,505.0
494.0,488.0,497.0,512.0,515.0
497.0,489.0,496.0,505.0,523.0
501.0,500.0,500.0,506.0,530.0
508.0,507.0,505.0,502.0,530.0
510.0,510.0,506.0,498.0,535.0
511.0,511.0,509.0,497.0,533.0
511.0,508.0,510.0,497.0,536.0
517.0,509.0,512.0,504.0,532.0
520.0,511.0,517.0,507.0,525.0
517.0,512.0,523.0,515.0,516.0
514.0,509.0,524.0,522.0,506.0
517.0,513.0,525.0,527.0,496.0
519.0,510.0,530.0,536.0,484.0
519.0,506.0,527.0,542.0,480.0
513.0,501.0,519.0,535.0,489.0
508.0,501.0,516.0,533.0,497.0
513.0,492.0,505.0,520.0,503.0
504.0,492.0,500.0,517.0,512.0
507.0,495.0,496.0,504.0,519.0
507.0,502.0,500.0,499.0,526.0
514.0,509.0,506.0,499.0,529.0
517.0,512.0,508.0,495.0,532.0
523.0,513.0,510.0,495.0,532.0
520.0,510.0,509.0,496.0,533.0
522.0,507.0,510.0,498.0,523.0
519.0,507.0,513.0,504.0,518.0
516.0,508.0,522.0,516.0,514.0
513.0,509.0,522.0,524.0,511.0
519.0,510.0,529.0,532.0,502.0
525.0,508.0,528.0,537.0,492.0
517.0,505.0,525.0,537.0,496.0
509.0,500.0,517.0,534.0,496.0
503.0,497.0,511.0,531.0,503.0
499.0,490.0,500.0,518.0,503.0
499.0,495.0,497.0,508.0,512.0
501.0,499.0,500.0,505.0,519.0
506.0,508.0,510.0,504.0,527.0
513.0,511.0,508.0,501.0,531.0
512.0,514.0,511.0,503.0,534.0
514.0,512.0,510.0,496.0,534.0
514.0,510.0,512.0,501.0,532.0
518.0,510.0,516.0,505.0,526.0
514.0,508.0,518.0,508.0,521.0
518.0,509.0,527.0,519.0,507.0
523.0,513.0,528.0,530.0,502.0
524.0,513.0,535.0,536.0,494.0
519.0,507.0,527.0,538.0,497.0
519.0,505.0,527.0,539.0,488.0
509.0,497.0,512.0,531.0,500.0
506.0,498.0,508.0,523.0,503.0
497.0,493.0,499.0,509.0,516.0
494.0,495.0,498.0,506.0,528.0
495.0,502.0,502.0,503.0,527.0
506.0,507.0,506.0,503.0,521.0
510.0,514.0,508.0,498.0,517.0
511.0,513.0,510.0,497.0,524.0
513.0,513.0,511.0,498.0,524.0
521.0,510.0,513.0,498.0,527.0
518.0,510.0,516.0,503.0,523.0
518.0,510.0,518.0,508.0,516.0
520.0,513.0,524.0,523.0,510.0
521.0,511.0,527.0,530.0,499.0
520.0,509.0,528.0,539.0,490.0
526.0,505.0,524.0,541.0,486.0
517.0,505.0,518.0,531.0,491.0
507.0,496.0,510.0,527.0,492.0
497.0,492.0,502.0,513.0,511.0
501.0,495.0,499.0,511.0,517.0
496.0,497.0,500.0,509.0,525.0
506.0,503.0,501.0,501.0,530.0
511.0,510.0,506.0,498.0,534.0
515.0,517.0,509.0,497.0,532.0
515.0,513.0,509.0,495.0,530.0
511.0,508.0,510.0,495.0,533.0
508.0,505.0,509.0,496.0,532.0
516.0,509.0,516.0,505.0,523.0
513.0,504.0,520.0,514.0,519.0
516.0,509.0,521.0,523.0,507.0
516.0,511.0,529.0,534.0,493.0
529.0,513.0,533.0,540.0,484.0
523.0,506.0,526.0,537.0,488.0
517.0,501.0,516.0,530.0,496.0
514.0,498.0,512.0,524.0,505.0
507.0,494.0,502.0,514.0,514.0
506.0,496.0,502.0,506.0,520.0
507.0,499.0,505.0,504.0,529.0
506.0,505.0,503.0,499.0,529.0
509.0,510.0,508.0,499.0,529.0
513.0,513.0,513.0,497.0,534.0
512.0,512.0,506.0,501.0,535.0
509.0,513.0,508.0,495.0,540.0
525.0,513.0,518.0,504.0,531.0
526.0,512.0,519.0,510.0,511.0
523.0,510.0,522.0,517.0,511.0
521.0,510.0,526.0,526.0,501.0
526.0,513.0,532.0,536.0,489.0
522.0,508.0,528.0,541.0,482.0
512.0,496.0,524.0,534.0,483.0
503.0,496.0,512.0,530.0,491.0
506.0,500.0,510.0,526.0,497.0
503.0,493.0,500.0,514.0,515.0
504.0,496.0,498.0,506.0,528.0
502.0,503.0,499.0,501.0,537.0
509.0,512.0,504.0,497.0,536.0
512.0,513.0,508.0,498.0,540.0
511.0,515.0,513.0,502.0,541.0
510.0,513.0,512.0,496.0,541.0
510.0,509.0,511.0,497.0,539.0
514.0,509.0,514.0,497.0,523.0
521.0,510.0,519.0,516.0,508.0
522.0,509.0,523.0,523.0,504.0
526.0,516.0,531.0,532.0,496.0
524.0,510.0,530.0,537.0,488.0
520.0,506.0,524.0,540.0,489.0
512.0,500.0,518.0,535.0,495.0
506.0,496.0,512.0,530.0,498.0
499.0,491.0,500.0,519.0,505.0
499.0,491.0,498.0,513.0,515.0
499.0,496.0,497.0,498.0,522.0
503.0,501.0,499.0,497.0,530.0
511.0,506.0,503.0,494.0,533.0
509.0,514.0,507.0,495.0,534.0
516.0,511.0,509.0,496.0,539.0
506.0,508.0,509.0,500.0,533.0
512.0,505.0,510.0,499.0,528.0
514.0,511.0,514.0,500.0,525.0
520.0,510.0,519.0,513.0,517.0
524.0,509.0,524.0,524.0,505.0
521.0,508.0,526.0,530.0,500.0
524.0,510.0,524.0,540.0,490.0
514.0,506.0,524.0,538.0,485.0
507.0,498.0,513.0,528.0,497.0
500.0,492.0,507.0,526.0,504.0
498.0,495.0,501.0,518.0,515.0
499.0,493.0,493.0,509.0,523.0
503.0,500.0,500.0,506.0,527.0
508.0,505.0,501.0,499.0,527.0
511.0,513.0,506.0,497.0,533.0
514.0,515.0,512.0,499.0,535.0
516.0,514.0,514.0,496.0,531.0
516.0,510.0,512.0,499.0,538.0
509.0,508.0,513.0,507.0,534.0
514.0,508.0,519.0,512.0,527.0
525.0,508.0,523.0,516.0,512.0
525.0,512.0,527.0,527.0,505.0
527.0,514.0,530.0,533.0,497.0
528.0,509.0,531.0,542.0,488.0
516.0,502.0,522.0,537.0,488.0
507.0,497.0,513.0,534.0,502.0
506.0,495.0,506.0,524.0,504.0
498.0,493.0,500.0,514.0,509.0
501.0,498.0,499.0,509.0,523.0
502.0,501.0,499.0,502.0,527.0
507.0,509.0,503.0,501.0,528.0
509.0,511.0,502.0,496.0,535.0
513.0,513.0,512.0,496.0,537.0
508.0,510.0,509.0,495.0,535.0
510.0,508.0,510.0,496.0,533.0
518.0,505.0,513.0,503.0,523.0
520.0,510.0,520.0,512.0,516.0
519.0,507.0,523.0,520.0,513.0
523.0,510.0,522.0,528.0,499.0
523.0,511.0,531.0,539.0,489.0
519.0,507.0,526.0,539.0,486.0
506.0,506.0,520.0,536.0,489.0
500.0,496.0,512.0,529.0,499.0
496.0,495.0,503.0,520.0,512.0
500.0,494.0,503.0,510.0,523.0
497.0,496.0,499.0,504.0,537.0
502.0,502.0,502.0,501.0,542.0
512.0,508.0,506.0,499.0,534.0
513.0,513.0,509.0,497.0,532.0
513.0,511.0,508.0,500.0,529.0
516.0,510.0,505.0,494.0,527.0
512.0,510.0,509.0,496.0,527.0
522.0,508.0,518.0,506.0,516.0
526.0,509.0,525.0,516.0,511.0
527.0,511.0,528.0,526.0,501.0
534.0,512.0,531.0,534.0,491.0
527.0,508.0,527.0,537.0,483.0
525.0,506.0,526.0,538.0,487.0
513.0,499.0,518.0,535.0,503.0
509.0,495.0,510.0,525.0,513.0
505.0,492.0,500.0,514.0,517.0
498.0,493.0,498.0,507.0,525.0
500.0,499.0,504.0,503.0,519.0
506.0,506.0,504.0,501.0,517.0
507.0,509.0,506.0,497.0,527.0
510.0,509.0,507.0,495.0,526.0
513.0,510.0,509.0,496.0,531.0
512.0,510.0,511.0,496.0,535.0
516.0,511.0,515.0,501.0,529.0
513.0,510.0,517.0,507.0,525.0
515.0,507.0,519.0,518.0,518.0
519.0,509.0,526.0,526.0,504.0
523.0,512.0,526.0,532.0,493.0
523.0,508.0,528.0,541.0,487.0
515.0,500.0,521.0,536.0,492.0
506.0,497.0,513.0,536.0,497.0
506.0,493.0,509.0,525.0,502.0
497.0,492.0,503.0,515.0,516.0
500.0,497.0,499.0,505.0,519.0
506.0,505.0,507.0,504.0,526.0
514.0,512.0,506.0,499.0,526.0
517.0,512.0,506.0,496.0,525.0
523.0,513.0,511.0,499.0,530.0
513.0,515.0,511.0,495.0,535.0
513.0,510.0,514.0,498.0,529.0
516.0,509.0,516.0,506.0,517.0
517.0,510.0,520.0,512.0,512.0
517.0,510.0,523.0,519.0,509.0
523.0,512.0,530.0,528.0,501.0
518.0,512.0,532.0,534.0,490.0
519.0,506.0,525.0,537.0,492.0
511.0,499.0,517.0,533.0,500.0
511.0,496.0,512.0,529.0,505.0
503.0,493.0,502.0,519.0,504.0
500.0,493.0,500.0,512.0,511.0
500.0,498.0,500.0,505.0,517.0
505.0,503.0,502.0,501.0,526.0
508.0,508.0,506.0,502.0,526.0
514.0,512.0,508.0,496.0,531.0
515.0,513.0,512.0,503.0,531.0
515.0,511.0,516.0,500.0,529.0
509.0,510.0,512.0,501.0,527.0
517.0,511.0,519.0,505.0,521.0
519.0,512.0,523.0,513.0,512.0
521.0,511.0,525.0,523.0,505.0
522.0,516.0,529.0,530.0,498.0
519.0,510.0,529.0,537.0,493.0
515.0,504.0,524.0,538.0,486.0
509.0,499.0,516.0,534.0,494.0
507.0,497.0,512.0,529.0,500.0
498.0,494.0,503.0,519.0,513.0
495.0,493.0,497.0,508.0,522.0
500.0,504.0,500.0,503.0,526.0
503.0,506.0,504.0,501.0,531.0
510.0,512.0,505.0,497.0,534.0
517.0,514.0,511.0,501.0,531.0
516.0,516.0,514.0,500.0,529.0
511.0,508.0,510.0,496.0,531.0
508.0,508.0,514.0,498.0,528.0
518.0,509.0,518.0,508.0,521.0
523.0,512.0,520.0,515.0,515.0
528.0,512.0,526.0,524.0,507.0
529.0,509.0,529.0,534.0,496.0
527.0,512.0,527.0,537.0,494.0
522.0,503.0,519.0,535.0,498.0
516.0,498.0,513.0,529.0,493.0
509.0,493.0,505.0,522.0,498.0
494.0,490.0,498.0,512.0,512.0
488.0,492.0,494.0,504.0,526.0
491.0,498.0,498.0,499.0,532.0
497.0,505.0,502.0,498.0,538.0
506.0,512.0,507.0,499.0,534.0
513.0,514.0,510.0,497.0,530.0
513.0,512.0,509.0,498.0,528.0
515.0,509.0,513.0,498.0,525.0
513.0,509.0,514.0,504.0,522.0
519.0,510.0,518.0,504.0,515.0
518.0,508.0,522.0,517.0,505.0
516.0,507.0,523.0,527.0,495.0
523.0,509.0,530.0,535.0,491.0
516.0,505.0,522.0,538.0,492.0
515.0,500.0,518.0,533.0,494.0
508.0,497.0,515.0,526.0,512.0
504.0,491.0,501.0,515.0,521.0
503.0,494.0,499.0,509.0,520.0
501.0,496.0,500.0,503.0,522.0
503.0,509.0,502.0,499.0,524.0
508.0,511.0,510.0,498.0,522.0
511.0,517.0,513.0,501.0,533.0
508.0,513.0,511.0,498.0,538.0
506.0,508.0,510.0,495.0,533.0
509.0,506.0,510.0,495.0,533.0
512.0,508.0,517.0,507.0,521.0
518.0,511.0,524.0,517.0,506.0
529.0,514.0,528.0,525.0,501.0
522.0,513.0,532.0,532.0,489.0
522.0,514.0,532.0,540.0,481.0
520.0,505.0,525.0,538.0,484.0
506.0,500.0,520.0,533.0,487.0
498.0,499.0,512.0,527.0,504.0
495.0,493.0,504.0,513.0,514.0
498.0,497.0,504.0,508.0,520.0
515.0,502.0,495.0,502.0,524.0
514.0,507.0,505.0,501.0,528.0
519.0,513.0,509.0,499.0,529.0
520.0,515.0,513.0,503.0,530.0
520.0,514.0,513.0,498.0,533.0
518.0,509.0,512.0,497.0,528.0
516.0,509.0,514.0,501.0,524.0
520.0,509.0,519.0,508.0,520.0
522.0,505.0,521.0,515.0,517.0
524.0,511.0,526.0,526.0,507.0
526.0,513.0,530.0,536.0,495.0
517.0,509.0,531.0,540.0,485.0
512.0,501.0,523.0,538.0,492.0
506.0,499.0,517.0,532.0,502.0
503.0,495.0,510.0,524.0,508.0
500.0,495.0,503.0,518.0,518.0
496.0,495.0,499.0,505.0,524.0
510.0,503.0,500.0,508.0,523.0
521.0,517.0,511.0,507.0,519.0
516.0,512.0,509.0,500.0,526.0
515.0,511.0,511.0,495.0,532.0
521.0,510.0,510.0,496.0,530.0
510.0,510.0,515.0,500.0,523.0
510.0,511.0,519.0,507.0,520.0
510.0,510.0,521.0,516.0,519.0
516.0,508.0,526.0,518.0,501.0
523.0,512.0,528.0,529.0,499.0
521.0,509.0,535.0,538.0,490.0
513.0,510.0,528.0,540.0,490.0
517.0,500.0,518.0,534.0,501.0
512.0,494.0,514.0,527.0,506.0
499.0,493.0,500.0,514.0,508.0
502.0,494.0,500.0,514.0,517.0
501.0,498.0,499.0,505.0,524.0
502.0,505.0,504.0,502.0,527.0
509.0,504.0,508.0,498.0,530.0
513.0,513.0,508.0,497.0,531.0
518.0,514.0,512.0,501.0,529.0
513.0,511.0,512.0,498.0,533.0
513.0,506.0,515.0,499.0,528.0
519.0,511.0,518.0,509.0,527.0
518.0,508.0,520.0,515.0,511.0
524.0,513.0,528.0,530.0,501.0
522.0,513.0,530.0,532.0,493.0
525.0,511.0,530.0,538.0,489.0
517.0,503.0,518.0,534.0,487.0
515.0,498.0,514.0,529.0,496.0
505.0,496.0,508.0,525.0,506.0
499.0,491.0,501.0,517.0,512.0
498.0,493.0,498.0,506.0,525.0
505.0,502.0,503.0,506.0,525.0
511.0,508.0,506.0,500.0,527.0
512.0,507.0,512.0,499.0,532.0
514.0,513.0,510.0,497.0,535.0
516.0,512.0,511.0,496.0,531.0
514.0,510.0,508.0,498.0,531.0
519.0,512.0,517.0,508.0,527.0
518.0,513.0,519.0,509.0,522.0
522.0,512.0,524.0,521.0,519.0
523.0,514.0,531.0,534.0,504.0
529.0,514.0,533.0,537.0,491.0
523.0,508.0,530.0,539.0,489.0
516.0,503.0,523.0,535.0,481.0
511.0,503.0,516.0,535.0,479.0
505.0,499.0,505.0,525.0,491.0
497.0,489.0,502.0,517.0,508.0
497.0,496.0,498.0,504.0,527.0
505.0,502.0,500.0,500.0,538.0
517.0,507.0,506.0,499.0,534.0
523.0,513.0,508.0,497.0,536.0
521.0,513.0,512.0,498.0,530.0
514.0,513.0,513.0,502.0,523.0
509.0,512.0,515.0,501.0,522.0
508.0,511.0,521.0,505.0,520.0
510.0,511.0,521.0,514.0,508.0
519.0,511.0,524.0,522.0,503.0
523.0,513.0,531.0,538.0,495.0
527.0,511.0,530.0,539.0,489.0
521.0,508.0,528.0,543.0,489.0
514.0,499.0,520.0,537.0,488.0
509.0,498.0,515.0,532.0,488.0
506.0,493.0,508.0,520.0,502.0
503.0,498.0,502.0,515.0,512.0
498.0,497.0,498.0,505.0,522.0
504.0,505.0,504.0,501.0,526.0
509.0,511.0,507.0,500.0,530.0
514.0,516.0,511.0,498.0,531.0
515.0,513.0,516.0,498.0,530.0
512.0,511.0,513.0,497.0,526.0
516.0,512.0,514.0,503.0,523.0
519.0,507.0,518.0,509.0,515.0
521.0,512.0,523.0,518.0,507.0
523.0,512.0,527.0,526.0,499.0
525.0,514.0,530.0,532.0,498.0
528.0,511.0,530.0,539.0,487.0
520.0,506.0,525.0,538.0,491.0
513.0,500.0,515.0,530.0,497.0
504.0,497.0,510.0,527.0,495.0
499.0,497.0,504.0,519.0,511.0
494.0,494.0,498.0,506.0,526.0
504.0,502.0,500.0,503.0,534.0
509.0,509.0,504.0,504.0,535.0
511.0,512.0,507.0,498.0,534.0
515.0,514.0,510.0,497.0,532.0
516.0,511.0,512.0,495.0,530.0
512.0,508.0,509.0,499.0,524.0
522.0,510.0,515.0,506.0,512.0
524.0,510.0,517.0,510.0,512.0
527.0,510.0,521.0,516.0,503.0
527.0,513.0,528.0,527.0,495.0
528.0,514.0,532.0,535.0,485.0
524.0,508.0,528.0,537.0,483.0
521.0,503.0,522.0,534.0,490.0
506.0,496.0,512.0,529.0,495.0
510.0,498.0,511.0,525.0,498.0
503.0,494.0,502.0,516.0,511.0
506.0,496.0,499.0,505.0,519.0
507.0,506.0,503.0,501.0,525.0
512.0,514.0,506.0,500.0,531.0
517.0,515.0,510.0,499.0,534.0
515.0,514.0,511.0,497.0,532.0
531.0,515.0,513.0,499.0,529.0
526.0,511.0,514.0,496.0,529.0
523.0,512.0,516.0,504.0,518.0
526.0,514.0,522.0,514.0,517.0
526.0,513.0,525.0,521.0,511.0
528.0,517.0,532.0,533.0,505.0
529.0,518.0,538.0,542.0,497.0
523.0,509.0,530.0,543.0,496.0
515.0,504.0,520.0,535.0,501.0
504.0,498.0,513.0,530.0,499.0
495.0,495.0,507.0,519.0,499.0
502.0,497.0,502.0,514.0,508.0
501.0,500.0,500.0,508.0,513.0
507.0,503.0,502.0,501.0,515.0
519.0,510.0,506.0,498.0,519.0
511.0,513.0,510.0,498.0,528.0
511.0,517.0,517.0,497.0,532.0
511.0,510.0,512.0,496.0,534.0
515.0,509.0,513.0,501.0,529.0
521.0,510.0,518.0,510.0,516.0
520.0,513.0,528.0,518.0,509.0
522.0,514.0,528.0,526.0,503.0
525.0,514.0,532.0,538.0,494.0
529.0,510.0,532.0,541.0,486.0
520.0,505.0,524.0,539.0,487.0
513.0,503.0,519.0,534.0,495.0
504.0,496.0,510.0,527.0,504.0
500.0,494.0,504.0,516.0,510.0
501.0,495.0,498.0,506.0,516.0
503.0,501.0,502.0,503.0,520.0
510.0,508.0,507.0,503.0,522.0
512.0,512.0,509.0,505.0,524.0
515.0,514.0,511.0,500.0,524.0
516.0,517.0,513.0,499.0,527.0
512.0,512.0,513.0,499.0,533.0
516.0,510.0,515.0,503.0,527.0
520.0,508.0,517.0,508.0,520.0
516.0,503.0,523.0,516.0,509.0
521.0,510.0,527.0,528.0,497.0
527.0,512.0,532.0,539.0,483.0
520.0,509.0,527.0,536.0,488.0
513.0,507.0,521.0,533.0,498.0
509.0,499.0,512.0,528.0,502.0
504.0,495.0,506.0,521.0,513.0
503.0,494.0,501.0,513.0,518.0
504.0,498.0,500.0,507.0,527.0
505.0,498.0,499.0,498.0,532.0
508.0,507.0,499.0,496.0,535.0
508.0,511.0,509.0,495.0,543.0
517.0,517.0,513.0,495.0,536.0
517.0,512.0,513.0,496.0,538.0
519.0,513.0,513.0,499.0,524.0
523.0,510.0,514.0,505.0,515.0
520.0,513.0,519.0,513.0,510.0
517.0,512.0,525.0,523.0,506.0
519.0,512.0,530.0,532.0,492.0
524.0,511.0,533.0,539.0,488.0
521.0,508.0,527.0,537.0,487.0
507.0,500.0,519.0,534.0,490.0
500.0,496.0,511.0,526.0,501.0
512.0,493.0,503.0,518.0,510.0
515.0,493.0,499.0,510.0,516.0
509.0,500.0,507.0,507.0,520.0
515.0,506.0,511.0,500.0,527.0
523.0,513.0,518.0,504.0,526.0
515.0,518.0,520.0,501.0,531.0
509.0,510.0,515.0,499.0,533.0
509.0,510.0,507.0,497.0,529.0
515.0,508.0,502.0,501.0,529.0
510.0,508.0,511.0,509.0,528.0
516.0,509.0,518.0,514.0,518.0
528.0,513.0,530.0,526.0,498.0
530.0,513.0,530.0,532.0,487.0
522.0,511.0,530.0,540.0,485.0
513.0,510.0,525.0,539.0,492.0
509.0,501.0,517.0,534.0,495.0
507.0,498.0,515.0,528.0,496.0
497.0,493.0,503.0,517.0,516.0
496.0,494.0,499.0,507.0,519.0
496.0,495.0,499.0,504.0,526.0
500.0,507.0,505.0,500.0,534.0
498.0,507.0,504.0,496.0,535.0
503.0,511.0,510.0,496.0,527.0
514.0,511.0,513.0,498.0,529.0
514.0,510.0,517.0,496.0,536.0
531.0,509.0,515.0,497.0,526.0
527.0,509.0,519.0,501.0,521.0
523.0,508.0,515.0,513.0,519.0
518.0,511.0,525.0,525.0,504.0
515.0,513.0,532.0,538.0,486.0
506.0,505.0,526.0,537.0,478.0
506.0,502.0,521.0,538.0,481.0
512.0,499.0,512.0,523.0,491.0
510.0,496.0,508.0,523.0,505.0
511.0,494.0,502.0,514.0,519.0
509.0,496.0,502.0,509.0,529.0
507.0,505.0,506.0,506.0,528.0
518.0,511.0,512.0,507.0,521.0
523.0,513.0,512.0,499.0,522.0
525.0,516.0,510.0,499.0,521.0
517.0,511.0,510.0,497.0,524.0
514.0,510.0,507.0,497.0,524.0
519.0,506.0,508.0,501.0,520.0
522.0,509.0,518.0,510.0,514.0
526.0,509.0,525.0,518.0,502.0
532.0,513.0,528.0,533.0,497.0
528.0,509.0,527.0,533.0,491.0
518.0,504.0,522.0,535.0,487.0
508.0,496.0,515.0,531.0,490.0
499.0,496.0,512.0,528.0,499.0
493.0,491.0,502.0,520.0,513.0
487.0,491.0,497.0,505.0,524.0
497.0,496.0,495.0,500.0,524.0
511.0,506.0,503.0,501.0,524.0
521.0,512.0,509.0,502.0,526.0
526.0,515.0,510.0,500.0,520.0
525.0,513.0,510.0,493.0,532.0
523.0,513.0,508.0,491.0,533.0
523.0,511.0,512.0,497.0,533.0
529.0,511.0,516.0,507.0,525.0
528.0,514.0,525.0,513.0,518.0
533.0,514.0,531.0,524.0,506.0
532.0,513.0,529.0,531.0,499.0
520.0,511.0,532.0,541.0,487.0
516.0,508.0,524.0,542.0,483.0
508.0,501.0,518.0,531.0,495.0
503.0,499.0,513.0,531.0,505.0
498.0,492.0,501.0,516.0,512.0
495.0,494.0,500.0,510.0,521.0
499.0,500.0,501.0,504.0,522.0
508.0,509.0,507.0,506.0,523.0
511.0,512.0,512.0,499.0,525.0
516.0,518.0,512.0,499.0,531.0
515.0,515.0,514.0,499.0,528.0
513.0,510.0,511.0,498.0,529.0
516.0,509.0,515.0,502.0,520.0
518.0,507.0,518.0,510.0,514.0
517.0,508.0,523.0,519.0,504.0
525.0,514.0,529.0,535.0,498.0
527.0,514.0,535.0,539.0,491.0
522.0,514.0,532.0,544.0,486.0
512.0,504.0,523.0,539.0,491.0
503.0,494.0,513.0,530.0,499.0
506.0,495.0,510.0,523.0,511.0
503.0,493.0,500.0,513.0,516.0
502.0,495.0,500.0,509.0,526.0
507.0,503.0,502.0,505.0,530.0
509.0,507.0,503.0,500.0,529.0
510.0,512.0,508.0,496.0,525.0
514.0,514.0,512.0,497.0,530.0
506.0,511.0,512.0,500.0,534.0
508.0,507.0,510.0,497.0,532.0
511.0,508.0,513.0,503.0,526.0
518.0,506.0,521.0,513.0,520.0
518.0,507.0,522.0,519.0,509.0
520.0,513.0,527.0,532.0,500.0
517.0,511.0,532.0,543.0,491.0
498.0,504.0,524.0,538.0,488.0
512.0,499.0,516.0,536.0,486.0
509.0,496.0,511.0,529.0,490.0
504.0,495.0,505.0,524.0,511.0
497.0,494.0,498.0,507.0,527.0
502.0,499.0,498.0,504.0,533.0
515.0,502.0,503.0,502.0,537.0
510.0,509.0,506.0,493.0,540.0
513.0,513.0,509.0,495.0,536.0
513.0,511.0,508.0,496.0,533.0
518.0,511.0,512.0,499.0,521.0
511.0,512.0,514.0,501.0,527.0
516.0,511.0,517.0,506.0,529.0
513.0,507.0,520.0,513.0,519.0
519.0,510.0,526.0,527.0,512.0
519.0,513.0,531.0,534.0,501.0
516.0,513.0,536.0,543.0,494.0
512.0,505.0,526.0,539.0,487.0
504.0,501.0,515.0,530.0,497.0
513.0,494.0,509.0,526.0,500.0
509.0,493.0,504.0,516.0,508.0
503.0,496.0,497.0,511.0,512.0
507.0,501.0,502.0,507.0,514.0
509.0,512.0,511.0,505.0,519.0
508.0,512.0,515.0,502.0,523.0
510.0,515.0,519.0,502.0,529.0
507.0,512.0,519.0,499.0,526.0
505.0,508.0,514.0,499.0,528.0
509.0,511.0,507.0,506.0,524.0
522.0,508.0,510.0,511.0,521.0
540.0,512.0,519.0,522.0,516.0
534.0,518.0,526.0,529.0,508.0
531.0,512.0,529.0,535.0,502.0
527.0,508.0,528.0,538.0,497.0
515.0,506.0,520.0,534.0,498.0
516.0,496.0,514.0,531.0,487.0
503.0,493.0,511.0,529.0,477.0
495.0,491.0,503.0,518.0,489.0
496.0,494.0,499.0,504.0,516.0
500.0,501.0,497.0,498.0,536.0
510.0,509.0,504.0,500.0,535.0
513.0,512.0,502.0,498.0,531.0
518.0,515.0,514.0,501.0,529.0
515.0,512.0,511.0,501.0,528.0
510.0,510.0,504.0,503.0,524.0
501.0,508.0,514.0,508.0,517.0
497.0,509.0,517.0,519.0,510.0
494.0,504.0,518.0,529.0,509.0
498.0,507.0,527.0,543.0,498.0
494.0,507.0,527.0,549.0,494.0
501.0,507.0,525.0,550.0,496.0
521.0,502.0,518.0,540.0,493.0
525.0,498.0,512.0,539.0,501.0
513.0,493.0,503.0,523.0,511.0
509.0,496.0,497.0,507.0,516.0
511.0,496.0,495.0,494.0,517.0
515.0,502.0,500.0,493.0,520.0
519.0,509.0,505.0,492.0,527.0
523.0,518.0,510.0,488.0,522.0
524.0,516.0,516.0,495.0,527.0
517.0,511.0,513.0,494.0,526.0
513.0,507.0,512.0,495.0,526.0
510.0,506.0,518.0,500.0,517.0
516.0,509.0,525.0,513.0,513.0
520.0,515.0,537.0,523.0,508.0
529.0,515.0,543.0,532.0,502.0
535.0,511.0,542.0,535.0,494.0
523.0,504.0,532.0,533.0,499.0
511.0,497.0,511.0,527.0,505.0
504.0,492.0,504.0,523.0,503.0
502.0,491.0,496.0,516.0,511.0
496.0,494.0,508.0,509.0,519.0
506.0,500.0,525.0,506.0,521.0
512.0,509.0,538.0,505.0,521.0
511.0,513.0,547.0,505.0,526.0
515.0,515.0,542.0,504.0,525.0
513.0,512.0,501.0,498.0,541.0
509.0,504.0,471.0,491.0,535.0
513.0,506.0,496.0,494.0,529.0
514.0,507.0,509.0,505.0,519.0
529.0,511.0,517.0,517.0,509.0
527.0,512.0,523.0,530.0,504.0
528.0,511.0,527.0,538.0,495.0
519.0,505.0,521.0,537.0,497.0
514.0,501.0,512.0,540.0,499.0
509.0,498.0,507.0,535.0,503.0
502.0,494.0,504.0,526.0,509.0
502.0,493.0,499.0,516.0,517.0
499.0,495.0,495.0,506.0,523.0
503.0,502.0,498.0,505.0,526.0
507.0,509.0,503.0,501.0,527.0
511.0,514.0,509.0,499.0,530.0
515.0,518.0,512.0,501.0,529.0
513.0,514.0,509.0,499.0,533.0
514.0,508.0,510.0,502.0,533.0
516.0,506.0,513.0,506.0,526.0
521.0,509.0,518.0,514.0,513.0
520.0,509.0,522.0,522.0,506.0
517.0,513.0,530.0,533.0,498.0
520.0,512.0,535.0,541.0,486.0
516.0,504.0,524.0,540.0,488.0
509.0,498.0,519.0,535.0,492.0
498.0,496.0,514.0,535.0,494.0
499.0,492.0,503.0,519.0,504.0
502.0,497.0,501.0,512.0,517.0
500.0,497.0,499.0,504.0,521.0
500.0,504.0,504.0,506.0,528.0
518.0,511.0,508.0,503.0,528.0
518.0,513.0,509.0,497.0,531.0
520.0,514.0,507.0,491.0,529.0
515.0,509.0,510.0,492.0,531.0
510.0,509.0,517.0,502.0,533.0
516.0,510.0,520.0,506.0,522.0
522.0,508.0,523.0,515.0,506.0
526.0,513.0,526.0,526.0,490.0
529.0,514.0,531.0,539.0,491.0
526.0,511.0,527.0,542.0,493.0
521.0,501.0,517.0,538.0,497.0
515.0,497.0,512.0,535.0,492.0
512.0,497.0,509.0,533.0,493.0
500.0,499.0,500.0,515.0,510.0
498.0,499.0,496.0,506.0,518.0
501.0,503.0,494.0,499.0,523.0
507.0,505.0,496.0,497.0,528.0
518.0,515.0,501.0,499.0,525.0
511.0,516.0,504.0,490.0,530.0
515.0,515.0,504.0,488.0,535.0
516.0,514.0,510.0,494.0,534.0
513.0,513.0,510.0,503.0,521.0
522.0,508.0,510.0,510.0,510.0
525.0,509.0,520.0,523.0,505.0
528.0,513.0,530.0,533.0,503.0
528.0,512.0,535.0,537.0,493.0
523.0,512.0,542.0,540.0,493.0
518.0,507.0,537.0,541.0,499.0
511.0,500.0,516.0,542.0,504.0
507.0,497.0,501.0,531.0,509.0
494.0,494.0,497.0,516.0,523.0
490.0,494.0,507.0,508.0,532.0
496.0,503.0,512.0,499.0,530.0
499.0,507.0,526.0,496.0,529.0
502.0,510.0,521.0,498.0,531.0
510.0,511.0,524.0,496.0,529.0
515.0,509.0,518.0,497.0,531.0
512.0,508.0,522.0,496.0,529.0
523.0,510.0,525.0,504.0,525.0
517.0,511.0,520.0,516.0,523.0
515.0,508.0,501.0,519.0,515.0
513.0,509.0,520.0,530.0,501.0
510.0,509.0,528.0,540.0,498.0
501.0,505.0,522.0,543.0,498.0
501.0,503.0,513.0,536.0,499.0
497.0,495.0,507.0,530.0,499.0
507.0,496.0,503.0,529.0,506.0
520.0,498.0,500.0,514.0,516.0
508.0,501.0,499.0,507.0,526.0
508.0,506.0,498.0,502.0,533.0
527.0,512.0,506.0,501.0,532.0
534.0,516.0,511.0,496.0,535.0
521.0,515.0,512.0,501.0,527.0
513.0,514.0,514.0,501.0,529.0
515.0,513.0,515.0,503.0,523.0
515.0,510.0,522.0,505.0,520.0
516.0,510.0,524.0,514.0,512.0
520.0,512.0,523.0,517.0,502.0
528.0,516.0,535.0,533.0,502.0
522.0,512.0,535.0,540.0,496.0
516.0,507.0,532.0,541.0,496.0
517.0,500.0,523.0,533.0,504.0
514.0,496.0,513.0,533.0,508.0
512.0,491.0,489.0,521.0,515.0
512.0,496.0,489.0,511.0,531.0
510.0,503.0,497.0,506.0,534.0
499.0,506.0,499.0,504.0,535.0
501.0,508.0,501.0,488.0,541.0
520.0,516.0,509.0,491.0,537.0
525.0,514.0,517.0,500.0,516.0
522.0,511.0,522.0,504.0,508.0
515.0,514.0,529.0,511.0,503.0
513.0,512.0,534.0,521.0,498.0
519.0,514.0,528.0,525.0,501.0
514.0,510.0,526.0,536.0,495.0
506.0,510.0,530.0,536.0,492.0
507.0,508.0,535.0,541.0,490.0
507.0,504.0,531.0,543.0,484.0
498.0,498.0,521.0,539.0,499.0
493.0,492.0,511.0,519.0,513.0
496.0,491.0,496.0,512.0,522.0
514.0,504.0,499.0,505.0,517.0
523.0,508.0,500.0,498.0,530.0
512.0,511.0,507.0,497.0,539.0
516.0,514.0,509.0,501.0,534.0
520.0,517.0,517.0,499.0,539.0
516.0,510.0,511.0,498.0,531.0
517.0,513.0,517.0,502.0,518.0
526.0,512.0,520.0,506.0,510.0
523.0,514.0,526.0,518.0,499.0
524.0,521.0,535.0,526.0,494.0
526.0,523.0,552.0,535.0,492.0
532.0,525.0,547.0,536.0,487.0
532.0,520.0,541.0,538.0,495.0
539.0,508.0,532.0,534.0,498.0
520.0,496.0,491.0,523.0,504.0
510.0,489.0,467.0,508.0,507.0
504.0,491.0,476.0,502.0,514.0
499.0,494.0,484.0,499.0,520.0
509.0,502.0,496.0,499.0,526.0
513.0,507.0,500.0,497.0,536.0
510.0,507.0,497.0,496.0,532.0
508.0,512.0,496.0,501.0,535.0
508.0,514.0,506.0,494.0,541.0
521.0,511.0,502.0,486.0,522.0
527.0,518.0,514.0,497.0,507.0
532.0,512.0,514.0,500.0,500.0
538.0,514.0,519.0,511.0,492.0
532.0,515.0,520.0,520.0,498.0
529.0,508.0,522.0,534.0,496.0
524.0,510.0,519.0,536.0,493.0
522.0,503.0,514.0,537.0,496.0
516.0,500.0,495.0,532.0,504.0
507.0,498.0,494.0,521.0,517.0
497.0,499.0,495.0,505.0,535.0
500.0,507.0,504.0,502.0,538.0
509.0,519.0,514.0,499.0,532.0
517.0,521.0,514.0,492.0,537.0
514.0,512.0,511.0,492.0,544.0
511.0,509.0,499.0,495.0,539.0
515.0,511.0,513.0,501.0,532.0
522.0,518.0,518.0,503.0,526.0
532.0,515.0,528.0,516.0,514.0
526.0,517.0,534.0,513.0,495.0
525.0,521.0,551.0,523.0,481.0
531.0,525.0,551.0,547.0,474.0
517.0,510.0,532.0,546.0,487.0
505.0,497.0,523.0,538.0,495.0
500.0,493.0,522.0,533.0,507.0
501.0,493.0,506.0,533.0,513.0
507.0,495.0,513.0,527.0,527.0
510.0,497.0,512.0,517.0,526.0
511.0,501.0,501.0,507.0,528.0
500.0,504.0,503.0,502.0,530.0
495.0,505.0,502.0,494.0,537.0
495.0,511.0,514.0,508.0,534.0
500.0,515.0,522.0,513.0,523.0
494.0,511.0,520.0,513.0,530.0
497.0,509.0,518.0,517.0,526.0
504.0,508.0,523.0,525.0,512.0
509.0,513.0,530.0,544.0,504.0
511.0,512.0,536.0,554.0,491.0
486.0,513.0,540.0,556.0,481.0
488.0,505.0,534.0,552.0,479.0
468.0,503.0,528.0,549.0,483.0
477.0,504.0,526.0,536.0,483.0
468.0,492.0,506.0,513.0,516.0
489.0,488.0,495.0,493.0,535.0
540.0,504.0,505.0,496.0,536.0
549.0,517.0,512.0,500.0,538.0
525.0,522.0,519.0,508.0,540.0
503.0,517.0,524.0,503.0,554.0
514.0,518.0,529.0,502.0,544.0
523.0,514.0,523.0,502.0,541.0
553.0,515.0,524.0,506.0,522.0
563.0,515.0,525.0,519.0,504.0
546.0,516.0,531.0,531.0,500.0
539.0,518.0,542.0,538.0,506.0
524.0,513.0,541.0,547.0,500.0
506.0,509.0,536.0,549.0,491.0
491.0,505.0,527.0,543.0,494.0
493.0,500.0,517.0,535.0,509.0
520.0,505.0,515.0,532.0,497.0
523.0,500.0,504.0,525.0,505.0
506.0,496.0,498.0,518.0,523.0
510.0,502.0,504.0,511.0,523.0
531.0,510.0,521.0,513.0,502.0
523.0,511.0,520.0,504.0,507.0
526.0,518.0,541.0,510.0,494.0
524.0,514.0,543.0,500.0,489.0
512.0,505.0,502.0,489.0,501.0
505.0,499.0,487.0,489.0,499.0
505.0,499.0,492.0,502.0,492.0
520.0,503.0,495.0,517.0,481.0
519.0,499.0,493.0,522.0,485.0
506.0,503.0,501.0,528.0,481.0
496.0,506.0,515.0,537.0,483.0
490.0,508.0,519.0,533.0,507.0
494.0,500.0,512.0,529.0,514.0
536.0,502.0,504.0,509.0,504.0
543.0,503.0,489.0,491.0,516.0
536.0,498.0,477.0,477.0,526.0
543.0,509.0,485.0,482.0,531.0
545.0,517.0,503.0,492.0,532.0
520.0,499.0,511.0,492.0,542.0
529.0,494.0,503.0,480.0,548.0
541.0,503.0,508.0,498.0,520.0
535.0,515.0,536.0,512.0,516.0
519.0,513.0,526.0,511.0,525.0
519.0,509.0,511.0,515.0,518.0
535.0,519.0,526.0,533.0,499.0
544.0,536.0,547.0,538.0,481.0
531.0,528.0,544.0,519.0,489.0
524.0,508.0,532.0,521.0,486.0
520.0,494.0,514.0,544.0,491.0
514.0,484.0,488.0,546.0,490.0
514.0,476.0,479.0,547.0,500.0
510.0,487.0,504.0,545.0,514.0
512.0,484.0,516.0,544.0,514.0
519.0,481.0,489.0,516.0,526.0
526.0,487.0,497.0,499.0,527.0
526.0,481.0,518.0,495.0,526.0
511.0,492.0,522.0,490.0,525.0
499.0,505.0,493.0,468.0,527.0
500.0,512.0,509.0,469.0,519.0
510.0,531.0,512.0,475.0,511.0
517.0,549.0,503.0,496.0,501.0
530.0,559.0,517.0,510.0,497.0
522.0,539.0,522.0,531.0,493.0
518.0,517.0,513.0,517.0,503.0
537.0,512.0,509.0,501.0,508.0
521.0,502.0,501.0,501.0,502.0
501.0,500.0,500.0,498.0,502.0
496.0,496.0,498.0,475.0,509.0
483.0,497.0,482.0,451.0,524.0
484.0,506.0,501.0,480.0,527.0
477.0,506.0,507.0,488.0,532.0
469.0,508.0,513.0,488.0,544.0
475.0,520.0,522.0,502.0,543.0
495.0,529.0,525.0,524.0,541.0
503.0,524.0,520.0,517.0,546.0
520.0,525.0,537.0,545.0,527.0
502.0,518.0,546.0,549.0,525.0
505.0,515.0,544.0,544.0,517.0
515.0,516.0,538.0,546.0,500.0
485.0,512.0,535.0,554.0,481.0
426.0,502.0,528.0,547.0,495.0
420.0,501.0,521.0,540.0,500.0
403.0,498.0,518.0,526.0,493.0
396.0,500.0,524.0,512.0,506.0
437.0,504.0,527.0,504.0,523.0
507.0,506.0,525.0,508.0,536.0
510.0,511.0,523.0,510.0,555.0
521.0,512.0,520.0,495.0,550.0
550.0,521.0,522.0,505.0,537.0
515.0,516.0,520.0,493.0,537.0
490.0,508.0,522.0,501.0,530.0
438.0,497.0,516.0,502.0,536.0
449.0,504.0,531.0,548.0,510.0
496.0,509.0,532.0,562.0,489.0
541.0,515.0,527.0,567.0,475.0
558.0,530.0,533.0,572.0,474.0
558.0,526.0,531.0,556.0,469.0
541.0,525.0,541.0,551.0,490.0
501.0,502.0,531.0,542.0,508.0
475.0,490.0,517.0,528.0,516.0
472.0,492.0,515.0,500.0,529.0
497.0,496.0,502.0,466.0,525.0
568.0,489.0,489.0,438.0,511.0
575.0,501.0,494.0,445.0,512.0
545.0,512.0,503.0,449.0,533.0
517.0,517.0,509.0,462.0,551.0
506.0,517.0,513.0,478.0,556.0
519.0,512.0,517.0,513.0,548.0
532.0,517.0,531.0,553.0,531.0
546.0,518.0,529.0,567.0,516.0
544.0,509.0,513.0,532.0,507.0
530.0,510.0,515.0,516.0,493.0
498.0,507.0,524.0,526.0,481.0
476.0,503.0,514.0,516.0,474.0
476.0,502.0,506.0,524.0,471.0
441.0,498.0,502.0,526.0,487.0
447.0,491.0,501.0,526.0,497.0
497.0,489.0,509.0,529.0,494.0
521.0,506.0,520.0,550.0,488.0
560.0,521.0,529.0,576.0,485.0
564.0,520.0,523.0,547.0,509.0
573.0,516.0,487.0,523.0,514.0
556.0,507.0,478.0,531.0,516.0
557.0,512.0,484.0,509.0,513.0
516.0,497.0,469.0,472.0,539.0
508.0,489.0,476.0,482.0,534.0
504.0,499.0,494.0,488.0,525.0
514.0,512.0,506.0,511.0,509.0
539.0,507.0,503.0,508.0,499.0
545.0,505.0,505.0,518.0,481.0
564.0,507.0,518.0,525.0,484.0
571.0,499.0,507.0,514.0,482.0
542.0,497.0,482.0,503.0,493.0
511.0,486.0,473.0,481.0,502.0
506.0,496.0,499.0,488.0,506.0
500.0,504.0,512.0,491.0,512.0
499.0,505.0,515.0,495.0,521.0
502.0,509.0,529.0,513.0,513.0
521.0,501.0,530.0,515.0,524.0
518.0,496.0,526.0,516.0,532.0
495.0,484.0,525.0,488.0,557.0
508.0,486.0,515.0,468.0,543.0
534.0,491.0,534.0,470.0,516.0
534.0,506.0,552.0,510.0,505.0
541.0,505.0,535.0,507.0,491.0
539.0,509.0,542.0,501.0,484.0
541.0,509.0,543.0,505.0,482.0
531.0,507.0,539.0,535.0,488.0
509.0,496.0,531.0,549.0,499.0
497.0,516.0,540.0,547.0,515.0
489.0,524.0,523.0,555.0,522.0
487.0,532.0,516.0,576.0,523.0
497.0,526.0,517.0,569.0,523.0
503.0,524.0,511.0,556.0,541.0
507.0,529.0,526.0,562.0,538.0
500.0,523.0,526.0,544.0,538.0
504.0,518.0,525.0,518.0,534.0
506.0,520.0,544.0,533.0,522.0
508.0,514.0,542.0,493.0,516.0
508.0,511.0,499.0,500.0,501.0
521.0,507.0,511.0,490.0,510.0
517.0,505.0,528.0,495.0,523.0
516.0,494.0,525.0,498.0,506.0
497.0,483.0,512.0,478.0,485.0
502.0,490.0,522.0,514.0,480.0
473.0,489.0,522.0,508.0,493.0
441.0,494.0,500.0,484.0,506.0
424.0,494.0,492.0,472.0,513.0
444.0,500.0,483.0,478.0,508.0
483.0,505.0,495.0,485.0,503.0
493.0,508.0,484.0,486.0,521.0
508.0,517.0,502.0,516.0,529.0
495.0,522.0,511.0,534.0,517.0
540.0,534.0,518.0,531.0,511.0
559.0,541.0,532.0,534.0,495.0
570.0,537.0,532.0,538.0,484.0
528.0,528.0,542.0,530.0,502.0
505.0,524.0,541.0,536.0,499.0
462.0,523.0,532.0,531.0,518.0
457.0,510.0,524.0,549.0,523.0
476.0,500.0,511.0,530.0,534.0
477.0,494.0,516.0,525.0,514.0
506.0,495.0,510.0,505.0,515.0
520.0,503.0,499.0,501.0,558.0
563.0,501.0,489.0,515.0,522.0
547.0,503.0,496.0,527.0,510.0
518.0,503.0,497.0,541.0,522.0
483.0,498.0,486.0,529.0,532.0
472.0,500.0,482.0,537.0,531.0
468.0,513.0,497.0,519.0,520.0
483.0,502.0,487.0,464.0,522.0
539.0,519.0,499.0,473.0,503.0
570.0,523.0,518.0,462.0,478.0
572.0,516.0,516.0,432.0,494.0
586.0,536.0,536.0,485.0,470.0
577.0,532.0,543.0,529.0,457.0
549.0,513.0,544.0,526.0,488.0
500.0,501.0,530.0,529.0,483.0
436.0,496.0,516.0,500.0,481.0
388.0,484.0,514.0,493.0,488.0
346.0,480.0,490.0,469.0,522.0
341.0,489.0,479.0,444.0,525.0
455.0,490.0,465.0,441.0,508.0
490.0,491.0,469.0,450.0,527.0
459.0,483.0,474.0,468.0,562.0
483.0,495.0,487.0,467.0,550.0
459.0,502.0,494.0,482.0,540.0
517.0,509.0,484.0,484.0,514.0
580.0,518.0,492.0,505.0,509.0
589.0,518.0,506.0,526.0,505.0
614.0,521.0,517.0,540.0,495.0
592.0,526.0,548.0,568.0,481.0
602.0,532.0,578.0,610.0,462.0
614.0,535.0,578.0,582.0,447.0
575.0,517.0,541.0,538.0,475.0
547.0,494.0,517.0,523.0,490.0
536.0,498.0,510.0,539.0,512.0
521.0,503.0,503.0,538.0,514.0
500.0,488.0,472.0,531.0,513.0
492.0,482.0,467.0,568.0,498.0
492.0,487.0,459.0,589.0,488.0
489.0,505.0,490.0,592.0,505.0
478.0,523.0,521.0,571.0,501.0
514.0,551.0,587.0,534.0,503.0
539.0,522.0,540.0,433.0,548.0
528.0,505.0,499.0,476.0,538.0
526.0,500.0,473.0,450.0,527.0
562.0,517.0,486.0,433.0,500.0
557.0,532.0,500.0,418.0,493.0
545.0,519.0,482.0,438.0,496.0
507.0,502.0,449.0,474.0,494.0
465.0,482.0,438.0,547.0,462.0
440.0,481.0,449.0,569.0,459.0
406.0,474.0,450.0,559.0,474.0
471.0,490.0,487.0,587.0,480.0
543.0,502.0,515.0,544.0,475.0
539.0,512.0,550.0,506.0,498.0
521.0,519.0,576.0,476.0,544.0
504.0,514.0,545.0,421.0,553.0
508.0,518.0,539.0,406.0,571.0
511.0,517.0,549.0,475.0,574.0
542.0,512.0,554.0,514.0,530.0
545.0,512.0,562.0,526.0,522.0
533.0,513.0,569.0,541.0,533.0
542.0,517.0,580.0,578.0,513.0
510.0,515.0,538.0,538.0,497.0
491.0,502.0,534.0,518.0,477.0
469.0,521.0,556.0,533.0,489.0
491.0,506.0,562.0,560.0,505.0
515.0,491.0,542.0,531.0,510.0
539.0,476.0,511.0,458.0,503.0
562.0,481.0,522.0,496.0,482.0
522.0,470.0,505.0,483.0,501.0
465.0,468.0,481.0,497.0,515.0
417.0,479.0,470.0,548.0,523.0
396.0,491.0,468.0,551.0,524.0
374.0,500.0,470.0,547.0,536.0
398.0,501.0,463.0,515.0,514.0
513.0,516.0,491.0,518.0,481.0
598.0,527.0,507.0,443.0,496.0
600.0,515.0,498.0,438.0,493.0
557.0,520.0,529.0,504.0,457.0
542.0,518.0,525.0,516.0,453.0
575.0,544.0,538.0,493.0,450.0
553.0,529.0,498.0,370.0,486.0
540.0,523.0,500.0,367.0,486.0
528.0,515.0,520.0,419.0,495.0
486.0,484.0,512.0,537.0,521.0
475.0,485.0,518.0,573.0,540.0
480.0,495.0,533.0,548.0,533.0
453.0,499.0,520.0,516.0,531.0
465.0,503.0,517.0,545.0,544.0
502.0,518.0,519.0,563.0,535.0
497.0,498.0,508.0,541.0,528.0
420.0,486.0,517.0,530.0,541.0
427.0,479.0,519.0,513.0,536.0
475.0,485.0,546.0,515.0,509.0
467.0,504.0,564.0,500.0,517.0
478.0,504.0,544.0,503.0,520.0
594.0,522.0,544.0,520.0,513.0
632.0,546.0,552.0,553.0,496.0
612.0,537.0,546.0,575.0,455.0
597.0,529.0,530.0,560.0,466.0
541.0,513.0,506.0,527.0,458.0
522.0,511.0,504.0,515.0,440.0
501.0,494.0,486.0,499.0,452.0
485.0,477.0,457.0,482.0,502.0
496.0,509.0,504.0,524.0,506.0
535.0,540.0,524.0,522.0,508.0
469.0,529.0,512.0,491.0,523.0
398.0,496.0,490.0,466.0,537.0
380.0,481.0,495.0,464.0,537.0
367.0,489.0,526.0,466.0,529.0
443.0,502.0,535.0,495.0,523.0
510.0,524.0,535.0,512.0,502.0
620.0,523.0,557.0,601.0,457.0
652.0,527.0,563.0,627.0,445.0
582.0,519.0,555.0,611.0,450.0
549.0,532.0,552.0,611.0,453.0
568.0,544.0,538.0,580.0,447.0
550.0,521.0,498.0,472.0,471.0
532.0,496.0,458.0,411.0,511.0
463.0,488.0,439.0,422.0,534.0
444.0,481.0,436.0,445.0,527.0
431.0,481.0,454.0,458.0,519.0
419.0,493.0,489.0,492.0,514.0
440.0,506.0,501.0,531.0,520.0
525.0,530.0,518.0,587.0,497.0
600.0,534.0,523.0,565.0,487.0
603.0,532.0,521.0,559.0,497.0
593.0,513.0,498.0,518.0,497.0
584.0,532.0,517.0,488.0,464.0
606.0,527.0,537.0,501.0,421.0
599.0,515.0,557.0,523.0,410.0
558.0,491.0,508.0,432.0,500.0
522.0,489.0,469.0,462.0,503.0
520.0,481.0,425.0,537.0,485.0
521.0,487.0,405.0,575.0,482.0
499.0,481.0,380.0,562.0,474.0
535.0,492.0,357.0,533.0,474.0
545.0,522.0,451.0,548.0,460.0
530.0,527.0,518.0,526.0,484.0
497.0,497.0,511.0,435.0,511.0
504.0,468.0,531.0,448.0,524.0
531.0,459.0,557.0,519.0,509.0
520.0,483.0,586.0,490.0,524.0
526.0,470.0,560.0,472.0,537.0
539.0,456.0,564.0,525.0,508.0
523.0,473.0,582.0,546.0,493.0
514.0,503.0,604.0,536.0,489.0
499.0,527.0,604.0,501.0,480.0
450.0,513.0,564.0,487.0,467.0
391.0,481.0,536.0,428.0,515.0
352.0,472.0,497.0,438.0,571.0
382.0,495.0,489.0,460.0,573.0
505.0,536.0,539.0,556.0,549.0
570.0,561.0,567.0,616.0,520.0
549.0,546.0,534.0,544.0,514.0
551.0,534.0,508.0,510.0,512.0
536.0,514.0,504.0,479.0,542.0
480.0,489.0,495.0,479.0,582.0
468.0,508.0,520.0,474.0,564.0
468.0,521.0,522.0,481.0,542.0
450.0,524.0,516.0,483.0,527.0
431.0,523.0,514.0,503.0,507.0
510.0,520.0,514.0,542.0,477.0
526.0,510.0,524.0,588.0,436.0
497.0,517.0,542.0,658.0,422.0
539.0,525.0,542.0,654.0,408.0
552.0,524.0,548.0,593.0,451.0
506.0,510.0,535.0,535.0,498.0
521.0,509.0,525.0,474.0,544.0
532.0,513.0,529.0,468.0,530.0
508.0,519.0,512.0,432.0,541.0
519.0,522.0,512.0,530.0,537.0
500.0,526.0,510.0,574.0,508.0
478.0,519.0,517.0,601.0,468.0
490.0,517.0,518.0,553.0,457.0
502.0,495.0,495.0,530.0,444.0
476.0,480.0,475.0,485.0,461.0
415.0,487.0,473.0,442.0,473.0
387.0,495.0,473.0,472.0,487.0
371.0,508.0,515.0,529.0,506.0
456.0,537.0,544.0,542.0,513.0
616.0,543.0,537.0,516.0,499.0
684.0,534.0,518.0,501.0,484.0
641.0,525.0,480.0,448.0,477.0
591.0,526.0,475.0,419.0,510.0
581.0,508.0,496.0,490.0,505.0
527.0,502.0,489.0,514.0,519.0
476.0,519.0,450.0,477.0,533.0
457.0,528.0,427.0,510.0,506.0
411.0,525.0,446.0,474.0,529.0
410.0,475.0,413.0,376.0,576.0
497.0,442.0,377.0,390.0,576.0
603.0,474.0,425.0,543.0,543.0
577.0,490.0,492.0,629.0,523.0
559.0,506.0,530.0,585.0,526.0
600.0,523.0,588.0,553.0,477.0
570.0,513.0,579.0,530.0,466.0
538.0,505.0,572.0,500.0,456.0
518.0,500.0,569.0,520.0,470.0
507.0,495.0,565.0,521.0,492.0
514.0,514.0,568.0,535.0,519.0
483.0,511.0,552.0,498.0,538.0
469.0,502.0,537.0,485.0,546.0
448.0,493.0,525.0,488.0,593.0
531.0,505.0,523.0,494.0,554.0
568.0,527.0,537.0,537.0,502.0
586.0,510.0,533.0,602.0,505.0
564.0,506.0,546.0,578.0,488.0
549.0,514.0,551.0,567.0,464.0
550.0,516.0,548.0,536.0,448.0
568.0,543.0,574.0,523.0,445.0
566.0,563.0,574.0,487.0,470.0
538.0,555.0,567.0,458.0,488.0
532.0,530.0,566.0,467.0,502.0
520.0,498.0,509.0,459.0,515.0
506.0,472.0,496.0,484.0,512.0
492.0,472.0,506.0,525.0,502.0
482.0,473.0,509.0,549.0,483.0
445.0,471.0,507.0,605.0,502.0
483.0,497.0,526.0,651.0,503.0
481.0,506.0,518.0,648.0,513.0
496.0,503.0,511.0,566.0,493.0
545.0,547.0,562.0,521.0,488.0
499.0,509.0,488.0,413.0,512.0
501.0,489.0,429.0,394.0,570.0
521.0,505.0,455.0,462.0,550.0
527.0,498.0,489.0,488.0,528.0
536.0,497.0,533.0,496.0,530.0
525.0,497.0,544.0,490.0,517.0
542.0,530.0,556.0,456.0,494.0
535.0,517.0,535.0,481.0,464.0
518.0,502.0,510.0,503.0,480.0
507.0,486.0,513.0,526.0,500.0
490.0,482.0,511.0,531.0,503.0
472.0,479.0,502.0,536.0,512.0
467.0,467.0,466.0,508.0,539.0
481.0,481.0,444.0,498.0,521.0
496.0,484.0,433.0,462.0,514.0
520.0,497.0,435.0,480.0,531.0
544.0,522.0,448.0,483.0,516.0
560.0,555.0,493.0,522.0,495.0
537.0,536.0,514.0,498.0,511.0
512.0,503.0,523.0,484.0,532.0
471.0,476.0,497.0,404.0,562.0
453.0,473.0,491.0,468.0,548.0
439.0,479.0,508.0,551.0,509.0
441.0,478.0,505.0,545.0,507.0
440.0,482.0,524.0,556.0,524.0
460.0,497.0,557.0,559.0,509.0
484.0,502.0,551.0,561.0,493.0
547.0,510.0,521.0,594.0,492.0
507.0,514.0,511.0,579.0,497.0
480.0,524.0,517.0,527.0,494.0
493.0,520.0,522.0,522.0,500.0
496.0,511.0,499.0,499.0,514.0
495.0,513.0,491.0,482.0,501.0
549.0,521.0,474.0,444.0,519.0
442.0,507.0,475.0,541.0,534.0
406.0,504.0,488.0,587.0,519.0
366.0,504.0,505.0,553.0,545.0
386.0,517.0,501.0,501.0,502.0
407.0,512.0,518.0,450.0,487.0
612.0,534.0,547.0,443.0,471.0
797.0,563.0,576.0,497.0,458.0
667.0,554.0,584.0,528.0,470.0
573.0,534.0,577.0,559.0,499.0
544.0,523.0,566.0,569.0,511.0
536.0,511.0,553.0,533.0,522.0
519.0,502.0,547.0,522.0,536.0
531.0,518.0,569.0,548.0,531.0
540.0,525.0,571.0,578.0,532.0
515.0,542.0,569.0,577.0,522.0
475.0,536.0,547.0,524.0,522.0
409.0,509.0,509.0,493.0,533.0
411.0,486.0,479.0,458.0,521.0
427.0,474.0,461.0,500.0,519.0
404.0,490.0,446.0,541.0,511.0
438.0,474.0,393.0,540.0,490.0
536.0,493.0,396.0,560.0,486.0
623.0,503.0,408.0,554.0,459.0
578.0,489.0,413.0,500.0,462.0
528.0,465.0,456.0,542.0,482.0
567.0,486.0,493.0,557.0,483.0
635.0,485.0,501.0,506.0,469.0
619.0,486.0,517.0,469.0,476.0
589.0,506.0,552.0,484.0,498.0
580.0,518.0,544.0,473.0,484.0
557.0,503.0,514.0,436.0,491.0
532.0,506.0,505.0,463.0,516.0
539.0,525.0,529.0,521.0,520.0
535.0,531.0,519.0,510.0,507.0
519.0,521.0,504.0,465.0,499.0
521.0,510.0,520.0,487.0,504.0
538.0,517.0,531.0,505.0,489.0
522.0,511.0,546.0,552.0,493.0
522.0,494.0,525.0,537.0,447.0
542.0,501.0,532.0,579.0,439.0
515.0,504.0,521.0,574.0,481.0
499.0,513.0,514.0,518.0,500.0
533.0,516.0,520.0,524.0,517.0
486.0,520.0,556.0,466.0,531.0
505.0,502.0,534.0,481.0,539.0
528.0,504.0,538.0,490.0,543.0
513.0,508.0,534.0,455.0,568.0
514.0,531.0,539.0,488.0,570.0
518.0,525.0,511.0,461.0,549.0
507.0,515.0,509.0,454.0,547.0
516.0,506.0,518.0,498.0,518.0
517.0,502.0,548.0,535.0,531.0
524.0,493.0,551.0,568.0,524.0
531.0,493.0,560.0,602.0,499.0
527.0,506.0,580.0,603.0,487.0
524.0,518.0,562.0,577.0,486.0
525.0,516.0,532.0,524.0,480.0
519.0,521.0,513.0,482.0,490.0
510.0,510.0,499.0,510.0,499.0
513.0,511.0,502.0,497.0,492.0
490.0,506.0,501.0,489.0,495.0
480.0,511.0,522.0,541.0,492.0
467.0,494.0,508.0,534.0,520.0
446.0,491.0,515.0,525.0,543.0
472.0,511.0,515.0,545.0,533.0
485.0,533.0,522.0,552.0,513.0
441.0,519.0,511.0,458.0,538.0
408.0,492.0,481.0,395.0,550.0
463.0,478.0,480.0,393.0,564.0
473.0,488.0,491.0,456.0,545.0
505.0,493.0,506.0,523.0,530.0
535.0,510.0,548.0,599.0,492.0
492.0,518.0,586.0,590.0,495.0
459.0,493.0,572.0,566.0,538.0
529.0,509.0,532.0,521.0,539.0
557.0,525.0,518.0,540.0,491.0
517.0,510.0,520.0,564.0,520.0
501.0,481.0,490.0,527.0,526.0
570.0,500.0,488.0,507.0,490.0
533.0,503.0,478.0,538.0,473.0
455.0,490.0,475.0,559.0,476.0
435.0,502.0,491.0,555.0,481.0
433.0,504.0,456.0,566.0,485.0
485.0,522.0,453.0,567.0,460.0
587.0,539.0,462.0,478.0,470.0
591.0,535.0,473.0,509.0,495.0
575.0,523.0,482.0,450.0,490.0
539.0,514.0,498.0,422.0,484.0
506.0,481.0,506.0,424.0,505.0
468.0,490.0,554.0,459.0,530.0
467.0,499.0,589.0,447.0,484.0
502.0,497.0,556.0,429.0,475.0
543.0,512.0,576.0,548.0,488.0
516.0,518.0,582.0,580.0,509.0
526.0,517.0,576.0,564.0,492.0
603.0,517.0,557.0,574.0,505.0
557.0,507.0,520.0,530.0,539.0
585.0,511.0,483.0,546.0,475.0
559.0,506.0,431.0,489.0,456.0
510.0,486.0,368.0,453.0,514.0
492.0,475.0,338.0,451.0,490.0
493.0,478.0,375.0,500.0,482.0
424.0,486.0,423.0,498.0,522.0
389.0,456.0,454.0,520.0,579.0
386.0,463.0,461.0,467.0,589.0
430.0,497.0,509.0,529.0,578.0
492.0,504.0,522.0,517.0,570.0
634.0,533.0,519.0,504.0,534.0
676.0,545.0,524.0,541.0,515.0
634.0,513.0,502.0,592.0,508.0
569.0,498.0,523.0,588.0,502.0
568.0,523.0,553.0,533.0,466.0
560.0,541.0,545.0,525.0,455.0
552.0,524.0,536.0,551.0,457.0
549.0,537.0,550.0,497.0,465.0
540.0,547.0,543.0,410.0,516.0
523.0,527.0,530.0,408.0,549.0
535.0,533.0,554.0,532.0,512.0
507.0,523.0,546.0,547.0,509.0
496.0,511.0,541.0,514.0,486.0
491.0,494.0,539.0,498.0,484.0
528.0,507.0,564.0,527.0,490.0
557.0,521.0,598.0,603.0,515.0
526.0,523.0,624.0,611.0,503.0
499.0,501.0,571.0,528.0,562.0
509.0,509.0,576.0,520.0,526.0
448.0,510.0,563.0,514.0,507.0
437.0,506.0,562.0,564.0,498.0
470.0,525.0,576.0,585.0,483.0
501.0,530.0,578.0,564.0,501.0
565.0,521.0,545.0,484.0,518.0
625.0,518.0,533.0,465.0,491.0
557.0,518.0,487.0,432.0,520.0
524.0,524.0,464.0,553.0,525.0
518.0,520.0,442.0,544.0,522.0
523.0,517.0,476.0,509.0,523.0
531.0,538.0,526.0,423.0,507.0
521.0,551.0,592.0,457.0,493.0
528.0,518.0,614.0,555.0,534.0
490.0,473.0,535.0,548.0,540.0
419.0,474.0,526.0,519.0,513.0
390.0,473.0,518.0,534.0,515.0
338.0,455.0,473.0,481.0,499.0
327.0,445.0,447.0,459.0,511.0
442.0,468.0,468.0,522.0,484.0
604.0,508.0,482.0,544.0,480.0
590.0,525.0,498.0,545.0,532.0
576.0,520.0,486.0,527.0,533.0
636.0,528.0,535.0,503.0,526.0
570.0,516.0,551.0,491.0,538.0
547.0,511.0,508.0,423.0,551.0
534.0,511.0,511.0,476.0,540.0
489.0,509.0,538.0,542.0,534.0
475.0,504.0,528.0,498.0,516.0
540.0,536.0,545.0,490.0,464.0
547.0,534.0,544.0,517.0,481.0
533.0,504.0,504.0,555.0,464.0
507.0,489.0,489.0,569.0,460.0
505.0,495.0,493.0,541.0,483.0
452.0,502.0,485.0,528.0,496.0
409.0,480.0,425.0,501.0,521.0
413.0,477.0,380.0,463.0,553.0
460.0,489.0,390.0,486.0,560.0
525.0,500.0,423.0,497.0,532.0
564.0,509.0,454.0,512.0,515.0
619.0,513.0,472.0,560.0,515.0
608.0,513.0,467.0,533.0,521.0
581.0,542.0,512.0,511.0,451.0
510.0,531.0,540.0,472.0,449.0
479.0,509.0,560.0,469.0,458.0
496.0,490.0,567.0,511.0,503.0
472.0,472.0,575.0,540.0,529.0
483.0,508.0,554.0,534.0,553.0
556.0,519.0,546.0,531.0,506.0
587.0,528.0,543.0,497.0,490.0
564.0,526.0,534.0,542.0,516.0
504.0,510.0,517.0,578.0,504.0
474.0,485.0,477.0,560.0,511.0
488.0,485.0,501.0,575.0,522.0
513.0,510.0,541.0,641.0,496.0
536.0,520.0,528.0,576.0,494.0
552.0,538.0,538.0,509.0,536.0
536.0,538.0,519.0,473.0,548.0
547.0,531.0,512.0,451.0,496.0
546.0,524.0,506.0,444.0,494.0
526.0,538.0,522.0,456.0,505.0
535.0,502.0,525.0,457.0,507.0
518.0,483.0,517.0,438.0,496.0
504.0,486.0,515.0,476.0,534.0
494.0,505.0,533.0,510.0,512.0
474.0,521.0,544.0,595.0,492.0
476.0,517.0,512.0,633.0,469.0
513.0,509.0,504.0,599.0,474.0
526.0,510.0,523.0,566.0,477.0
569.0,517.0,503.0,524.0,467.0
556.0,510.0,524.0,459.0,464.0
549.0,504.0,536.0,495.0,479.0
536.0,481.0,481.0,483.0,496.0
519.0,486.0,490.0,470.0,513.0
530.0,503.0,505.0,506.0,550.0
544.0,522.0,514.0,588.0,528.0
508.0,497.0,471.0,487.0,549.0
466.0,469.0,459.0,445.0,547.0
499.0,504.0,466.0,437.0,502.0
531.0,508.0,467.0,443.0,492.0
550.0,501.0,448.0,476.0,485.0
521.0,525.0,468.0,554.0,502.0
532.0,556.0,488.0,628.0,528.0
507.0,534.0,512.0,639.0,526.0
531.0,520.0,547.0,548.0,514.0
450.0,456.0,519.0,472.0,529.0
435.0,440.0,471.0,421.0,537.0
444.0,467.0,520.0,427.0,511.0
450.0,470.0,520.0,442.0,538.0
458.0,472.0,524.0,503.0,552.0
452.0,479.0,521.0,538.0,562.0
422.0,497.0,530.0,508.0,528.0
363.0,506.0,561.0,531.0,517.0
462.0,510.0,546.0,520.0,528.0
605.0,550.0,585.0,586.0,505.0
612.0,566.0,630.0,638.0,474.0
562.0,561.0,618.0,597.0,477.0
561.0,540.0,621.0,587.0,480.0
575.0,524.0,606.0,580.0,480.0
558.0,502.0,559.0,493.0,525.0
531.0,506.0,546.0,441.0,562.0
508.0,499.0,516.0,418.0,586.0
485.0,490.0,497.0,474.0,555.0
449.0,491.0,491.0,482.0,515.0
453.0,505.0,504.0,475.0,497.0
467.0,525.0,535.0,496.0,481.0
529.0,526.0,555.0,540.0,505.0
515.0,529.0,557.0,531.0,529.0
558.0,538.0,550.0,509.0,508.0
529.0,517.0,504.0,519.0,507.0
515.0,521.0,501.0,596.0,488.0
505.0,515.0,470.0,556.0,502.0
474.0,509.0,451.0,470.0,542.0
528.0,523.0,486.0,470.0,507.0
571.0,521.0,517.0,473.0,470.0
569.0,515.0,564.0,539.0,477.0
486.0,488.0,546.0,555.0,496.0
473.0,483.0,551.0,554.0,498.0
485.0,492.0,574.0,536.0,528.0
540.0,507.0,578.0,517.0,543.0
529.0,521.0,545.0,531.0,513.0
521.0,504.0,496.0,503.0,521.0
544.0,513.0,488.0,503.0,470.0
554.0,514.0,473.0,502.0,468.0
533.0,513.0,449.0,472.0,519.0
477.0,486.0,427.0,525.0,547.0
462.0,498.0,388.0,578.0,527.0
461.0,517.0,395.0,650.0,517.0
505.0,513.0,395.0,634.0,507.0
633.0,525.0,405.0,566.0,466.0
628.0,495.0,385.0,379.0,485.0
563.0,476.0,417.0,374.0,508.0
540.0,472.0,476.0,458.0,517.0
514.0,478.0,502.0,517.0,509.0
538.0,495.0,538.0,525.0,499.0
540.0,483.0,580.0,497.0,482.0
526.0,495.0,591.0,485.0,462.0
534.0,549.0,621.0,488.0,460.0
532.0,554.0,622.0,496.0,480.0
526.0,520.0,552.0,437.0,535.0
538.0,510.0,528.0,456.0,551.0
505.0,511.0,509.0,525.0,575.0
501.0,492.0,475.0,532.0,536.0
494.0,501.0,463.0,554.0,518.0
517.0,494.0,430.0,544.0,491.0
535.0,468.0,449.0,539.0,473.0
488.0,478.0,480.0,549.0,491.0
495.0,482.0,457.0,450.0,543.0
498.0,508.0,478.0,427.0,533.0
488.0,522.0,515.0,441.0,499.0
488.0,512.0,508.0,486.0,504.0
521.0,525.0,557.0,590.0,503.0
547.0,525.0,626.0,624.0,528.0
518.0,506.0,603.0,576.0,549.0
452.0,499.0,555.0,490.0,547.0
426.0,502.0,556.0,504.0,554.0
443.0,483.0,529.0,478.0,550.0
488.0,516.0,557.0,511.0,529.0
529.0,536.0,541.0,542.0,527.0
531.0,533.0,531.0,582.0,507.0
559.0,504.0,566.0,635.0,480.0
555.0,503.0,571.0,606.0,497.0
528.0,510.0,567.0,527.0,512.0
463.0,508.0,581.0,471.0,531.0
499.0,508.0,589.0,454.0,523.0
494.0,492.0,561.0,503.0,495.0
416.0,477.0,557.0,528.0,487.0
406.0,474.0,508.0,519.0,546.0
416.0,488.0,449.0,498.0,522.0
504.0,510.0,449.0,496.0,467.0
496.0,532.0,458.0,473.0,487.0
595.0,552.0,489.0,521.0,477.0
591.0,531.0,479.0,488.0,522.0
561.0,490.0,453.0,453.0,548.0
508.0,499.0,468.0,481.0,551.0
495.0,521.0,496.0,513.0,509.0
450.0,497.0,510.0,498.0,495.0
475.0,487.0,499.0,554.0,487.0
576.0,524.0,525.0,578.0,502.0
619.0,524.0,535.0,619.0,522.0
597.0,506.0,504.0,633.0,528.0
555.0,504.0,541.0,612.0,525.0
515.0,512.0,606.0,559.0,540.0
556.0,527.0,642.0,489.0,513.0
529.0,502.0,581.0,441.0,489.0
528.0,508.0,564.0,480.0,470.0
512.0,523.0,561.0,482.0,506.0
500.0,521.0,514.0,478.0,552.0
506.0,530.0,514.0,483.0,555.0
525.0,521.0,513.0,485.0,550.0
518.0,536.0,523.0,479.0,571.0
504.0,522.0,489.0,455.0,528.0
510.0,513.0,493.0,468.0,520.0
489.0,497.0,505.0,484.0,497.0
481.0,494.0,501.0,453.0,508.0
485.0,491.0,498.0,484.0,508.0
491.0,522.0,540.0,551.0,510.0
460.0,508.0,523.0,545.0,509.0
460.0,498.0,525.0,551.0,466.0
487.0,488.0,506.0,573.0,435.0
475.0,479.0,489.0,614.0,428.0
475.0,481.0,485.0,608.0,482.0
560.0,501.0,500.0,586.0,495.0
565.0,513.0,510.0,506.0,524.0
591.0,533.0,515.0,473.0,550.0
576.0,544.0,516.0,446.0,532.0
529.0,532.0,498.0,476.0,537.0
512.0,504.0,474.0,510.0,534.0
551.0,486.0,467.0,488.0,507.0
568.0,503.0,489.0,461.0,484.0
548.0,525.0,503.0,501.0,502.0
550.0,505.0,474.0,502.0,518.0
525.0,477.0,442.0,525.0,550.0
527.0,491.0,431.0,550.0,511.0
550.0,524.0,481.0,593.0,474.0
577.0,539.0,497.0,575.0,453.0
526.0,510.0,537.0,542.0,466.0
467.0,452.0,481.0,494.0,507.0
421.0,410.0,374.0,374.0,556.0
391.0,411.0,331.0,318.0,551.0
418.0,441.0,320.0,374.0,555.0
516.0,503.0,369.0,457.0,534.0
527.0,531.0,404.0,499.0,526.0
571.0,548.0,503.0,653.0,506.0
540.0,532.0,571.0,639.0,497.0
525.0,507.0,578.0,540.0,519.0
532.0,492.0,569.0,476.0,520.0
548.0,503.0,613.0,475.0,473.0
546.0,531.0,674.0,503.0,449.0
549.0,546.0,682.0,549.0,464.0
556.0,548.0,681.0,577.0,521.0
536.0,518.0,650.0,578.0,514.0
527.0,522.0,615.0,561.0,483.0
504.0,518.0,588.0,521.0,478.0
462.0,496.0,555.0,513.0,504.0
475.0,496.0,527.0,519.0,536.0
490.0,502.0,529.0,552.0,544.0
524.0,523.0,542.0,560.0,530.0
496.0,509.0,541.0,561.0,527.0
507.0,527.0,556.0,553.0,500.0
499.0,537.0,596.0,551.0,484.0
473.0,535.0,601.0,578.0,493.0
529.0,528.0,569.0,529.0,521.0
471.0,494.0,498.0,435.0,582.0
453.0,482.0,471.0,468.0,538.0
468.0,490.0,467.0,491.0,499.0
413.0,486.0,452.0,538.0,485.0
352.0,479.0,455.0,621.0,528.0
384.0,480.0,455.0,621.0,535.0
491.0,514.0,475.0,568.0,483.0
526.0,522.0,517.0,527.0,470.0
449.0,510.0,530.0,470.0,510.0
450.0,482.0,477.0,420.0,551.0
576.0,492.0,495.0,455.0,575.0
671.0,518.0,532.0,484.0,548.0
648.0,521.0,527.0,451.0,534.0
605.0,524.0,538.0,454.0,521.0
592.0,550.0,566.0,484.0,520.0
593.0,549.0,567.0,498.0,511.0
594.0,542.0,553.0,486.0,514.0
586.0,536.0,538.0,494.0,508.0
590.0,538.0,525.0,517.0,472.0
581.0,532.0,509.0,524.0,472.0
567.0,519.0,506.0,539.0,449.0
546.0,508.0,514.0,540.0,437.0
511.0,494.0,493.0,514.0,456.0
484.0,475.0,470.0,495.0,487.0
469.0,467.0,458.0,517.0,531.0
432.0,491.0,462.0,490.0,532.0
490.0,497.0,477.0,486.0,556.0
525.0,493.0,479.0,496.0,583.0
546.0,488.0,490.0,494.0,572.0
525.0,502.0,500.0,481.0,527.0
515.0,499.0,489.0,481.0,508.0
514.0,511.0,523.0,535.0,498.0
529.0,528.0,558.0,584.0,500.0
516.0,522.0,552.0,625.0,521.0
530.0,526.0,518.0,598.0,514.0
519.0,510.0,488.0,513.0,515.0
493.0,483.0,496.0,454.0,500.0
478.0,477.0,508.0,500.0,461.0
495.0,501.0,493.0,498.0,429.0
531.0,528.0,540.0,583.0,404.0
519.0,521.0,510.0,591.0,423.0
544.0,515.0,501.0,590.0,494.0
519.0,493.0,501.0,510.0,585.0
529.0,489.0,496.0,499.0,592.0
528.0,472.0,475.0,466.0,549.0
527.0,514.0,501.0,470.0,517.0
522.0,525.0,492.0,524.0,520.0
534.0,501.0,452.0,503.0,565.0
530.0,477.0,396.0,451.0,558.0
522.0,482.0,417.0,413.0,535.0
520.0,484.0,459.0,455.0,501.0
519.0,472.0,476.0,447.0,521.0
526.0,493.0,536.0,474.0,518.0
535.0,498.0,580.0,493.0,511.0
529.0,525.0,613.0,533.0,498.0
541.0,539.0,638.0,580.0,511.0
496.0,521.0,641.0,583.0,519.0
472.0,515.0,606.0,568.0,516.0
461.0,517.0,598.0,591.0,487.0
433.0,512.0,553.0,551.0,507.0
433.0,500.0,531.0,521.0,510.0
529.0,493.0,524.0,539.0,494.0
521.0,503.0,544.0,496.0,506.0
479.0,516.0,526.0,456.0,570.0
517.0,499.0,498.0,460.0,586.0
537.0,480.0,488.0,459.0,554.0
509.0,488.0,503.0,498.0,530.0
471.0,504.0,486.0,506.0,564.0
516.0,527.0,498.0,522.0,535.0
532.0,540.0,549.0,558.0,480.0
556.0,536.0,568.0,564.0,449.0
521.0,528.0,554.0,572.0,458.0
504.0,506.0,514.0,606.0,440.0
543.0,501.0,484.0,587.0,492.0
560.0,501.0,461.0,541.0,493.0
492.0,474.0,455.0,508.0,508.0
515.0,498.0,493.0,507.0,523.0
508.0,497.0,502.0,546.0,529.0
491.0,482.0,492.0,493.0,561.0
498.0,495.0,508.0,420.0,566.0
528.0,514.0,531.0,472.0,518.0
507.0,526.0,534.0,514.0,530.0
507.0,545.0,564.0,574.0,529.0
462.0,555.0,538.0,535.0,519.0
472.0,532.0,485.0,489.0,513.0
468.0,505.0,474.0,469.0,508.0
456.0,491.0,481.0,461.0,510.0
544.0,512.0,493.0,468.0,495.0
611.0,518.0,512.0,477.0,476.0
580.0,496.0,525.0,491.0,467.0
551.0,483.0,525.0,523.0,475.0
549.0,490.0,536.0,521.0,479.0
539.0,489.0,532.0,524.0,493.0
522.0,493.0,499.0,520.0,499.0
524.0,497.0,516.0,528.0,520.0
510.0,507.0,531.0,537.0,518.0
497.0,507.0,534.0,545.0,516.0
528.0,519.0,531.0,550.0,536.0
559.0,520.0,528.0,556.0,547.0
539.0,525.0,536.0,523.0,530.0
537.0,525.0,527.0,505.0,510.0
531.0,515.0,530.0,478.0,507.0
533.0,522.0,554.0,504.0,502.0
520.0,504.0,545.0,517.0,503.0
511.0,500.0,523.0,510.0,511.0
503.0,504.0,519.0,509.0,511.0
494.0,505.0,526.0,521.0,514.0
497.0,506.0,500.0,533.0,492.0
462.0,492.0,476.0,537.0,492.0
413.0,473.0,422.0,516.0,524.0
441.0,481.0,374.0,475.0,550.0
453.0,481.0,370.0,486.0,574.0
581.0,509.0,410.0,524.0,550.0
567.0,512.0,449.0,543.0,533.0
542.0,507.0,475.0,550.0,521.0
533.0,517.0,539.0,535.0,515.0
542.0,518.0,554.0,527.0,534.0
543.0,529.0,571.0,466.0,525.0
541.0,538.0,570.0,511.0,479.0
538.0,562.0,579.0,532.0,453.0
558.0,557.0,615.0,517.0,476.0
561.0,523.0,608.0,532.0,487.0
552.0,515.0,547.0,536.0,494.0
539.0,521.0,496.0,515.0,477.0
556.0,512.0,466.0,526.0,483.0
513.0,459.0,424.0,484.0,524.0
485.0,458.0,416.0,466.0,548.0
486.0,477.0,419.0,436.0,556.0
510.0,489.0,413.0,431.0,548.0
521.0,494.0,456.0,486.0,527.0
516.0,500.0,472.0,527.0,531.0
503.0,493.0,521.0,526.0,531.0
511.0,504.0,568.0,480.0,507.0
526.0,505.0,557.0,513.0,497.0
516.0,502.0,552.0,521.0,484.0
532.0,525.0,584.0,559.0,449.0
537.0,530.0,623.0,577.0,419.0
514.0,510.0,584.0,611.0,419.0
478.0,475.0,533.0,540.0,458.0
468.0,468.0,510.0,489.0,520.0
436.0,469.0,480.0,507.0,551.0
424.0,480.0,502.0,567.0,566.0
429.0,473.0,491.0,566.0,590.0
537.0,492.0,491.0,531.0,552.0
533.0,503.0,498.0,515.0,514.0
458.0,500.0,503.0,504.0,506.0
469.0,501.0,465.0,492.0,503.0
502.0,514.0,488.0,512.0,543.0
550.0,519.0,525.0,543.0,545.0
579.0,531.0,562.0,541.0,543.0
580.0,552.0,565.0,502.0,544.0
539.0,549.0,587.0,520.0,542.0
521.0,522.0,577.0,519.0,541.0
546.0,521.0,602.0,549.0,517.0
579.0,539.0,621.0,582.0,485.0
555.0,542.0,617.0,554.0,488.0
536.0,521.0,584.0,508.0,470.0
524.0,495.0,524.0,471.0,474.0
478.0,476.0,484.0,489.0,511.0
420.0,490.0,455.0,501.0,538.0
409.0,502.0,437.0,471.0,529.0
427.0,498.0,439.0,450.0,526.0
509.0,499.0,444.0,429.0,528.0
596.0,510.0,473.0,464.0,485.0
546.0,508.0,490.0,490.0,473.0
521.0,515.0,511.0,484.0,475.0
570.0,546.0,585.0,574.0,460.0
527.0,559.0,644.0,679.0,472.0
496.0,533.0,625.0,658.0,493.0
528.0,525.0,600.0,599.0,494.0
550.0,521.0,577.0,501.0,506.0
525.0,517.0,553.0,470.0,532.0
522.0,524.0,538.0,505.0,522.0
499.0,515.0,519.0,502.0,530.0
450.0,499.0,505.0,493.0,526.0
420.0,474.0,477.0,502.0,538.0
467.0,478.0,440.0,500.0,544.0
550.0,517.0,408.0,452.0,519.0
602.0,519.0,425.0,472.0,500.0
595.0,507.0,418.0,411.0,570.0
526.0,502.0,458.0,436.0,582.0
511.0,486.0,474.0,439.0,565.0
509.0,494.0,501.0,496.0,528.0
502.0,522.0,549.0,546.0,515.0
497.0,520.0,571.0,544.0,504.0
515.0,503.0,550.0,534.0,501.0
517.0,525.0,563.0,553.0,476.0
546.0,510.0,552.0,554.0,469.0
586.0,512.0,552.0,549.0,467.0
559.0,485.0,513.0,529.0,450.0
523.0,465.0,488.0,544.0,449.0
519.0,449.0,481.0,575.0,481.0
505.0,449.0,481.0,582.0,487.0
508.0,462.0,509.0,559.0,485.0
512.0,493.0,534.0,509.0,544.0
516.0,518.0,526.0,462.0,555.0
507.0,526.0,511.0,466.0,554.0
515.0,543.0,520.0,463.0,551.0
512.0,525.0,530.0,485.0,550.0
519.0,516.0,558.0,509.0,532.0
507.0,503.0,545.0,514.0,539.0
519.0,499.0,508.0,519.0,530.0
522.0,500.0,486.0,521.0,506.0
546.0,526.0,493.0,529.0,491.0
536.0,523.0,492.0,535.0,484.0
523.0,507.0,493.0,542.0,477.0
502.0,489.0,495.0,515.0,526.0
504.0,511.0,506.0,502.0,528.0
503.0,518.0,512.0,508.0,510.0
491.0,521.0,539.0,533.0,496.0
508.0,529.0,538.0,546.0,502.0
521.0,517.0,513.0,594.0,498.0
520.0,518.0,521.0,579.0,515.0
518.0,522.0,540.0,526.0,529.0
514.0,516.0,573.0,519.0,536.0
504.0,512.0,591.0,557.0,530.0
477.0,504.0,542.0,454.0,568.0
477.0,516.0,514.0,410.0,556.0
508.0,516.0,516.0,465.0,516.0
535.0,519.0,533.0,518.0,507.0
547.0,516.0,529.0,508.0,496.0
542.0,521.0,530.0,486.0,491.0
547.0,519.0,534.0,485.0,458.0
530.0,488.0,508.0,487.0,469.0
514.0,474.0,470.0,517.0,477.0
498.0,472.0,475.0,532.0,508.0
477.0,475.0,490.0,551.0,553.0
492.0,483.0,496.0,535.0,540.0
504.0,503.0,516.0,516.0,522.0
501.0,511.0,509.0,507.0,516.0
497.0,518.0,502.0,490.0,516.0
493.0,513.0,522.0,522.0,532.0
459.0,504.0,522.0,535.0,547.0
438.0,499.0,496.0,533.0,538.0
478.0,501.0,479.0,512.0,514.0
463.0,512.0,498.0,495.0,508.0
520.0,532.0,520.0,520.0,496.0
572.0,534.0,525.0,524.0,490.0
536.0,513.0,512.0,509.0,508.0
553.0,508.0,514.0,547.0,508.0
545.0,515.0,531.0,537.0,525.0
512.0,504.0,535.0,523.0,513.0
475.0,490.0,506.0,519.0,508.0
447.0,481.0,511.0,508.0,527.0
427.0,493.0,521.0,493.0,545.0
425.0,505.0,530.0,490.0,549.0
532.0,521.0,536.0,503.0,528.0
582.0,526.0,548.0,513.0,497.0
589.0,528.0,551.0,528.0,514.0
543.0,508.0,509.0,507.0,532.0
505.0,495.0,501.0,501.0,537.0
519.0,504.0,513.0,505.0,537.0
516.0,504.0,524.0,518.0,525.0
530.0,513.0,531.0,530.0,513.0
582.0,528.0,545.0,538.0,489.0
583.0,523.0,545.0,549.0,483.0
532.0,508.0,532.0,549.0,494.0
537.0,506.0,512.0,538.0,496.0
533.0,514.0,496.0,535.0,492.0
505.0,505.0,480.0,516.0,494.0
455.0,482.0,468.0,495.0,511.0
445.0,480.0,463.0,500.0,507.0
439.0,497.0,487.0,521.0,510.0
441.0,506.0,507.0,534.0,512.0
496.0,523.0,520.0,511.0,532.0
597.0,538.0,530.0,495.0,553.0
590.0,531.0,530.0,460.0,533.0
541.0,507.0,520.0,471.0,533.0
576.0,499.0,519.0,501.0,498.0
564.0,491.0,526.0,529.0,489.0
552.0,491.0,546.0,554.0,443.0
551.0,481.0,548.0,550.0,455.0
534.0,458.0,520.0,527.0,491.0
524.0,459.0,523.0,524.0,496.0
520.0,483.0,526.0,512.0,507.0
518.0,513.0,509.0,522.0,537.0
500.0,513.0,499.0,514.0,538.0
500.0,508.0,495.0,496.0,555.0
512.0,507.0,497.0,500.0,533.0
514.0,485.0,500.0,501.0,546.0
515.0,470.0,490.0,473.0,556.0
514.0,483.0,490.0,492.0,551.0
513.0,494.0,493.0,476.0,561.0
504.0,484.0,499.0,476.0,551.0
517.0,487.0,490.0,500.0,534.0
520.0,497.0,495.0,504.0,526.0
520.0,475.0,509.0,498.0,522.0
517.0,458.0,467.0,538.0,497.0
512.0,478.0,493.0,561.0,489.0
503.0,497.0,510.0,559.0,501.0
503.0,531.0,525.0,541.0,498.0
506.0,535.0,518.0,506.0,497.0
499.0,515.0,530.0,530.0,506.0
505.0,492.0,498.0,529.0,506.0
502.0,514.0,508.0,530.0,512.0
511.0,552.0,520.0,506.0,505.0
515.0,542.0,519.0,488.0,518.0
525.0,524.0,526.0,490.0,525.0
525.0,510.0,511.0,477.0,515.0
529.0,515.0,533.0,487.0,526.0
523.0,493.0,547.0,506.0,532.0
511.0,476.0,542.0,520.0,548.0
505.0,481.0,547.0,541.0,542.0
526.0,518.0,573.0,563.0,527.0
532.0,551.0,574.0,578.0,497.0
527.0,537.0,562.0,562.0,488.0
530.0,545.0,563.0,551.0,482.0
515.0,546.0,529.0,532.0,500.0
517.0,533.0,509.0,524.0,503.0
507.0,526.0,506.0,510.0,519.0
499.0,516.0,509.0,515.0,521.0
501.0,518.0,515.0,510.0,524.0
508.0,517.0,516.0,504.0,535.0
513.0,524.0,520.0,501.0,550.0
516.0,519.0,526.0,506.0,561.0
516.0,517.0,529.0,506.0,563.0
512.0,518.0,522.0,506.0,560.0
517.0,529.0,533.0,518.0,541.0
524.0,517.0,530.0,517.0,544.0
517.0,501.0,522.0,523.0,533.0
520.0,506.0,535.0,551.0,513.0
533.0,528.0,543.0,538.0,496.0
526.0,511.0,534.0,536.0,491.0
519.0,508.0,523.0,533.0,479.0
517.0,493.0,509.0,527.0,480.0
504.0,486.0,500.0,519.0,501.0
504.0,508.0,498.0,504.0,520.0
516.0,520.0,502.0,505.0,538.0
506.0,519.0,510.0,507.0,545.0
503.0,516.0,509.0,502.0,559.0
509.0,520.0,513.0,504.0,548.0
513.0,526.0,512.0,499.0,528.0
519.0,518.0,515.0,497.0,533.0
520.0,516.0,516.0,500.0,542.0
518.0,514.0,520.0,506.0,538.0
516.0,505.0,516.0,510.0,519.0
506.0,505.0,517.0,519.0,505.0
496.0,505.0,529.0,535.0,497.0
483.0,504.0,534.0,548.0,498.0
472.0,499.0,526.0,543.0,505.0
468.0,499.0,520.0,540.0,521.0
502.0,503.0,520.0,526.0,522.0
559.0,503.0,522.0,516.0,523.0
570.0,504.0,524.0,515.0,530.0
536.0,505.0,512.0,511.0,526.0
519.0,502.0,491.0,507.0,523.0
531.0,504.0,495.0,498.0,520.0
539.0,506.0,506.0,498.0,522.0
523.0,515.0,516.0,512.0,520.0
514.0,521.0,517.0,516.0,531.0
508.0,514.0,510.0,499.0,547.0
488.0,503.0,515.0,505.0,543.0
489.0,508.0,523.0,524.0,529.0
514.0,512.0,523.0,518.0,518.0
536.0,506.0,526.0,528.0,503.0
531.0,508.0,531.0,536.0,496.0
518.0,510.0,526.0,541.0,502.0
515.0,509.0,520.0,538.0,510.0
504.0,498.0,508.0,517.0,521.0
480.0,490.0,497.0,503.0,536.0
476.0,494.0,493.0,501.0,543.0
525.0,498.0,500.0,505.0,541.0
530.0,506.0,510.0,512.0,537.0
521.0,506.0,510.0,502.0,553.0
537.0,496.0,504.0,492.0,548.0
524.0,484.0,505.0,501.0,545.0
524.0,490.0,514.0,510.0,546.0
530.0,492.0,521.0,504.0,529.0
534.0,488.0,523.0,508.0,522.0
527.0,502.0,537.0,517.0,527.0
549.0,520.0,540.0,528.0,515.0
542.0,511.0,522.0,536.0,506.0
530.0,506.0,525.0,536.0,507.0
523.0,495.0,522.0,535.0,515.0
508.0,482.0,517.0,533.0,525.0
499.0,469.0,511.0,526.0,531.0
498.0,466.0,491.0,508.0,529.0
505.0,465.0,490.0,497.0,533.0
506.0,477.0,489.0,491.0,542.0
510.0,501.0,502.0,498.0,543.0
520.0,527.0,507.0,504.0,545.0
520.0,548.0,507.0,493.0,554.0
522.0,532.0,516.0,487.0,551.0
523.0,537.0,536.0,498.0,550.0
519.0,533.0,539.0,506.0,540.0
523.0,511.0,526.0,509.0,527.0
524.0,504.0,529.0,533.0,512.0
520.0,497.0,525.0,546.0,511.0
520.0,504.0,539.0,556.0,506.0
515.0,496.0,523.0,557.0,496.0
514.0,506.0,507.0,548.0,502.0
515.0,538.0,504.0,532.0,510.0
499.0,524.0,495.0,508.0,528.0
493.0,505.0,494.0,503.0,531.0
498.0,495.0,494.0,504.0,540.0
506.0,511.0,503.0,494.0,541.0
511.0,512.0,514.0,498.0,545.0
515.0,515.0,527.0,515.0,546.0
521.0,541.0,524.0,517.0,548.0
522.0,531.0,521.0,514.0,539.0
519.0,520.0,529.0,512.0,526.0
520.0,513.0,535.0,514.0,523.0
526.0,513.0,540.0,520.0,517.0
525.0,514.0,520.0,526.0,505.0
524.0,515.0,524.0,541.0,489.0
521.0,509.0,538.0,547.0,487.0
518.0,501.0,522.0,542.0,500.0
515.0,494.0,510.0,529.0,497.0
505.0,484.0,502.0,518.0,528.0
503.0,487.0,501.0,515.0,532.0
496.0,498.0,501.0,510.0,540.0
498.0,506.0,506.0,508.0,550.0
503.0,508.0,509.0,512.0,550.0
508.0,508.0,511.0,504.0,557.0
523.0,515.0,514.0,504.0,548.0
517.0,522.0,511.0,500.0,548.0
513.0,512.0,511.0,500.0,548.0
515.0,509.0,513.0,510.0,542.0
526.0,509.0,517.0,509.0,522.0
530.0,510.0,522.0,518.0,524.0
533.0,512.0,527.0,531.0,512.0
528.0,510.0,528.0,539.0,519.0
518.0,508.0,541.0,545.0,516.0
513.0,503.0,528.0,544.0,488.0
500.0,492.0,511.0,533.0,509.0
494.0,492.0,505.0,522.0,530.0
500.0,493.0,500.0,508.0,545.0
494.0,500.0,504.0,503.0,545.0
508.0,507.0,505.0,500.0,555.0
515.0,509.0,510.0,505.0,552.0
520.0,512.0,512.0,500.0,542.0
526.0,513.0,512.0,494.0,537.0
534.0,505.0,509.0,500.0,546.0
536.0,508.0,514.0,505.0,534.0
531.0,516.0,523.0,517.0,522.0
535.0,509.0,523.0,521.0,509.0
539.0,510.0,525.0,527.0,499.0
532.0,514.0,535.0,534.0,483.0
525.0,507.0,532.0,542.0,480.0
515.0,507.0,526.0,541.0,512.0
500.0,498.0,516.0,536.0,525.0
504.0,495.0,513.0,531.0,532.0
503.0,491.0,503.0,517.0,534.0
498.0,491.0,502.0,512.0,537.0
501.0,493.0,500.0,509.0,545.0
509.0,503.0,498.0,501.0,543.0
517.0,514.0,508.0,499.0,552.0
521.0,514.0,514.0,501.0,549.0
521.0,516.0,514.0,503.0,544.0
515.0,513.0,516.0,504.0,537.0
527.0,512.0,519.0,511.0,524.0
512.0,506.0,526.0,519.0,521.0
512.0,509.0,524.0,520.0,517.0
523.0,510.0,531.0,533.0,507.0
533.0,514.0,537.0,545.0,511.0
533.0,509.0,532.0,545.0,507.0
528.0,506.0,527.0,538.0,517.0
521.0,501.0,519.0,538.0,508.0
510.0,492.0,506.0,526.0,523.0
507.0,492.0,507.0,519.0,533.0
501.0,492.0,498.0,514.0,537.0
485.0,497.0,500.0,493.0,543.0
491.0,504.0,504.0,501.0,540.0
510.0,514.0,508.0,503.0,539.0
519.0,516.0,507.0,496.0,552.0
524.0,512.0,507.0,502.0,548.0
517.0,505.0,505.0,499.0,535.0
521.0,512.0,513.0,516.0,521.0
526.0,512.0,523.0,533.0,499.0
523.0,513.0,533.0,536.0,502.0
523.0,508.0,527.0,538.0,503.0
535.0,513.0,533.0,538.0,486.0
527.0,507.0,527.0,533.0,501.0
513.0,500.0,543.0,527.0,512.0
503.0,498.0,539.0,528.0,513.0
501.0,499.0,520.0,518.0,519.0
495.0,496.0,507.0,509.0,529.0
495.0,499.0,496.0,504.0,549.0
496.0,500.0,483.0,498.0,559.0
504.0,508.0,502.0,508.0,534.0
508.0,508.0,503.0,511.0,525.0
508.0,505.0,506.0,497.0,530.0
512.0,510.0,506.0,489.0,531.0
517.0,503.0,509.0,501.0,540.0
516.0,504.0,508.0,508.0,520.0
513.0,506.0,521.0,525.0,505.0
523.0,516.0,531.0,535.0,508.0
532.0,518.0,536.0,542.0,505.0
527.0,517.0,535.0,545.0,496.0
519.0,505.0,525.0,534.0,490.0
511.0,500.0,515.0,525.0,481.0
506.0,495.0,510.0,520.0,493.0
500.0,494.0,503.0,508.0,509.0
498.0,494.0,497.0,505.0,533.0
507.0,498.0,499.0,520.0,524.0
506.0,498.0,501.0,512.0,519.0
512.0,506.0,507.0,507.0,521.0
512.0,509.0,507.0,501.0,526.0
514.0,512.0,511.0,499.0,539.0
513.0,506.0,507.0,502.0,554.0
515.0,507.0,518.0,505.0,546.0
520.0,512.0,522.0,519.0,538.0
518.0,510.0,523.0,518.0,541.0
522.0,514.0,515.0,527.0,516.0
528.0,513.0,517.0,535.0,504.0
525.0,508.0,512.0,534.0,525.0
518.0,502.0,507.0,532.0,509.0
503.0,492.0,498.0,522.0,514.0
498.0,489.0,497.0,515.0,528.0
498.0,491.0,514.0,515.0,520.0
505.0,497.0,511.0,513.0,515.0
510.0,501.0,506.0,509.0,525.0
512.0,506.0,509.0,506.0,520.0
522.0,513.0,510.0,502.0,520.0
522.0,512.0,516.0,504.0,515.0
522.0,511.0,516.0,506.0,504.0
524.0,507.0,518.0,504.0,519.0
524.0,502.0,517.0,502.0,507.0
528.0,501.0,522.0,512.0,506.0
530.0,507.0,528.0,525.0,510.0
527.0,505.0,534.0,533.0,525.0
530.0,510.0,533.0,541.0,517.0
523.0,508.0,529.0,545.0,520.0
516.0,509.0,526.0,539.0,526.0
512.0,499.0,512.0,533.0,533.0
514.0,489.0,499.0,516.0,517.0
516.0,484.0,493.0,511.0,523.0
505.0,479.0,495.0,504.0,557.0
508.0,484.0,499.0,498.0,561.0
514.0,484.0,507.0,497.0,552.0
521.0,486.0,519.0,499.0,556.0
522.0,503.0,529.0,506.0,566.0
511.0,525.0,537.0,504.0,561.0
500.0,551.0,538.0,523.0,548.0
504.0,530.0,511.0,509.0,520.0
519.0,511.0,505.0,503.0,484.0
528.0,507.0,517.0,519.0,450.0
535.0,514.0,528.0,532.0,440.0
533.0,509.0,522.0,542.0,421.0
537.0,506.0,515.0,538.0,452.0
546.0,496.0,507.0,532.0,472.0
533.0,495.0,502.0,537.0,450.0
521.0,497.0,501.0,532.0,487.0
506.0,498.0,501.0,520.0,523.0
507.0,498.0,499.0,513.0,552.0
506.0,496.0,500.0,502.0,548.0
493.0,489.0,490.0,476.0,551.0
495.0,491.0,503.0,481.0,569.0
495.0,486.0,501.0,477.0,586.0
497.0,491.0,501.0,477.0,586.0
500.0,500.0,512.0,486.0,561.0
510.0,525.0,541.0,496.0,531.0
519.0,528.0,559.0,516.0,513.0
520.0,515.0,561.0,527.0,501.0
518.0,508.0,548.0,545.0,485.0
520.0,499.0,517.0,538.0,484.0
512.0,486.0,485.0,526.0,509.0
509.0,485.0,501.0,530.0,523.0
504.0,486.0,494.0,516.0,526.0
500.0,490.0,474.0,501.0,526.0
498.0,511.0,492.0,499.0,510.0
506.0,511.0,493.0,507.0,505.0
523.0,516.0,500.0,504.0,507.0
513.0,515.0,499.0,500.0,513.0
514.0,518.0,505.0,501.0,520.0
517.0,522.0,504.0,499.0,524.0
517.0,515.0,515.0,503.0,517.0
526.0,514.0,524.0,515.0,511.0
526.0,511.0,528.0,525.0,503.0
521.0,516.0,533.0,535.0,492.0
520.0,516.0,533.0,540.0,486.0
525.0,516.0,534.0,544.0,482.0
518.0,510.0,531.0,546.0,486.0
512.0,506.0,522.0,542.0,499.0
503.0,502.0,515.0,532.0,515.0
501.0,492.0,504.0,521.0,525.0
504.0,493.0,499.0,508.0,521.0
504.0,500.0,501.0,511.0,506.0
505.0,504.0,505.0,504.0,518.0
510.0,511.0,507.0,502.0,524.0
515.0,513.0,510.0,503.0,529.0
523.0,517.0,514.0,508.0,529.0
517.0,513.0,517.0,508.0,537.0
518.0,515.0,522.0,510.0,547.0
513.0,512.0,521.0,509.0,578.0
506.0,508.0,519.0,511.0,558.0
514.0,515.0,527.0,524.0,504.0
524.0,514.0,533.0,536.0,485.0
522.0,508.0,523.0,537.0,508.0
519.0,498.0,521.0,535.0,486.0
523.0,498.0,515.0,530.0,460.0
518.0,496.0,511.0,530.0,465.0
511.0,492.0,505.0,518.0,466.0
507.0,494.0,498.0,512.0,474.0
509.0,500.0,499.0,504.0,513.0
514.0,509.0,504.0,497.0,556.0
517.0,514.0,510.0,498.0,580.0
522.0,514.0,509.0,495.0,551.0
512.0,503.0,503.0,491.0,519.0
507.0,504.0,507.0,498.0,523.0
507.0,503.0,511.0,507.0,523.0
521.0,509.0,516.0,515.0,519.0
522.0,506.0,520.0,520.0,524.0
522.0,510.0,526.0,527.0,508.0
524.0,510.0,531.0,538.0,494.0
528.0,507.0,530.0,542.0,487.0
516.0,501.0,525.0,539.0,491.0
508.0,496.0,515.0,531.0,497.0
494.0,485.0,502.0,518.0,501.0
497.0,487.0,491.0,508.0,509.0
502.0,496.0,484.0,505.0,515.0
502.0,503.0,481.0,497.0,545.0
500.0,508.0,489.0,498.0,547.0
503.0,512.0,497.0,497.0,556.0
508.0,509.0,502.0,492.0,566.0
506.0,511.0,524.0,496.0,555.0
513.0,512.0,527.0,502.0,540.0
518.0,507.0,521.0,508.0,507.0
520.0,507.0,522.0,514.0,508.0
523.0,507.0,524.0,518.0,514.0
524.0,509.0,528.0,530.0,522.0
526.0,505.0,534.0,539.0,511.0
529.0,503.0,528.0,543.0,514.0
517.0,499.0,525.0,539.0,510.0
506.0,492.0,509.0,527.0,506.0
499.0,485.0,497.0,511.0,498.0
490.0,490.0,494.0,501.0,521.0
502.0,499.0,503.0,506.0,517.0
501.0,503.0,503.0,502.0,533.0
505.0,511.0,511.0,506.0,530.0
511.0,510.0,511.0,503.0,523.0
518.0,515.0,517.0,512.0,527.0
508.0,509.0,513.0,513.0,527.0
513.0,509.0,513.0,522.0,525.0
514.0,508.0,512.0,523.0,523.0
523.0,510.0,513.0,510.0,501.0
530.0,513.0,527.0,510.0,494.0
530.0,508.0,530.0,517.0,521.0
532.0,511.0,528.0,531.0,495.0
522.0,503.0,521.0,531.0,474.0
510.0,495.0,511.0,530.0,521.0
503.0,491.0,507.0,517.0,522.0
505.0,492.0,500.0,516.0,504.0
497.0,495.0,503.0,514.0,502.0
500.0,501.0,502.0,507.0,531.0
501.0,506.0,503.0,496.0,551.0
505.0,511.0,507.0,493.0,553.0
507.0,515.0,512.0,499.0,548.0
512.0,510.0,509.0,495.0,532.0
511.0,505.0,511.0,495.0,531.0
514.0,508.0,513.0,504.0,526.0
515.0,511.0,518.0,511.0,512.0
518.0,509.0,519.0,514.0,501.0
525.0,514.0,527.0,526.0,501.0
528.0,511.0,528.0,535.0,494.0
522.0,506.0,523.0,539.0,492.0
518.0,503.0,518.0,537.0,479.0
511.0,501.0,511.0,529.0,475.0
503.0,494.0,505.0,520.0,479.0
496.0,492.0,499.0,509.0,489.0
503.0,498.0,502.0,508.0,492.0
508.0,506.0,502.0,496.0,507.0
509.0,508.0,505.0,500.0,524.0
509.0,509.0,505.0,494.0,543.0
511.0,507.0,512.0,492.0,549.0
513.0,504.0,521.0,492.0,558.0
515.0,506.0,512.0,494.0,546.0
523.0,508.0,519.0,516.0,528.0
528.0,507.0,515.0,525.0,514.0
532.0,511.0,526.0,528.0,512.0
530.0,513.0,531.0,534.0,507.0
528.0,516.0,529.0,536.0,503.0
524.0,503.0,521.0,529.0,504.0
510.0,498.0,514.0,525.0,504.0
499.0,496.0,509.0,526.0,512.0
499.0,494.0,501.0,516.0,524.0
496.0,490.0,495.0,504.0,533.0
499.0,499.0,495.0,502.0,528.0
502.0,504.0,506.0,509.0,525.0
503.0,507.0,508.0,506.0,529.0
503.0,509.0,514.0,507.0,537.0
508.0,508.0,511.0,503.0,530.0
508.0,508.0,511.0,503.0,531.0
514.0,510.0,516.0,505.0,519.0
517.0,511.0,519.0,506.0,508.0
521.0,508.0,521.0,513.0,494.0
525.0,511.0,527.0,527.0,492.0
525.0,512.0,533.0,534.0,501.0
519.0,506.0,527.0,540.0,523.0
515.0,500.0,523.0,533.0,524.0
506.0,494.0,510.0,528.0,515.0
506.0,490.0,503.0,524.0,507.0
504.0,491.0,501.0,515.0,516.0
498.0,492.0,495.0,504.0,511.0
505.0,498.0,498.0,502.0,516.0
514.0,511.0,505.0,502.0,521.0
518.0,510.0,509.0,497.0,527.0
520.0,513.0,517.0,501.0,518.0
519.0,514.0,510.0,497.0,525.0
518.0,508.0,509.0,497.0,525.0
514.0,506.0,515.0,502.0,549.0
518.0,506.0,515.0,509.0,533.0
519.0,509.0,522.0,519.0,510.0
524.0,508.0,529.0,529.0,499.0
526.0,512.0,533.0,537.0,490.0
514.0,506.0,528.0,538.0,487.0
510.0,499.0,520.0,532.0,499.0
505.0,495.0,512.0,531.0,504.0
498.0,493.0,506.0,519.0,508.0
502.0,491.0,501.0,511.0,515.0
500.0,495.0,499.0,507.0,530.0
502.0,502.0,503.0,504.0,540.0
508.0,509.0,506.0,498.0,538.0
515.0,513.0,507.0,499.0,539.0
515.0,510.0,509.0,498.0,532.0
516.0,506.0,508.0,497.0,528.0
518.0,509.0,513.0,500.0,532.0
520.0,509.0,516.0,503.0,523.0
523.0,510.0,521.0,517.0,511.0
524.0,509.0,524.0,518.0,495.0
529.0,509.0,530.0,532.0,494.0
528.0,510.0,531.0,540.0,486.0
515.0,508.0,528.0,541.0,499.0
508.0,502.0,520.0,534.0,512.0
508.0,495.0,512.0,524.0,515.0
499.0,489.0,502.0,515.0,510.0
499.0,492.0,498.0,508.0,507.0
505.0,499.0,500.0,505.0,517.0
506.0,500.0,502.0,498.0,521.0
507.0,506.0,502.0,497.0,519.0
512.0,512.0,508.0,498.0,522.0
514.0,510.0,509.0,501.0,530.0
516.0,506.0,509.0,499.0,520.0
516.0,508.0,513.0,499.0,533.0
512.0,508.0,516.0,505.0,535.0
518.0,511.0,523.0,513.0,522.0
528.0,516.0,529.0,528.0,503.0
536.0,517.0,535.0,540.0,479.0
526.0,511.0,529.0,539.0,485.0
521.0,506.0,526.0,536.0,490.0
506.0,498.0,516.0,524.0,502.0
495.0,493.0,509.0,524.0,499.0
495.0,490.0,501.0,513.0,514.0
496.0,490.0,490.0,503.0,513.0
502.0,497.0,495.0,498.0,518.0
507.0,502.0,501.0,502.0,538.0
507.0,503.0,506.0,495.0,549.0
516.0,509.0,503.0,494.0,521.0
518.0,507.0,505.0,490.0,528.0
510.0,505.0,509.0,496.0,531.0
519.0,510.0,517.0,505.0,520.0
519.0,509.0,521.0,513.0,519.0
514.0,508.0,523.0,520.0,517.0
519.0,513.0,529.0,532.0,507.0
528.0,511.0,531.0,540.0,499.0
519.0,507.0,527.0,540.0,488.0
511.0,501.0,523.0,536.0,492.0
503.0,499.0,511.0,526.0,503.0
504.0,492.0,500.0,522.0,513.0
509.0,496.0,500.0,509.0,507.0
502.0,498.0,496.0,506.0,517.0
500.0,500.0,502.0,504.0,525.0
509.0,508.0,507.0,505.0,520.0
506.0,507.0,507.0,496.0,547.0
514.0,512.0,512.0,497.0,533.0
516.0,510.0,511.0,498.0,528.0
514.0,509.0,513.0,502.0,512.0
519.0,506.0,511.0,506.0,506.0
522.0,511.0,519.0,515.0,507.0
526.0,511.0,527.0,525.0,522.0
532.0,518.0,532.0,534.0,500.0
528.0,510.0,531.0,542.0,499.0
515.0,505.0,525.0,539.0,494.0
509.0,498.0,516.0,532.0,482.0
504.0,496.0,511.0,527.0,512.0
492.0,492.0,501.0,515.0,516.0
489.0,492.0,500.0,510.0,523.0
499.0,501.0,501.0,506.0,527.0
507.0,506.0,504.0,502.0,533.0
509.0,507.0,506.0,496.0,541.0
510.0,511.0,509.0,498.0,541.0
514.0,511.0,514.0,498.0,538.0
513.0,508.0,507.0,494.0,529.0
515.0,507.0,514.0,501.0,521.0
518.0,506.0,517.0,509.0,513.0
519.0,506.0,515.0,515.0,507.0
523.0,514.0,528.0,529.0,499.0
526.0,512.0,535.0,537.0,488.0
522.0,508.0,529.0,538.0,484.0
516.0,503.0,523.0,535.0,487.0
509.0,496.0,513.0,532.0,493.0
505.0,499.0,509.0,522.0,499.0
497.0,492.0,501.0,513.0,517.0
494.0,493.0,497.0,501.0,525.0
502.0,500.0,502.0,503.0,528.0
507.0,506.0,505.0,501.0,529.0
509.0,509.0,509.0,498.0,529.0
513.0,513.0,512.0,500.0,531.0
517.0,509.0,510.0,497.0,534.0
511.0,508.0,511.0,498.0,532.0
519.0,506.0,513.0,502.0,524.0
519.0,507.0,519.0,511.0,519.0
519.0,510.0,521.0,518.0,520.0
521.0,508.0,527.0,527.0,508.0
524.0,509.0,529.0,535.0,503.0
521.0,504.0,524.0,534.0,493.0
515.0,501.0,520.0,534.0,494.0
509.0,496.0,512.0,528.0,502.0
502.0,489.0,502.0,517.0,519.0
499.0,495.0,500.0,509.0,521.0
503.0,496.0,503.0,503.0,526.0
504.0,501.0,501.0,500.0,533.0
513.0,508.0,504.0,497.0,536.0
511.0,509.0,508.0,496.0,537.0
513.0,510.0,513.0,497.0,538.0
509.0,505.0,508.0,496.0,536.0
507.0,507.0,512.0,500.0,530.0
512.0,507.0,519.0,506.0,520.0
515.0,508.0,521.0,510.0,512.0
526.0,513.0,528.0,528.0,502.0
526.0,514.0,533.0,535.0,493.0
524.0,505.0,535.0,540.0,492.0
524.0,505.0,527.0,536.0,496.0
516.0,499.0,521.0,531.0,508.0
512.0,498.0,514.0,526.0,515.0
505.0,494.0,501.0,514.0,523.0
499.0,496.0,497.0,507.0,530.0
504.0,499.0,499.0,501.0,533.0
513.0,503.0,507.0,499.0,531.0
513.0,508.0,506.0,496.0,528.0
512.0,511.0,507.0,493.0,526.0
519.0,513.0,509.0,494.0,523.0
516.0,503.0,507.0,493.0,521.0
511.0,512.0,513.0,500.0,522.0
511.0,508.0,518.0,510.0,516.0
514.0,511.0,524.0,520.0,505.0
518.0,513.0,527.0,527.0,492.0
527.0,513.0,535.0,536.0,487.0
522.0,511.0,534.0,539.0,488.0
513.0,506.0,528.0,538.0,492.0
506.0,502.0,515.0,532.0,504.0
500.0,497.0,510.0,524.0,504.0
493.0,492.0,502.0,518.0,515.0
498.0,494.0,498.0,505.0,515.0
508.0,501.0,501.0,505.0,515.0
504.0,507.0,503.0,499.0,529.0
518.0,513.0,508.0,497.0,534.0
515.0,511.0,511.0,501.0,530.0
512.0,513.0,514.0,500.0,534.0
513.0,510.0,511.0,497.0,536.0
520.0,516.0,518.0,504.0,537.0
523.0,511.0,521.0,508.0,523.0
522.0,510.0,519.0,514.0,504.0
511.0,509.0,531.0,528.0,498.0
514.0,512.0,537.0,537.0,480.0
524.0,510.0,526.0,538.0,472.0
519.0,500.0,518.0,534.0,474.0
517.0,498.0,513.0,534.0,484.0
507.0,498.0,506.0,522.0,513.0
501.0,494.0,502.0,512.0,536.0
505.0,499.0,501.0,506.0,526.0
508.0,503.0,501.0,499.0,525.0
510.0,507.0,505.0,497.0,529.0
517.0,510.0,508.0,497.0,526.0
512.0,513.0,512.0,496.0,528.0
506.0,507.0,508.0,496.0,523.0
511.0,501.0,509.0,500.0,518.0
511.0,504.0,512.0,502.0,529.0
508.0,508.0,519.0,512.0,536.0
516.0,511.0,527.0,527.0,510.0
521.0,513.0,529.0,532.0,488.0
526.0,511.0,531.0,538.0,484.0
512.0,503.0,522.0,531.0,485.0
513.0,499.0,517.0,531.0,496.0
504.0,496.0,511.0,528.0,507.0
501.0,492.0,504.0,514.0,519.0
499.0,491.0,492.0,506.0,524.0
498.0,495.0,498.0,502.0,527.0
506.0,505.0,504.0,506.0,521.0
510.0,510.0,508.0,499.0,520.0
509.0,513.0,514.0,502.0,531.0
509.0,513.0,518.0,500.0,531.0
510.0,510.0,512.0,499.0,532.0
513.0,511.0,515.0,507.0,530.0
519.0,511.0,519.0,512.0,517.0
521.0,510.0,522.0,518.0,497.0
529.0,516.0,528.0,529.0,480.0
532.0,516.0,533.0,539.0,468.0
524.0,511.0,534.0,541.0,475.0
518.0,507.0,525.0,544.0,467.0
508.0,500.0,515.0,532.0,502.0
501.0,494.0,506.0,523.0,523.0
502.0,494.0,501.0,517.0,525.0
501.0,491.0,502.0,505.0,529.0
504.0,502.0,501.0,502.0,533.0
508.0,507.0,507.0,503.0,539.0
508.0,509.0,510.0,497.0,537.0
513.0,512.0,509.0,497.0,528.0
514.0,512.0,510.0,500.0,528.0
511.0,510.0,512.0,499.0,532.0
512.0,508.0,511.0,506.0,528.0
516.0,509.0,517.0,515.0,521.0
519.0,506.0,523.0,520.0,515.0
522.0,511.0,528.0,530.0,505.0
519.0,512.0,530.0,536.0,501.0
517.0,511.0,526.0,534.0,495.0
507.0,502.0,520.0,533.0,495.0
504.0,495.0,510.0,529.0,508.0
499.0,489.0,500.0,519.0,511.0
502.0,493.0,499.0,509.0,515.0
499.0,495.0,496.0,508.0,516.0
505.0,500.0,499.0,499.0,529.0
510.0,506.0,504.0,499.0,528.0
511.0,509.0,507.0,498.0,526.0
515.0,514.0,510.0,500.0,527.0
513.0,510.0,514.0,498.0,531.0
518.0,508.0,512.0,503.0,532.0
515.0,508.0,517.0,508.0,526.0
513.0,508.0,520.0,516.0,518.0
523.0,514.0,532.0,532.0,503.0
524.0,511.0,527.0,536.0,496.0
527.0,511.0,529.0,535.0,487.0
521.0,507.0,525.0,534.0,493.0
510.0,499.0,516.0,532.0,505.0
504.0,496.0,509.0,526.0,503.0
505.0,490.0,500.0,514.0,509.0
500.0,495.0,497.0,506.0,523.0
497.0,498.0,500.0,507.0,537.0
500.0,502.0,499.0,510.0,534.0
509.0,515.0,509.0,500.0,528.0
515.0,513.0,508.0,492.0,523.0
513.0,516.0,508.0,493.0,527.0
512.0,506.0,513.0,496.0,535.0
515.0,506.0,510.0,499.0,535.0
519.0,507.0,516.0,509.0,524.0
528.0,512.0,522.0,517.0,510.0
528.0,511.0,524.0,525.0,492.0
525.0,509.0,526.0,533.0,486.0
518.0,506.0,527.0,538.0,481.0
510.0,503.0,519.0,539.0,490.0
499.0,497.0,515.0,531.0,499.0
508.0,497.0,507.0,523.0,502.0
501.0,493.0,499.0,513.0,519.0
499.0,491.0,494.0,506.0,542.0
507.0,501.0,499.0,504.0,530.0
509.0,511.0,504.0,501.0,530.0
514.0,511.0,507.0,499.0,525.0
515.0,514.0,512.0,500.0,525.0
518.0,515.0,511.0,500.0,532.0
514.0,510.0,513.0,499.0,536.0
516.0,508.0,513.0,506.0,526.0
521.0,513.0,521.0,514.0,514.0
522.0,512.0,525.0,520.0,513.0
526.0,515.0,529.0,532.0,505.0
535.0,514.0,531.0,539.0,490.0
525.0,509.0,527.0,538.0,493.0
515.0,509.0,523.0,539.0,487.0
501.0,499.0,517.0,528.0,506.0
494.0,492.0,503.0,521.0,507.0
503.0,495.0,502.0,516.0,519.0
496.0,496.0,498.0,511.0,535.0
495.0,501.0,502.0,501.0,545.0
509.0,510.0,503.0,496.0,545.0
515.0,513.0,508.0,497.0,530.0
518.0,513.0,513.0,495.0,531.0
512.0,508.0,511.0,500.0,526.0
512.0,508.0,514.0,500.0,515.0
517.0,509.0,516.0,505.0,505.0
519.0,509.0,521.0,517.0,503.0
525.0,514.0,523.0,527.0,492.0
523.0,510.0,529.0,533.0,488.0
520.0,509.0,530.0,542.0,490.0
515.0,502.0,523.0,537.0,488.0
512.0,500.0,517.0,535.0,496.0
513.0,497.0,515.0,528.0,501.0
504.0,495.0,504.0,519.0,512.0
506.0,494.0,497.0,508.0,518.0
504.0,500.0,500.0,504.0,529.0
505.0,505.0,500.0,501.0,518.0
509.0,508.0,506.0,499.0,522.0
516.0,512.0,513.0,498.0,530.0
519.0,511.0,509.0,497.0,537.0
513.0,510.0,513.0,500.0,536.0
513.0,507.0,516.0,504.0,532.0
517.0,508.0,517.0,509.0,523.0
517.0,508.0,521.0,520.0,515.0
524.0,511.0,531.0,528.0,500.0
526.0,513.0,533.0,539.0,487.0
525.0,509.0,528.0,541.0,482.0
514.0,500.0,522.0,536.0,493.0
510.0,494.0,510.0,530.0,508.0
505.0,494.0,512.0,527.0,520.0
502.0,495.0,502.0,516.0,518.0
503.0,497.0,501.0,504.0,531.0
502.0,497.0,500.0,500.0,539.0
506.0,508.0,503.0,500.0,533.0
508.0,509.0,508.0,497.0,527.0
514.0,510.0,511.0,499.0,535.0
514.0,509.0,512.0,503.0,537.0
512.0,510.0,514.0,500.0,533.0
516.0,510.0,517.0,505.0,523.0
513.0,507.0,519.0,511.0,515.0
515.0,508.0,522.0,524.0,505.0
518.0,504.0,530.0,529.0,498.0
524.0,511.0,530.0,539.0,485.0
517.0,503.0,520.0,539.0,489.0
513.0,500.0,520.0,536.0,496.0
513.0,499.0,513.0,531.0,495.0
504.0,489.0,503.0,520.0,502.0
503.0,491.0,500.0,514.0,513.0
505.0,498.0,500.0,510.0,525.0
509.0,504.0,502.0,501.0,531.0
509.0,507.0,505.0,499.0,534.0
512.0,510.0,508.0,495.0,536.0
514.0,511.0,513.0,498.0,535.0
516.0,512.0,518.0,500.0,531.0
519.0,508.0,514.0,500.0,526.0
525.0,510.0,518.0,505.0,519.0
523.0,508.0,519.0,514.0,518.0
522.0,512.0,526.0,526.0,511.0
524.0,514.0,530.0,534.0,501.0
525.0,510.0,524.0,537.0,492.0
521.0,506.0,524.0,541.0,493.0
511.0,499.0,520.0,536.0,502.0
509.0,490.0,508.0,527.0,504.0
508.0,493.0,504.0,521.0,504.0
498.0,493.0,502.0,515.0,521.0
501.0,497.0,500.0,513.0,525.0
507.0,505.0,499.0,496.0,523.0
509.0,505.0,506.0,493.0,537.0
515.0,516.0,511.0,497.0,546.0
513.0,511.0,512.0,499.0,539.0
514.0,507.0,511.0,496.0,535.0
515.0,508.0,514.0,502.0,527.0
519.0,510.0,519.0,509.0,522.0
517.0,508.0,521.0,515.0,518.0
520.0,510.0,527.0,527.0,505.0
526.0,514.0,533.0,538.0,499.0
525.0,506.0,529.0,539.0,495.0
519.0,508.0,524.0,539.0,500.0
512.0,497.0,513.0,532.0,501.0
504.0,494.0,508.0,522.0,511.0
499.0,491.0,500.0,510.0,518.0
495.0,492.0,498.0,506.0,522.0
501.0,502.0,501.0,505.0,523.0
504.0,507.0,506.0,499.0,528.0
510.0,514.0,507.0,494.0,540.0
514.0,514.0,509.0,495.0,558.0
514.0,511.0,513.0,496.0,553.0
515.0,503.0,511.0,495.0,540.0
516.0,506.0,515.0,501.0,527.0
518.0,510.0,521.0,513.0,505.0
519.0,510.0,525.0,522.0,499.0
521.0,511.0,531.0,532.0,496.0
521.0,511.0,534.0,541.0,493.0
517.0,508.0,531.0,541.0,486.0
514.0,502.0,521.0,536.0,495.0
506.0,496.0,513.0,528.0,502.0
505.0,491.0,503.0,518.0,511.0
507.0,494.0,501.0,512.0,514.0
503.0,496.0,501.0,503.0,523.0
509.0,506.0,501.0,499.0,520.0
514.0,508.0,505.0,502.0,523.0
515.0,511.0,513.0,499.0,534.0
511.0,509.0,511.0,498.0,535.0
513.0,508.0,513.0,496.0,529.0
513.0,505.0,511.0,497.0,526.0
516.0,508.0,516.0,507.0,518.0
524.0,510.0,524.0,514.0,506.0
524.0,509.0,522.0,522.0,498.0
521.0,511.0,532.0,532.0,492.0
523.0,508.0,528.0,538.0,483.0
517.0,505.0,525.0,540.0,491.0
509.0,500.0,517.0,531.0,499.0
508.0,496.0,512.0,526.0,503.0
501.0,493.0,503.0,517.0,511.0
504.0,499.0,499.0,508.0,520.0
506.0,499.0,500.0,503.0,526.0
506.0,506.0,504.0,500.0,532.0
512.0,510.0,508.0,499.0,530.0
514.0,511.0,510.0,493.0,529.0
516.0,512.0,510.0,496.0,535.0
518.0,509.0,511.0,498.0,538.0
525.0,511.0,517.0,506.0,533.0
528.0,510.0,520.0,509.0,525.0
535.0,512.0,527.0,517.0,518.0
537.0,514.0,529.0,525.0,506.0
535.0,520.0,534.0,539.0,496.0
520.0,512.0,530.0,538.0,482.0
502.0,506.0,522.0,533.0,487.0
500.0,499.0,516.0,529.0,492.0
495.0,499.0,510.0,525.0,498.0
489.0,493.0,503.0,516.0,516.0
491.0,496.0,501.0,507.0,522.0
498.0,501.0,503.0,503.0,529.0
510.0,510.0,507.0,501.0,524.0
515.0,508.0,506.0,497.0,512.0
515.0,512.0,510.0,499.0,514.0
515.0,513.0,513.0,501.0,511.0
517.0,513.0,511.0,499.0,507.0
520.0,511.0,516.0,505.0,497.0
521.0,511.0,520.0,512.0,514.0
522.0,511.0,523.0,517.0,514.0
527.0,512.0,526.0,526.0,524.0
525.0,511.0,528.0,532.0,509.0
522.0,510.0,529.0,537.0,495.0
520.0,502.0,520.0,535.0,494.0
512.0,498.0,512.0,529.0,501.0
510.0,492.0,502.0,520.0,507.0
496.0,492.0,498.0,510.0,525.0
496.0,499.0,500.0,501.0,528.0
505.0,503.0,502.0,502.0,529.0
515.0,509.0,510.0,500.0,527.0
509.0,520.0,513.0,501.0,529.0
507.0,517.0,514.0,499.0,534.0
510.0,511.0,512.0,497.0,532.0
511.0,511.0,509.0,494.0,534.0
514.0,507.0,514.0,507.0,516.0
518.0,513.0,525.0,516.0,509.0
523.0,513.0,527.0,524.0,505.0
525.0,515.0,531.0,534.0,488.0
522.0,511.0,529.0,540.0,484.0
515.0,509.0,522.0,532.0,486.0
510.0,500.0,516.0,531.0,492.0
499.0,493.0,510.0,521.0,520.0
495.0,492.0,503.0,519.0,522.0
499.0,495.0,502.0,506.0,526.0
501.0,500.0,499.0,501.0,529.0
508.0,509.0,503.0,498.0,533.0
508.0,508.0,505.0,495.0,534.0
512.0,511.0,509.0,496.0,532.0
512.0,511.0,511.0,499.0,526.0
509.0,509.0,510.0,496.0,524.0
513.0,512.0,514.0,501.0,520.0
511.0,506.0,515.0,509.0,520.0
518.0,508.0,519.0,514.0,514.0
522.0,510.0,524.0,523.0,505.0
527.0,513.0,530.0,535.0,494.0
522.0,509.0,528.0,537.0,500.0
517.0,506.0,521.0,533.0,505.0
508.0,503.0,513.0,527.0,509.0
503.0,493.0,505.0,521.0,514.0
500.0,492.0,499.0,506.0,524.0
502.0,498.0,500.0,506.0,524.0
503.0,501.0,503.0,502.0,521.0
507.0,507.0,506.0,501.0,526.0
510.0,512.0,508.0,498.0,530.0
510.0,513.0,510.0,498.0,532.0
513.0,510.0,510.0,498.0,523.0
514.0,510.0,511.0,501.0,521.0
517.0,509.0,514.0,509.0,509.0
521.0,511.0,520.0,514.0,505.0
519.0,513.0,523.0,519.0,509.0
522.0,512.0,532.0,530.0,501.0
526.0,513.0,532.0,538.0,495.0
523.0,509.0,527.0,539.0,491.0
517.0,503.0,520.0,535.0,496.0
508.0,497.0,512.0,528.0,491.0
502.0,492.0,502.0,519.0,494.0
501.0,494.0,500.0,517.0,509.0
506.0,499.0,500.0,505.0,519.0
505.0,504.0,498.0,500.0,522.0
510.0,509.0,505.0,498.0,527.0
515.0,513.0,508.0,499.0,526.0
519.0,515.0,513.0,500.0,529.0
511.0,511.0,509.0,496.0,540.0
515.0,509.0,510.0,497.0,533.0
519.0,508.0,514.0,508.0,524.0
516.0,511.0,518.0,509.0,509.0
520.0,511.0,526.0,526.0,496.0
523.0,515.0,531.0,535.0,485.0
520.0,510.0,531.0,540.0,481.0
517.0,507.0,524.0,539.0,486.0
515.0,500.0,517.0,535.0,495.0
508.0,495.0,511.0,526.0,503.0
501.0,494.0,505.0,521.0,513.0
498.0,492.0,501.0,507.0,520.0
501.0,498.0,499.0,504.0,529.0
514.0,509.0,501.0,500.0,525.0
516.0,512.0,514.0,500.0,526.0
518.0,511.0,509.0,499.0,528.0
518.0,512.0,514.0,495.0,529.0
521.0,510.0,511.0,496.0,533.0
516.0,510.0,514.0,502.0,529.0
516.0,510.0,519.0,512.0,517.0
516.0,510.0,522.0,520.0,504.0
518.0,510.0,525.0,526.0,499.0
522.0,507.0,527.0,532.0,498.0
517.0,506.0,526.0,537.0,500.0
515.0,502.0,525.0,536.0,499.0
510.0,499.0,514.0,532.0,497.0
508.0,491.0,500.0,519.0,503.0
500.0,490.0,499.0,516.0,510.0
500.0,498.0,500.0,512.0,516.0
505.0,503.0,504.0,508.0,523.0
513.0,508.0,505.0,502.0,533.0
514.0,509.0,505.0,492.0,540.0
510.0,509.0,507.0,492.0,535.0
515.0,509.0,511.0,493.0,535.0
518.0,507.0,509.0,500.0,531.0
516.0,506.0,513.0,502.0,521.0
517.0,510.0,520.0,513.0,516.0
518.0,510.0,523.0,520.0,510.0
525.0,513.0,532.0,531.0,496.0
521.0,515.0,534.0,539.0,495.0
517.0,507.0,527.0,543.0,495.0
511.0,502.0,520.0,533.0,497.0
508.0,501.0,517.0,531.0,502.0
500.0,494.0,505.0,519.0,512.0
498.0,494.0,501.0,512.0,518.0
500.0,497.0,501.0,504.0,525.0
503.0,504.0,503.0,498.0,529.0
506.0,508.0,504.0,498.0,528.0
509.0,512.0,510.0,499.0,528.0
512.0,512.0,511.0,500.0,525.0
510.0,509.0,511.0,499.0,533.0
511.0,509.0,512.0,501.0,527.0
513.0,508.0,516.0,508.0,524.0
516.0,510.0,526.0,517.0,514.0
521.0,511.0,527.0,530.0,506.0
525.0,514.0,530.0,536.0,495.0
523.0,511.0,531.0,539.0,485.0
515.0,505.0,525.0,537.0,490.0
509.0,500.0,517.0,533.0,494.0
504.0,496.0,510.0,531.0,496.0
499.0,494.0,503.0,519.0,501.0
497.0,494.0,499.0,514.0,513.0
504.0,500.0,496.0,503.0,522.0
507.0,505.0,503.0,499.0,530.0
513.0,509.0,505.0,502.0,524.0
517.0,512.0,509.0,503.0,522.0
517.0,512.0,512.0,500.0,526.0
514.0,508.0,511.0,499.0,529.0
515.0,509.0,514.0,502.0,538.0
517.0,510.0,519.0,514.0,517.0
521.0,510.0,521.0,516.0,508.0
522.0,512.0,527.0,527.0,496.0
525.0,512.0,531.0,537.0,492.0
523.0,510.0,530.0,539.0,488.0
521.0,505.0,519.0,535.0,490.0
507.0,497.0,513.0,528.0,504.0
505.0,494.0,507.0,522.0,511.0
500.0,492.0,499.0,512.0,512.0
501.0,497.0,503.0,507.0,523.0
506.0,505.0,500.0,500.0,526.0
510.0,510.0,504.0,496.0,529.0
510.0,509.0,513.0,499.0,527.0
514.0,513.0,510.0,498.0,534.0
513.0,510.0,510.0,496.0,532.0
510.0,506.0,508.0,499.0,528.0
516.0,503.0,512.0,503.0,521.0
520.0,508.0,518.0,511.0,516.0
523.0,507.0,522.0,519.0,507.0
526.0,513.0,531.0,530.0,496.0
525.0,513.0,529.0,538.0,489.0
520.0,504.0,525.0,538.0,497.0
509.0,499.0,517.0,534.0,500.0
506.0,499.0,511.0,528.0,509.0
499.0,491.0,502.0,519.0,516.0
497.0,496.0,500.0,511.0,521.0
503.0,498.0,501.0,508.0,528.0
506.0,503.0,502.0,501.0,525.0
516.0,508.0,505.0,498.0,528.0
513.0,509.0,506.0,495.0,528.0
514.0,516.0,509.0,499.0,530.0
514.0,510.0,510.0,498.0,520.0
515.0,508.0,511.0,498.0,517.0
522.0,508.0,515.0,506.0,518.0
525.0,510.0,521.0,518.0,513.0
526.0,513.0,526.0,527.0,506.0
527.0,516.0,529.0,535.0,500.0
527.0,513.0,527.0,541.0,493.0
522.0,504.0,527.0,533.0,495.0
516.0,502.0,515.0,530.0,496.0
510.0,495.0,510.0,527.0,500.0
498.0,495.0,502.0,522.0,501.0
502.0,496.0,497.0,505.0,519.0
511.0,500.0,499.0,496.0,527.0
516.0,510.0,505.0,501.0,529.0
518.0,509.0,506.0,497.0,533.0
523.0,518.0,511.0,497.0,527.0
521.0,511.0,509.0,494.0,527.0
515.0,509.0,510.0,496.0,529.0
510.0,508.0,515.0,506.0,509.0
500.0,508.0,517.0,506.0,513.0
506.0,510.0,521.0,516.0,511.0
520.0,513.0,529.0,529.0,492.0
519.0,515.0,533.0,538.0,489.0
518.0,509.0,529.0,537.0,491.0
510.0,503.0,523.0,536.0,493.0
504.0,502.0,514.0,530.0,496.0
500.0,495.0,508.0,522.0,501.0
498.0,492.0,501.0,514.0,507.0
498.0,503.0,501.0,508.0,518.0
504.0,504.0,503.0,507.0,523.0
507.0,510.0,505.0,500.0,530.0
505.0,510.0,507.0,495.0,539.0
511.0,512.0,510.0,496.0,540.0
513.0,511.0,510.0,496.0,521.0
515.0,508.0,509.0,496.0,522.0
519.0,509.0,515.0,503.0,517.0
522.0,511.0,521.0,516.0,511.0
524.0,512.0,525.0,522.0,506.0
521.0,513.0,527.0,528.0,503.0
523.0,513.0,532.0,539.0,495.0
519.0,509.0,527.0,538.0,495.0
512.0,501.0,518.0,533.0,497.0
506.0,498.0,514.0,528.0,502.0
500.0,492.0,502.0,516.0,510.0
497.0,495.0,500.0,506.0,519.0
499.0,497.0,498.0,506.0,526.0
505.0,505.0,505.0,501.0,527.0
512.0,510.0,511.0,501.0,528.0
513.0,514.0,509.0,497.0,529.0
511.0,512.0,509.0,498.0,531.0
513.0,506.0,507.0,494.0,532.0
514.0,509.0,511.0,499.0,531.0
517.0,511.0,515.0,504.0,525.0
523.0,509.0,519.0,517.0,512.0
525.0,512.0,529.0,525.0,514.0
523.0,511.0,528.0,530.0,500.0
522.0,509.0,527.0,537.0,493.0
517.0,504.0,523.0,537.0,495.0
514.0,499.0,515.0,533.0,492.0
505.0,494.0,507.0,523.0,504.0
496.0,489.0,498.0,511.0,512.0
494.0,492.0,495.0,504.0,520.0
499.0,503.0,505.0,503.0,531.0
506.0,508.0,506.0,503.0,535.0
513.0,511.0,509.0,497.0,533.0
519.0,513.0,509.0,498.0,527.0
518.0,513.0,512.0,501.0,531.0
512.0,513.0,512.0,500.0,532.0
516.0,514.0,515.0,504.0,523.0
520.0,511.0,523.0,511.0,519.0
521.0,511.0,523.0,518.0,510.0
524.0,516.0,528.0,527.0,503.0
524.0,514.0,532.0,537.0,496.0
524.0,507.0,528.0,538.0,487.0
516.0,503.0,523.0,536.0,488.0
509.0,497.0,510.0,531.0,497.0
506.0,492.0,505.0,522.0,502.0
499.0,492.0,502.0,515.0,508.0
498.0,496.0,502.0,507.0,519.0
500.0,500.0,502.0,501.0,524.0
505.0,506.0,506.0,500.0,523.0
507.0,509.0,508.0,502.0,527.0
515.0,509.0,511.0,499.0,527.0
513.0,508.0,509.0,498.0,530.0
513.0,508.0,511.0,498.0,532.0
518.0,508.0,518.0,510.0,525.0
516.0,511.0,523.0,515.0,516.0
518.0,511.0,527.0,522.0,510.0
520.0,512.0,530.0,529.0,506.0
525.0,512.0,533.0,540.0,484.0
525.0,508.0,529.0,540.0,483.0
512.0,503.0,525.0,535.0,489.0
503.0,497.0,513.0,529.0,496.0
499.0,491.0,503.0,519.0,491.0
495.0,491.0,500.0,509.0,508.0
498.0,496.0,499.0,503.0,515.0
505.0,500.0,501.0,498.0,524.0
521.0,509.0,504.0,498.0,522.0
520.0,512.0,509.0,500.0,528.0
515.0,510.0,516.0,501.0,545.0
517.0,508.0,513.0,500.0,538.0
515.0,508.0,513.0,503.0,540.0
518.0,509.0,518.0,506.0,536.0
519.0,511.0,522.0,516.0,521.0
515.0,512.0,529.0,527.0,510.0
523.0,512.0,531.0,533.0,494.0
530.0,508.0,529.0,537.0,487.0
520.0,504.0,526.0,540.0,490.0
509.0,501.0,522.0,534.0,497.0
504.0,498.0,510.0,525.0,499.0
502.0,495.0,502.0,517.0,504.0
495.0,495.0,501.0,507.0,508.0
500.0,498.0,499.0,499.0,514.0
501.0,501.0,502.0,497.0,521.0
511.0,506.0,504.0,490.0,529.0
512.0,510.0,511.0,496.0,531.0
515.0,513.0,509.0,497.0,535.0
512.0,508.0,511.0,496.0,535.0
513.0,508.0,515.0,503.0,529.0
514.0,506.0,517.0,509.0,526.0
516.0,509.0,525.0,516.0,515.0
524.0,513.0,527.0,528.0,504.0
524.0,511.0,530.0,531.0,490.0
519.0,506.0,528.0,536.0,492.0
513.0,500.0,522.0,537.0,495.0
506.0,496.0,514.0,529.0,508.0
509.0,494.0,509.0,521.0,506.0
502.0,493.0,506.0,514.0,516.0
503.0,495.0,496.0,506.0,524.0
510.0,498.0,501.0,499.0,525.0
508.0,509.0,510.0,499.0,529.0
506.0,511.0,513.0,498.0,532.0
514.0,514.0,513.0,497.0,533.0
513.0,511.0,513.0,504.0,533.0
512.0,510.0,512.0,501.0,534.0
511.0,509.0,516.0,505.0,530.0
512.0,508.0,520.0,512.0,520.0
517.0,509.0,528.0,521.0,509.0
528.0,511.0,530.0,530.0,495.0
526.0,512.0,531.0,538.0,490.0
521.0,506.0,528.0,543.0,485.0
514.0,503.0,521.0,535.0,494.0
508.0,498.0,514.0,530.0,499.0
506.0,493.0,504.0,523.0,509.0
500.0,495.0,502.0,512.0,511.0
501.0,500.0,499.0,503.0,516.0
510.0,501.0,502.0,505.0,524.0
519.0,511.0,511.0,499.0,527.0
518.0,510.0,507.0,494.0,537.0
517.0,510.0,507.0,493.0,540.0
519.0,510.0,510.0,494.0,536.0
512.0,508.0,516.0,500.0,534.0
515.0,509.0,518.0,508.0,522.0
518.0,513.0,522.0,516.0,513.0
519.0,513.0,529.0,526.0,509.0
524.0,512.0,531.0,534.0,498.0
519.0,509.0,530.0,539.0,495.0
518.0,505.0,525.0,537.0,488.0
510.0,500.0,517.0,533.0,489.0
511.0,495.0,510.0,529.0,488.0
502.0,490.0,501.0,515.0,504.0
501.0,493.0,498.0,508.0,521.0
504.0,502.0,501.0,503.0,537.0
507.0,508.0,505.0,499.0,544.0
510.0,509.0,506.0,495.0,539.0
514.0,515.0,511.0,496.0,535.0
522.0,515.0,514.0,499.0,528.0
513.0,509.0,517.0,499.0,528.0
518.0,509.0,516.0,504.0,516.0
518.0,509.0,519.0,511.0,514.0
521.0,513.0,523.0,517.0,507.0
525.0,511.0,530.0,526.0,500.0
524.0,512.0,528.0,533.0,497.0
524.0,510.0,527.0,539.0,497.0
515.0,504.0,523.0,535.0,500.0
511.0,500.0,515.0,528.0,506.0
504.0,495.0,506.0,523.0,510.0
496.0,491.0,499.0,509.0,522.0
500.0,501.0,499.0,504.0,518.0
500.0,501.0,504.0,504.0,521.0
510.0,506.0,505.0,501.0,527.0
510.0,507.0,507.0,497.0,529.0
514.0,512.0,511.0,499.0,530.0
511.0,508.0,509.0,498.0,540.0
511.0,507.0,507.0,496.0,533.0
518.0,507.0,514.0,502.0,528.0
522.0,508.0,520.0,510.0,518.0
521.0,514.0,524.0,520.0,512.0
520.0,509.0,527.0,530.0,508.0
523.0,507.0,526.0,531.0,494.0
518.0,504.0,525.0,538.0,490.0
511.0,501.0,519.0,532.0,497.0
507.0,499.0,513.0,527.0,504.0
501.0,491.0,501.0,515.0,511.0
501.0,492.0,502.0,507.0,513.0
503.0,496.0,500.0,505.0,516.0
507.0,505.0,507.0,502.0,519.0
510.0,513.0,507.0,500.0,529.0
518.0,516.0,512.0,507.0,529.0
517.0,510.0,509.0,498.0,529.0
515.0,507.0,506.0,495.0,533.0
518.0,509.0,517.0,502.0,535.0
518.0,511.0,517.0,510.0,527.0
517.0,508.0,521.0,514.0,523.0
526.0,513.0,528.0,526.0,514.0
524.0,510.0,530.0,534.0,499.0
523.0,511.0,530.0,541.0,489.0
518.0,504.0,524.0,537.0,492.0
507.0,499.0,516.0,530.0,499.0
505.0,497.0,510.0,528.0,496.0
500.0,492.0,501.0,518.0,502.0
498.0,495.0,499.0,508.0,516.0
508.0,501.0,502.0,506.0,527.0
509.0,507.0,508.0,499.0,537.0
516.0,510.0,505.0,495.0,534.0
514.0,513.0,509.0,499.0,539.0
521.0,515.0,511.0,500.0,538.0
513.0,507.0,509.0,505.0,539.0
512.0,508.0,513.0,504.0,533.0
519.0,508.0,518.0,509.0,528.0
518.0,510.0,522.0,516.0,518.0
524.0,516.0,529.0,525.0,511.0
530.0,512.0,532.0,537.0,497.0
523.0,512.0,528.0,537.0,489.0
515.0,503.0,521.0,535.0,489.0
507.0,497.0,513.0,527.0,494.0
501.0,492.0,505.0,520.0,502.0
498.0,493.0,501.0,514.0,514.0
501.0,495.0,499.0,505.0,521.0
504.0,502.0,500.0,498.0,525.0
513.0,510.0,507.0,501.0,527.0
515.0,511.0,509.0,500.0,526.0
515.0,512.0,511.0,499.0,529.0
513.0,512.0,510.0,496.0,534.0
510.0,510.0,511.0,497.0,532.0
510.0,508.0,515.0,507.0,536.0
519.0,510.0,521.0,511.0,533.0
525.0,513.0,528.0,520.0,517.0
528.0,512.0,527.0,528.0,500.0
529.0,512.0,531.0,536.0,492.0
525.0,505.0,524.0,534.0,495.0
514.0,499.0,516.0,531.0,496.0
509.0,499.0,511.0,526.0,501.0
499.0,490.0,499.0,515.0,505.0
492.0,490.0,503.0,510.0,515.0
494.0,496.0,501.0,501.0,516.0
503.0,502.0,501.0,499.0,527.0
508.0,513.0,504.0,500.0,529.0
511.0,512.0,510.0,497.0,535.0
511.0,511.0,515.0,498.0,531.0
508.0,505.0,508.0,498.0,531.0
513.0,508.0,511.0,502.0,526.0
515.0,509.0,515.0,508.0,520.0
520.0,509.0,521.0,517.0,514.0
521.0,512.0,525.0,524.0,518.0
521.0,510.0,528.0,529.0,512.0
522.0,509.0,527.0,534.0,502.0
515.0,507.0,523.0,536.0,501.0
506.0,498.0,516.0,529.0,506.0
499.0,497.0,510.0,526.0,511.0
493.0,494.0,502.0,515.0,514.0
492.0,493.0,498.0,506.0,528.0
500.0,503.0,502.0,504.0,531.0
506.0,507.0,505.0,501.0,528.0
508.0,510.0,505.0,501.0,520.0
516.0,515.0,515.0,500.0,520.0
512.0,513.0,513.0,502.0,525.0
512.0,509.0,511.0,498.0,530.0
514.0,508.0,515.0,504.0,523.0
516.0,511.0,520.0,513.0,515.0
524.0,512.0,519.0,520.0,502.0
528.0,516.0,526.0,529.0,491.0
530.0,518.0,532.0,538.0,485.0
525.0,509.0,530.0,541.0,492.0
518.0,505.0,522.0,536.0,508.0
511.0,497.0,513.0,529.0,517.0
506.0,494.0,505.0,520.0,517.0
502.0,494.0,500.0,515.0,522.0
503.0,497.0,499.0,504.0,527.0
506.0,501.0,500.0,501.0,529.0
508.0,509.0,506.0,501.0,524.0
508.0,514.0,509.0,500.0,525.0
