CH1,CH2,CH3,CH4,CH5
536.0,529.0,539.0,531.0,495.0
533.0,531.0,537.0,538.0,483.0
531.0,534.0,533.0,544.0,472.0
524.0,533.0,526.0,547.0,470.0
521.0,529.0,519.0,543.0,473.0
522.0,528.0,512.0,541.0,479.0
518.0,518.0,509.0,534.0,487.0
521.0,515.0,510.0,528.0,497.0
520.0,516.0,515.0,520.0,514.0
521.0,515.0,517.0,515.0,513.0
528.0,514.0,525.0,513.0,521.0
532.0,514.0,530.0,511.0,521.0
529.0,513.0,528.0,508.0,528.0
527.0,511.0,532.0,505.0,531.0
531.0,507.0,529.0,507.0,534.0
525.0,512.0,531.0,514.0,528.0
530.0,517.0,533.0,521.0,513.0
531.0,523.0,534.0,529.0,499.0
533.0,525.0,528.0,534.0,482.0
534.0,530.0,526.0,537.0,478.0
524.0,529.0,522.0,543.0,475.0
520.0,523.0,512.0,538.0,484.0
516.0,520.0,508.0,535.0,487.0
511.0,510.0,503.0,526.0,496.0
509.0,507.0,505.0,520.0,512.0
509.0,508.0,511.0,518.0,515.0
517.0,514.0,520.0,518.0,518.0
523.0,511.0,523.0,508.0,530.0
523.0,509.0,531.0,506.0,531.0
524.0,505.0,523.0,499.0,536.0
519.0,502.0,528.0,499.0,554.0
519.0,506.0,527.0,506.0,528.0
517.0,510.0,525.0,508.0,517.0
517.0,511.0,522.0,514.0,516.0
521.0,515.0,524.0,525.0,504.0
525.0,525.0,527.0,536.0,492.0
522.0,527.0,524.0,540.0,488.0
514.0,525.0,515.0,543.0,488.0
512.0,515.0,506.0,535.0,488.0
508.0,511.0,505.0,530.0,495.0
507.0,507.0,501.0,521.0,504.0
506.0,503.0,507.0,516.0,520.0
512.0,503.0,509.0,510.0,526.0
517.0,511.0,520.0,509.0,534.0
519.0,507.0,523.0,506.0,535.0
521.0,506.0,527.0,509.0,535.0
524.0,506.0,526.0,501.0,535.0
519.0,504.0,525.0,501.0,537.0
525.0,506.0,524.0,505.0,529.0
524.0,509.0,526.0,512.0,517.0
524.0,518.0,526.0,518.0,508.0
524.0,521.0,526.0,531.0,498.0
523.0,525.0,522.0,539.0,481.0
519.0,528.0,520.0,542.0,473.0
508.0,518.0,511.0,538.0,483.0
504.0,510.0,507.0,533.0,485.0
502.0,511.0,499.0,527.0,493.0
502.0,503.0,500.0,517.0,506.0
503.0,506.0,505.0,512.0,517.0
512.0,504.0,511.0,507.0,522.0
516.0,509.0,520.0,506.0,527.0
519.0,507.0,525.0,502.0,535.0
520.0,505.0,527.0,502.0,531.0
519.0,502.0,524.0,500.0,536.0
503.0,487.0,509.0,488.0,546.0
512.0,498.0,519.0,498.0,538.0
523.0,507.0,524.0,512.0,517.0
522.0,514.0,525.0,522.0,506.0
524.0,526.0,525.0,534.0,491.0
526.0,527.0,524.0,539.0,480.0
520.0,525.0,517.0,540.0,480.0
513.0,519.0,508.0,532.0,487.0
508.0,514.0,504.0,525.0,492.0
502.0,511.0,500.0,522.0,505.0
505.0,502.0,499.0,515.0,513.0
509.0,503.0,505.0,509.0,522.0
508.0,504.0,518.0,507.0,526.0
516.0,505.0,521.0,502.0,530.0
520.0,506.0,525.0,503.0,533.0
523.0,503.0,525.0,507.0,537.0
520.0,502.0,522.0,495.0,537.0
522.0,503.0,526.0,501.0,534.0
523.0,505.0,524.0,507.0,528.0
524.0,511.0,522.0,512.0,523.0
523.0,519.0,523.0,522.0,506.0
522.0,521.0,523.0,533.0,495.0
523.0,524.0,519.0,538.0,486.0
514.0,520.0,516.0,537.0,479.0
505.0,514.0,507.0,532.0,484.0
501.0,509.0,501.0,530.0,493.0
499.0,504.0,499.0,520.0,505.0
502.0,502.0,500.0,513.0,518.0
509.0,501.0,509.0,507.0,524.0
515.0,505.0,515.0,506.0,529.0
518.0,506.0,522.0,503.0,534.0
518.0,501.0,521.0,497.0,540.0
516.0,498.0,521.0,496.0,537.0
516.0,504.0,521.0,494.0,536.0
516.0,501.0,521.0,500.0,529.0
521.0,509.0,524.0,508.0,516.0
524.0,508.0,519.0,515.0,509.0
519.0,515.0,520.0,527.0,497.0
522.0,518.0,515.0,532.0,487.0
518.0,522.0,518.0,537.0,480.0
514.0,522.0,510.0,536.0,477.0
508.0,519.0,505.0,533.0,478.0
503.0,506.0,498.0,524.0,486.0
502.0,503.0,501.0,520.0,499.0
504.0,500.0,501.0,509.0,518.0
509.0,502.0,508.0,505.0,539.0
513.0,505.0,518.0,504.0,546.0
514.0,506.0,522.0,501.0,543.0
518.0,502.0,524.0,500.0,547.0
515.0,502.0,524.0,498.0,543.0
513.0,499.0,526.0,497.0,533.0
529.0,503.0,521.0,503.0,524.0
532.0,508.0,518.0,509.0,511.0
525.0,511.0,524.0,520.0,500.0
523.0,520.0,523.0,528.0,493.0
522.0,523.0,519.0,533.0,489.0
515.0,522.0,513.0,540.0,482.0
509.0,517.0,508.0,534.0,480.0
503.0,509.0,503.0,531.0,484.0
503.0,507.0,499.0,525.0,496.0
502.0,502.0,500.0,514.0,515.0
504.0,501.0,505.0,509.0,524.0
515.0,507.0,514.0,505.0,535.0
521.0,506.0,520.0,502.0,538.0
518.0,504.0,525.0,502.0,537.0
519.0,502.0,525.0,498.0,539.0
518.0,503.0,521.0,497.0,541.0
517.0,501.0,522.0,498.0,532.0
518.0,502.0,521.0,508.0,521.0
519.0,507.0,521.0,518.0,510.0
532.0,515.0,522.0,524.0,496.0
527.0,525.0,522.0,534.0,495.0
521.0,523.0,516.0,535.0,496.0
523.0,520.0,511.0,538.0,483.0
516.0,514.0,504.0,534.0,488.0
505.0,509.0,502.0,527.0,496.0
502.0,503.0,497.0,518.0,507.0
505.0,501.0,502.0,515.0,521.0
507.0,502.0,505.0,508.0,531.0
509.0,502.0,515.0,506.0,530.0
509.0,501.0,521.0,501.0,530.0
519.0,503.0,523.0,502.0,534.0
519.0,502.0,523.0,497.0,534.0
517.0,497.0,521.0,495.0,533.0
516.0,500.0,524.0,502.0,534.0
522.0,504.0,522.0,508.0,521.0
516.0,509.0,520.0,517.0,512.0
521.0,517.0,525.0,527.0,498.0
522.0,523.0,521.0,533.0,491.0
516.0,523.0,515.0,536.0,488.0
513.0,517.0,507.0,539.0,488.0
510.0,510.0,502.0,532.0,494.0
503.0,505.0,496.0,526.0,504.0
500.0,505.0,498.0,520.0,510.0
502.0,502.0,502.0,514.0,518.0
506.0,500.0,509.0,506.0,532.0
505.0,499.0,513.0,498.0,535.0
519.0,503.0,520.0,498.0,540.0
529.0,502.0,522.0,502.0,536.0
524.0,502.0,520.0,500.0,533.0
519.0,499.0,521.0,499.0,534.0
515.0,503.0,519.0,498.0,534.0
514.0,501.0,517.0,506.0,522.0
515.0,507.0,519.0,521.0,503.0
517.0,518.0,518.0,526.0,493.0
519.0,521.0,518.0,537.0,483.0
514.0,522.0,512.0,532.0,479.0
509.0,516.0,506.0,535.0,483.0
500.0,510.0,499.0,530.0,490.0
496.0,504.0,495.0,519.0,503.0
497.0,497.0,496.0,513.0,524.0
505.0,500.0,504.0,511.0,526.0
509.0,502.0,512.0,507.0,528.0
516.0,504.0,520.0,506.0,531.0
517.0,504.0,529.0,502.0,534.0
517.0,499.0,523.0,497.0,541.0
513.0,498.0,522.0,500.0,537.0
514.0,501.0,524.0,498.0,531.0
517.0,502.0,525.0,504.0,522.0
521.0,509.0,523.0,514.0,517.0
519.0,515.0,520.0,520.0,508.0
523.0,522.0,521.0,529.0,496.0
519.0,522.0,520.0,536.0,490.0
514.0,523.0,512.0,539.0,487.0
510.0,517.0,507.0,532.0,490.0
504.0,511.0,504.0,529.0,495.0
503.0,503.0,498.0,519.0,504.0
505.0,504.0,501.0,512.0,515.0
505.0,500.0,508.0,508.0,526.0
513.0,501.0,515.0,503.0,530.0
516.0,502.0,521.0,504.0,538.0
521.0,502.0,523.0,499.0,539.0
518.0,502.0,525.0,498.0,540.0
520.0,498.0,522.0,491.0,542.0
518.0,499.0,525.0,502.0,534.0
523.0,506.0,523.0,507.0,526.0
520.0,509.0,521.0,515.0,518.0
525.0,516.0,523.0,526.0,507.0
523.0,523.0,523.0,535.0,492.0
516.0,523.0,516.0,544.0,484.0
509.0,519.0,508.0,535.0,485.0
504.0,514.0,502.0,531.0,486.0
501.0,505.0,499.0,529.0,494.0
500.0,502.0,498.0,518.0,503.0
505.0,501.0,502.0,511.0,513.0
506.0,498.0,509.0,512.0,521.0
512.0,501.0,517.0,504.0,529.0
520.0,502.0,523.0,502.0,529.0
517.0,501.0,523.0,499.0,538.0
516.0,499.0,520.0,496.0,541.0
522.0,502.0,521.0,501.0,543.0
523.0,503.0,523.0,502.0,531.0
522.0,506.0,524.0,509.0,522.0
521.0,513.0,527.0,520.0,510.0
520.0,518.0,526.0,530.0,494.0
523.0,523.0,520.0,539.0,486.0
517.0,523.0,514.0,538.0,489.0
516.0,517.0,506.0,534.0,488.0
505.0,513.0,505.0,532.0,491.0
504.0,506.0,498.0,525.0,504.0
502.0,502.0,501.0,515.0,517.0
508.0,500.0,504.0,510.0,524.0
511.0,501.0,512.0,507.0,531.0
511.0,500.0,519.0,504.0,532.0
514.0,504.0,524.0,502.0,533.0
517.0,500.0,525.0,499.0,534.0
514.0,500.0,521.0,496.0,532.0
522.0,498.0,522.0,499.0,531.0
526.0,502.0,522.0,503.0,523.0
524.0,511.0,524.0,514.0,512.0
524.0,517.0,524.0,527.0,496.0
528.0,523.0,523.0,532.0,490.0
516.0,520.0,519.0,534.0,489.0
514.0,519.0,509.0,536.0,493.0
512.0,514.0,504.0,533.0,491.0
507.0,509.0,505.0,530.0,500.0
505.0,503.0,502.0,522.0,512.0
508.0,502.0,504.0,516.0,513.0
513.0,499.0,507.0,511.0,522.0
518.0,503.0,516.0,506.0,526.0
519.0,502.0,523.0,506.0,534.0
518.0,506.0,525.0,501.0,536.0
517.0,501.0,525.0,499.0,534.0
514.0,500.0,523.0,497.0,538.0
516.0,500.0,522.0,499.0,533.0
518.0,504.0,525.0,505.0,522.0
521.0,512.0,525.0,518.0,511.0
524.0,519.0,524.0,529.0,497.0
522.0,522.0,523.0,536.0,487.0
517.0,522.0,520.0,537.0,480.0
511.0,518.0,507.0,535.0,489.0
510.0,515.0,502.0,534.0,490.0
501.0,508.0,499.0,526.0,498.0
503.0,502.0,499.0,519.0,510.0
503.0,503.0,503.0,511.0,521.0
512.0,502.0,509.0,510.0,533.0
515.0,503.0,517.0,505.0,538.0
521.0,503.0,522.0,503.0,538.0
516.0,502.0,524.0,506.0,537.0
520.0,498.0,522.0,496.0,531.0
516.0,497.0,519.0,497.0,531.0
516.0,502.0,522.0,502.0,530.0
518.0,507.0,520.0,509.0,519.0
521.0,511.0,522.0,518.0,508.0
521.0,522.0,521.0,528.0,495.0
521.0,521.0,520.0,538.0,479.0
514.0,517.0,514.0,539.0,477.0
492.0,499.0,491.0,521.0,493.0
504.0,512.0,504.0,535.0,492.0
504.0,507.0,498.0,525.0,501.0
504.0,502.0,499.0,517.0,514.0
508.0,501.0,507.0,512.0,521.0
515.0,503.0,510.0,507.0,529.0
516.0,509.0,520.0,504.0,530.0
525.0,503.0,523.0,504.0,533.0
519.0,502.0,524.0,498.0,538.0
518.0,500.0,521.0,498.0,541.0
524.0,500.0,522.0,502.0,535.0
519.0,509.0,523.0,504.0,530.0
520.0,506.0,515.0,511.0,523.0
524.0,514.0,525.0,523.0,507.0
521.0,520.0,522.0,532.0,493.0
518.0,525.0,516.0,538.0,486.0
516.0,523.0,514.0,537.0,479.0
506.0,515.0,505.0,534.0,486.0
500.0,510.0,500.0,529.0,487.0
495.0,501.0,496.0,518.0,501.0
500.0,501.0,498.0,512.0,513.0
504.0,499.0,507.0,510.0,519.0
509.0,502.0,513.0,506.0,526.0
518.0,504.0,519.0,500.0,531.0
521.0,502.0,518.0,500.0,537.0
520.0,500.0,523.0,498.0,541.0
516.0,500.0,522.0,497.0,536.0
515.0,501.0,522.0,500.0,532.0
516.0,507.0,524.0,508.0,526.0
517.0,507.0,520.0,515.0,517.0
523.0,519.0,524.0,525.0,497.0
525.0,519.0,522.0,529.0,490.0
521.0,521.0,519.0,536.0,482.0
516.0,519.0,513.0,537.0,478.0
514.0,514.0,505.0,533.0,483.0
505.0,508.0,499.0,525.0,500.0
501.0,510.0,500.0,518.0,518.0
502.0,501.0,505.0,511.0,529.0
508.0,502.0,507.0,507.0,534.0
516.0,503.0,517.0,504.0,531.0
517.0,504.0,519.0,500.0,527.0
518.0,503.0,525.0,501.0,533.0
517.0,502.0,522.0,496.0,532.0
514.0,500.0,523.0,495.0,526.0
516.0,503.0,523.0,506.0,523.0
520.0,506.0,522.0,511.0,519.0
517.0,512.0,522.0,517.0,508.0
519.0,517.0,519.0,529.0,493.0
519.0,520.0,522.0,538.0,475.0
516.0,526.0,515.0,540.0,472.0
508.0,518.0,507.0,534.0,481.0
502.0,509.0,502.0,530.0,495.0
497.0,505.0,499.0,522.0,517.0
497.0,503.0,499.0,514.0,517.0
504.0,500.0,505.0,509.0,524.0
509.0,500.0,511.0,506.0,524.0
514.0,502.0,517.0,502.0,527.0
519.0,503.0,522.0,507.0,527.0
517.0,505.0,525.0,499.0,531.0
519.0,502.0,523.0,497.0,530.0
516.0,499.0,524.0,497.0,532.0
519.0,499.0,520.0,501.0,535.0
520.0,506.0,521.0,511.0,524.0
521.0,512.0,523.0,523.0,512.0
524.0,520.0,523.0,538.0,497.0
518.0,521.0,518.0,536.0,490.0
514.0,520.0,516.0,539.0,482.0
506.0,514.0,506.0,531.0,487.0
505.0,508.0,505.0,532.0,489.0
503.0,504.0,499.0,520.0,501.0
499.0,503.0,498.0,510.0,520.0
501.0,499.0,505.0,502.0,524.0
516.0,503.0,513.0,503.0,528.0
523.0,505.0,518.0,500.0,533.0
524.0,503.0,525.0,499.0,534.0
516.0,502.0,525.0,499.0,539.0
513.0,499.0,526.0,496.0,545.0
513.0,498.0,521.0,498.0,536.0
517.0,502.0,521.0,510.0,526.0
517.0,507.0,522.0,517.0,516.0
522.0,515.0,520.0,523.0,501.0
510.0,502.0,505.0,521.0,498.0
503.0,503.0,500.0,524.0,492.0
498.0,499.0,494.0,524.0,492.0
489.0,494.0,490.0,520.0,500.0
523.0,510.0,523.0,505.0,524.0
524.0,512.0,527.0,516.0,518.0
533.0,530.0,541.0,530.0,507.0
532.0,534.0,542.0,540.0,490.0
533.0,540.0,539.0,550.0,477.0
529.0,539.0,535.0,552.0,470.0
524.0,530.0,527.0,549.0,475.0
517.0,525.0,521.0,544.0,485.0
512.0,518.0,515.0,538.0,496.0
510.0,513.0,511.0,524.0,494.0
514.0,514.0,514.0,520.0,499.0
520.0,514.0,518.0,515.0,504.0
523.0,517.0,524.0,514.0,509.0
527.0,516.0,527.0,512.0,518.0
529.0,516.0,529.0,506.0,532.0
523.0,512.0,526.0,504.0,536.0
529.0,513.0,530.0,506.0,527.0
530.0,516.0,528.0,511.0,521.0
532.0,519.0,531.0,517.0,511.0
529.0,526.0,533.0,530.0,500.0
530.0,528.0,533.0,539.0,486.0
526.0,527.0,528.0,546.0,483.0
522.0,526.0,525.0,545.0,479.0
520.0,522.0,515.0,542.0,479.0
518.0,517.0,511.0,536.0,488.0
505.0,506.0,505.0,527.0,503.0
506.0,504.0,506.0,517.0,509.0
518.0,508.0,510.0,516.0,515.0
519.0,514.0,518.0,508.0,522.0
519.0,506.0,517.0,504.0,531.0
521.0,508.0,523.0,504.0,531.0
526.0,511.0,521.0,503.0,531.0
522.0,508.0,522.0,501.0,533.0
522.0,509.0,527.0,504.0,527.0
521.0,512.0,526.0,512.0,517.0
521.0,520.0,527.0,521.0,513.0
526.0,522.0,529.0,528.0,496.0
527.0,525.0,529.0,540.0,485.0
521.0,524.0,526.0,544.0,482.0
519.0,523.0,520.0,546.0,480.0
512.0,515.0,515.0,538.0,487.0
515.0,514.0,509.0,531.0,492.0
511.0,505.0,508.0,526.0,501.0
510.0,504.0,502.0,515.0,518.0
512.0,511.0,511.0,510.0,528.0
516.0,511.0,515.0,507.0,526.0
518.0,509.0,522.0,505.0,529.0
526.0,505.0,521.0,503.0,535.0
522.0,505.0,520.0,503.0,534.0
521.0,504.0,518.0,500.0,534.0
523.0,505.0,520.0,507.0,526.0
527.0,511.0,523.0,517.0,513.0
524.0,515.0,524.0,522.0,502.0
526.0,520.0,527.0,534.0,492.0
526.0,525.0,528.0,547.0,480.0
524.0,522.0,523.0,545.0,475.0
518.0,519.0,515.0,541.0,478.0
509.0,510.0,510.0,534.0,487.0
501.0,505.0,503.0,524.0,500.0
500.0,503.0,501.0,517.0,506.0
508.0,500.0,503.0,509.0,516.0
508.0,503.0,511.0,503.0,525.0
516.0,503.0,514.0,506.0,529.0
517.0,509.0,520.0,506.0,531.0
524.0,511.0,519.0,501.0,529.0
520.0,503.0,522.0,496.0,534.0
517.0,501.0,519.0,498.0,535.0
519.0,505.0,519.0,506.0,526.0
523.0,514.0,524.0,518.0,515.0
528.0,520.0,528.0,530.0,501.0
533.0,525.0,530.0,539.0,492.0
527.0,522.0,525.0,541.0,489.0
518.0,520.0,522.0,538.0,489.0
512.0,513.0,513.0,531.0,490.0
503.0,509.0,511.0,529.0,489.0
497.0,503.0,503.0,521.0,502.0
492.0,500.0,502.0,513.0,516.0
502.0,506.0,506.0,508.0,525.0
512.0,506.0,507.0,502.0,534.0
512.0,505.0,513.0,501.0,532.0
514.0,508.0,519.0,498.0,535.0
515.0,506.0,520.0,498.0,536.0
517.0,503.0,518.0,498.0,532.0
514.0,502.0,518.0,501.0,528.0
511.0,507.0,519.0,503.0,521.0
515.0,507.0,519.0,513.0,511.0
518.0,514.0,524.0,525.0,507.0
520.0,519.0,525.0,534.0,497.0
521.0,522.0,522.0,539.0,489.0
507.0,517.0,515.0,535.0,491.0
506.0,511.0,504.0,529.0,494.0
509.0,506.0,509.0,530.0,497.0
501.0,502.0,501.0,522.0,510.0
504.0,499.0,503.0,509.0,520.0
511.0,502.0,506.0,504.0,529.0
518.0,504.0,512.0,501.0,531.0
516.0,505.0,514.0,498.0,534.0
518.0,506.0,519.0,500.0,535.0
524.0,506.0,520.0,498.0,535.0
516.0,508.0,519.0,497.0,536.0
517.0,506.0,521.0,502.0,534.0
522.0,508.0,522.0,510.0,526.0
522.0,511.0,522.0,518.0,515.0
523.0,521.0,523.0,528.0,498.0
528.0,521.0,524.0,537.0,482.0
519.0,520.0,522.0,541.0,479.0
514.0,514.0,513.0,537.0,490.0
508.0,512.0,509.0,533.0,492.0
503.0,502.0,501.0,527.0,504.0
504.0,501.0,504.0,517.0,511.0
509.0,501.0,504.0,512.0,519.0
511.0,502.0,509.0,508.0,523.0
515.0,505.0,515.0,503.0,524.0
519.0,507.0,517.0,500.0,528.0
521.0,506.0,519.0,499.0,531.0
519.0,503.0,519.0,497.0,533.0
517.0,503.0,521.0,500.0,531.0
516.0,504.0,519.0,505.0,524.0
518.0,508.0,522.0,512.0,521.0
523.0,512.0,523.0,522.0,511.0
524.0,519.0,525.0,537.0,493.0
518.0,523.0,527.0,540.0,491.0
517.0,520.0,517.0,540.0,493.0
512.0,512.0,511.0,540.0,496.0
510.0,509.0,507.0,529.0,501.0
505.0,500.0,500.0,518.0,514.0
507.0,501.0,503.0,513.0,519.0
507.0,501.0,503.0,508.0,519.0
510.0,502.0,510.0,506.0,529.0
513.0,507.0,514.0,501.0,530.0
523.0,505.0,517.0,504.0,521.0
519.0,503.0,518.0,499.0,526.0
515.0,501.0,517.0,498.0,531.0
521.0,500.0,518.0,500.0,529.0
519.0,501.0,519.0,507.0,523.0
520.0,508.0,519.0,515.0,510.0
521.0,515.0,524.0,527.0,497.0
524.0,519.0,525.0,536.0,488.0
526.0,518.0,522.0,539.0,482.0
515.0,516.0,517.0,539.0,490.0
512.0,510.0,508.0,533.0,493.0
503.0,504.0,503.0,529.0,499.0
504.0,499.0,499.0,518.0,501.0
503.0,498.0,500.0,511.0,513.0
508.0,500.0,507.0,502.0,518.0
511.0,506.0,513.0,503.0,522.0
517.0,504.0,518.0,500.0,530.0
520.0,503.0,516.0,502.0,546.0
520.0,504.0,518.0,498.0,549.0
517.0,498.0,514.0,494.0,542.0
516.0,501.0,514.0,497.0,533.0
519.0,505.0,519.0,507.0,523.0
527.0,508.0,520.0,514.0,501.0
525.0,511.0,520.0,525.0,488.0
519.0,514.0,521.0,540.0,484.0
517.0,515.0,520.0,537.0,484.0
509.0,513.0,513.0,538.0,487.0
505.0,508.0,505.0,530.0,495.0
501.0,499.0,498.0,522.0,509.0
502.0,498.0,498.0,513.0,514.0
501.0,497.0,501.0,507.0,523.0
510.0,501.0,506.0,504.0,522.0
511.0,503.0,517.0,504.0,528.0
512.0,503.0,517.0,500.0,533.0
520.0,503.0,517.0,499.0,531.0
524.0,503.0,515.0,498.0,532.0
518.0,501.0,519.0,501.0,530.0
521.0,504.0,519.0,507.0,527.0
518.0,506.0,521.0,515.0,522.0
520.0,513.0,526.0,523.0,510.0
523.0,517.0,524.0,531.0,498.0
523.0,522.0,524.0,540.0,492.0
520.0,517.0,521.0,538.0,490.0
513.0,512.0,509.0,535.0,493.0
508.0,506.0,505.0,525.0,498.0
506.0,501.0,502.0,519.0,506.0
504.0,499.0,501.0,512.0,515.0
504.0,501.0,504.0,506.0,519.0
514.0,504.0,509.0,505.0,526.0
512.0,503.0,512.0,498.0,530.0
517.0,507.0,515.0,498.0,532.0
517.0,503.0,516.0,496.0,533.0
516.0,503.0,514.0,497.0,531.0
516.0,503.0,515.0,496.0,527.0
516.0,504.0,517.0,508.0,524.0
517.0,507.0,519.0,515.0,511.0
521.0,512.0,520.0,522.0,503.0
521.0,518.0,525.0,532.0,494.0
523.0,516.0,519.0,537.0,487.0
516.0,520.0,514.0,538.0,485.0
510.0,509.0,508.0,536.0,492.0
510.0,506.0,504.0,530.0,499.0
508.0,502.0,503.0,517.0,506.0
503.0,501.0,505.0,510.0,519.0
505.0,500.0,504.0,506.0,523.0
511.0,507.0,511.0,503.0,525.0
513.0,506.0,514.0,499.0,529.0
514.0,504.0,518.0,497.0,534.0
519.0,504.0,516.0,495.0,535.0
513.0,504.0,516.0,499.0,540.0
517.0,502.0,516.0,502.0,535.0
519.0,507.0,521.0,508.0,524.0
522.0,509.0,524.0,515.0,512.0
517.0,515.0,521.0,525.0,495.0
525.0,520.0,521.0,537.0,483.0
524.0,523.0,521.0,542.0,481.0
511.0,514.0,517.0,538.0,484.0
509.0,509.0,506.0,532.0,491.0
500.0,502.0,503.0,526.0,500.0
501.0,502.0,502.0,517.0,512.0
508.0,500.0,504.0,511.0,520.0
510.0,500.0,510.0,504.0,526.0
512.0,500.0,509.0,501.0,530.0
517.0,502.0,513.0,500.0,532.0
523.0,502.0,516.0,503.0,525.0
522.0,504.0,517.0,495.0,523.0
521.0,499.0,518.0,497.0,527.0
523.0,500.0,515.0,501.0,528.0
524.0,505.0,520.0,509.0,521.0
528.0,511.0,525.0,520.0,516.0
527.0,518.0,528.0,532.0,507.0
518.0,518.0,520.0,533.0,497.0
515.0,515.0,515.0,536.0,485.0
511.0,509.0,509.0,533.0,493.0
508.0,508.0,506.0,531.0,497.0
504.0,502.0,500.0,517.0,508.0
507.0,501.0,500.0,514.0,523.0
506.0,499.0,504.0,508.0,525.0
509.0,501.0,509.0,505.0,529.0
513.0,504.0,514.0,498.0,533.0
516.0,502.0,516.0,500.0,538.0
512.0,503.0,516.0,498.0,535.0
513.0,500.0,516.0,500.0,534.0
512.0,503.0,521.0,499.0,532.0
519.0,505.0,521.0,507.0,527.0
517.0,507.0,520.0,514.0,516.0
521.0,516.0,524.0,525.0,505.0
525.0,523.0,525.0,533.0,499.0
521.0,520.0,524.0,537.0,488.0
518.0,519.0,518.0,539.0,489.0
510.0,511.0,513.0,534.0,494.0
505.0,506.0,509.0,532.0,503.0
505.0,502.0,499.0,520.0,509.0
503.0,502.0,498.0,511.0,521.0
514.0,500.0,506.0,511.0,520.0
514.0,503.0,512.0,505.0,524.0
512.0,505.0,517.0,500.0,537.0
514.0,503.0,516.0,496.0,548.0
517.0,502.0,518.0,500.0,535.0
514.0,500.0,517.0,498.0,535.0
516.0,505.0,518.0,503.0,519.0
522.0,507.0,520.0,510.0,509.0
522.0,512.0,525.0,519.0,502.0
520.0,518.0,524.0,527.0,490.0
521.0,519.0,525.0,537.0,482.0
519.0,517.0,520.0,540.0,481.0
511.0,513.0,512.0,536.0,489.0
506.0,509.0,510.0,531.0,497.0
505.0,504.0,500.0,526.0,509.0
505.0,504.0,499.0,514.0,517.0
506.0,501.0,502.0,508.0,518.0
505.0,506.0,508.0,505.0,529.0
511.0,503.0,512.0,503.0,530.0
517.0,505.0,516.0,504.0,531.0
517.0,504.0,518.0,500.0,535.0
516.0,499.0,517.0,495.0,537.0
512.0,497.0,515.0,494.0,535.0
518.0,501.0,518.0,502.0,528.0
518.0,508.0,521.0,513.0,518.0
521.0,516.0,523.0,519.0,504.0
521.0,516.0,527.0,528.0,496.0
522.0,519.0,522.0,541.0,487.0
521.0,518.0,518.0,539.0,482.0
516.0,513.0,511.0,534.0,486.0
512.0,509.0,508.0,529.0,497.0
505.0,498.0,499.0,519.0,514.0
500.0,497.0,499.0,510.0,525.0
496.0,495.0,503.0,506.0,528.0
504.0,500.0,507.0,502.0,529.0
515.0,503.0,514.0,502.0,530.0
515.0,501.0,516.0,499.0,531.0
514.0,500.0,515.0,489.0,529.0
512.0,499.0,518.0,496.0,532.0
516.0,502.0,519.0,499.0,529.0
517.0,504.0,519.0,504.0,530.0
518.0,508.0,520.0,515.0,523.0
517.0,512.0,521.0,520.0,513.0
516.0,513.0,524.0,527.0,494.0
512.0,518.0,521.0,537.0,487.0
523.0,515.0,519.0,536.0,492.0
515.0,513.0,509.0,531.0,493.0
512.0,507.0,504.0,529.0,500.0
506.0,501.0,500.0,517.0,505.0
502.0,502.0,502.0,513.0,516.0
507.0,501.0,506.0,505.0,520.0
511.0,502.0,513.0,504.0,531.0
517.0,505.0,518.0,501.0,536.0
516.0,506.0,520.0,500.0,535.0
517.0,502.0,519.0,500.0,533.0
511.0,502.0,516.0,496.0,534.0
517.0,504.0,522.0,503.0,528.0
520.0,507.0,521.0,508.0,517.0
516.0,510.0,521.0,518.0,507.0
523.0,514.0,524.0,527.0,496.0
523.0,521.0,526.0,540.0,488.0
517.0,520.0,518.0,539.0,491.0
512.0,513.0,514.0,537.0,492.0
504.0,507.0,509.0,533.0,490.0
500.0,503.0,505.0,525.0,500.0
500.0,503.0,501.0,515.0,505.0
502.0,498.0,504.0,509.0,515.0
507.0,502.0,506.0,505.0,526.0
512.0,504.0,513.0,505.0,530.0
515.0,503.0,516.0,499.0,536.0
517.0,506.0,517.0,498.0,537.0
518.0,502.0,517.0,496.0,535.0
522.0,500.0,516.0,498.0,529.0
518.0,503.0,521.0,505.0,527.0
516.0,506.0,519.0,513.0,519.0
518.0,513.0,523.0,522.0,506.0
524.0,516.0,526.0,530.0,494.0
522.0,519.0,524.0,538.0,494.0
514.0,518.0,520.0,538.0,488.0
508.0,511.0,511.0,538.0,492.0
505.0,506.0,506.0,530.0,497.0
501.0,503.0,506.0,523.0,508.0
497.0,498.0,502.0,515.0,513.0
500.0,499.0,503.0,508.0,524.0
506.0,503.0,508.0,505.0,525.0
515.0,501.0,510.0,501.0,528.0
519.0,503.0,516.0,497.0,531.0
516.0,502.0,517.0,496.0,524.0
513.0,499.0,515.0,496.0,529.0
515.0,502.0,517.0,496.0,530.0
517.0,507.0,519.0,502.0,530.0
516.0,506.0,518.0,511.0,518.0
522.0,511.0,523.0,525.0,505.0
520.0,513.0,523.0,533.0,494.0
517.0,518.0,521.0,537.0,484.0
513.0,515.0,512.0,535.0,481.0
511.0,509.0,508.0,532.0,490.0
507.0,504.0,505.0,531.0,495.0
502.0,500.0,499.0,519.0,508.0
505.0,495.0,498.0,509.0,517.0
508.0,497.0,504.0,507.0,516.0
513.0,501.0,510.0,504.0,520.0
517.0,500.0,515.0,498.0,520.0
517.0,503.0,516.0,498.0,532.0
516.0,500.0,522.0,497.0,550.0
518.0,500.0,518.0,498.0,537.0
515.0,500.0,519.0,497.0,533.0
515.0,500.0,517.0,506.0,530.0
522.0,509.0,522.0,516.0,525.0
523.0,517.0,525.0,525.0,512.0
525.0,517.0,523.0,532.0,500.0
518.0,517.0,521.0,535.0,487.0
512.0,515.0,514.0,532.0,485.0
503.0,512.0,508.0,530.0,490.0
499.0,503.0,502.0,528.0,502.0
498.0,501.0,500.0,515.0,512.0
499.0,499.0,502.0,509.0,523.0
506.0,501.0,506.0,505.0,528.0
508.0,501.0,512.0,502.0,533.0
519.0,503.0,516.0,501.0,536.0
521.0,503.0,517.0,497.0,537.0
519.0,502.0,517.0,495.0,535.0
522.0,503.0,518.0,497.0,532.0
520.0,505.0,519.0,501.0,528.0
522.0,507.0,517.0,511.0,525.0
522.0,514.0,522.0,517.0,513.0
526.0,517.0,523.0,527.0,503.0
521.0,522.0,524.0,536.0,490.0
515.0,518.0,518.0,542.0,489.0
508.0,514.0,513.0,535.0,489.0
503.0,507.0,507.0,530.0,492.0
500.0,503.0,502.0,523.0,503.0
498.0,500.0,502.0,518.0,517.0
500.0,498.0,504.0,508.0,525.0
505.0,502.0,508.0,501.0,533.0
523.0,504.0,516.0,501.0,535.0
526.0,505.0,519.0,500.0,534.0
521.0,504.0,522.0,498.0,538.0
515.0,506.0,518.0,500.0,541.0
519.0,497.0,518.0,501.0,537.0
516.0,503.0,519.0,504.0,522.0
520.0,508.0,520.0,511.0,513.0
519.0,513.0,524.0,526.0,506.0
522.0,516.0,525.0,530.0,495.0
522.0,520.0,521.0,536.0,493.0
519.0,513.0,516.0,538.0,489.0
513.0,510.0,510.0,532.0,489.0
510.0,509.0,510.0,530.0,495.0
505.0,500.0,500.0,515.0,509.0
501.0,500.0,500.0,508.0,520.0
506.0,502.0,506.0,505.0,524.0
509.0,502.0,509.0,500.0,538.0
510.0,508.0,516.0,499.0,545.0
514.0,506.0,519.0,499.0,534.0
514.0,504.0,520.0,497.0,535.0
513.0,502.0,518.0,496.0,534.0
521.0,506.0,518.0,500.0,526.0
522.0,506.0,521.0,507.0,519.0
519.0,509.0,523.0,516.0,512.0
519.0,512.0,521.0,522.0,506.0
522.0,516.0,521.0,534.0,496.0
520.0,519.0,518.0,536.0,491.0
513.0,515.0,515.0,536.0,486.0
506.0,514.0,509.0,530.0,493.0
501.0,506.0,502.0,524.0,506.0
500.0,498.0,498.0,518.0,513.0
495.0,494.0,498.0,503.0,523.0
507.0,501.0,507.0,504.0,526.0
511.0,506.0,514.0,507.0,529.0
513.0,506.0,514.0,500.0,531.0
513.0,501.0,517.0,497.0,539.0
515.0,504.0,517.0,494.0,534.0
514.0,501.0,516.0,495.0,541.0
512.0,503.0,521.0,498.0,531.0
516.0,511.0,520.0,508.0,520.0
521.0,513.0,523.0,517.0,509.0
521.0,519.0,526.0,527.0,489.0
523.0,518.0,522.0,536.0,485.0
519.0,521.0,520.0,539.0,478.0
510.0,513.0,512.0,539.0,482.0
507.0,510.0,509.0,532.0,487.0
501.0,501.0,500.0,522.0,510.0
502.0,498.0,500.0,514.0,518.0
507.0,501.0,502.0,507.0,521.0
512.0,501.0,509.0,504.0,528.0
511.0,506.0,513.0,502.0,530.0
515.0,504.0,519.0,500.0,538.0
515.0,504.0,518.0,497.0,540.0
512.0,503.0,518.0,497.0,535.0
515.0,500.0,520.0,498.0,532.0
517.0,502.0,520.0,503.0,524.0
520.0,507.0,522.0,513.0,513.0
521.0,514.0,523.0,522.0,506.0
525.0,519.0,527.0,533.0,498.0
522.0,520.0,519.0,539.0,493.0
520.0,518.0,518.0,540.0,494.0
510.0,511.0,508.0,533.0,496.0
505.0,508.0,506.0,529.0,502.0
499.0,500.0,503.0,518.0,502.0
501.0,498.0,499.0,510.0,520.0
508.0,500.0,506.0,505.0,525.0
513.0,502.0,511.0,502.0,529.0
514.0,504.0,512.0,501.0,531.0
516.0,504.0,517.0,502.0,533.0
519.0,503.0,520.0,499.0,531.0
519.0,498.0,515.0,495.0,534.0
515.0,500.0,518.0,499.0,528.0
518.0,503.0,518.0,506.0,522.0
529.0,512.0,523.0,517.0,511.0
524.0,519.0,526.0,527.0,500.0
526.0,518.0,521.0,535.0,487.0
516.0,518.0,521.0,542.0,481.0
515.0,516.0,517.0,541.0,479.0
511.0,510.0,504.0,532.0,491.0
507.0,507.0,505.0,527.0,497.0
502.0,501.0,500.0,513.0,502.0
502.0,498.0,501.0,508.0,511.0
505.0,499.0,506.0,503.0,523.0
512.0,504.0,514.0,502.0,526.0
510.0,503.0,521.0,501.0,538.0
514.0,502.0,519.0,500.0,541.0
515.0,500.0,516.0,503.0,537.0
513.0,505.0,518.0,497.0,528.0
514.0,504.0,518.0,498.0,528.0
519.0,503.0,518.0,511.0,525.0
522.0,509.0,521.0,515.0,514.0
525.0,513.0,523.0,529.0,503.0
521.0,519.0,528.0,537.0,494.0
519.0,520.0,519.0,537.0,486.0
509.0,506.0,508.0,533.0,495.0
503.0,503.0,504.0,528.0,501.0
496.0,500.0,502.0,520.0,502.0
507.0,499.0,500.0,517.0,506.0
509.0,497.0,497.0,506.0,523.0
508.0,497.0,506.0,500.0,535.0
514.0,500.0,512.0,504.0,536.0
514.0,504.0,520.0,500.0,537.0
514.0,502.0,520.0,496.0,532.0
516.0,500.0,522.0,499.0,527.0
517.0,502.0,518.0,499.0,523.0
521.0,502.0,519.0,504.0,522.0
520.0,507.0,521.0,517.0,512.0
518.0,512.0,526.0,523.0,504.0
520.0,518.0,527.0,531.0,497.0
520.0,522.0,522.0,538.0,485.0
515.0,517.0,519.0,540.0,475.0
507.0,517.0,510.0,535.0,478.0
502.0,508.0,507.0,530.0,486.0
503.0,501.0,501.0,521.0,504.0
501.0,496.0,500.0,512.0,533.0
507.0,502.0,505.0,504.0,531.0
511.0,503.0,510.0,504.0,525.0
518.0,503.0,514.0,500.0,527.0
518.0,508.0,517.0,497.0,536.0
512.0,503.0,517.0,494.0,539.0
515.0,502.0,518.0,495.0,536.0
519.0,503.0,521.0,500.0,530.0
519.0,505.0,519.0,505.0,519.0
514.0,510.0,522.0,516.0,509.0
526.0,515.0,522.0,528.0,496.0
524.0,517.0,524.0,533.0,491.0
522.0,521.0,522.0,538.0,481.0
515.0,515.0,516.0,538.0,484.0
511.0,509.0,512.0,534.0,495.0
505.0,506.0,503.0,528.0,506.0
495.0,502.0,502.0,519.0,514.0
497.0,499.0,500.0,507.0,524.0
505.0,503.0,505.0,504.0,525.0
513.0,503.0,512.0,503.0,527.0
518.0,505.0,516.0,501.0,531.0
524.0,503.0,518.0,498.0,532.0
522.0,502.0,517.0,495.0,531.0
521.0,500.0,516.0,496.0,533.0
522.0,503.0,517.0,501.0,524.0
520.0,505.0,520.0,512.0,516.0
521.0,509.0,523.0,518.0,507.0
526.0,519.0,526.0,530.0,498.0
519.0,517.0,523.0,537.0,491.0
525.0,518.0,517.0,539.0,486.0
514.0,513.0,512.0,533.0,490.0
507.0,512.0,508.0,531.0,497.0
499.0,501.0,502.0,523.0,509.0
499.0,500.0,504.0,516.0,520.0
502.0,499.0,502.0,507.0,519.0
510.0,500.0,507.0,503.0,529.0
515.0,503.0,516.0,501.0,533.0
518.0,506.0,517.0,505.0,531.0
516.0,503.0,519.0,498.0,534.0
511.0,501.0,515.0,493.0,537.0
516.0,498.0,516.0,497.0,536.0
515.0,506.0,516.0,501.0,523.0
514.0,505.0,522.0,512.0,520.0
521.0,512.0,521.0,525.0,506.0
526.0,515.0,523.0,532.0,496.0
515.0,516.0,520.0,536.0,493.0
513.0,515.0,515.0,540.0,490.0
506.0,510.0,513.0,532.0,488.0
512.0,507.0,503.0,526.0,493.0
503.0,503.0,499.0,517.0,507.0
502.0,498.0,496.0,511.0,520.0
507.0,499.0,502.0,506.0,526.0
511.0,501.0,509.0,500.0,531.0
519.0,503.0,515.0,500.0,532.0
520.0,504.0,518.0,497.0,532.0
518.0,504.0,517.0,496.0,542.0
518.0,496.0,517.0,498.0,542.0
518.0,501.0,511.0,501.0,531.0
514.0,508.0,518.0,505.0,523.0
512.0,507.0,520.0,512.0,511.0
513.0,512.0,522.0,527.0,502.0
516.0,519.0,525.0,534.0,489.0
513.0,520.0,520.0,537.0,488.0
507.0,514.0,516.0,535.0,484.0
516.0,511.0,509.0,532.0,490.0
511.0,505.0,503.0,524.0,493.0
505.0,501.0,500.0,515.0,505.0
506.0,501.0,502.0,512.0,516.0
507.0,500.0,510.0,507.0,523.0
515.0,501.0,516.0,500.0,521.0
519.0,502.0,515.0,500.0,525.0
518.0,504.0,520.0,498.0,529.0
523.0,506.0,518.0,493.0,530.0
516.0,502.0,515.0,494.0,537.0
515.0,504.0,520.0,500.0,531.0
520.0,506.0,521.0,511.0,514.0
518.0,513.0,521.0,519.0,502.0
519.0,515.0,526.0,528.0,489.0
519.0,521.0,526.0,538.0,486.0
511.0,521.0,518.0,540.0,482.0
518.0,516.0,512.0,540.0,488.0
506.0,508.0,506.0,528.0,496.0
499.0,502.0,501.0,523.0,501.0
503.0,501.0,500.0,520.0,510.0
507.0,497.0,502.0,510.0,517.0
510.0,505.0,510.0,504.0,528.0
517.0,504.0,517.0,501.0,532.0
523.0,504.0,515.0,500.0,524.0
524.0,505.0,518.0,497.0,531.0
517.0,502.0,519.0,496.0,534.0
518.0,501.0,516.0,498.0,537.0
520.0,504.0,517.0,504.0,526.0
519.0,507.0,520.0,516.0,516.0
515.0,511.0,524.0,519.0,506.0
518.0,517.0,522.0,529.0,494.0
517.0,519.0,521.0,538.0,486.0
516.0,516.0,518.0,535.0,486.0
513.0,510.0,509.0,533.0,492.0
510.0,506.0,504.0,527.0,492.0
505.0,499.0,501.0,524.0,495.0
504.0,498.0,501.0,512.0,503.0
511.0,497.0,502.0,507.0,520.0
509.0,501.0,507.0,505.0,542.0
510.0,504.0,510.0,498.0,548.0
517.0,502.0,518.0,497.0,543.0
521.0,502.0,519.0,498.0,539.0
516.0,503.0,516.0,497.0,535.0
516.0,505.0,517.0,499.0,531.0
515.0,502.0,518.0,502.0,524.0
518.0,507.0,519.0,515.0,515.0
526.0,516.0,524.0,531.0,503.0
522.0,523.0,523.0,531.0,497.0
525.0,519.0,519.0,535.0,489.0
518.0,515.0,518.0,535.0,489.0
510.0,506.0,506.0,533.0,489.0
500.0,502.0,503.0,524.0,499.0
496.0,500.0,504.0,516.0,509.0
497.0,499.0,501.0,508.0,519.0
502.0,499.0,508.0,506.0,526.0
505.0,502.0,512.0,503.0,532.0
504.0,507.0,516.0,503.0,539.0
512.0,501.0,516.0,498.0,545.0
512.0,502.0,517.0,496.0,540.0
511.0,501.0,516.0,501.0,535.0
522.0,506.0,520.0,504.0,524.0
534.0,508.0,522.0,513.0,513.0
524.0,511.0,522.0,519.0,502.0
524.0,518.0,526.0,529.0,486.0
527.0,524.0,530.0,538.0,479.0
527.0,519.0,519.0,539.0,477.0
514.0,517.0,512.0,538.0,495.0
506.0,509.0,507.0,532.0,503.0
499.0,504.0,505.0,525.0,503.0
505.0,500.0,501.0,518.0,510.0
502.0,498.0,502.0,508.0,516.0
506.0,502.0,508.0,509.0,524.0
512.0,506.0,515.0,509.0,528.0
514.0,505.0,517.0,500.0,532.0
513.0,503.0,518.0,499.0,532.0
511.0,500.0,518.0,497.0,537.0
521.0,499.0,515.0,497.0,537.0
520.0,502.0,521.0,505.0,525.0
518.0,508.0,520.0,510.0,515.0
523.0,513.0,524.0,521.0,504.0
524.0,518.0,525.0,531.0,496.0
525.0,521.0,522.0,536.0,489.0
522.0,518.0,519.0,538.0,481.0
515.0,512.0,514.0,535.0,486.0
511.0,507.0,506.0,533.0,495.0
498.0,503.0,498.0,519.0,507.0
502.0,500.0,500.0,511.0,512.0
510.0,502.0,504.0,509.0,520.0
511.0,503.0,511.0,506.0,527.0
517.0,503.0,516.0,503.0,528.0
514.0,504.0,519.0,500.0,535.0
504.0,499.0,516.0,496.0,541.0
490.0,499.0,515.0,495.0,536.0
491.0,498.0,516.0,496.0,535.0
490.0,501.0,517.0,503.0,529.0
491.0,506.0,517.0,512.0,518.0
495.0,514.0,523.0,522.0,508.0
524.0,519.0,524.0,533.0,493.0
524.0,525.0,523.0,537.0,482.0
540.0,518.0,515.0,536.0,482.0
535.0,514.0,507.0,532.0,489.0
524.0,505.0,503.0,524.0,495.0
512.0,498.0,498.0,514.0,504.0
511.0,497.0,500.0,513.0,509.0
507.0,497.0,506.0,505.0,525.0
513.0,502.0,512.0,503.0,540.0
518.0,502.0,513.0,498.0,539.0
521.0,504.0,519.0,499.0,538.0
529.0,504.0,521.0,500.0,538.0
521.0,500.0,515.0,495.0,539.0
525.0,500.0,517.0,505.0,530.0
524.0,507.0,520.0,509.0,519.0
527.0,509.0,521.0,521.0,505.0
525.0,516.0,525.0,526.0,500.0
519.0,514.0,521.0,532.0,497.0
513.0,518.0,517.0,536.0,489.0
516.0,512.0,511.0,533.0,487.0
514.0,502.0,505.0,529.0,489.0
511.0,504.0,499.0,523.0,495.0
503.0,502.0,502.0,515.0,503.0
509.0,501.0,502.0,508.0,508.0
512.0,500.0,510.0,506.0,518.0
513.0,504.0,514.0,504.0,527.0
513.0,506.0,519.0,499.0,541.0
513.0,500.0,517.0,493.0,543.0
513.0,500.0,519.0,495.0,536.0
511.0,502.0,520.0,498.0,532.0
518.0,504.0,518.0,504.0,523.0
519.0,508.0,523.0,512.0,509.0
516.0,514.0,520.0,518.0,504.0
519.0,519.0,527.0,529.0,493.0
519.0,524.0,522.0,537.0,488.0
512.0,518.0,517.0,541.0,489.0
511.0,514.0,509.0,532.0,494.0
517.0,508.0,506.0,535.0,495.0
507.0,505.0,501.0,521.0,505.0
509.0,499.0,499.0,517.0,520.0
507.0,500.0,506.0,512.0,519.0
511.0,500.0,509.0,508.0,520.0
517.0,503.0,510.0,500.0,534.0
518.0,504.0,518.0,500.0,540.0
518.0,502.0,518.0,501.0,535.0
515.0,503.0,522.0,500.0,529.0
518.0,502.0,521.0,503.0,524.0
515.0,505.0,522.0,509.0,519.0
522.0,513.0,521.0,515.0,507.0
524.0,515.0,522.0,528.0,499.0
526.0,521.0,522.0,533.0,495.0
523.0,520.0,521.0,540.0,496.0
517.0,515.0,514.0,541.0,504.0
512.0,512.0,508.0,536.0,502.0
507.0,506.0,504.0,533.0,505.0
502.0,500.0,500.0,520.0,507.0
497.0,497.0,498.0,514.0,514.0
497.0,498.0,504.0,505.0,509.0
508.0,507.0,512.0,509.0,517.0
517.0,504.0,515.0,506.0,520.0
520.0,503.0,518.0,498.0,524.0
520.0,507.0,517.0,498.0,530.0
514.0,502.0,514.0,495.0,532.0
515.0,502.0,518.0,498.0,539.0
516.0,512.0,521.0,512.0,530.0
519.0,510.0,516.0,517.0,516.0
525.0,516.0,523.0,535.0,494.0
523.0,520.0,524.0,539.0,485.0
515.0,521.0,518.0,541.0,482.0
511.0,511.0,511.0,538.0,486.0
505.0,506.0,511.0,534.0,488.0
500.0,499.0,498.0,524.0,503.0
496.0,496.0,496.0,512.0,514.0
503.0,500.0,500.0,511.0,526.0
504.0,502.0,508.0,509.0,531.0
506.0,501.0,517.0,503.0,531.0
510.0,502.0,516.0,502.0,532.0
511.0,503.0,517.0,501.0,532.0
510.0,501.0,515.0,498.0,532.0
509.0,498.0,510.0,497.0,532.0
508.0,503.0,513.0,506.0,530.0
510.0,503.0,518.0,511.0,527.0
524.0,512.0,522.0,522.0,515.0
530.0,519.0,527.0,535.0,499.0
525.0,523.0,527.0,545.0,489.0
520.0,522.0,520.0,547.0,484.0
512.0,510.0,511.0,543.0,492.0
504.0,509.0,506.0,540.0,492.0
503.0,501.0,500.0,528.0,499.0
498.0,498.0,502.0,518.0,518.0
502.0,501.0,504.0,508.0,526.0
507.0,502.0,512.0,504.0,528.0
516.0,505.0,515.0,499.0,527.0
517.0,506.0,522.0,497.0,529.0
521.0,504.0,519.0,496.0,519.0
522.0,504.0,518.0,500.0,520.0
517.0,504.0,522.0,506.0,520.0
521.0,507.0,527.0,514.0,519.0
519.0,515.0,530.0,516.0,516.0
518.0,515.0,531.0,522.0,515.0
517.0,515.0,528.0,526.0,505.0
512.0,518.0,526.0,533.0,498.0
508.0,516.0,516.0,537.0,494.0
505.0,505.0,500.0,532.0,504.0
498.0,506.0,502.0,531.0,505.0
505.0,502.0,500.0,517.0,514.0
505.0,499.0,505.0,512.0,517.0
511.0,503.0,507.0,507.0,525.0
506.0,502.0,505.0,501.0,529.0
520.0,501.0,508.0,499.0,528.0
519.0,502.0,516.0,499.0,527.0
518.0,505.0,517.0,497.0,528.0
515.0,498.0,516.0,495.0,537.0
515.0,500.0,515.0,499.0,530.0
514.0,504.0,517.0,508.0,523.0
518.0,513.0,524.0,518.0,511.0
517.0,519.0,528.0,528.0,502.0
526.0,519.0,528.0,535.0,486.0
529.0,520.0,519.0,536.0,481.0
520.0,514.0,511.0,534.0,487.0
514.0,512.0,508.0,531.0,487.0
507.0,507.0,505.0,525.0,497.0
502.0,501.0,503.0,516.0,512.0
503.0,502.0,502.0,505.0,526.0
505.0,499.0,510.0,507.0,533.0
513.0,505.0,514.0,502.0,537.0
513.0,503.0,518.0,500.0,543.0
522.0,502.0,518.0,499.0,538.0
520.0,499.0,521.0,498.0,532.0
520.0,500.0,519.0,498.0,528.0
526.0,501.0,519.0,503.0,516.0
521.0,509.0,520.0,511.0,507.0
523.0,512.0,521.0,517.0,500.0
522.0,518.0,525.0,528.0,493.0
517.0,516.0,520.0,535.0,488.0
517.0,518.0,518.0,538.0,489.0
515.0,512.0,516.0,536.0,489.0
512.0,509.0,512.0,530.0,492.0
504.0,501.0,502.0,520.0,500.0
501.0,498.0,506.0,514.0,508.0
499.0,498.0,506.0,508.0,519.0
512.0,501.0,511.0,501.0,533.0
513.0,504.0,517.0,500.0,533.0
518.0,504.0,517.0,498.0,530.0
516.0,503.0,510.0,496.0,538.0
510.0,497.0,507.0,494.0,540.0
516.0,503.0,517.0,501.0,530.0
515.0,504.0,518.0,506.0,519.0
516.0,510.0,521.0,513.0,514.0
529.0,516.0,521.0,522.0,504.0
526.0,518.0,523.0,531.0,492.0
526.0,523.0,523.0,538.0,493.0
525.0,517.0,517.0,537.0,500.0
515.0,512.0,510.0,532.0,499.0
511.0,507.0,506.0,526.0,497.0
510.0,499.0,498.0,516.0,512.0
512.0,500.0,498.0,510.0,519.0
514.0,500.0,505.0,503.0,528.0
509.0,505.0,517.0,501.0,532.0
513.0,503.0,521.0,499.0,527.0
522.0,506.0,526.0,499.0,534.0
513.0,502.0,528.0,496.0,539.0
514.0,503.0,523.0,494.0,535.0
519.0,503.0,514.0,500.0,526.0
517.0,506.0,509.0,510.0,516.0
515.0,513.0,515.0,514.0,505.0
518.0,518.0,524.0,524.0,496.0
521.0,524.0,522.0,535.0,487.0
519.0,519.0,514.0,537.0,481.0
517.0,516.0,512.0,537.0,484.0
510.0,512.0,506.0,532.0,499.0
503.0,504.0,499.0,526.0,508.0
507.0,502.0,499.0,520.0,516.0
510.0,498.0,499.0,514.0,522.0
512.0,499.0,504.0,508.0,529.0
513.0,504.0,513.0,508.0,531.0
512.0,506.0,518.0,504.0,532.0
509.0,504.0,521.0,503.0,532.0
509.0,506.0,517.0,498.0,538.0
504.0,502.0,522.0,497.0,538.0
505.0,506.0,524.0,502.0,532.0
508.0,507.0,527.0,512.0,516.0
517.0,510.0,529.0,518.0,514.0
530.0,519.0,530.0,531.0,496.0
523.0,521.0,521.0,548.0,481.0
518.0,521.0,514.0,548.0,476.0
520.0,511.0,510.0,539.0,484.0
509.0,507.0,508.0,533.0,490.0
499.0,499.0,499.0,517.0,505.0
500.0,500.0,499.0,506.0,520.0
501.0,502.0,505.0,496.0,528.0
501.0,503.0,513.0,500.0,534.0
522.0,511.0,519.0,506.0,535.0
516.0,505.0,522.0,509.0,536.0
511.0,504.0,514.0,501.0,539.0
514.0,502.0,513.0,499.0,543.0
525.0,502.0,515.0,501.0,526.0
525.0,501.0,516.0,505.0,506.0
512.0,504.0,514.0,507.0,508.0
514.0,515.0,516.0,513.0,504.0
514.0,515.0,516.0,519.0,494.0
522.0,517.0,515.0,527.0,489.0
525.0,513.0,513.0,526.0,491.0
519.0,509.0,509.0,517.0,488.0
519.0,510.0,503.0,520.0,497.0
509.0,502.0,500.0,518.0,500.0
511.0,498.0,499.0,518.0,510.0
509.0,495.0,500.0,505.0,522.0
507.0,500.0,510.0,503.0,532.0
504.0,499.0,516.0,500.0,541.0
514.0,504.0,521.0,510.0,536.0
511.0,502.0,518.0,509.0,540.0
505.0,500.0,520.0,503.0,541.0
508.0,503.0,523.0,511.0,536.0
512.0,510.0,528.0,517.0,513.0
509.0,510.0,527.0,524.0,507.0
530.0,521.0,533.0,535.0,491.0
548.0,525.0,531.0,547.0,476.0
538.0,522.0,520.0,542.0,478.0
525.0,518.0,516.0,540.0,484.0
515.0,515.0,507.0,532.0,485.0
515.0,512.0,502.0,525.0,501.0
505.0,502.0,495.0,516.0,510.0
504.0,503.0,501.0,510.0,521.0
503.0,500.0,504.0,502.0,531.0
512.0,504.0,511.0,500.0,532.0
517.0,504.0,516.0,501.0,536.0
521.0,505.0,518.0,501.0,540.0
522.0,504.0,520.0,500.0,541.0
522.0,503.0,517.0,498.0,540.0
523.0,505.0,520.0,506.0,522.0
529.0,507.0,521.0,515.0,513.0
526.0,511.0,521.0,522.0,498.0
528.0,520.0,524.0,535.0,481.0
531.0,522.0,523.0,540.0,480.0
522.0,517.0,515.0,537.0,480.0
511.0,512.0,511.0,535.0,492.0
504.0,505.0,503.0,526.0,515.0
501.0,501.0,502.0,519.0,521.0
503.0,504.0,499.0,511.0,525.0
511.0,501.0,503.0,510.0,526.0
514.0,504.0,505.0,503.0,524.0
510.0,502.0,513.0,501.0,528.0
515.0,505.0,521.0,502.0,527.0
513.0,504.0,526.0,500.0,532.0
509.0,503.0,532.0,497.0,535.0
508.0,504.0,536.0,500.0,534.0
510.0,507.0,538.0,512.0,529.0
522.0,509.0,533.0,520.0,517.0
526.0,516.0,532.0,533.0,511.0
536.0,517.0,516.0,539.0,491.0
529.0,517.0,498.0,542.0,478.0
528.0,517.0,504.0,542.0,473.0
518.0,514.0,508.0,537.0,482.0
510.0,506.0,497.0,530.0,490.0
500.0,501.0,495.0,521.0,509.0
499.0,497.0,497.0,514.0,527.0
500.0,499.0,502.0,502.0,533.0
503.0,500.0,506.0,499.0,537.0
511.0,508.0,514.0,503.0,535.0
515.0,505.0,517.0,503.0,541.0
509.0,503.0,529.0,500.0,532.0
527.0,502.0,528.0,499.0,525.0
518.0,504.0,528.0,502.0,528.0
517.0,510.0,532.0,508.0,528.0
525.0,516.0,532.0,519.0,514.0
527.0,516.0,516.0,525.0,500.0
524.0,518.0,515.0,535.0,492.0
521.0,519.0,524.0,538.0,488.0
512.0,516.0,526.0,535.0,489.0
504.0,509.0,516.0,529.0,492.0
494.0,500.0,497.0,527.0,504.0
496.0,501.0,494.0,525.0,513.0
498.0,498.0,497.0,520.0,523.0
496.0,498.0,504.0,513.0,532.0
511.0,504.0,508.0,512.0,529.0
516.0,505.0,514.0,512.0,535.0
528.0,508.0,517.0,504.0,536.0
528.0,503.0,512.0,498.0,539.0
522.0,501.0,512.0,494.0,531.0
514.0,510.0,514.0,492.0,527.0
503.0,503.0,508.0,493.0,519.0
487.0,508.0,516.0,506.0,511.0
472.0,510.0,509.0,512.0,497.0
494.0,513.0,504.0,521.0,491.0
500.0,518.0,505.0,524.0,488.0
518.0,512.0,501.0,516.0,496.0
538.0,514.0,497.0,510.0,491.0
530.0,508.0,498.0,505.0,497.0
524.0,513.0,510.0,508.0,504.0
522.0,508.0,511.0,505.0,522.0
522.0,503.0,509.0,492.0,541.0
526.0,506.0,517.0,494.0,538.0
526.0,506.0,520.0,498.0,536.0
530.0,509.0,523.0,495.0,533.0
518.0,503.0,530.0,499.0,529.0
526.0,502.0,526.0,502.0,525.0
523.0,509.0,530.0,509.0,517.0
516.0,509.0,526.0,520.0,509.0
508.0,513.0,528.0,529.0,504.0
511.0,521.0,530.0,534.0,497.0
512.0,520.0,524.0,539.0,497.0
506.0,515.0,511.0,538.0,500.0
491.0,506.0,501.0,528.0,512.0
500.0,509.0,504.0,527.0,505.0
502.0,503.0,504.0,523.0,504.0
484.0,500.0,504.0,516.0,525.0
492.0,498.0,504.0,507.0,525.0
484.0,503.0,506.0,501.0,535.0
510.0,505.0,508.0,501.0,533.0
515.0,506.0,505.0,508.0,529.0
549.0,508.0,500.0,514.0,525.0
541.0,508.0,513.0,521.0,526.0
533.0,508.0,516.0,528.0,524.0
536.0,509.0,515.0,528.0,514.0
538.0,515.0,523.0,540.0,505.0
543.0,529.0,536.0,546.0,495.0
542.0,526.0,539.0,547.0,490.0
536.0,522.0,531.0,541.0,486.0
530.0,512.0,525.0,527.0,490.0
518.0,509.0,510.0,516.0,494.0
518.0,509.0,500.0,516.0,494.0
512.0,509.0,511.0,508.0,499.0
508.0,507.0,524.0,510.0,508.0
517.0,508.0,530.0,508.0,514.0
516.0,509.0,537.0,509.0,518.0
506.0,503.0,518.0,501.0,531.0
511.0,502.0,507.0,500.0,538.0
514.0,499.0,513.0,496.0,545.0
512.0,505.0,520.0,497.0,537.0
513.0,507.0,527.0,500.0,531.0
527.0,513.0,536.0,514.0,530.0
530.0,515.0,533.0,518.0,533.0
526.0,521.0,534.0,533.0,522.0
535.0,523.0,538.0,543.0,502.0
523.0,520.0,538.0,554.0,485.0
505.0,512.0,530.0,547.0,481.0
479.0,504.0,506.0,532.0,490.0
478.0,498.0,496.0,526.0,497.0
500.0,503.0,498.0,518.0,498.0
500.0,499.0,505.0,508.0,507.0
516.0,503.0,517.0,493.0,524.0
526.0,508.0,527.0,491.0,531.0
527.0,506.0,528.0,498.0,518.0
529.0,510.0,530.0,493.0,530.0
528.0,505.0,527.0,488.0,546.0
531.0,505.0,532.0,493.0,541.0
519.0,506.0,537.0,505.0,523.0
520.0,508.0,528.0,525.0,503.0
513.0,516.0,538.0,534.0,495.0
512.0,518.0,532.0,537.0,487.0
515.0,518.0,522.0,541.0,483.0
513.0,515.0,514.0,549.0,492.0
515.0,510.0,512.0,546.0,501.0
524.0,510.0,511.0,543.0,499.0
520.0,510.0,517.0,543.0,499.0
509.0,505.0,517.0,535.0,511.0
508.0,503.0,515.0,523.0,526.0
523.0,503.0,518.0,513.0,527.0
527.0,506.0,524.0,509.0,527.0
523.0,499.0,515.0,508.0,537.0
511.0,506.0,520.0,500.0,536.0
506.0,499.0,521.0,498.0,524.0
510.0,499.0,508.0,495.0,528.0
517.0,501.0,507.0,502.0,517.0
525.0,506.0,517.0,518.0,498.0
536.0,522.0,524.0,517.0,478.0
529.0,526.0,521.0,516.0,484.0
519.0,515.0,509.0,526.0,479.0
509.0,514.0,509.0,524.0,477.0
501.0,507.0,503.0,511.0,504.0
486.0,500.0,501.0,513.0,526.0
476.0,490.0,490.0,499.0,540.0
506.0,490.0,489.0,483.0,527.0
518.0,498.0,494.0,491.0,518.0
503.0,503.0,513.0,496.0,525.0
528.0,506.0,517.0,492.0,515.0
509.0,506.0,527.0,495.0,514.0
509.0,499.0,522.0,489.0,532.0
507.0,500.0,524.0,492.0,528.0
518.0,504.0,527.0,497.0,525.0
534.0,499.0,494.0,499.0,515.0
532.0,499.0,485.0,513.0,511.0
529.0,504.0,500.0,518.0,501.0
518.0,506.0,498.0,522.0,489.0
506.0,506.0,492.0,527.0,495.0
519.0,505.0,489.0,538.0,487.0
514.0,504.0,489.0,558.0,484.0
502.0,480.0,484.0,552.0,500.0
494.0,480.0,488.0,545.0,515.0
486.0,497.0,504.0,537.0,521.0
475.0,497.0,504.0,522.0,520.0
471.0,494.0,508.0,499.0,519.0
464.0,495.0,513.0,493.0,531.0
492.0,507.0,529.0,520.0,527.0
532.0,520.0,537.0,516.0,527.0
543.0,514.0,528.0,503.0,527.0
538.0,506.0,522.0,497.0,519.0
539.0,504.0,521.0,505.0,511.0
535.0,513.0,520.0,522.0,502.0
530.0,526.0,529.0,532.0,485.0
524.0,525.0,532.0,529.0,486.0
526.0,513.0,525.0,511.0,484.0
534.0,509.0,525.0,511.0,492.0
531.0,510.0,534.0,524.0,498.0
514.0,507.0,526.0,531.0,504.0
499.0,502.0,508.0,537.0,517.0
479.0,494.0,492.0,534.0,531.0
471.0,497.0,496.0,514.0,535.0
476.0,520.0,516.0,504.0,538.0
489.0,516.0,515.0,500.0,539.0
475.0,506.0,515.0,497.0,542.0
483.0,498.0,502.0,501.0,541.0
488.0,490.0,499.0,496.0,544.0
502.0,498.0,508.0,504.0,540.0
506.0,516.0,538.0,528.0,530.0
517.0,523.0,557.0,540.0,523.0
515.0,530.0,564.0,544.0,519.0
529.0,535.0,559.0,533.0,519.0
566.0,533.0,542.0,535.0,510.0
549.0,523.0,518.0,530.0,503.0
516.0,512.0,531.0,525.0,490.0
514.0,508.0,528.0,523.0,496.0
503.0,504.0,519.0,515.0,502.0
468.0,498.0,520.0,516.0,516.0
435.0,497.0,524.0,517.0,525.0
444.0,504.0,527.0,511.0,529.0
441.0,506.0,534.0,511.0,536.0
449.0,503.0,531.0,508.0,543.0
472.0,501.0,530.0,509.0,544.0
490.0,504.0,532.0,513.0,538.0
498.0,500.0,524.0,514.0,520.0
509.0,508.0,532.0,524.0,493.0
468.0,511.0,531.0,527.0,479.0
467.0,516.0,529.0,530.0,478.0
532.0,519.0,515.0,525.0,473.0
589.0,518.0,514.0,533.0,460.0
564.0,513.0,506.0,526.0,466.0
498.0,500.0,497.0,509.0,494.0
474.0,488.0,483.0,494.0,514.0
502.0,488.0,488.0,492.0,521.0
505.0,495.0,504.0,504.0,523.0
487.0,502.0,512.0,502.0,531.0
494.0,501.0,518.0,498.0,533.0
584.0,512.0,528.0,510.0,521.0
598.0,524.0,539.0,513.0,509.0
558.0,515.0,534.0,510.0,522.0
541.0,511.0,526.0,511.0,516.0
541.0,509.0,529.0,517.0,520.0
565.0,524.0,532.0,521.0,506.0
585.0,539.0,530.0,528.0,479.0
548.0,524.0,511.0,536.0,481.0
509.0,517.0,499.0,534.0,485.0
474.0,511.0,505.0,543.0,486.0
448.0,487.0,499.0,548.0,506.0
455.0,471.0,480.0,532.0,518.0
475.0,461.0,468.0,504.0,545.0
509.0,464.0,463.0,522.0,519.0
567.0,469.0,454.0,494.0,500.0
552.0,471.0,472.0,498.0,505.0
496.0,471.0,483.0,471.0,526.0
495.0,495.0,500.0,478.0,530.0
547.0,504.0,524.0,511.0,518.0
590.0,536.0,540.0,524.0,505.0
560.0,500.0,531.0,499.0,516.0
543.0,475.0,513.0,484.0,521.0
542.0,475.0,524.0,499.0,500.0
531.0,481.0,537.0,517.0,493.0
518.0,492.0,529.0,521.0,496.0
538.0,505.0,525.0,520.0,494.0
531.0,515.0,525.0,516.0,496.0
509.0,534.0,520.0,536.0,503.0
502.0,509.0,506.0,540.0,515.0
490.0,495.0,496.0,514.0,529.0
473.0,479.0,511.0,519.0,531.0
470.0,470.0,517.0,507.0,532.0
499.0,477.0,521.0,499.0,532.0
491.0,466.0,506.0,488.0,546.0
533.0,504.0,510.0,483.0,536.0
568.0,555.0,532.0,509.0,520.0
554.0,573.0,534.0,506.0,522.0
535.0,541.0,516.0,471.0,530.0
535.0,538.0,517.0,476.0,510.0
519.0,541.0,522.0,500.0,501.0
530.0,543.0,535.0,502.0,493.0
502.0,555.0,543.0,520.0,487.0
479.0,545.0,541.0,549.0,481.0
477.0,535.0,515.0,583.0,485.0
464.0,520.0,497.0,576.0,502.0
437.0,504.0,491.0,566.0,516.0
445.0,502.0,488.0,549.0,531.0
487.0,506.0,501.0,544.0,528.0
492.0,511.0,513.0,546.0,520.0
451.0,498.0,504.0,499.0,540.0
498.0,503.0,498.0,458.0,541.0
536.0,503.0,503.0,468.0,528.0
484.0,491.0,503.0,475.0,550.0
465.0,502.0,513.0,487.0,547.0
516.0,512.0,533.0,510.0,528.0
569.0,531.0,545.0,522.0,496.0
571.0,536.0,552.0,524.0,484.0
562.0,541.0,540.0,524.0,477.0
533.0,533.0,520.0,524.0,481.0
507.0,525.0,503.0,517.0,497.0
501.0,507.0,494.0,521.0,500.0
435.0,495.0,484.0,519.0,519.0
353.0,478.0,473.0,497.0,536.0
316.0,472.0,479.0,490.0,546.0
343.0,477.0,491.0,499.0,552.0
413.0,496.0,514.0,498.0,544.0
459.0,510.0,539.0,508.0,542.0
611.0,532.0,559.0,518.0,512.0
610.0,522.0,543.0,505.0,515.0
586.0,517.0,546.0,513.0,515.0
568.0,515.0,544.0,506.0,517.0
549.0,523.0,548.0,507.0,518.0
557.0,520.0,543.0,517.0,509.0
565.0,519.0,536.0,530.0,506.0
610.0,525.0,539.0,548.0,489.0
597.0,527.0,533.0,546.0,481.0
560.0,517.0,529.0,549.0,482.0
501.0,501.0,513.0,540.0,489.0
452.0,482.0,494.0,511.0,510.0
419.0,470.0,478.0,496.0,527.0
428.0,472.0,477.0,498.0,531.0
444.0,483.0,482.0,491.0,532.0
533.0,508.0,514.0,495.0,520.0
664.0,521.0,517.0,490.0,513.0
622.0,520.0,522.0,499.0,531.0
592.0,509.0,518.0,499.0,518.0
568.0,506.0,513.0,509.0,516.0
554.0,510.0,502.0,495.0,514.0
541.0,509.0,492.0,547.0,499.0
544.0,529.0,518.0,615.0,476.0
556.0,533.0,531.0,619.0,468.0
509.0,520.0,531.0,606.0,484.0
510.0,520.0,529.0,588.0,474.0
543.0,526.0,545.0,559.0,465.0
538.0,513.0,517.0,498.0,490.0
537.0,495.0,496.0,476.0,522.0
541.0,490.0,501.0,485.0,532.0
524.0,491.0,485.0,489.0,533.0
535.0,496.0,476.0,456.0,539.0
521.0,493.0,477.0,458.0,541.0
509.0,493.0,488.0,460.0,537.0
514.0,516.0,503.0,463.0,545.0
513.0,526.0,521.0,519.0,527.0
498.0,514.0,514.0,532.0,541.0
496.0,501.0,507.0,499.0,540.0
501.0,505.0,507.0,488.0,514.0
511.0,510.0,522.0,517.0,486.0
524.0,504.0,518.0,515.0,483.0
481.0,495.0,514.0,527.0,490.0
463.0,492.0,503.0,544.0,504.0
446.0,483.0,482.0,526.0,522.0
463.0,493.0,466.0,511.0,518.0
523.0,498.0,465.0,477.0,519.0
550.0,487.0,469.0,482.0,520.0
524.0,483.0,470.0,523.0,530.0
482.0,497.0,476.0,519.0,556.0
499.0,513.0,492.0,495.0,556.0
485.0,506.0,500.0,499.0,551.0
503.0,489.0,506.0,491.0,540.0
518.0,501.0,539.0,509.0,538.0
548.0,522.0,558.0,554.0,515.0
527.0,533.0,562.0,565.0,512.0
525.0,526.0,553.0,553.0,500.0
549.0,535.0,553.0,564.0,493.0
581.0,535.0,564.0,568.0,467.0
553.0,526.0,564.0,551.0,465.0
515.0,512.0,542.0,530.0,474.0
502.0,498.0,527.0,497.0,495.0
497.0,497.0,511.0,466.0,515.0
519.0,503.0,504.0,468.0,514.0
498.0,503.0,513.0,489.0,514.0
441.0,500.0,503.0,478.0,532.0
435.0,500.0,508.0,477.0,538.0
436.0,493.0,497.0,488.0,538.0
476.0,497.0,491.0,473.0,540.0
486.0,505.0,500.0,499.0,551.0
504.0,506.0,519.0,568.0,543.0
513.0,503.0,520.0,592.0,521.0
500.0,489.0,515.0,574.0,521.0
499.0,512.0,533.0,584.0,510.0
480.0,517.0,532.0,528.0,490.0
536.0,517.0,523.0,467.0,482.0
527.0,520.0,515.0,447.0,486.0
497.0,518.0,507.0,449.0,489.0
538.0,511.0,493.0,458.0,496.0
558.0,505.0,504.0,473.0,498.0
535.0,504.0,523.0,514.0,490.0
540.0,519.0,547.0,530.0,502.0
517.0,519.0,554.0,534.0,525.0
527.0,521.0,550.0,528.0,542.0
520.0,511.0,543.0,535.0,559.0
513.0,520.0,551.0,531.0,554.0
545.0,521.0,548.0,541.0,542.0
569.0,519.0,535.0,527.0,540.0
547.0,519.0,537.0,522.0,533.0
543.0,524.0,552.0,511.0,504.0
552.0,528.0,528.0,499.0,474.0
562.0,515.0,514.0,509.0,474.0
527.0,529.0,517.0,544.0,470.0
479.0,510.0,489.0,537.0,476.0
462.0,497.0,463.0,495.0,491.0
434.0,480.0,458.0,454.0,519.0
416.0,459.0,453.0,432.0,549.0
487.0,480.0,477.0,449.0,540.0
495.0,510.0,508.0,481.0,519.0
481.0,514.0,520.0,519.0,519.0
421.0,499.0,518.0,515.0,545.0
427.0,479.0,506.0,519.0,555.0
497.0,484.0,505.0,522.0,552.0
534.0,496.0,508.0,520.0,527.0
549.0,503.0,515.0,537.0,513.0
554.0,517.0,517.0,541.0,504.0
523.0,517.0,514.0,546.0,495.0
553.0,539.0,534.0,576.0,467.0
570.0,538.0,534.0,589.0,458.0
585.0,534.0,523.0,567.0,465.0
585.0,518.0,503.0,555.0,477.0
572.0,503.0,494.0,550.0,493.0
531.0,486.0,477.0,501.0,528.0
520.0,503.0,478.0,494.0,528.0
505.0,505.0,505.0,498.0,519.0
482.0,506.0,516.0,492.0,525.0
455.0,501.0,531.0,512.0,533.0
453.0,497.0,531.0,546.0,538.0
527.0,505.0,532.0,550.0,532.0
567.0,508.0,530.0,541.0,509.0
569.0,517.0,537.0,534.0,513.0
551.0,518.0,536.0,509.0,516.0
556.0,514.0,523.0,485.0,512.0
571.0,507.0,504.0,493.0,493.0
538.0,510.0,497.0,472.0,480.0
514.0,528.0,520.0,542.0,442.0
495.0,525.0,514.0,525.0,461.0
474.0,507.0,485.0,501.0,482.0
461.0,495.0,457.0,420.0,531.0
495.0,495.0,471.0,409.0,533.0
517.0,500.0,488.0,407.0,549.0
502.0,498.0,490.0,446.0,556.0
513.0,503.0,515.0,503.0,550.0
545.0,519.0,558.0,546.0,530.0
566.0,496.0,530.0,565.0,544.0
563.0,486.0,514.0,556.0,536.0
528.0,490.0,520.0,527.0,532.0
503.0,492.0,513.0,519.0,545.0
506.0,506.0,508.0,518.0,533.0
508.0,507.0,510.0,523.0,522.0
504.0,512.0,507.0,512.0,512.0
544.0,533.0,524.0,490.0,497.0
518.0,527.0,516.0,496.0,501.0
495.0,507.0,512.0,557.0,492.0
524.0,521.0,523.0,595.0,483.0
454.0,503.0,520.0,623.0,491.0
365.0,479.0,501.0,583.0,518.0
300.0,485.0,511.0,535.0,539.0
305.0,505.0,547.0,510.0,544.0
396.0,511.0,565.0,526.0,533.0
519.0,512.0,554.0,511.0,540.0
620.0,519.0,538.0,462.0,539.0
683.0,520.0,525.0,456.0,523.0
602.0,512.0,512.0,452.0,529.0
543.0,505.0,479.0,501.0,522.0
531.0,502.0,471.0,522.0,500.0
527.0,504.0,461.0,545.0,487.0
492.0,510.0,466.0,532.0,486.0
474.0,506.0,487.0,523.0,481.0
567.0,528.0,518.0,496.0,471.0
587.0,518.0,514.0,442.0,473.0
505.0,494.0,505.0,528.0,482.0
503.0,491.0,500.0,525.0,501.0
504.0,496.0,486.0,515.0,500.0
494.0,498.0,503.0,501.0,510.0
480.0,498.0,509.0,468.0,530.0
484.0,505.0,514.0,426.0,545.0
483.0,509.0,532.0,418.0,559.0
453.0,500.0,521.0,474.0,554.0
462.0,494.0,480.0,471.0,549.0
500.0,487.0,469.0,503.0,539.0
479.0,485.0,479.0,527.0,534.0
488.0,483.0,470.0,561.0,539.0
500.0,494.0,473.0,556.0,521.0
559.0,518.0,510.0,584.0,478.0
536.0,528.0,542.0,583.0,464.0
578.0,519.0,527.0,558.0,477.0
594.0,507.0,532.0,563.0,497.0
556.0,494.0,522.0,557.0,505.0
521.0,488.0,503.0,523.0,504.0
497.0,513.0,518.0,517.0,511.0
499.0,526.0,541.0,509.0,514.0
528.0,517.0,542.0,546.0,507.0
581.0,520.0,547.0,546.0,501.0
612.0,537.0,571.0,541.0,507.0
577.0,522.0,566.0,533.0,509.0
576.0,537.0,599.0,577.0,487.0
571.0,539.0,616.0,560.0,490.0
563.0,533.0,600.0,520.0,493.0
519.0,531.0,570.0,477.0,505.0
476.0,522.0,553.0,441.0,505.0
423.0,491.0,536.0,485.0,515.0
406.0,484.0,515.0,518.0,528.0
399.0,489.0,492.0,501.0,517.0
467.0,488.0,480.0,535.0,512.0
595.0,510.0,474.0,535.0,482.0
624.0,518.0,469.0,516.0,461.0
568.0,504.0,464.0,502.0,475.0
602.0,522.0,484.0,502.0,484.0
559.0,517.0,488.0,504.0,500.0
493.0,502.0,494.0,549.0,550.0
459.0,497.0,487.0,489.0,551.0
447.0,493.0,490.0,486.0,543.0
455.0,489.0,515.0,533.0,528.0
513.0,505.0,548.0,537.0,527.0
602.0,527.0,562.0,512.0,511.0
583.0,528.0,542.0,501.0,514.0
557.0,523.0,521.0,511.0,494.0
541.0,505.0,510.0,504.0,483.0
523.0,512.0,474.0,523.0,470.0
498.0,501.0,462.0,514.0,479.0
487.0,490.0,494.0,470.0,481.0
457.0,469.0,491.0,447.0,515.0
442.0,486.0,508.0,485.0,541.0
472.0,508.0,526.0,462.0,557.0
445.0,510.0,529.0,491.0,565.0
496.0,517.0,535.0,496.0,553.0
563.0,525.0,553.0,593.0,520.0
591.0,519.0,534.0,575.0,520.0
536.0,502.0,493.0,528.0,524.0
484.0,477.0,473.0,485.0,527.0
458.0,459.0,457.0,433.0,531.0
469.0,465.0,463.0,494.0,508.0
448.0,465.0,468.0,502.0,511.0
515.0,505.0,524.0,499.0,497.0
555.0,539.0,561.0,484.0,486.0
538.0,531.0,558.0,464.0,498.0
510.0,528.0,550.0,506.0,514.0
512.0,519.0,534.0,559.0,499.0
558.0,512.0,526.0,602.0,501.0
556.0,506.0,519.0,605.0,504.0
495.0,504.0,507.0,605.0,523.0
513.0,518.0,486.0,551.0,507.0
523.0,517.0,472.0,454.0,525.0
473.0,510.0,488.0,409.0,563.0
452.0,508.0,494.0,428.0,592.0
451.0,497.0,499.0,485.0,593.0
441.0,463.0,479.0,489.0,596.0
512.0,476.0,498.0,495.0,584.0
557.0,496.0,537.0,530.0,561.0
602.0,505.0,572.0,592.0,519.0
556.0,505.0,573.0,557.0,493.0
550.0,509.0,558.0,542.0,472.0
532.0,512.0,534.0,522.0,457.0
495.0,525.0,541.0,527.0,448.0
442.0,511.0,532.0,526.0,467.0
425.0,507.0,526.0,497.0,520.0
416.0,508.0,537.0,485.0,529.0
406.0,514.0,561.0,497.0,540.0
529.0,523.0,570.0,522.0,519.0
564.0,521.0,559.0,508.0,534.0
607.0,531.0,559.0,520.0,538.0
581.0,526.0,548.0,524.0,524.0
574.0,520.0,537.0,514.0,502.0
555.0,518.0,522.0,498.0,501.0
519.0,514.0,515.0,502.0,494.0
490.0,505.0,497.0,511.0,479.0
501.0,506.0,477.0,563.0,456.0
500.0,507.0,465.0,571.0,481.0
453.0,505.0,458.0,558.0,503.0
507.0,509.0,460.0,538.0,467.0
502.0,515.0,484.0,524.0,461.0
485.0,503.0,484.0,460.0,491.0
487.0,516.0,494.0,468.0,497.0
497.0,492.0,490.0,492.0,496.0
489.0,490.0,509.0,538.0,492.0
497.0,494.0,501.0,513.0,499.0
522.0,511.0,529.0,513.0,502.0
566.0,517.0,548.0,547.0,505.0
582.0,524.0,553.0,557.0,517.0
570.0,540.0,562.0,547.0,503.0
551.0,536.0,540.0,551.0,535.0
506.0,526.0,515.0,536.0,523.0
472.0,520.0,484.0,484.0,521.0
472.0,530.0,471.0,516.0,476.0
486.0,518.0,469.0,495.0,447.0
495.0,504.0,444.0,519.0,455.0
615.0,504.0,456.0,539.0,452.0
623.0,521.0,506.0,594.0,447.0
601.0,534.0,530.0,590.0,452.0
579.0,525.0,522.0,554.0,503.0
561.0,503.0,490.0,512.0,545.0
505.0,489.0,475.0,463.0,598.0
493.0,476.0,463.0,444.0,613.0
477.0,476.0,468.0,431.0,599.0
464.0,469.0,465.0,462.0,583.0
464.0,477.0,479.0,474.0,567.0
468.0,485.0,494.0,460.0,567.0
503.0,506.0,512.0,466.0,547.0
575.0,507.0,530.0,516.0,527.0
569.0,492.0,509.0,516.0,526.0
540.0,478.0,507.0,504.0,511.0
530.0,498.0,542.0,527.0,491.0
513.0,523.0,551.0,520.0,496.0
512.0,524.0,545.0,506.0,492.0
503.0,483.0,511.0,518.0,498.0
485.0,484.0,509.0,548.0,488.0
482.0,493.0,539.0,562.0,479.0
473.0,471.0,528.0,512.0,503.0
484.0,476.0,535.0,480.0,508.0
494.0,498.0,551.0,456.0,519.0
549.0,538.0,588.0,527.0,511.0
567.0,559.0,591.0,568.0,508.0
599.0,552.0,572.0,581.0,475.0
538.0,535.0,531.0,550.0,496.0
525.0,515.0,489.0,516.0,509.0
510.0,498.0,504.0,510.0,503.0
506.0,507.0,502.0,484.0,522.0
501.0,504.0,498.0,573.0,491.0
490.0,524.0,530.0,563.0,507.0
516.0,509.0,533.0,517.0,506.0
481.0,516.0,528.0,492.0,508.0
465.0,511.0,525.0,494.0,522.0
463.0,503.0,547.0,561.0,518.0
456.0,509.0,534.0,558.0,526.0
487.0,515.0,538.0,546.0,558.0
516.0,523.0,552.0,489.0,533.0
494.0,501.0,532.0,423.0,553.0
454.0,479.0,494.0,467.0,581.0
381.0,477.0,503.0,547.0,572.0
373.0,489.0,525.0,561.0,543.0
393.0,510.0,553.0,538.0,530.0
476.0,523.0,546.0,485.0,507.0
574.0,532.0,556.0,523.0,487.0
610.0,539.0,572.0,553.0,466.0
599.0,545.0,561.0,562.0,474.0
597.0,540.0,532.0,557.0,482.0
542.0,519.0,488.0,521.0,502.0
505.0,517.0,470.0,507.0,500.0
500.0,511.0,459.0,453.0,506.0
515.0,498.0,436.0,507.0,486.0
550.0,513.0,449.0,640.0,464.0
591.0,514.0,469.0,643.0,467.0
584.0,508.0,473.0,580.0,486.0
559.0,510.0,491.0,510.0,486.0
522.0,517.0,547.0,490.0,503.0
499.0,527.0,555.0,393.0,547.0
490.0,509.0,511.0,421.0,563.0
476.0,495.0,500.0,453.0,557.0
465.0,497.0,490.0,483.0,546.0
501.0,498.0,493.0,483.0,534.0
474.0,486.0,493.0,509.0,518.0
492.0,491.0,487.0,533.0,507.0
582.0,510.0,507.0,575.0,482.0
577.0,511.0,522.0,551.0,476.0
539.0,519.0,542.0,501.0,483.0
503.0,502.0,532.0,435.0,513.0
500.0,502.0,505.0,474.0,538.0
526.0,514.0,523.0,487.0,533.0
556.0,514.0,517.0,550.0,495.0
537.0,500.0,476.0,532.0,518.0
549.0,503.0,460.0,501.0,544.0
516.0,494.0,463.0,487.0,531.0
491.0,485.0,481.0,498.0,491.0
532.0,507.0,519.0,520.0,477.0
587.0,516.0,549.0,514.0,467.0
565.0,532.0,583.0,544.0,466.0
537.0,539.0,600.0,526.0,491.0
525.0,525.0,591.0,521.0,503.0
503.0,526.0,547.0,515.0,506.0
478.0,516.0,515.0,520.0,499.0
440.0,498.0,509.0,530.0,505.0
440.0,500.0,487.0,491.0,503.0
468.0,493.0,493.0,504.0,493.0
528.0,509.0,507.0,526.0,499.0
517.0,515.0,498.0,495.0,510.0
525.0,524.0,520.0,489.0,510.0
510.0,503.0,508.0,484.0,526.0
542.0,495.0,507.0,517.0,527.0
556.0,495.0,544.0,531.0,521.0
538.0,512.0,568.0,523.0,512.0
527.0,512.0,535.0,501.0,532.0
528.0,511.0,515.0,483.0,521.0
516.0,518.0,502.0,492.0,521.0
535.0,512.0,469.0,534.0,518.0
551.0,519.0,480.0,625.0,473.0
568.0,520.0,501.0,588.0,461.0
529.0,508.0,500.0,542.0,473.0
493.0,510.0,491.0,501.0,487.0
518.0,524.0,520.0,518.0,494.0
519.0,516.0,520.0,519.0,524.0
508.0,509.0,513.0,551.0,526.0
482.0,502.0,486.0,587.0,522.0
461.0,512.0,506.0,551.0,518.0
474.0,527.0,506.0,513.0,527.0
425.0,495.0,509.0,478.0,541.0
431.0,495.0,559.0,537.0,517.0
521.0,490.0,568.0,494.0,555.0
496.0,491.0,542.0,453.0,590.0
436.0,497.0,544.0,530.0,539.0
465.0,508.0,566.0,581.0,488.0
481.0,503.0,559.0,567.0,463.0
534.0,508.0,550.0,534.0,464.0
598.0,518.0,507.0,475.0,461.0
621.0,526.0,502.0,493.0,470.0
558.0,512.0,481.0,458.0,521.0
538.0,513.0,467.0,463.0,522.0
527.0,518.0,466.0,510.0,502.0
514.0,510.0,472.0,570.0,513.0
533.0,506.0,491.0,589.0,517.0
466.0,491.0,489.0,516.0,548.0
414.0,494.0,519.0,447.0,575.0
405.0,490.0,549.0,444.0,583.0
411.0,476.0,543.0,484.0,588.0
471.0,479.0,526.0,479.0,577.0
486.0,500.0,556.0,523.0,545.0
491.0,527.0,561.0,555.0,497.0
513.0,534.0,552.0,529.0,481.0
626.0,542.0,533.0,529.0,454.0
636.0,550.0,491.0,548.0,453.0
563.0,513.0,469.0,532.0,488.0
510.0,479.0,452.0,485.0,528.0
497.0,474.0,418.0,466.0,510.0
549.0,494.0,427.0,443.0,501.0
542.0,529.0,458.0,431.0,485.0
507.0,527.0,465.0,431.0,509.0
515.0,499.0,475.0,463.0,517.0
511.0,473.0,484.0,529.0,522.0
511.0,484.0,498.0,514.0,557.0
538.0,499.0,523.0,493.0,552.0
587.0,501.0,560.0,562.0,520.0
543.0,506.0,567.0,560.0,522.0
539.0,529.0,565.0,528.0,496.0
573.0,535.0,570.0,503.0,469.0
563.0,551.0,611.0,541.0,448.0
524.0,537.0,600.0,601.0,458.0
505.0,533.0,600.0,585.0,460.0
436.0,498.0,535.0,533.0,493.0
395.0,478.0,493.0,480.0,545.0
397.0,480.0,472.0,515.0,536.0
480.0,505.0,480.0,577.0,505.0
613.0,521.0,503.0,641.0,464.0
616.0,506.0,486.0,595.0,478.0
566.0,492.0,478.0,523.0,516.0
528.0,488.0,469.0,494.0,539.0
528.0,498.0,494.0,561.0,524.0
535.0,506.0,519.0,544.0,540.0
536.0,537.0,559.0,532.0,554.0
551.0,546.0,609.0,504.0,540.0
522.0,534.0,621.0,476.0,532.0
515.0,513.0,596.0,504.0,522.0
526.0,516.0,553.0,512.0,501.0
519.0,524.0,556.0,485.0,490.0
510.0,525.0,558.0,483.0,485.0
504.0,526.0,509.0,473.0,496.0
504.0,499.0,465.0,502.0,485.0
505.0,503.0,468.0,494.0,498.0
489.0,499.0,488.0,483.0,514.0
482.0,495.0,495.0,517.0,504.0
448.0,500.0,478.0,549.0,525.0
387.0,498.0,474.0,563.0,560.0
392.0,507.0,495.0,507.0,556.0
364.0,498.0,482.0,519.0,551.0
383.0,470.0,419.0,437.0,585.0
556.0,489.0,416.0,455.0,540.0
657.0,515.0,423.0,453.0,525.0
639.0,514.0,421.0,482.0,524.0
562.0,497.0,467.0,515.0,500.0
568.0,510.0,502.0,531.0,471.0
578.0,502.0,493.0,510.0,458.0
545.0,495.0,513.0,506.0,458.0
539.0,517.0,578.0,541.0,449.0
508.0,514.0,600.0,534.0,483.0
456.0,490.0,564.0,498.0,522.0
423.0,475.0,533.0,488.0,531.0
392.0,480.0,513.0,501.0,525.0
395.0,486.0,477.0,500.0,543.0
444.0,460.0,408.0,480.0,562.0
515.0,484.0,452.0,475.0,546.0
572.0,492.0,473.0,458.0,531.0
585.0,499.0,519.0,517.0,522.0
545.0,521.0,590.0,590.0,521.0
522.0,523.0,586.0,519.0,541.0
540.0,527.0,595.0,533.0,529.0
608.0,521.0,571.0,519.0,499.0
609.0,545.0,604.0,549.0,476.0
591.0,563.0,619.0,607.0,454.0
528.0,549.0,585.0,609.0,475.0
501.0,539.0,543.0,539.0,491.0
440.0,507.0,520.0,549.0,497.0
425.0,500.0,525.0,537.0,517.0
409.0,501.0,520.0,556.0,530.0
435.0,494.0,502.0,583.0,533.0
494.0,536.0,545.0,589.0,504.0
506.0,565.0,590.0,549.0,513.0
502.0,550.0,563.0,457.0,512.0
521.0,506.0,526.0,415.0,555.0
590.0,500.0,540.0,438.0,540.0
580.0,503.0,544.0,441.0,528.0
491.0,489.0,518.0,432.0,531.0
484.0,505.0,544.0,477.0,500.0
438.0,507.0,563.0,542.0,496.0
463.0,508.0,538.0,555.0,463.0
555.0,521.0,527.0,525.0,431.0
602.0,509.0,519.0,507.0,458.0
587.0,508.0,500.0,507.0,458.0
553.0,519.0,482.0,518.0,477.0
539.0,532.0,500.0,540.0,477.0
589.0,530.0,519.0,570.0,476.0
597.0,503.0,509.0,569.0,491.0
553.0,485.0,495.0,511.0,534.0
521.0,490.0,462.0,463.0,555.0
533.0,508.0,456.0,471.0,550.0
555.0,510.0,471.0,522.0,521.0
561.0,522.0,494.0,615.0,486.0
559.0,540.0,519.0,687.0,464.0
541.0,517.0,515.0,620.0,469.0
526.0,516.0,513.0,551.0,467.0
485.0,508.0,527.0,488.0,462.0
450.0,488.0,524.0,538.0,489.0
462.0,497.0,513.0,486.0,503.0
447.0,513.0,494.0,477.0,536.0
474.0,520.0,468.0,500.0,542.0
573.0,519.0,437.0,468.0,530.0
558.0,478.0,372.0,453.0,548.0
503.0,470.0,394.0,441.0,544.0
451.0,461.0,432.0,482.0,571.0
433.0,472.0,437.0,488.0,571.0
434.0,486.0,462.0,482.0,584.0
462.0,491.0,478.0,508.0,530.0
537.0,498.0,507.0,468.0,504.0
618.0,534.0,556.0,444.0,478.0
608.0,526.0,531.0,426.0,514.0
562.0,511.0,531.0,495.0,518.0
534.0,506.0,558.0,586.0,513.0
530.0,523.0,570.0,548.0,491.0
520.0,510.0,540.0,527.0,480.0
501.0,515.0,519.0,522.0,488.0
497.0,498.0,496.0,482.0,517.0
489.0,473.0,494.0,483.0,533.0
516.0,482.0,531.0,506.0,507.0
519.0,506.0,561.0,557.0,525.0
522.0,507.0,542.0,537.0,537.0
503.0,496.0,564.0,522.0,532.0
493.0,490.0,542.0,497.0,505.0
508.0,506.0,550.0,509.0,501.0
481.0,528.0,587.0,539.0,510.0
431.0,502.0,566.0,491.0,545.0
423.0,489.0,549.0,462.0,529.0
418.0,500.0,559.0,504.0,516.0
434.0,517.0,581.0,564.0,508.0
529.0,537.0,596.0,571.0,485.0
528.0,532.0,569.0,594.0,491.0
462.0,503.0,507.0,576.0,503.0
417.0,489.0,488.0,563.0,514.0
435.0,498.0,474.0,560.0,513.0
435.0,495.0,459.0,506.0,526.0
536.0,501.0,460.0,472.0,519.0
623.0,514.0,509.0,498.0,517.0
629.0,539.0,527.0,514.0,515.0
587.0,515.0,496.0,466.0,546.0
571.0,505.0,502.0,475.0,536.0
563.0,501.0,499.0,531.0,532.0
517.0,495.0,493.0,613.0,533.0
509.0,496.0,482.0,666.0,515.0
464.0,508.0,493.0,636.0,475.0
396.0,507.0,484.0,519.0,476.0
333.0,492.0,460.0,404.0,488.0
468.0,508.0,472.0,379.0,477.0
609.0,524.0,506.0,508.0,464.0
627.0,504.0,498.0,542.0,478.0
571.0,506.0,524.0,540.0,511.0
566.0,501.0,531.0,541.0,519.0
564.0,515.0,546.0,507.0,535.0
505.0,510.0,535.0,460.0,580.0
522.0,514.0,526.0,401.0,588.0
475.0,521.0,549.0,435.0,578.0
469.0,532.0,562.0,451.0,546.0
513.0,512.0,527.0,427.0,516.0
549.0,493.0,495.0,462.0,506.0
565.0,511.0,509.0,453.0,508.0
593.0,519.0,498.0,489.0,483.0
564.0,507.0,498.0,532.0,487.0
567.0,511.0,516.0,591.0,511.0
550.0,506.0,506.0,514.0,507.0
529.0,506.0,528.0,510.0,494.0
543.0,546.0,579.0,558.0,470.0
494.0,552.0,615.0,625.0,475.0
445.0,526.0,588.0,714.0,469.0
415.0,501.0,507.0,691.0,495.0
394.0,468.0,484.0,609.0,500.0
462.0,481.0,486.0,536.0,508.0
619.0,497.0,511.0,474.0,506.0
655.0,501.0,517.0,432.0,501.0
584.0,494.0,459.0,418.0,532.0
556.0,498.0,447.0,434.0,544.0
560.0,492.0,442.0,405.0,516.0
562.0,492.0,456.0,423.0,501.0
551.0,498.0,477.0,455.0,482.0
542.0,520.0,514.0,485.0,500.0
539.0,535.0,570.0,560.0,490.0
519.0,539.0,576.0,613.0,499.0
529.0,528.0,544.0,553.0,526.0
515.0,521.0,523.0,533.0,487.0
492.0,515.0,492.0,507.0,498.0
496.0,503.0,465.0,477.0,533.0
507.0,517.0,491.0,592.0,537.0
513.0,519.0,489.0,604.0,515.0
519.0,507.0,473.0,589.0,500.0
523.0,491.0,475.0,486.0,515.0
520.0,497.0,499.0,421.0,524.0
509.0,507.0,530.0,485.0,517.0
497.0,507.0,547.0,496.0,523.0
492.0,515.0,539.0,483.0,533.0
531.0,542.0,533.0,564.0,507.0
528.0,519.0,491.0,530.0,500.0
498.0,510.0,524.0,551.0,476.0
492.0,518.0,574.0,673.0,466.0
523.0,526.0,569.0,576.0,450.0
497.0,502.0,545.0,548.0,472.0
477.0,503.0,578.0,580.0,494.0
483.0,511.0,588.0,529.0,522.0
492.0,498.0,567.0,458.0,536.0
494.0,505.0,562.0,464.0,544.0
528.0,505.0,548.0,470.0,551.0
521.0,507.0,515.0,463.0,556.0
501.0,507.0,501.0,490.0,537.0
480.0,487.0,471.0,480.0,551.0
481.0,488.0,478.0,468.0,540.0
478.0,487.0,484.0,444.0,558.0
521.0,493.0,508.0,436.0,547.0
523.0,504.0,533.0,422.0,549.0
500.0,506.0,547.0,456.0,555.0
469.0,521.0,570.0,541.0,547.0
379.0,501.0,570.0,560.0,548.0
345.0,497.0,531.0,577.0,504.0
373.0,498.0,499.0,536.0,508.0
534.0,509.0,482.0,489.0,487.0
592.0,504.0,468.0,524.0,461.0
549.0,490.0,459.0,524.0,482.0
519.0,495.0,478.0,533.0,506.0
577.0,510.0,514.0,524.0,511.0
583.0,517.0,521.0,537.0,528.0
585.0,523.0,528.0,551.0,548.0
594.0,520.0,545.0,533.0,561.0
552.0,516.0,541.0,516.0,573.0
507.0,520.0,525.0,511.0,580.0
467.0,519.0,537.0,510.0,558.0
422.0,505.0,522.0,513.0,537.0
445.0,520.0,511.0,532.0,495.0
506.0,529.0,536.0,560.0,456.0
596.0,525.0,549.0,544.0,446.0
552.0,505.0,510.0,489.0,445.0
490.0,473.0,457.0,486.0,462.0
497.0,484.0,458.0,557.0,448.0
489.0,493.0,474.0,578.0,424.0
500.0,494.0,486.0,601.0,430.0
565.0,503.0,465.0,525.0,461.0
620.0,517.0,439.0,463.0,519.0
567.0,523.0,472.0,452.0,528.0
569.0,521.0,491.0,436.0,547.0
580.0,504.0,495.0,486.0,559.0
565.0,490.0,507.0,505.0,535.0
559.0,501.0,524.0,505.0,527.0
523.0,483.0,497.0,526.0,535.0
510.0,494.0,491.0,548.0,528.0
521.0,507.0,501.0,561.0,518.0
505.0,505.0,491.0,561.0,473.0
498.0,525.0,500.0,572.0,442.0
467.0,502.0,493.0,492.0,475.0
437.0,489.0,469.0,488.0,505.0
463.0,489.0,457.0,474.0,513.0
478.0,499.0,459.0,455.0,572.0
486.0,508.0,486.0,526.0,523.0
535.0,534.0,535.0,546.0,507.0
499.0,537.0,554.0,570.0,503.0
544.0,509.0,523.0,527.0,506.0
600.0,504.0,520.0,489.0,504.0
555.0,497.0,540.0,426.0,533.0
549.0,504.0,561.0,460.0,537.0
540.0,500.0,565.0,488.0,546.0
533.0,505.0,539.0,503.0,538.0
522.0,509.0,546.0,506.0,535.0
513.0,514.0,579.0,526.0,519.0
500.0,514.0,582.0,541.0,516.0
509.0,543.0,560.0,517.0,501.0
507.0,548.0,541.0,513.0,483.0
481.0,530.0,527.0,529.0,489.0
504.0,516.0,507.0,508.0,489.0
499.0,476.0,484.0,544.0,488.0
503.0,480.0,501.0,601.0,502.0
496.0,487.0,524.0,571.0,509.0
462.0,482.0,537.0,542.0,532.0
476.0,480.0,528.0,531.0,555.0
521.0,497.0,543.0,503.0,553.0
520.0,512.0,552.0,473.0,554.0
560.0,523.0,545.0,513.0,548.0
565.0,527.0,549.0,540.0,517.0
535.0,540.0,539.0,531.0,491.0
530.0,540.0,553.0,531.0,488.0
503.0,515.0,519.0,505.0,502.0
490.0,505.0,510.0,469.0,501.0
428.0,494.0,501.0,485.0,537.0
406.0,489.0,507.0,524.0,537.0
410.0,485.0,519.0,546.0,536.0
454.0,487.0,500.0,533.0,522.0
523.0,496.0,480.0,516.0,501.0
632.0,519.0,509.0,502.0,473.0
602.0,525.0,519.0,525.0,492.0
564.0,529.0,524.0,555.0,518.0
541.0,536.0,536.0,533.0,538.0
479.0,511.0,519.0,468.0,554.0
509.0,504.0,523.0,457.0,524.0
517.0,505.0,544.0,546.0,506.0
494.0,510.0,553.0,532.0,518.0
478.0,521.0,550.0,532.0,494.0
490.0,526.0,538.0,516.0,483.0
503.0,528.0,535.0,512.0,477.0
574.0,538.0,538.0,543.0,462.0
546.0,526.0,505.0,524.0,484.0
545.0,511.0,453.0,439.0,487.0
544.0,498.0,424.0,431.0,479.0
503.0,486.0,421.0,436.0,485.0
439.0,480.0,423.0,405.0,487.0
364.0,469.0,441.0,430.0,517.0
360.0,466.0,498.0,516.0,536.0
306.0,467.0,547.0,625.0,563.0
412.0,494.0,537.0,580.0,573.0
630.0,527.0,536.0,557.0,521.0
705.0,546.0,554.0,557.0,503.0
666.0,543.0,520.0,517.0,503.0
571.0,518.0,472.0,469.0,528.0
557.0,516.0,476.0,495.0,535.0
566.0,517.0,478.0,517.0,532.0
553.0,503.0,482.0,524.0,535.0
551.0,521.0,526.0,543.0,519.0
560.0,529.0,527.0,528.0,531.0
553.0,500.0,507.0,492.0,534.0
535.0,488.0,516.0,520.0,497.0
536.0,492.0,503.0,541.0,477.0
521.0,497.0,487.0,531.0,471.0
499.0,508.0,502.0,530.0,475.0
498.0,526.0,517.0,519.0,480.0
500.0,517.0,513.0,474.0,496.0
489.0,483.0,482.0,476.0,507.0
536.0,495.0,494.0,511.0,490.0
520.0,505.0,553.0,551.0,493.0
544.0,500.0,565.0,532.0,518.0
554.0,486.0,543.0,491.0,525.0
529.0,507.0,557.0,520.0,524.0
518.0,529.0,569.0,550.0,501.0
535.0,539.0,563.0,564.0,481.0
543.0,555.0,522.0,563.0,460.0
545.0,550.0,489.0,594.0,442.0
529.0,513.0,458.0,579.0,443.0
514.0,498.0,465.0,651.0,461.0
497.0,490.0,476.0,680.0,473.0
511.0,511.0,512.0,607.0,489.0
497.0,515.0,531.0,559.0,501.0
467.0,504.0,562.0,526.0,541.0
470.0,490.0,551.0,354.0,584.0
481.0,489.0,542.0,358.0,601.0
525.0,502.0,538.0,389.0,568.0
525.0,503.0,540.0,429.0,537.0
524.0,505.0,570.0,481.0,538.0
513.0,510.0,572.0,493.0,551.0
559.0,524.0,554.0,509.0,508.0
538.0,504.0,520.0,479.0,524.0
512.0,509.0,506.0,450.0,533.0
513.0,518.0,476.0,451.0,517.0
490.0,515.0,489.0,511.0,509.0
486.0,499.0,510.0,546.0,501.0
471.0,492.0,513.0,569.0,501.0
463.0,490.0,520.0,578.0,510.0
482.0,503.0,528.0,529.0,509.0
556.0,523.0,528.0,508.0,513.0
529.0,526.0,524.0,542.0,516.0
543.0,526.0,530.0,569.0,498.0
547.0,514.0,529.0,528.0,505.0
522.0,504.0,541.0,480.0,511.0
487.0,495.0,543.0,478.0,515.0
466.0,492.0,546.0,495.0,520.0
427.0,485.0,547.0,559.0,545.0
495.0,498.0,531.0,496.0,527.0
536.0,516.0,496.0,483.0,533.0
542.0,532.0,501.0,523.0,499.0
515.0,508.0,482.0,509.0,518.0
497.0,517.0,485.0,497.0,509.0
505.0,506.0,475.0,490.0,494.0
477.0,508.0,476.0,461.0,521.0
442.0,491.0,475.0,442.0,549.0
470.0,497.0,480.0,505.0,543.0
533.0,505.0,494.0,563.0,539.0
480.0,494.0,500.0,552.0,568.0
437.0,479.0,488.0,497.0,592.0
534.0,486.0,500.0,559.0,563.0
616.0,491.0,518.0,546.0,532.0
534.0,484.0,532.0,560.0,527.0
522.0,491.0,535.0,544.0,478.0
527.0,506.0,548.0,532.0,432.0
517.0,518.0,543.0,519.0,445.0
523.0,531.0,537.0,515.0,454.0
505.0,525.0,528.0,533.0,468.0
559.0,557.0,515.0,500.0,475.0
556.0,522.0,471.0,492.0,473.0
519.0,505.0,467.0,506.0,502.0
500.0,501.0,479.0,507.0,531.0
500.0,499.0,462.0,496.0,546.0
515.0,492.0,473.0,460.0,534.0
511.0,512.0,502.0,411.0,556.0
530.0,521.0,538.0,452.0,552.0
505.0,511.0,524.0,494.0,551.0
469.0,496.0,513.0,524.0,555.0
436.0,511.0,535.0,589.0,553.0
494.0,541.0,588.0,676.0,505.0
604.0,551.0,592.0,608.0,491.0
611.0,537.0,551.0,495.0,474.0
567.0,520.0,529.0,506.0,440.0
530.0,511.0,537.0,634.0,449.0
511.0,502.0,507.0,589.0,453.0
488.0,487.0,473.0,519.0,477.0
504.0,484.0,468.0,449.0,498.0
544.0,503.0,484.0,433.0,502.0
510.0,508.0,521.0,475.0,524.0
503.0,493.0,508.0,481.0,532.0
512.0,481.0,477.0,502.0,532.0
526.0,483.0,482.0,495.0,518.0
552.0,491.0,478.0,468.0,520.0
547.0,491.0,471.0,482.0,547.0
548.0,497.0,491.0,492.0,528.0
529.0,505.0,532.0,534.0,501.0
511.0,500.0,531.0,512.0,515.0
512.0,507.0,569.0,516.0,515.0
516.0,510.0,560.0,501.0,533.0
518.0,510.0,536.0,505.0,529.0
540.0,532.0,527.0,515.0,511.0
550.0,553.0,505.0,535.0,472.0
524.0,540.0,468.0,467.0,491.0
522.0,525.0,474.0,531.0,472.0
507.0,488.0,474.0,577.0,490.0
514.0,516.0,473.0,604.0,500.0
532.0,517.0,476.0,604.0,496.0
523.0,493.0,477.0,541.0,524.0
505.0,495.0,491.0,453.0,551.0
491.0,495.0,527.0,451.0,566.0
489.0,487.0,534.0,441.0,567.0
506.0,500.0,557.0,493.0,545.0
507.0,500.0,540.0,529.0,538.0
499.0,525.0,538.0,558.0,516.0
510.0,542.0,553.0,617.0,493.0
536.0,542.0,589.0,618.0,473.0
506.0,509.0,579.0,530.0,475.0
486.0,502.0,565.0,545.0,494.0
503.0,507.0,548.0,482.0,524.0
493.0,507.0,547.0,464.0,532.0
474.0,500.0,560.0,468.0,548.0
465.0,504.0,574.0,495.0,537.0
432.0,503.0,566.0,465.0,544.0
459.0,500.0,511.0,443.0,551.0
479.0,493.0,457.0,459.0,554.0
418.0,480.0,450.0,498.0,573.0
413.0,475.0,468.0,505.0,583.0
512.0,469.0,477.0,530.0,564.0
495.0,462.0,483.0,508.0,556.0
499.0,507.0,539.0,500.0,543.0
641.0,562.0,606.0,569.0,489.0
630.0,548.0,596.0,549.0,449.0
534.0,529.0,571.0,514.0,471.0
520.0,534.0,568.0,522.0,495.0
539.0,537.0,551.0,510.0,503.0
554.0,539.0,538.0,536.0,482.0
591.0,531.0,519.0,532.0,461.0
543.0,520.0,508.0,540.0,471.0
511.0,506.0,491.0,544.0,501.0
502.0,497.0,480.0,508.0,521.0
492.0,500.0,492.0,479.0,521.0
543.0,511.0,517.0,532.0,515.0
555.0,517.0,522.0,589.0,501.0
527.0,501.0,510.0,592.0,510.0
519.0,499.0,515.0,564.0,517.0
524.0,509.0,535.0,526.0,483.0
517.0,521.0,548.0,498.0,491.0
497.0,516.0,532.0,455.0,508.0
493.0,506.0,523.0,457.0,502.0
479.0,508.0,521.0,474.0,523.0
484.0,509.0,521.0,485.0,489.0
505.0,518.0,527.0,518.0,471.0
534.0,518.0,513.0,509.0,487.0
546.0,515.0,493.0,509.0,504.0
528.0,498.0,483.0,532.0,513.0
505.0,490.0,466.0,491.0,527.0
513.0,499.0,469.0,501.0,503.0
514.0,509.0,471.0,530.0,502.0
505.0,486.0,457.0,466.0,533.0
512.0,477.0,473.0,472.0,544.0
518.0,476.0,494.0,471.0,546.0
508.0,494.0,497.0,508.0,562.0
523.0,521.0,519.0,495.0,536.0
528.0,524.0,554.0,552.0,506.0
540.0,513.0,524.0,553.0,500.0
536.0,513.0,526.0,550.0,494.0
507.0,503.0,505.0,584.0,485.0
521.0,503.0,485.0,567.0,461.0
510.0,506.0,455.0,577.0,458.0
450.0,483.0,404.0,504.0,515.0
466.0,467.0,385.0,489.0,532.0
437.0,464.0,405.0,507.0,546.0
444.0,508.0,496.0,551.0,543.0
506.0,548.0,565.0,550.0,522.0
511.0,521.0,575.0,520.0,534.0
524.0,509.0,570.0,467.0,566.0
613.0,501.0,541.0,451.0,562.0
575.0,500.0,569.0,476.0,554.0
552.0,498.0,597.0,546.0,533.0
553.0,496.0,589.0,589.0,505.0
536.0,482.0,561.0,554.0,492.0
545.0,494.0,553.0,511.0,478.0
553.0,523.0,554.0,445.0,471.0
539.0,513.0,535.0,422.0,474.0
521.0,519.0,516.0,441.0,475.0
524.0,533.0,530.0,529.0,466.0
515.0,524.0,533.0,619.0,459.0
511.0,510.0,514.0,589.0,458.0
503.0,497.0,507.0,544.0,475.0
503.0,502.0,527.0,517.0,499.0
508.0,526.0,551.0,489.0,537.0
501.0,518.0,532.0,447.0,578.0
502.0,514.0,531.0,467.0,580.0
499.0,506.0,549.0,501.0,594.0
504.0,506.0,559.0,509.0,550.0
513.0,509.0,527.0,497.0,527.0
524.0,511.0,516.0,519.0,509.0
528.0,517.0,522.0,533.0,501.0
532.0,510.0,519.0,531.0,501.0
513.0,507.0,514.0,525.0,516.0
510.0,507.0,502.0,540.0,504.0
505.0,509.0,496.0,537.0,499.0
512.0,506.0,493.0,531.0,491.0
498.0,508.0,512.0,543.0,498.0
486.0,507.0,503.0,536.0,517.0
474.0,493.0,493.0,495.0,555.0
504.0,490.0,498.0,518.0,530.0
527.0,504.0,532.0,525.0,531.0
515.0,516.0,543.0,518.0,525.0
526.0,521.0,549.0,502.0,525.0
540.0,509.0,544.0,482.0,528.0
517.0,499.0,535.0,489.0,550.0
502.0,508.0,521.0,505.0,550.0
504.0,515.0,507.0,509.0,509.0
486.0,508.0,516.0,521.0,488.0
480.0,505.0,519.0,514.0,470.0
542.0,522.0,522.0,531.0,437.0
552.0,522.0,523.0,539.0,441.0
537.0,513.0,513.0,538.0,475.0
502.0,503.0,505.0,533.0,492.0
523.0,516.0,513.0,522.0,498.0
517.0,513.0,510.0,520.0,514.0
505.0,499.0,509.0,516.0,530.0
498.0,509.0,516.0,521.0,541.0
489.0,515.0,493.0,529.0,529.0
502.0,505.0,496.0,509.0,519.0
531.0,514.0,516.0,509.0,511.0
550.0,513.0,517.0,497.0,519.0
535.0,502.0,503.0,480.0,535.0
528.0,503.0,505.0,498.0,544.0
528.0,501.0,510.0,518.0,522.0
537.0,516.0,528.0,520.0,498.0
524.0,512.0,527.0,510.0,500.0
515.0,517.0,533.0,522.0,505.0
511.0,506.0,519.0,516.0,529.0
522.0,499.0,509.0,517.0,507.0
516.0,488.0,504.0,549.0,500.0
508.0,480.0,496.0,530.0,502.0
510.0,479.0,497.0,525.0,507.0
504.0,483.0,498.0,549.0,517.0
493.0,493.0,499.0,528.0,524.0
501.0,511.0,508.0,508.0,531.0
504.0,519.0,508.0,501.0,544.0
490.0,521.0,516.0,509.0,543.0
503.0,502.0,513.0,490.0,541.0
509.0,501.0,521.0,486.0,532.0
523.0,503.0,518.0,488.0,525.0
539.0,522.0,530.0,503.0,512.0
519.0,521.0,531.0,511.0,505.0
513.0,527.0,531.0,522.0,493.0
512.0,516.0,515.0,526.0,484.0
505.0,511.0,490.0,524.0,479.0
531.0,502.0,462.0,534.0,477.0
531.0,498.0,443.0,514.0,478.0
521.0,500.0,443.0,495.0,493.0
505.0,475.0,468.0,515.0,504.0
505.0,462.0,498.0,553.0,521.0
522.0,486.0,540.0,539.0,522.0
519.0,491.0,562.0,542.0,522.0
513.0,484.0,531.0,517.0,537.0
515.0,490.0,493.0,500.0,541.0
517.0,504.0,506.0,449.0,528.0
513.0,510.0,523.0,455.0,519.0
526.0,536.0,527.0,475.0,517.0
530.0,516.0,531.0,506.0,511.0
517.0,493.0,536.0,538.0,522.0
516.0,472.0,531.0,539.0,521.0
517.0,480.0,551.0,557.0,505.0
513.0,493.0,548.0,556.0,504.0
509.0,478.0,521.0,563.0,500.0
500.0,474.0,506.0,549.0,499.0
495.0,495.0,502.0,533.0,519.0
502.0,525.0,511.0,517.0,516.0
514.0,542.0,504.0,497.0,517.0
516.0,529.0,511.0,495.0,522.0
518.0,519.0,515.0,504.0,522.0
514.0,527.0,522.0,506.0,529.0
521.0,526.0,527.0,500.0,523.0
518.0,518.0,525.0,521.0,522.0
521.0,532.0,547.0,516.0,521.0
522.0,545.0,551.0,513.0,515.0
527.0,544.0,557.0,517.0,507.0
529.0,537.0,553.0,518.0,491.0
520.0,526.0,563.0,535.0,484.0
515.0,523.0,553.0,556.0,479.0
507.0,517.0,550.0,568.0,475.0
492.0,505.0,533.0,549.0,483.0
493.0,499.0,516.0,526.0,494.0
504.0,496.0,495.0,512.0,518.0
497.0,495.0,485.0,502.0,539.0
495.0,505.0,507.0,504.0,542.0
519.0,511.0,513.0,506.0,540.0
525.0,515.0,526.0,500.0,548.0
527.0,510.0,517.0,498.0,534.0
533.0,502.0,516.0,497.0,528.0
534.0,500.0,521.0,498.0,531.0
524.0,509.0,513.0,508.0,532.0
521.0,511.0,519.0,513.0,497.0
532.0,526.0,528.0,524.0,477.0
530.0,534.0,531.0,536.0,485.0
531.0,532.0,531.0,541.0,484.0
521.0,532.0,523.0,543.0,492.0
517.0,517.0,513.0,536.0,511.0
505.0,511.0,513.0,537.0,503.0
491.0,504.0,513.0,534.0,499.0
500.0,503.0,505.0,508.0,501.0
486.0,498.0,503.0,503.0,530.0
483.0,494.0,504.0,501.0,533.0
491.0,502.0,488.0,497.0,527.0
473.0,504.0,503.0,500.0,512.0
460.0,499.0,508.0,492.0,526.0
470.0,494.0,511.0,486.0,551.0
523.0,495.0,510.0,493.0,529.0
595.0,511.0,524.0,506.0,518.0
578.0,517.0,524.0,506.0,545.0
564.0,518.0,528.0,525.0,517.0
551.0,521.0,530.0,539.0,488.0
533.0,518.0,522.0,537.0,488.0
527.0,514.0,520.0,538.0,488.0
513.0,514.0,518.0,539.0,501.0
519.0,508.0,509.0,529.0,510.0
504.0,507.0,505.0,521.0,518.0
505.0,500.0,499.0,511.0,525.0
517.0,503.0,507.0,505.0,512.0
524.0,511.0,511.0,495.0,511.0
515.0,506.0,514.0,494.0,533.0
513.0,507.0,521.0,498.0,547.0
519.0,509.0,525.0,502.0,542.0
510.0,505.0,536.0,504.0,546.0
516.0,503.0,526.0,498.0,540.0
521.0,502.0,531.0,511.0,533.0
505.0,488.0,526.0,527.0,499.0
513.0,494.0,504.0,529.0,452.0
528.0,503.0,512.0,541.0,428.0
532.0,502.0,516.0,541.0,442.0
523.0,488.0,510.0,548.0,457.0
519.0,479.0,486.0,522.0,477.0
507.0,493.0,481.0,516.0,501.0
508.0,481.0,481.0,504.0,514.0
503.0,459.0,473.0,495.0,522.0
503.0,446.0,479.0,493.0,522.0
504.0,474.0,505.0,499.0,527.0
519.0,500.0,520.0,501.0,522.0
515.0,491.0,520.0,497.0,541.0
510.0,480.0,515.0,497.0,545.0
526.0,538.0,541.0,508.0,522.0
526.0,532.0,540.0,510.0,516.0
518.0,494.0,517.0,504.0,514.0
513.0,483.0,525.0,519.0,511.0
513.0,515.0,552.0,549.0,506.0
517.0,519.0,553.0,559.0,489.0
510.0,514.0,525.0,556.0,494.0
518.0,556.0,537.0,548.0,494.0
522.0,561.0,518.0,529.0,495.0
508.0,532.0,481.0,497.0,507.0
504.0,518.0,476.0,486.0,513.0
507.0,515.0,493.0,490.0,524.0
516.0,509.0,503.0,509.0,522.0
506.0,509.0,519.0,512.0,534.0
502.0,512.0,529.0,526.0,536.0
516.0,516.0,530.0,498.0,537.0
525.0,512.0,520.0,491.0,534.0
522.0,509.0,519.0,487.0,541.0
518.0,505.0,520.0,498.0,531.0
513.0,516.0,524.0,519.0,524.0
521.0,527.0,527.0,519.0,510.0
531.0,521.0,513.0,539.0,491.0
530.0,521.0,515.0,542.0,482.0
512.0,522.0,521.0,546.0,494.0
505.0,508.0,514.0,538.0,508.0
503.0,502.0,503.0,530.0,513.0
494.0,496.0,503.0,521.0,521.0
493.0,490.0,497.0,517.0,532.0
498.0,492.0,503.0,513.0,530.0
505.0,513.0,510.0,497.0,533.0
516.0,513.0,518.0,504.0,535.0
513.0,508.0,522.0,507.0,540.0
510.0,504.0,521.0,500.0,540.0
512.0,503.0,514.0,495.0,535.0
518.0,504.0,518.0,504.0,528.0
519.0,507.0,518.0,511.0,517.0
512.0,509.0,520.0,515.0,509.0
514.0,511.0,521.0,526.0,508.0
525.0,524.0,523.0,528.0,499.0
523.0,523.0,525.0,534.0,499.0
512.0,516.0,513.0,534.0,506.0
513.0,506.0,506.0,530.0,510.0
503.0,497.0,498.0,519.0,515.0
498.0,500.0,498.0,512.0,519.0
507.0,505.0,505.0,512.0,529.0
506.0,505.0,511.0,509.0,540.0
499.0,502.0,511.0,500.0,541.0
511.0,506.0,518.0,501.0,536.0
521.0,505.0,518.0,500.0,535.0
518.0,497.0,514.0,494.0,525.0
508.0,497.0,513.0,496.0,520.0
517.0,503.0,519.0,508.0,516.0
531.0,511.0,524.0,518.0,510.0
540.0,515.0,526.0,522.0,524.0
542.0,522.0,529.0,532.0,523.0
530.0,525.0,529.0,539.0,511.0
524.0,520.0,523.0,540.0,504.0
517.0,509.0,512.0,543.0,490.0
515.0,505.0,508.0,532.0,481.0
509.0,499.0,501.0,522.0,495.0
507.0,506.0,503.0,520.0,515.0
505.0,503.0,509.0,516.0,541.0
508.0,504.0,513.0,512.0,547.0
516.0,498.0,509.0,503.0,535.0
520.0,506.0,515.0,504.0,526.0
517.0,505.0,519.0,504.0,533.0
511.0,499.0,513.0,505.0,508.0
514.0,498.0,517.0,501.0,490.0
525.0,502.0,518.0,505.0,498.0
529.0,511.0,524.0,519.0,494.0
528.0,516.0,526.0,529.0,485.0
530.0,517.0,527.0,539.0,471.0
520.0,519.0,528.0,542.0,462.0
507.0,513.0,523.0,539.0,495.0
504.0,507.0,516.0,533.0,503.0
508.0,499.0,507.0,528.0,484.0
506.0,496.0,495.0,519.0,498.0
504.0,501.0,497.0,514.0,492.0
513.0,502.0,501.0,507.0,496.0
517.0,500.0,509.0,506.0,497.0
519.0,506.0,522.0,507.0,502.0
522.0,504.0,531.0,503.0,519.0
515.0,500.0,535.0,501.0,537.0
509.0,495.0,534.0,495.0,570.0
508.0,493.0,520.0,497.0,550.0
511.0,491.0,504.0,506.0,531.0
511.0,490.0,508.0,516.0,519.0
523.0,491.0,513.0,524.0,506.0
523.0,497.0,520.0,535.0,493.0
508.0,504.0,520.0,543.0,496.0
508.0,513.0,510.0,541.0,501.0
507.0,501.0,493.0,535.0,509.0
505.0,500.0,496.0,519.0,516.0
504.0,491.0,503.0,517.0,529.0
501.0,487.0,501.0,517.0,543.0
503.0,488.0,500.0,512.0,542.0
511.0,503.0,509.0,500.0,545.0
516.0,501.0,509.0,489.0,541.0
508.0,516.0,519.0,496.0,538.0
513.0,516.0,514.0,495.0,528.0
515.0,515.0,507.0,494.0,524.0
517.0,511.0,502.0,496.0,533.0
518.0,513.0,507.0,509.0,516.0
518.0,514.0,510.0,525.0,520.0
525.0,518.0,513.0,522.0,497.0
522.0,529.0,523.0,525.0,485.0
514.0,521.0,547.0,537.0,497.0
501.0,515.0,535.0,539.0,513.0
498.0,507.0,537.0,534.0,517.0
499.0,507.0,530.0,517.0,522.0
505.0,507.0,518.0,502.0,533.0
504.0,500.0,520.0,498.0,542.0
507.0,496.0,512.0,496.0,547.0
507.0,494.0,478.0,496.0,538.0
518.0,492.0,499.0,511.0,523.0
518.0,495.0,518.0,511.0,531.0
513.0,488.0,516.0,511.0,535.0
512.0,495.0,522.0,506.0,537.0
515.0,504.0,523.0,504.0,536.0
525.0,506.0,516.0,515.0,522.0
520.0,504.0,523.0,537.0,511.0
535.0,531.0,524.0,538.0,490.0
531.0,522.0,523.0,545.0,490.0
521.0,521.0,531.0,552.0,480.0
523.0,514.0,526.0,550.0,477.0
521.0,504.0,518.0,544.0,462.0
510.0,500.0,508.0,536.0,455.0
518.0,513.0,505.0,525.0,471.0
513.0,511.0,490.0,501.0,500.0
505.0,508.0,506.0,504.0,539.0
503.0,502.0,509.0,497.0,562.0
512.0,507.0,511.0,488.0,550.0
511.0,507.0,514.0,502.0,566.0
510.0,503.0,515.0,501.0,577.0
511.0,505.0,514.0,490.0,555.0
507.0,504.0,517.0,505.0,521.0
516.0,513.0,521.0,519.0,505.0
516.0,517.0,523.0,534.0,500.0
524.0,522.0,524.0,535.0,476.0
524.0,519.0,520.0,540.0,456.0
516.0,515.0,515.0,538.0,478.0
509.0,507.0,507.0,532.0,529.0
505.0,503.0,503.0,526.0,535.0
499.0,499.0,504.0,515.0,526.0
505.0,500.0,497.0,508.0,517.0
513.0,496.0,498.0,502.0,530.0
515.0,503.0,502.0,500.0,546.0
527.0,504.0,508.0,498.0,555.0
521.0,499.0,510.0,496.0,552.0
520.0,501.0,507.0,497.0,540.0
521.0,500.0,514.0,493.0,536.0
526.0,505.0,525.0,507.0,507.0
527.0,507.0,526.0,519.0,490.0
514.0,505.0,523.0,520.0,506.0
520.0,513.0,530.0,532.0,503.0
518.0,518.0,532.0,542.0,493.0
514.0,516.0,521.0,544.0,484.0
507.0,509.0,511.0,537.0,484.0
503.0,503.0,504.0,530.0,482.0
492.0,492.0,496.0,518.0,512.0
494.0,495.0,496.0,514.0,515.0
506.0,499.0,504.0,512.0,509.0
513.0,502.0,512.0,511.0,509.0
521.0,501.0,511.0,506.0,521.0
513.0,499.0,514.0,500.0,553.0
507.0,500.0,514.0,497.0,575.0
511.0,496.0,514.0,498.0,566.0
512.0,499.0,517.0,499.0,545.0
517.0,503.0,519.0,507.0,528.0
516.0,506.0,523.0,518.0,523.0
527.0,519.0,526.0,526.0,502.0
530.0,520.0,530.0,532.0,487.0
525.0,517.0,523.0,538.0,481.0
522.0,522.0,522.0,539.0,483.0
513.0,512.0,514.0,544.0,493.0
500.0,503.0,504.0,532.0,501.0
499.0,496.0,496.0,518.0,513.0
499.0,489.0,495.0,504.0,517.0
505.0,487.0,501.0,511.0,514.0
514.0,494.0,511.0,504.0,500.0
517.0,492.0,512.0,501.0,511.0
509.0,494.0,515.0,506.0,520.0
510.0,496.0,520.0,511.0,518.0
509.0,505.0,520.0,523.0,522.0
504.0,498.0,515.0,521.0,516.0
522.0,498.0,515.0,519.0,485.0
526.0,504.0,520.0,516.0,493.0
518.0,514.0,529.0,525.0,496.0
531.0,521.0,528.0,517.0,491.0
531.0,516.0,530.0,522.0,492.0
519.0,513.0,515.0,528.0,520.0
501.0,503.0,500.0,526.0,531.0
494.0,503.0,496.0,522.0,525.0
487.0,490.0,497.0,514.0,522.0
489.0,495.0,497.0,508.0,519.0
491.0,501.0,502.0,499.0,520.0
506.0,495.0,506.0,496.0,506.0
514.0,495.0,511.0,504.0,508.0
521.0,507.0,519.0,505.0,515.0
521.0,503.0,525.0,506.0,520.0
518.0,504.0,522.0,499.0,542.0
513.0,501.0,531.0,503.0,538.0
512.0,507.0,512.0,505.0,531.0
521.0,519.0,498.0,511.0,507.0
528.0,528.0,513.0,525.0,496.0
525.0,533.0,531.0,530.0,486.0
523.0,517.0,527.0,544.0,477.0
507.0,505.0,518.0,548.0,481.0
510.0,501.0,520.0,541.0,474.0
501.0,494.0,490.0,525.0,485.0
504.0,490.0,497.0,520.0,523.0
505.0,498.0,501.0,513.0,523.0
507.0,514.0,505.0,499.0,538.0
498.0,514.0,505.0,495.0,527.0
513.0,499.0,502.0,495.0,528.0
523.0,492.0,514.0,498.0,534.0
517.0,489.0,511.0,498.0,538.0
511.0,480.0,510.0,500.0,540.0
507.0,488.0,513.0,498.0,525.0
504.0,508.0,513.0,503.0,535.0
517.0,534.0,528.0,525.0,519.0
521.0,532.0,526.0,533.0,506.0
519.0,525.0,520.0,537.0,504.0
513.0,515.0,511.0,530.0,528.0
503.0,509.0,507.0,524.0,532.0
501.0,508.0,512.0,526.0,504.0
501.0,503.0,508.0,523.0,495.0
499.0,498.0,507.0,520.0,501.0
502.0,505.0,513.0,522.0,497.0
505.0,503.0,517.0,511.0,502.0
521.0,506.0,508.0,501.0,512.0
517.0,509.0,504.0,495.0,569.0
518.0,506.0,511.0,494.0,549.0
518.0,502.0,512.0,498.0,546.0
517.0,502.0,515.0,499.0,541.0
514.0,501.0,515.0,507.0,526.0
515.0,511.0,524.0,522.0,513.0
517.0,517.0,526.0,533.0,502.0
520.0,524.0,527.0,540.0,500.0
522.0,522.0,524.0,541.0,506.0
507.0,517.0,516.0,538.0,503.0
503.0,508.0,507.0,529.0,496.0
501.0,500.0,500.0,519.0,503.0
500.0,498.0,495.0,513.0,511.0
496.0,500.0,497.0,507.0,526.0
494.0,500.0,502.0,504.0,537.0
519.0,507.0,513.0,506.0,515.0
519.0,507.0,517.0,503.0,534.0
513.0,507.0,519.0,504.0,547.0
515.0,504.0,517.0,501.0,547.0
510.0,503.0,516.0,495.0,541.0
520.0,502.0,514.0,499.0,520.0
529.0,508.0,515.0,512.0,487.0
536.0,507.0,517.0,519.0,474.0
538.0,514.0,523.0,532.0,489.0
538.0,524.0,526.0,538.0,494.0
532.0,521.0,521.0,539.0,476.0
512.0,512.0,514.0,543.0,487.0
491.0,511.0,508.0,532.0,488.0
495.0,499.0,502.0,522.0,477.0
492.0,497.0,501.0,510.0,497.0
498.0,498.0,501.0,502.0,518.0
503.0,498.0,503.0,502.0,551.0
509.0,500.0,513.0,500.0,537.0
510.0,503.0,513.0,499.0,536.0
520.0,505.0,517.0,495.0,550.0
515.0,503.0,519.0,500.0,540.0
516.0,501.0,515.0,502.0,523.0
509.0,502.0,521.0,509.0,518.0
510.0,503.0,515.0,508.0,514.0
512.0,515.0,522.0,521.0,510.0
515.0,515.0,524.0,532.0,507.0
528.0,514.0,517.0,538.0,492.0
524.0,516.0,517.0,540.0,473.0
510.0,509.0,511.0,540.0,480.0
504.0,505.0,508.0,540.0,491.0
496.0,496.0,498.0,531.0,495.0
497.0,497.0,499.0,528.0,524.0
508.0,502.0,501.0,520.0,536.0
509.0,502.0,504.0,504.0,552.0
519.0,505.0,513.0,494.0,539.0
518.0,507.0,520.0,492.0,545.0
516.0,502.0,513.0,488.0,531.0
510.0,503.0,514.0,482.0,548.0
507.0,501.0,516.0,489.0,554.0
513.0,504.0,514.0,499.0,542.0
515.0,508.0,520.0,513.0,535.0
524.0,515.0,525.0,526.0,517.0
520.0,517.0,525.0,533.0,495.0
513.0,513.0,520.0,537.0,489.0
503.0,512.0,509.0,535.0,479.0
505.0,509.0,505.0,531.0,470.0
503.0,506.0,506.0,527.0,511.0
503.0,493.0,500.0,518.0,501.0
506.0,490.0,499.0,509.0,516.0
500.0,498.0,505.0,506.0,537.0
504.0,501.0,509.0,503.0,541.0
507.0,502.0,514.0,501.0,538.0
511.0,509.0,516.0,501.0,547.0
511.0,509.0,521.0,502.0,551.0
511.0,505.0,516.0,499.0,545.0
513.0,505.0,515.0,503.0,533.0
513.0,500.0,518.0,511.0,520.0
520.0,510.0,521.0,520.0,494.0
529.0,521.0,528.0,530.0,482.0
522.0,518.0,523.0,536.0,472.0
513.0,511.0,519.0,535.0,472.0
515.0,506.0,513.0,533.0,499.0
509.0,497.0,507.0,528.0,535.0
499.0,495.0,501.0,519.0,526.0
498.0,496.0,500.0,514.0,523.0
502.0,492.0,499.0,508.0,532.0
503.0,505.0,506.0,509.0,530.0
516.0,516.0,513.0,505.0,529.0
522.0,513.0,514.0,503.0,535.0
523.0,515.0,518.0,502.0,531.0
522.0,507.0,514.0,497.0,509.0
524.0,506.0,515.0,497.0,501.0
521.0,505.0,513.0,498.0,494.0
515.0,507.0,517.0,506.0,528.0
519.0,515.0,522.0,521.0,509.0
510.0,521.0,522.0,529.0,505.0
510.0,518.0,522.0,535.0,513.0
508.0,518.0,521.0,540.0,497.0
505.0,517.0,516.0,538.0,489.0
508.0,507.0,507.0,533.0,499.0
500.0,502.0,504.0,520.0,516.0
493.0,496.0,499.0,509.0,526.0
500.0,497.0,501.0,506.0,514.0
505.0,498.0,501.0,500.0,521.0
516.0,506.0,512.0,503.0,534.0
522.0,508.0,515.0,503.0,524.0
514.0,503.0,516.0,499.0,538.0
510.0,501.0,520.0,498.0,528.0
514.0,501.0,518.0,502.0,521.0
519.0,503.0,519.0,509.0,538.0
510.0,510.0,521.0,509.0,549.0
515.0,519.0,523.0,526.0,536.0
518.0,521.0,523.0,532.0,511.0
512.0,516.0,517.0,538.0,486.0
522.0,512.0,509.0,531.0,481.0
514.0,510.0,503.0,527.0,474.0
511.0,504.0,505.0,522.0,473.0
503.0,499.0,502.0,510.0,500.0
497.0,493.0,501.0,495.0,534.0
500.0,496.0,506.0,501.0,528.0
503.0,500.0,508.0,513.0,541.0
513.0,507.0,514.0,509.0,547.0
517.0,506.0,521.0,503.0,546.0
520.0,505.0,515.0,497.0,542.0
517.0,501.0,519.0,500.0,534.0
513.0,504.0,516.0,503.0,529.0
513.0,506.0,520.0,512.0,509.0
516.0,508.0,518.0,516.0,516.0
518.0,512.0,520.0,525.0,501.0
524.0,518.0,523.0,536.0,493.0
517.0,514.0,516.0,533.0,501.0
507.0,509.0,513.0,534.0,483.0
504.0,507.0,506.0,531.0,495.0
500.0,502.0,500.0,521.0,505.0
505.0,497.0,498.0,514.0,513.0
503.0,499.0,505.0,511.0,523.0
507.0,503.0,509.0,504.0,533.0
512.0,506.0,516.0,501.0,536.0
513.0,506.0,514.0,497.0,537.0
518.0,504.0,514.0,496.0,536.0
513.0,502.0,516.0,495.0,529.0
511.0,501.0,514.0,498.0,525.0
515.0,507.0,517.0,500.0,517.0
520.0,508.0,518.0,508.0,520.0
521.0,509.0,519.0,517.0,528.0
524.0,515.0,525.0,531.0,498.0
518.0,520.0,524.0,537.0,494.0
512.0,516.0,521.0,537.0,491.0
508.0,511.0,507.0,530.0,483.0
506.0,506.0,503.0,529.0,493.0
494.0,502.0,502.0,523.0,515.0
488.0,499.0,501.0,521.0,525.0
503.0,500.0,504.0,517.0,522.0
506.0,506.0,510.0,511.0,536.0
515.0,504.0,513.0,505.0,546.0
520.0,502.0,512.0,497.0,543.0
521.0,502.0,513.0,486.0,539.0
516.0,500.0,515.0,488.0,541.0
518.0,506.0,516.0,496.0,518.0
520.0,505.0,517.0,503.0,511.0
521.0,508.0,522.0,515.0,527.0
518.0,514.0,526.0,519.0,515.0
521.0,517.0,526.0,532.0,510.0
515.0,517.0,524.0,536.0,499.0
512.0,511.0,512.0,533.0,503.0
510.0,505.0,500.0,527.0,495.0
507.0,506.0,501.0,523.0,490.0
507.0,500.0,504.0,512.0,508.0
505.0,500.0,499.0,506.0,523.0
511.0,500.0,503.0,504.0,533.0
514.0,503.0,509.0,502.0,539.0
508.0,502.0,514.0,499.0,539.0
512.0,507.0,518.0,499.0,529.0
511.0,504.0,515.0,498.0,520.0
514.0,503.0,516.0,499.0,520.0
512.0,503.0,521.0,502.0,522.0
517.0,507.0,522.0,509.0,519.0
517.0,511.0,520.0,519.0,519.0
520.0,518.0,525.0,531.0,495.0
526.0,517.0,524.0,541.0,491.0
524.0,516.0,517.0,547.0,487.0
519.0,512.0,514.0,541.0,507.0
512.0,511.0,503.0,523.0,500.0
502.0,499.0,499.0,505.0,489.0
497.0,495.0,500.0,503.0,516.0
491.0,501.0,500.0,501.0,532.0
497.0,499.0,504.0,502.0,535.0
509.0,503.0,508.0,497.0,539.0
516.0,502.0,515.0,494.0,532.0
516.0,501.0,511.0,494.0,523.0
512.0,497.0,511.0,492.0,507.0
508.0,500.0,511.0,501.0,513.0
509.0,503.0,515.0,503.0,514.0
510.0,503.0,517.0,512.0,524.0
511.0,508.0,518.0,516.0,514.0
515.0,517.0,525.0,528.0,503.0
515.0,519.0,525.0,538.0,489.0
521.0,519.0,521.0,542.0,475.0
507.0,510.0,512.0,535.0,485.0
504.0,509.0,510.0,529.0,493.0
508.0,501.0,500.0,522.0,504.0
504.0,499.0,498.0,509.0,502.0
508.0,497.0,501.0,503.0,508.0
514.0,500.0,508.0,502.0,512.0
516.0,505.0,513.0,501.0,526.0
514.0,508.0,520.0,503.0,527.0
521.0,506.0,519.0,502.0,526.0
515.0,504.0,517.0,497.0,530.0
515.0,504.0,524.0,501.0,532.0
512.0,502.0,513.0,500.0,522.0
517.0,511.0,521.0,513.0,502.0
519.0,517.0,528.0,528.0,510.0
519.0,522.0,526.0,536.0,500.0
514.0,520.0,521.0,541.0,490.0
512.0,518.0,519.0,539.0,496.0
511.0,508.0,508.0,532.0,501.0
506.0,502.0,502.0,524.0,513.0
505.0,497.0,499.0,516.0,518.0
503.0,498.0,498.0,510.0,523.0
507.0,503.0,509.0,508.0,514.0
522.0,509.0,510.0,505.0,512.0
515.0,506.0,514.0,501.0,520.0
519.0,509.0,513.0,498.0,521.0
514.0,500.0,513.0,495.0,531.0
510.0,501.0,514.0,496.0,534.0
514.0,504.0,517.0,500.0,535.0
521.0,510.0,521.0,507.0,518.0
524.0,507.0,517.0,513.0,518.0
521.0,516.0,523.0,525.0,503.0
520.0,520.0,529.0,536.0,486.0
513.0,519.0,521.0,538.0,490.0
510.0,516.0,515.0,531.0,492.0
503.0,509.0,509.0,532.0,500.0
502.0,502.0,506.0,522.0,502.0
497.0,500.0,503.0,512.0,513.0
501.0,503.0,504.0,507.0,516.0
514.0,508.0,509.0,505.0,524.0
510.0,503.0,510.0,499.0,538.0
515.0,503.0,514.0,497.0,528.0
526.0,507.0,520.0,501.0,533.0
525.0,505.0,517.0,497.0,536.0
524.0,503.0,513.0,494.0,532.0
529.0,504.0,517.0,500.0,527.0
521.0,506.0,516.0,506.0,530.0
514.0,508.0,519.0,516.0,513.0
513.0,519.0,524.0,531.0,483.0
511.0,518.0,524.0,538.0,473.0
511.0,511.0,515.0,534.0,480.0
504.0,507.0,512.0,532.0,492.0
503.0,502.0,506.0,529.0,493.0
497.0,502.0,499.0,521.0,505.0
498.0,499.0,502.0,517.0,511.0
501.0,498.0,506.0,511.0,516.0
506.0,500.0,505.0,505.0,526.0
504.0,503.0,508.0,495.0,537.0
510.0,505.0,518.0,498.0,532.0
513.0,505.0,517.0,498.0,528.0
510.0,502.0,515.0,492.0,558.0
510.0,497.0,516.0,496.0,557.0
514.0,506.0,517.0,505.0,529.0
524.0,510.0,518.0,514.0,509.0
527.0,512.0,524.0,523.0,496.0
530.0,519.0,530.0,535.0,486.0
520.0,520.0,523.0,534.0,482.0
508.0,513.0,518.0,534.0,483.0
502.0,506.0,510.0,532.0,491.0
503.0,504.0,506.0,527.0,496.0
502.0,500.0,501.0,516.0,503.0
502.0,503.0,501.0,511.0,517.0
507.0,501.0,506.0,507.0,526.0
508.0,508.0,512.0,504.0,523.0
514.0,504.0,515.0,501.0,530.0
511.0,508.0,515.0,497.0,539.0
514.0,504.0,518.0,501.0,534.0
516.0,505.0,515.0,498.0,520.0
521.0,501.0,515.0,500.0,510.0
525.0,504.0,518.0,507.0,502.0
522.0,508.0,519.0,515.0,508.0
519.0,516.0,522.0,526.0,532.0
525.0,517.0,526.0,535.0,512.0
527.0,520.0,522.0,538.0,484.0
516.0,509.0,516.0,536.0,475.0
503.0,504.0,507.0,529.0,492.0
498.0,501.0,502.0,522.0,498.0
504.0,499.0,501.0,518.0,505.0
500.0,500.0,505.0,509.0,528.0
511.0,502.0,506.0,505.0,535.0
516.0,503.0,513.0,503.0,529.0
519.0,507.0,520.0,501.0,533.0
517.0,507.0,520.0,500.0,534.0
512.0,503.0,520.0,499.0,530.0
507.0,500.0,518.0,497.0,520.0
516.0,502.0,518.0,505.0,507.0
521.0,505.0,523.0,514.0,503.0
520.0,506.0,521.0,516.0,501.0
529.0,517.0,525.0,526.0,488.0
529.0,517.0,526.0,539.0,483.0
518.0,516.0,526.0,539.0,484.0
512.0,509.0,514.0,531.0,483.0
514.0,508.0,511.0,530.0,492.0
508.0,501.0,504.0,523.0,514.0
506.0,498.0,501.0,506.0,532.0
505.0,498.0,504.0,503.0,526.0
507.0,502.0,507.0,501.0,529.0
510.0,505.0,512.0,502.0,515.0
514.0,504.0,521.0,499.0,521.0
517.0,503.0,514.0,495.0,522.0
509.0,500.0,514.0,495.0,516.0
512.0,502.0,522.0,500.0,512.0
519.0,502.0,520.0,506.0,523.0
512.0,504.0,525.0,511.0,517.0
514.0,506.0,522.0,521.0,509.0
516.0,518.0,525.0,531.0,498.0
515.0,514.0,523.0,536.0,488.0
514.0,512.0,514.0,533.0,484.0
509.0,507.0,514.0,529.0,484.0
504.0,503.0,504.0,527.0,494.0
497.0,500.0,500.0,514.0,509.0
499.0,500.0,499.0,507.0,517.0
504.0,499.0,506.0,504.0,524.0
508.0,505.0,511.0,503.0,535.0
516.0,505.0,515.0,499.0,541.0
517.0,504.0,517.0,496.0,538.0
514.0,504.0,515.0,494.0,544.0
519.0,505.0,517.0,497.0,535.0
523.0,505.0,518.0,499.0,529.0
521.0,505.0,516.0,507.0,528.0
516.0,509.0,521.0,517.0,514.0
518.0,511.0,525.0,527.0,496.0
524.0,519.0,529.0,538.0,484.0
525.0,518.0,527.0,541.0,475.0
518.0,515.0,519.0,538.0,482.0
510.0,511.0,511.0,530.0,487.0
503.0,496.0,504.0,526.0,491.0
500.0,502.0,504.0,523.0,501.0
503.0,501.0,502.0,512.0,513.0
508.0,500.0,506.0,502.0,529.0
512.0,504.0,511.0,500.0,530.0
516.0,502.0,516.0,498.0,532.0
520.0,504.0,517.0,500.0,539.0
513.0,501.0,516.0,498.0,551.0
508.0,502.0,518.0,501.0,541.0
511.0,506.0,520.0,504.0,531.0
514.0,502.0,521.0,511.0,525.0
515.0,509.0,521.0,518.0,501.0
525.0,515.0,529.0,527.0,490.0
524.0,518.0,527.0,537.0,481.0
523.0,514.0,522.0,539.0,482.0
517.0,510.0,515.0,535.0,487.0
511.0,505.0,510.0,528.0,497.0
506.0,501.0,501.0,520.0,509.0
507.0,495.0,497.0,510.0,519.0
507.0,496.0,500.0,506.0,521.0
503.0,503.0,505.0,502.0,523.0
505.0,509.0,515.0,504.0,533.0
514.0,507.0,515.0,505.0,541.0
515.0,508.0,515.0,498.0,543.0
514.0,501.0,519.0,496.0,536.0
514.0,503.0,514.0,501.0,528.0
521.0,508.0,517.0,508.0,513.0
527.0,506.0,521.0,516.0,505.0
528.0,513.0,525.0,524.0,499.0
519.0,519.0,528.0,535.0,494.0
520.0,517.0,524.0,539.0,485.0
513.0,512.0,519.0,537.0,496.0
503.0,505.0,504.0,531.0,512.0
501.0,503.0,503.0,528.0,510.0
497.0,499.0,502.0,519.0,516.0
495.0,498.0,500.0,513.0,519.0
506.0,500.0,505.0,509.0,516.0
519.0,503.0,508.0,504.0,525.0
516.0,504.0,512.0,503.0,535.0
514.0,507.0,517.0,499.0,544.0
513.0,505.0,519.0,500.0,544.0
509.0,504.0,517.0,497.0,532.0
514.0,501.0,511.0,500.0,524.0
523.0,506.0,519.0,508.0,509.0
521.0,508.0,521.0,518.0,503.0
528.0,514.0,525.0,528.0,490.0
525.0,518.0,527.0,537.0,473.0
508.0,515.0,521.0,532.0,498.0
511.0,509.0,514.0,532.0,488.0
505.0,508.0,510.0,529.0,491.0
504.0,498.0,501.0,522.0,489.0
504.0,495.0,497.0,513.0,504.0
502.0,496.0,503.0,504.0,520.0
506.0,506.0,507.0,504.0,528.0
514.0,504.0,506.0,503.0,534.0
516.0,507.0,517.0,498.0,536.0
515.0,503.0,514.0,496.0,542.0
512.0,502.0,512.0,492.0,547.0
513.0,504.0,517.0,498.0,542.0
522.0,504.0,518.0,503.0,534.0
521.0,508.0,524.0,513.0,525.0
525.0,516.0,524.0,525.0,501.0
524.0,516.0,524.0,528.0,493.0
520.0,517.0,525.0,538.0,487.0
514.0,519.0,521.0,536.0,477.0
510.0,511.0,514.0,536.0,483.0
505.0,506.0,509.0,533.0,492.0
501.0,503.0,503.0,519.0,498.0
501.0,497.0,500.0,513.0,510.0
507.0,497.0,504.0,510.0,522.0
508.0,502.0,508.0,508.0,527.0
514.0,504.0,513.0,506.0,535.0
515.0,509.0,515.0,499.0,536.0
513.0,505.0,516.0,497.0,541.0
515.0,500.0,514.0,497.0,545.0
519.0,502.0,519.0,502.0,534.0
525.0,507.0,519.0,506.0,523.0
523.0,508.0,520.0,519.0,530.0
526.0,513.0,526.0,527.0,508.0
524.0,518.0,528.0,531.0,494.0
523.0,517.0,523.0,538.0,486.0
511.0,516.0,516.0,536.0,482.0
508.0,507.0,510.0,530.0,486.0
502.0,505.0,509.0,530.0,485.0
497.0,500.0,505.0,519.0,497.0
502.0,500.0,501.0,513.0,510.0
510.0,498.0,506.0,507.0,516.0
510.0,504.0,512.0,507.0,521.0
514.0,501.0,515.0,506.0,525.0
517.0,511.0,521.0,504.0,532.0
518.0,509.0,519.0,499.0,529.0
513.0,501.0,511.0,496.0,531.0
509.0,502.0,516.0,503.0,529.0
516.0,507.0,520.0,511.0,519.0
513.0,509.0,526.0,517.0,520.0
525.0,515.0,527.0,526.0,497.0
525.0,517.0,526.0,542.0,476.0
520.0,516.0,521.0,540.0,482.0
516.0,513.0,520.0,535.0,483.0
510.0,510.0,512.0,531.0,491.0
505.0,503.0,505.0,528.0,499.0
501.0,505.0,502.0,515.0,517.0
503.0,495.0,501.0,508.0,525.0
508.0,503.0,504.0,502.0,531.0
514.0,505.0,513.0,501.0,533.0
517.0,506.0,515.0,502.0,536.0
517.0,506.0,518.0,500.0,534.0
510.0,502.0,513.0,497.0,546.0
507.0,501.0,514.0,494.0,545.0
507.0,504.0,519.0,502.0,534.0
513.0,507.0,524.0,509.0,520.0
516.0,506.0,519.0,521.0,497.0
518.0,510.0,523.0,527.0,486.0
521.0,513.0,521.0,532.0,483.0
524.0,516.0,520.0,538.0,484.0
511.0,510.0,515.0,537.0,490.0
506.0,505.0,507.0,532.0,502.0
503.0,497.0,501.0,519.0,513.0
495.0,493.0,498.0,511.0,523.0
503.0,498.0,501.0,511.0,527.0
508.0,501.0,509.0,506.0,534.0
514.0,508.0,513.0,503.0,532.0
516.0,504.0,517.0,501.0,531.0
516.0,508.0,520.0,499.0,532.0
519.0,504.0,518.0,500.0,524.0
509.0,505.0,521.0,506.0,519.0
506.0,504.0,518.0,507.0,522.0
508.0,507.0,518.0,515.0,523.0
521.0,514.0,522.0,522.0,514.0
522.0,517.0,528.0,534.0,510.0
520.0,519.0,530.0,538.0,498.0
515.0,517.0,523.0,539.0,497.0
511.0,511.0,514.0,534.0,476.0
513.0,505.0,507.0,529.0,476.0
500.0,500.0,503.0,520.0,498.0
501.0,500.0,506.0,511.0,510.0
503.0,499.0,504.0,507.0,534.0
515.0,505.0,510.0,504.0,538.0
517.0,505.0,518.0,501.0,539.0
521.0,507.0,519.0,501.0,536.0
518.0,509.0,517.0,500.0,537.0
516.0,506.0,516.0,498.0,534.0
516.0,505.0,520.0,509.0,534.0
514.0,508.0,521.0,510.0,518.0
516.0,511.0,523.0,523.0,508.0
520.0,515.0,525.0,528.0,504.0
522.0,516.0,526.0,532.0,487.0
520.0,516.0,522.0,539.0,475.0
513.0,513.0,518.0,541.0,486.0
510.0,505.0,510.0,532.0,496.0
505.0,503.0,506.0,528.0,496.0
502.0,499.0,504.0,520.0,513.0
500.0,496.0,502.0,513.0,524.0
509.0,503.0,506.0,506.0,518.0
510.0,503.0,513.0,502.0,517.0
518.0,506.0,515.0,500.0,513.0
524.0,506.0,517.0,501.0,518.0
519.0,506.0,518.0,499.0,522.0
519.0,501.0,517.0,499.0,529.0
518.0,504.0,518.0,504.0,531.0
519.0,506.0,524.0,512.0,534.0
519.0,510.0,524.0,518.0,526.0
521.0,516.0,526.0,528.0,508.0
523.0,517.0,527.0,539.0,478.0
520.0,517.0,522.0,539.0,479.0
515.0,513.0,517.0,535.0,485.0
515.0,506.0,513.0,535.0,479.0
507.0,499.0,503.0,526.0,499.0
505.0,498.0,501.0,514.0,506.0
502.0,502.0,505.0,508.0,517.0
501.0,499.0,506.0,505.0,523.0
506.0,505.0,512.0,501.0,531.0
509.0,506.0,512.0,496.0,546.0
516.0,503.0,513.0,496.0,528.0
519.0,500.0,515.0,495.0,529.0
517.0,504.0,517.0,503.0,527.0
518.0,501.0,516.0,505.0,528.0
513.0,507.0,516.0,508.0,530.0
519.0,511.0,523.0,520.0,513.0
521.0,517.0,528.0,532.0,499.0
520.0,519.0,525.0,538.0,493.0
515.0,511.0,519.0,539.0,497.0
508.0,506.0,509.0,528.0,496.0
504.0,506.0,509.0,528.0,497.0
504.0,499.0,502.0,519.0,500.0
505.0,496.0,500.0,512.0,511.0
503.0,499.0,505.0,503.0,525.0
504.0,502.0,511.0,505.0,536.0
512.0,507.0,514.0,501.0,531.0
516.0,508.0,524.0,502.0,538.0
514.0,504.0,516.0,494.0,538.0
513.0,500.0,513.0,497.0,534.0
513.0,502.0,518.0,504.0,523.0
517.0,505.0,519.0,510.0,514.0
521.0,510.0,522.0,520.0,514.0
516.0,511.0,526.0,524.0,506.0
518.0,516.0,526.0,534.0,496.0
521.0,517.0,522.0,536.0,487.0
515.0,513.0,517.0,535.0,490.0
506.0,508.0,511.0,533.0,494.0
502.0,503.0,505.0,525.0,503.0
500.0,500.0,501.0,517.0,511.0
500.0,498.0,505.0,509.0,519.0
507.0,499.0,506.0,505.0,524.0
514.0,503.0,511.0,502.0,533.0
513.0,505.0,511.0,501.0,536.0
519.0,503.0,519.0,497.0,538.0
521.0,502.0,518.0,497.0,528.0
516.0,501.0,517.0,499.0,527.0
520.0,505.0,522.0,505.0,523.0
519.0,506.0,521.0,511.0,516.0
517.0,510.0,522.0,518.0,512.0
524.0,516.0,530.0,530.0,501.0
522.0,518.0,527.0,537.0,493.0
518.0,515.0,526.0,537.0,491.0
516.0,510.0,515.0,532.0,492.0
505.0,507.0,510.0,527.0,502.0
497.0,498.0,506.0,522.0,503.0
501.0,498.0,502.0,518.0,514.0
506.0,498.0,502.0,503.0,523.0
510.0,502.0,507.0,506.0,530.0
514.0,505.0,512.0,503.0,532.0
518.0,504.0,514.0,500.0,538.0
517.0,506.0,523.0,500.0,541.0
521.0,508.0,516.0,498.0,540.0
513.0,506.0,516.0,499.0,538.0
516.0,506.0,520.0,508.0,526.0
518.0,506.0,519.0,512.0,519.0
527.0,513.0,528.0,523.0,505.0
527.0,519.0,527.0,533.0,493.0
525.0,519.0,524.0,539.0,481.0
514.0,515.0,518.0,537.0,482.0
505.0,509.0,514.0,535.0,495.0
506.0,504.0,508.0,530.0,502.0
497.0,496.0,502.0,521.0,514.0
497.0,498.0,499.0,512.0,516.0
499.0,499.0,506.0,506.0,522.0
506.0,503.0,510.0,503.0,533.0
514.0,503.0,514.0,500.0,533.0
519.0,507.0,516.0,499.0,535.0
516.0,506.0,515.0,499.0,532.0
515.0,501.0,511.0,493.0,526.0
520.0,503.0,516.0,498.0,522.0
519.0,504.0,518.0,504.0,518.0
514.0,508.0,518.0,513.0,507.0
519.0,511.0,523.0,525.0,502.0
523.0,516.0,526.0,532.0,487.0
519.0,518.0,524.0,540.0,481.0
516.0,515.0,517.0,536.0,492.0
511.0,507.0,511.0,533.0,492.0
511.0,502.0,506.0,527.0,495.0
509.0,498.0,502.0,522.0,510.0
503.0,503.0,502.0,511.0,536.0
509.0,504.0,508.0,510.0,534.0
518.0,505.0,511.0,506.0,503.0
523.0,506.0,512.0,501.0,512.0
527.0,504.0,514.0,500.0,513.0
523.0,501.0,516.0,495.0,512.0
512.0,502.0,515.0,497.0,519.0
515.0,505.0,519.0,506.0,534.0
517.0,507.0,523.0,512.0,528.0
519.0,509.0,521.0,517.0,507.0
519.0,514.0,524.0,531.0,505.0
520.0,518.0,525.0,536.0,486.0
519.0,518.0,520.0,540.0,476.0
516.0,515.0,516.0,536.0,486.0
504.0,510.0,512.0,531.0,497.0
501.0,504.0,505.0,524.0,512.0
502.0,500.0,501.0,516.0,529.0
507.0,499.0,504.0,506.0,534.0
515.0,500.0,504.0,500.0,544.0
515.0,505.0,511.0,500.0,549.0
517.0,508.0,516.0,499.0,541.0
516.0,508.0,519.0,497.0,530.0
512.0,503.0,517.0,497.0,521.0
516.0,505.0,514.0,499.0,519.0
516.0,507.0,519.0,504.0,511.0
524.0,507.0,518.0,515.0,507.0
526.0,510.0,523.0,524.0,500.0
522.0,513.0,526.0,533.0,485.0
519.0,519.0,529.0,537.0,484.0
515.0,516.0,519.0,538.0,489.0
509.0,506.0,511.0,531.0,487.0
507.0,504.0,506.0,525.0,492.0
503.0,499.0,503.0,519.0,509.0
508.0,500.0,498.0,511.0,517.0
508.0,504.0,506.0,508.0,521.0
514.0,501.0,509.0,503.0,528.0
519.0,508.0,511.0,500.0,533.0
519.0,504.0,515.0,498.0,539.0
519.0,506.0,516.0,499.0,537.0
519.0,502.0,515.0,502.0,535.0
512.0,504.0,518.0,500.0,530.0
513.0,504.0,520.0,505.0,522.0
518.0,511.0,521.0,515.0,513.0
523.0,514.0,524.0,527.0,501.0
523.0,518.0,527.0,532.0,494.0
519.0,514.0,522.0,538.0,488.0
510.0,510.0,516.0,533.0,494.0
508.0,505.0,511.0,531.0,496.0
503.0,501.0,506.0,529.0,500.0
505.0,501.0,503.0,518.0,514.0
499.0,498.0,501.0,513.0,525.0
501.0,499.0,510.0,507.0,531.0
508.0,501.0,508.0,501.0,541.0
512.0,505.0,513.0,498.0,535.0
517.0,506.0,517.0,500.0,536.0
513.0,501.0,514.0,498.0,527.0
513.0,499.0,515.0,494.0,531.0
519.0,504.0,515.0,501.0,526.0
518.0,505.0,521.0,511.0,517.0
522.0,512.0,521.0,516.0,507.0
522.0,514.0,526.0,526.0,498.0
524.0,519.0,533.0,539.0,487.0
523.0,517.0,522.0,539.0,479.0
512.0,511.0,520.0,536.0,486.0
510.0,507.0,508.0,529.0,487.0
505.0,502.0,503.0,523.0,499.0
505.0,498.0,500.0,517.0,518.0
509.0,496.0,501.0,506.0,528.0
515.0,503.0,512.0,505.0,536.0
517.0,505.0,513.0,502.0,539.0
514.0,507.0,516.0,495.0,536.0
514.0,507.0,519.0,500.0,540.0
516.0,504.0,516.0,498.0,533.0
515.0,502.0,512.0,498.0,530.0
515.0,501.0,518.0,508.0,527.0
519.0,507.0,520.0,511.0,513.0
518.0,511.0,525.0,523.0,506.0
520.0,516.0,528.0,533.0,497.0
521.0,519.0,526.0,540.0,489.0
520.0,516.0,521.0,543.0,483.0
514.0,512.0,515.0,534.0,488.0
510.0,505.0,512.0,530.0,486.0
506.0,495.0,502.0,519.0,499.0
507.0,499.0,501.0,512.0,513.0
512.0,499.0,508.0,506.0,520.0
511.0,502.0,508.0,500.0,545.0
512.0,505.0,514.0,503.0,547.0
518.0,506.0,516.0,498.0,533.0
524.0,505.0,516.0,498.0,532.0
520.0,504.0,516.0,498.0,532.0
523.0,504.0,521.0,502.0,530.0
515.0,505.0,518.0,509.0,525.0
515.0,507.0,522.0,517.0,514.0
525.0,514.0,525.0,523.0,503.0
522.0,517.0,527.0,537.0,496.0
524.0,517.0,524.0,542.0,488.0
515.0,513.0,520.0,537.0,491.0
510.0,508.0,512.0,536.0,497.0
507.0,507.0,509.0,527.0,502.0
499.0,501.0,502.0,516.0,509.0
501.0,500.0,502.0,510.0,517.0
509.0,499.0,508.0,506.0,517.0
514.0,505.0,510.0,504.0,522.0
520.0,507.0,514.0,502.0,524.0
519.0,505.0,518.0,500.0,526.0
515.0,504.0,519.0,500.0,531.0
510.0,505.0,516.0,501.0,534.0
513.0,504.0,517.0,503.0,540.0
518.0,506.0,519.0,508.0,530.0
525.0,509.0,523.0,515.0,515.0
529.0,513.0,522.0,526.0,501.0
524.0,518.0,522.0,538.0,477.0
516.0,512.0,519.0,539.0,475.0
509.0,513.0,515.0,538.0,484.0
506.0,506.0,510.0,534.0,492.0
496.0,496.0,503.0,521.0,510.0
501.0,496.0,497.0,513.0,518.0
499.0,495.0,503.0,508.0,518.0
508.0,497.0,506.0,511.0,518.0
511.0,503.0,511.0,506.0,524.0
514.0,508.0,513.0,499.0,539.0
514.0,502.0,518.0,498.0,545.0
514.0,500.0,513.0,496.0,541.0
514.0,500.0,511.0,499.0,534.0
520.0,505.0,521.0,507.0,522.0
521.0,506.0,525.0,514.0,517.0
522.0,507.0,522.0,520.0,510.0
526.0,516.0,525.0,530.0,498.0
525.0,519.0,528.0,540.0,487.0
523.0,517.0,522.0,542.0,477.0
512.0,509.0,517.0,537.0,488.0
509.0,503.0,508.0,533.0,500.0
503.0,501.0,500.0,519.0,513.0
502.0,497.0,505.0,511.0,520.0
503.0,502.0,506.0,511.0,529.0
505.0,501.0,509.0,509.0,528.0
508.0,504.0,517.0,501.0,534.0
509.0,508.0,516.0,499.0,536.0
516.0,504.0,516.0,500.0,533.0
518.0,501.0,517.0,496.0,535.0
519.0,501.0,516.0,502.0,530.0
521.0,509.0,518.0,509.0,529.0
513.0,507.0,524.0,515.0,523.0
524.0,515.0,525.0,524.0,508.0
525.0,518.0,527.0,532.0,503.0
526.0,517.0,523.0,537.0,487.0
527.0,516.0,524.0,539.0,491.0
524.0,513.0,512.0,534.0,493.0
509.0,503.0,508.0,529.0,501.0
505.0,499.0,506.0,516.0,502.0
499.0,504.0,504.0,512.0,512.0
500.0,500.0,506.0,506.0,520.0
507.0,504.0,512.0,507.0,524.0
512.0,504.0,513.0,504.0,528.0
518.0,509.0,517.0,502.0,527.0
517.0,506.0,517.0,504.0,528.0
511.0,501.0,514.0,498.0,524.0
516.0,503.0,516.0,505.0,529.0
517.0,510.0,522.0,512.0,526.0
521.0,511.0,522.0,522.0,515.0
524.0,514.0,523.0,527.0,501.0
523.0,517.0,525.0,541.0,483.0
520.0,516.0,521.0,540.0,483.0
512.0,512.0,516.0,539.0,483.0
506.0,504.0,509.0,530.0,487.0
505.0,500.0,507.0,526.0,490.0
506.0,503.0,501.0,517.0,497.0
506.0,500.0,506.0,509.0,521.0
504.0,501.0,506.0,506.0,538.0
511.0,506.0,511.0,503.0,538.0
514.0,508.0,515.0,501.0,527.0
516.0,506.0,519.0,499.0,533.0
514.0,506.0,513.0,496.0,540.0
519.0,502.0,514.0,496.0,537.0
513.0,500.0,515.0,502.0,539.0
522.0,510.0,519.0,512.0,523.0
521.0,510.0,520.0,519.0,515.0
517.0,511.0,521.0,528.0,508.0
518.0,510.0,524.0,538.0,499.0
521.0,515.0,519.0,539.0,493.0
511.0,514.0,514.0,535.0,496.0
506.0,502.0,507.0,529.0,502.0
501.0,496.0,500.0,518.0,510.0
502.0,496.0,497.0,512.0,513.0
508.0,500.0,503.0,512.0,518.0
510.0,503.0,505.0,502.0,526.0
514.0,502.0,511.0,502.0,532.0
514.0,504.0,518.0,501.0,532.0
517.0,505.0,517.0,503.0,532.0
520.0,504.0,513.0,498.0,535.0
513.0,503.0,517.0,498.0,531.0
515.0,506.0,521.0,508.0,522.0
524.0,510.0,518.0,516.0,514.0
529.0,511.0,525.0,530.0,500.0
531.0,519.0,526.0,536.0,490.0
523.0,520.0,528.0,542.0,487.0
516.0,517.0,516.0,538.0,496.0
513.0,509.0,513.0,525.0,498.0
510.0,503.0,507.0,526.0,500.0
506.0,502.0,501.0,517.0,502.0
508.0,498.0,502.0,510.0,514.0
505.0,499.0,503.0,509.0,516.0
511.0,504.0,508.0,503.0,520.0
514.0,505.0,517.0,503.0,532.0
521.0,505.0,517.0,501.0,543.0
516.0,507.0,514.0,498.0,540.0
518.0,504.0,516.0,497.0,535.0
517.0,506.0,516.0,503.0,529.0
514.0,505.0,519.0,510.0,527.0
518.0,509.0,520.0,518.0,511.0
521.0,515.0,528.0,529.0,501.0
528.0,521.0,525.0,534.0,494.0
519.0,517.0,523.0,537.0,493.0
507.0,514.0,516.0,536.0,499.0
500.0,505.0,509.0,533.0,503.0
498.0,499.0,505.0,529.0,498.0
500.0,502.0,502.0,517.0,507.0
506.0,501.0,501.0,510.0,507.0
508.0,503.0,504.0,504.0,519.0
514.0,507.0,511.0,502.0,523.0
518.0,505.0,518.0,501.0,525.0
522.0,505.0,515.0,498.0,531.0
524.0,503.0,515.0,502.0,534.0
521.0,506.0,513.0,498.0,530.0
520.0,507.0,515.0,502.0,527.0
525.0,506.0,520.0,510.0,518.0
522.0,508.0,523.0,523.0,507.0
522.0,515.0,524.0,529.0,497.0
521.0,520.0,532.0,538.0,483.0
517.0,516.0,521.0,542.0,479.0
510.0,511.0,516.0,540.0,483.0
511.0,506.0,508.0,529.0,492.0
504.0,501.0,501.0,520.0,503.0
500.0,498.0,501.0,513.0,512.0
504.0,497.0,499.0,505.0,517.0
509.0,504.0,509.0,504.0,523.0
513.0,509.0,512.0,503.0,530.0
515.0,507.0,519.0,501.0,542.0
514.0,503.0,517.0,497.0,536.0
511.0,499.0,512.0,495.0,533.0
512.0,502.0,516.0,497.0,541.0
518.0,502.0,517.0,503.0,524.0
515.0,507.0,523.0,512.0,513.0
518.0,512.0,524.0,521.0,496.0
522.0,520.0,527.0,532.0,482.0
521.0,521.0,522.0,537.0,482.0
518.0,516.0,519.0,537.0,483.0
512.0,509.0,517.0,532.0,489.0
500.0,501.0,506.0,525.0,505.0
498.0,498.0,501.0,513.0,511.0
505.0,499.0,500.0,511.0,509.0
510.0,500.0,505.0,505.0,520.0
515.0,510.0,512.0,505.0,523.0
518.0,510.0,515.0,501.0,532.0
520.0,507.0,515.0,498.0,539.0
519.0,505.0,515.0,501.0,541.0
514.0,502.0,515.0,498.0,541.0
517.0,504.0,518.0,502.0,532.0
514.0,507.0,522.0,508.0,525.0
521.0,512.0,522.0,519.0,510.0
525.0,516.0,525.0,527.0,500.0
524.0,518.0,525.0,534.0,492.0
518.0,516.0,526.0,539.0,490.0
514.0,512.0,516.0,535.0,488.0
506.0,507.0,510.0,529.0,494.0
504.0,503.0,503.0,523.0,497.0
502.0,498.0,497.0,515.0,507.0
501.0,499.0,506.0,510.0,521.0
508.0,499.0,509.0,506.0,524.0
515.0,504.0,513.0,502.0,526.0
519.0,504.0,515.0,500.0,530.0
519.0,506.0,518.0,499.0,532.0
521.0,505.0,516.0,498.0,531.0
519.0,505.0,514.0,497.0,530.0
520.0,503.0,517.0,501.0,522.0
526.0,505.0,519.0,516.0,518.0
524.0,512.0,521.0,518.0,511.0
524.0,516.0,523.0,529.0,501.0
517.0,519.0,523.0,533.0,492.0
516.0,516.0,520.0,536.0,486.0
510.0,511.0,515.0,535.0,483.0
505.0,506.0,508.0,530.0,483.0
498.0,499.0,502.0,523.0,494.0
500.0,497.0,499.0,513.0,511.0
504.0,501.0,503.0,507.0,521.0
507.0,503.0,507.0,503.0,527.0
509.0,505.0,509.0,503.0,528.0
510.0,506.0,516.0,501.0,529.0
515.0,503.0,514.0,499.0,530.0
513.0,501.0,515.0,500.0,528.0
519.0,500.0,516.0,500.0,530.0
517.0,506.0,520.0,506.0,520.0
515.0,506.0,522.0,512.0,515.0
524.0,515.0,521.0,522.0,499.0
528.0,517.0,527.0,531.0,487.0
527.0,517.0,529.0,538.0,483.0
520.0,513.0,516.0,537.0,488.0
508.0,508.0,511.0,533.0,492.0
511.0,506.0,511.0,530.0,483.0
506.0,501.0,501.0,520.0,495.0
502.0,497.0,497.0,508.0,507.0
504.0,500.0,505.0,506.0,517.0
504.0,501.0,507.0,500.0,547.0
504.0,503.0,510.0,497.0,541.0
510.0,507.0,512.0,496.0,535.0
510.0,502.0,518.0,497.0,544.0
515.0,500.0,513.0,501.0,536.0
520.0,503.0,517.0,503.0,527.0
521.0,504.0,516.0,504.0,519.0
520.0,504.0,518.0,514.0,512.0
524.0,513.0,523.0,526.0,501.0
528.0,518.0,526.0,533.0,490.0
511.0,512.0,524.0,534.0,492.0
507.0,510.0,514.0,535.0,488.0
500.0,503.0,512.0,528.0,492.0
507.0,508.0,505.0,525.0,494.0
507.0,500.0,503.0,517.0,505.0
505.0,502.0,505.0,511.0,518.0
505.0,501.0,511.0,506.0,523.0
513.0,504.0,510.0,505.0,528.0
516.0,506.0,517.0,500.0,531.0
518.0,509.0,516.0,499.0,532.0
515.0,503.0,516.0,500.0,530.0
517.0,506.0,516.0,502.0,528.0
519.0,504.0,517.0,503.0,522.0
516.0,504.0,518.0,508.0,517.0
515.0,510.0,521.0,516.0,508.0
521.0,515.0,529.0,529.0,498.0
527.0,519.0,526.0,535.0,486.0
517.0,515.0,520.0,536.0,485.0
511.0,513.0,514.0,534.0,487.0
506.0,508.0,510.0,527.0,495.0
504.0,498.0,501.0,519.0,514.0
499.0,498.0,500.0,509.0,520.0
503.0,502.0,505.0,507.0,534.0
508.0,501.0,506.0,503.0,531.0
513.0,504.0,511.0,502.0,534.0
513.0,505.0,520.0,501.0,533.0
520.0,506.0,517.0,497.0,532.0
518.0,502.0,515.0,497.0,529.0
514.0,504.0,517.0,498.0,528.0
517.0,504.0,521.0,506.0,514.0
517.0,507.0,520.0,514.0,509.0
523.0,514.0,525.0,525.0,496.0
528.0,521.0,525.0,535.0,488.0
526.0,518.0,523.0,535.0,486.0
517.0,514.0,518.0,542.0,486.0
508.0,510.0,518.0,534.0,491.0
506.0,506.0,508.0,526.0,498.0
503.0,501.0,501.0,521.0,503.0
499.0,500.0,502.0,510.0,519.0
506.0,501.0,505.0,509.0,524.0
513.0,503.0,509.0,505.0,526.0
513.0,508.0,513.0,505.0,531.0
515.0,507.0,514.0,499.0,530.0
517.0,504.0,511.0,496.0,541.0
515.0,503.0,518.0,496.0,535.0
521.0,504.0,520.0,502.0,521.0
524.0,507.0,519.0,507.0,523.0
516.0,512.0,522.0,515.0,520.0
522.0,515.0,523.0,523.0,514.0
526.0,519.0,527.0,532.0,486.0
515.0,514.0,521.0,533.0,476.0
511.0,514.0,522.0,538.0,480.0
503.0,506.0,510.0,533.0,488.0
499.0,501.0,504.0,525.0,499.0
500.0,499.0,500.0,516.0,509.0
500.0,499.0,502.0,513.0,522.0
499.0,501.0,509.0,505.0,530.0
506.0,503.0,509.0,499.0,531.0
515.0,505.0,514.0,500.0,530.0
519.0,506.0,517.0,498.0,530.0
517.0,503.0,514.0,495.0,532.0
518.0,499.0,513.0,497.0,538.0
519.0,505.0,515.0,503.0,528.0
518.0,504.0,518.0,512.0,519.0
517.0,511.0,522.0,522.0,507.0
520.0,509.0,522.0,528.0,496.0
519.0,515.0,522.0,533.0,480.0
517.0,514.0,520.0,538.0,479.0
513.0,511.0,516.0,535.0,491.0
501.0,506.0,508.0,529.0,495.0
498.0,498.0,501.0,522.0,510.0
499.0,498.0,501.0,514.0,514.0
504.0,500.0,505.0,511.0,519.0
511.0,507.0,506.0,506.0,518.0
513.0,504.0,512.0,504.0,524.0
518.0,505.0,514.0,502.0,527.0
521.0,505.0,516.0,500.0,524.0
516.0,504.0,516.0,497.0,526.0
516.0,502.0,513.0,498.0,526.0
520.0,505.0,517.0,513.0,519.0
520.0,509.0,520.0,513.0,523.0
526.0,513.0,523.0,525.0,510.0
523.0,517.0,527.0,531.0,501.0
521.0,518.0,524.0,538.0,497.0
515.0,514.0,513.0,538.0,496.0
511.0,507.0,512.0,535.0,490.0
509.0,506.0,507.0,529.0,490.0
501.0,503.0,503.0,519.0,505.0
505.0,500.0,501.0,514.0,514.0
506.0,506.0,504.0,505.0,537.0
509.0,503.0,507.0,502.0,553.0
512.0,507.0,510.0,495.0,544.0
516.0,505.0,512.0,500.0,541.0
516.0,506.0,516.0,499.0,532.0
516.0,504.0,513.0,500.0,539.0
521.0,501.0,513.0,501.0,538.0
520.0,504.0,515.0,503.0,533.0
521.0,510.0,520.0,515.0,518.0
522.0,515.0,524.0,526.0,505.0
525.0,516.0,523.0,533.0,493.0
516.0,516.0,522.0,538.0,485.0
506.0,511.0,513.0,538.0,485.0
506.0,508.0,509.0,536.0,490.0
502.0,501.0,504.0,522.0,496.0
499.0,499.0,499.0,516.0,508.0
502.0,500.0,501.0,513.0,522.0
507.0,505.0,506.0,505.0,527.0
515.0,504.0,511.0,503.0,530.0
514.0,506.0,509.0,500.0,537.0
521.0,506.0,516.0,498.0,534.0
521.0,508.0,517.0,500.0,540.0
522.0,501.0,513.0,498.0,539.0
523.0,504.0,515.0,504.0,528.0
525.0,506.0,517.0,509.0,522.0
524.0,507.0,519.0,520.0,505.0
520.0,515.0,521.0,526.0,495.0
513.0,516.0,525.0,534.0,485.0
508.0,515.0,519.0,539.0,475.0
502.0,507.0,511.0,534.0,485.0
496.0,507.0,508.0,527.0,489.0
496.0,499.0,501.0,518.0,501.0
498.0,498.0,502.0,512.0,508.0
501.0,500.0,502.0,511.0,520.0
505.0,502.0,507.0,503.0,527.0
507.0,503.0,509.0,501.0,533.0
516.0,507.0,511.0,499.0,533.0
518.0,505.0,515.0,498.0,533.0
514.0,503.0,519.0,498.0,533.0
512.0,499.0,508.0,496.0,527.0
514.0,504.0,515.0,503.0,524.0
513.0,505.0,514.0,512.0,514.0
517.0,513.0,525.0,524.0,506.0
524.0,521.0,525.0,533.0,497.0
525.0,519.0,526.0,536.0,486.0
522.0,515.0,520.0,538.0,485.0
513.0,510.0,513.0,535.0,488.0
511.0,507.0,508.0,531.0,494.0
500.0,500.0,505.0,520.0,511.0
495.0,498.0,500.0,508.0,520.0
502.0,499.0,504.0,505.0,526.0
509.0,506.0,511.0,504.0,529.0
517.0,505.0,511.0,500.0,531.0
516.0,509.0,515.0,498.0,526.0
520.0,506.0,521.0,500.0,528.0
514.0,503.0,511.0,498.0,534.0
516.0,502.0,516.0,501.0,528.0
515.0,503.0,518.0,505.0,522.0
518.0,509.0,525.0,518.0,515.0
526.0,513.0,526.0,529.0,499.0
523.0,518.0,525.0,535.0,489.0
519.0,517.0,523.0,538.0,488.0
517.0,515.0,517.0,533.0,490.0
506.0,506.0,510.0,527.0,489.0
507.0,504.0,506.0,524.0,498.0
501.0,500.0,501.0,514.0,511.0
503.0,501.0,503.0,508.0,525.0
506.0,504.0,504.0,501.0,531.0
513.0,504.0,513.0,500.0,533.0
516.0,506.0,513.0,499.0,530.0
518.0,507.0,520.0,498.0,527.0
518.0,503.0,515.0,502.0,529.0
514.0,503.0,515.0,497.0,530.0
517.0,503.0,519.0,502.0,526.0
519.0,508.0,518.0,509.0,517.0
524.0,511.0,523.0,519.0,505.0
532.0,515.0,526.0,528.0,504.0
527.0,520.0,526.0,538.0,499.0
525.0,517.0,522.0,538.0,502.0
515.0,512.0,516.0,534.0,497.0
510.0,508.0,511.0,530.0,491.0
507.0,496.0,501.0,521.0,504.0
501.0,499.0,502.0,514.0,503.0
506.0,502.0,510.0,508.0,512.0
507.0,501.0,508.0,505.0,528.0
507.0,504.0,511.0,499.0,547.0
515.0,506.0,512.0,497.0,535.0
517.0,506.0,514.0,500.0,534.0
514.0,504.0,516.0,498.0,538.0
516.0,504.0,516.0,495.0,531.0
520.0,503.0,521.0,506.0,519.0
525.0,509.0,518.0,515.0,502.0
526.0,508.0,522.0,523.0,496.0
519.0,521.0,527.0,533.0,493.0
516.0,516.0,521.0,532.0,489.0
512.0,514.0,517.0,532.0,488.0
506.0,507.0,511.0,531.0,500.0
508.0,508.0,507.0,529.0,498.0
499.0,499.0,502.0,522.0,506.0
498.0,496.0,502.0,510.0,517.0
507.0,502.0,507.0,508.0,523.0
507.0,503.0,508.0,502.0,528.0
511.0,502.0,511.0,499.0,534.0
516.0,505.0,514.0,499.0,534.0
514.0,508.0,517.0,496.0,536.0
516.0,505.0,516.0,500.0,535.0
516.0,509.0,517.0,501.0,533.0
515.0,509.0,518.0,503.0,526.0
515.0,510.0,522.0,517.0,513.0
520.0,515.0,530.0,527.0,502.0
523.0,519.0,530.0,534.0,491.0
522.0,523.0,526.0,538.0,486.0
513.0,518.0,520.0,536.0,487.0
504.0,512.0,515.0,533.0,489.0
507.0,505.0,508.0,528.0,493.0
502.0,500.0,504.0,516.0,507.0
508.0,503.0,502.0,510.0,517.0
507.0,502.0,506.0,506.0,532.0
513.0,507.0,513.0,504.0,527.0
515.0,507.0,515.0,500.0,530.0
517.0,508.0,519.0,500.0,528.0
517.0,506.0,519.0,497.0,526.0
514.0,504.0,520.0,498.0,531.0
517.0,507.0,518.0,502.0,527.0
517.0,506.0,520.0,510.0,521.0
517.0,513.0,524.0,517.0,509.0
521.0,514.0,525.0,527.0,499.0
526.0,520.0,527.0,535.0,484.0
523.0,520.0,522.0,543.0,479.0
515.0,512.0,518.0,540.0,487.0
512.0,507.0,513.0,533.0,494.0
501.0,500.0,498.0,523.0,504.0
497.0,500.0,503.0,519.0,511.0
501.0,499.0,503.0,509.0,522.0
505.0,501.0,508.0,505.0,525.0
512.0,508.0,512.0,503.0,525.0
512.0,507.0,516.0,499.0,529.0
517.0,504.0,516.0,497.0,533.0
517.0,504.0,515.0,496.0,530.0
513.0,504.0,516.0,500.0,527.0
519.0,504.0,521.0,504.0,522.0
522.0,507.0,524.0,513.0,512.0
522.0,510.0,523.0,522.0,500.0
527.0,518.0,527.0,529.0,489.0
526.0,519.0,528.0,539.0,484.0
518.0,516.0,521.0,539.0,485.0
512.0,513.0,517.0,537.0,491.0
507.0,505.0,511.0,528.0,497.0
495.0,499.0,506.0,518.0,508.0
500.0,497.0,501.0,511.0,518.0
506.0,500.0,505.0,511.0,525.0
511.0,504.0,509.0,504.0,529.0
513.0,508.0,513.0,502.0,534.0
519.0,507.0,515.0,499.0,533.0
520.0,505.0,515.0,489.0,532.0
522.0,506.0,516.0,494.0,533.0
520.0,503.0,516.0,499.0,538.0
519.0,500.0,515.0,502.0,531.0
521.0,506.0,520.0,511.0,514.0
524.0,512.0,524.0,521.0,498.0
525.0,517.0,525.0,529.0,486.0
513.0,513.0,521.0,534.0,483.0
499.0,508.0,516.0,534.0,489.0
500.0,503.0,510.0,528.0,494.0
500.0,506.0,509.0,524.0,499.0
496.0,495.0,500.0,515.0,500.0
499.0,494.0,499.0,506.0,510.0
502.0,498.0,507.0,505.0,516.0
512.0,502.0,511.0,502.0,515.0
523.0,505.0,513.0,502.0,514.0
514.0,503.0,515.0,497.0,522.0
513.0,501.0,517.0,493.0,533.0
514.0,506.0,515.0,499.0,536.0
519.0,503.0,518.0,507.0,539.0
518.0,505.0,516.0,511.0,528.0
520.0,510.0,523.0,518.0,507.0
520.0,518.0,525.0,526.0,501.0
521.0,518.0,525.0,535.0,494.0
519.0,518.0,524.0,541.0,492.0
513.0,511.0,516.0,534.0,488.0
507.0,505.0,508.0,532.0,493.0
500.0,503.0,504.0,525.0,504.0
498.0,498.0,503.0,516.0,514.0
503.0,498.0,503.0,510.0,526.0
509.0,502.0,509.0,504.0,534.0
517.0,506.0,512.0,500.0,533.0
515.0,504.0,513.0,497.0,535.0
519.0,506.0,518.0,501.0,535.0
517.0,506.0,518.0,499.0,530.0
515.0,504.0,516.0,498.0,530.0
517.0,503.0,519.0,504.0,527.0
519.0,507.0,518.0,512.0,515.0
520.0,511.0,522.0,520.0,508.0
528.0,512.0,525.0,528.0,497.0
528.0,517.0,525.0,537.0,493.0
526.0,514.0,520.0,541.0,487.0
515.0,510.0,513.0,536.0,490.0
