CH1,CH2,CH3,CH4,CH5
524.0,509.0,534.0,504.0,526.0
518.0,507.0,531.0,505.0,529.0
504.0,500.0,512.0,499.0,531.0
501.0,504.0,503.0,506.0,531.0
497.0,507.0,497.0,513.0,522.0
497.0,511.0,495.0,521.0,514.0
500.0,515.0,494.0,528.0,508.0
501.0,518.0,494.0,529.0,498.0
507.0,518.0,498.0,530.0,495.0
511.0,510.0,500.0,529.0,497.0
510.0,509.0,504.0,522.0,497.0
514.0,507.0,511.0,518.0,498.0
519.0,506.0,518.0,515.0,501.0
526.0,510.0,527.0,512.0,503.0
533.0,505.0,537.0,506.0,505.0
529.0,505.0,538.0,503.0,514.0
528.0,505.0,537.0,503.0,517.0
521.0,506.0,534.0,503.0,523.0
520.0,507.0,530.0,501.0,525.0
502.0,506.0,512.0,501.0,530.0
496.0,509.0,502.0,506.0,531.0
495.0,508.0,493.0,517.0,520.0
498.0,515.0,493.0,523.0,513.0
499.0,512.0,494.0,526.0,506.0
505.0,514.0,496.0,531.0,497.0
509.0,513.0,499.0,530.0,497.0
509.0,509.0,499.0,526.0,494.0
514.0,510.0,508.0,525.0,497.0
517.0,509.0,515.0,519.0,498.0
525.0,508.0,524.0,515.0,502.0
527.0,506.0,529.0,508.0,504.0
531.0,509.0,538.0,506.0,506.0
530.0,509.0,539.0,503.0,514.0
528.0,511.0,537.0,505.0,524.0
522.0,507.0,532.0,501.0,526.0
504.0,500.0,516.0,497.0,532.0
497.0,507.0,507.0,503.0,535.0
499.0,505.0,500.0,510.0,527.0
496.0,507.0,493.0,518.0,520.0
497.0,510.0,492.0,525.0,512.0
497.0,513.0,488.0,526.0,503.0
503.0,515.0,496.0,534.0,504.0
506.0,512.0,499.0,528.0,500.0
510.0,510.0,503.0,525.0,496.0
516.0,507.0,508.0,520.0,499.0
520.0,509.0,519.0,516.0,503.0
524.0,507.0,526.0,514.0,503.0
529.0,510.0,534.0,509.0,505.0
529.0,508.0,538.0,505.0,513.0
529.0,509.0,540.0,506.0,520.0
529.0,507.0,537.0,502.0,524.0
518.0,505.0,528.0,505.0,527.0
503.0,501.0,513.0,501.0,532.0
496.0,502.0,502.0,504.0,530.0
497.0,509.0,497.0,512.0,523.0
499.0,512.0,493.0,519.0,518.0
498.0,514.0,494.0,528.0,515.0
502.0,514.0,495.0,528.0,504.0
506.0,515.0,499.0,529.0,502.0
506.0,509.0,499.0,523.0,501.0
508.0,511.0,504.0,521.0,498.0
516.0,507.0,512.0,519.0,500.0
520.0,507.0,520.0,515.0,501.0
529.0,508.0,530.0,514.0,503.0
529.0,508.0,533.0,507.0,507.0
531.0,507.0,538.0,504.0,514.0
534.0,508.0,542.0,503.0,518.0
522.0,507.0,533.0,502.0,527.0
516.0,505.0,526.0,501.0,535.0
504.0,502.0,510.0,500.0,534.0
498.0,504.0,501.0,506.0,528.0
498.0,507.0,495.0,514.0,520.0
500.0,509.0,493.0,520.0,513.0
501.0,513.0,492.0,522.0,509.0
505.0,510.0,495.0,524.0,504.0
508.0,511.0,499.0,522.0,506.0
507.0,508.0,501.0,520.0,500.0
513.0,507.0,507.0,517.0,500.0
521.0,510.0,515.0,515.0,502.0
524.0,507.0,520.0,510.0,505.0
530.0,510.0,533.0,514.0,508.0
530.0,508.0,537.0,511.0,512.0
530.0,507.0,537.0,504.0,513.0
523.0,506.0,534.0,503.0,522.0
520.0,505.0,530.0,502.0,525.0
506.0,504.0,517.0,497.0,533.0
501.0,502.0,507.0,502.0,532.0
499.0,509.0,501.0,507.0,527.0
499.0,507.0,494.0,512.0,521.0
500.0,510.0,492.0,516.0,512.0
503.0,511.0,494.0,519.0,509.0
504.0,512.0,498.0,521.0,500.0
508.0,512.0,501.0,519.0,501.0
511.0,509.0,504.0,517.0,502.0
512.0,507.0,511.0,511.0,502.0
517.0,506.0,518.0,511.0,502.0
526.0,507.0,528.0,517.0,504.0
529.0,508.0,533.0,512.0,505.0
532.0,507.0,538.0,509.0,511.0
531.0,508.0,540.0,509.0,516.0
521.0,507.0,533.0,505.0,522.0
517.0,505.0,528.0,505.0,524.0
507.0,501.0,514.0,502.0,534.0
498.0,502.0,502.0,502.0,531.0
497.0,505.0,498.0,512.0,530.0
498.0,509.0,494.0,513.0,518.0
501.0,507.0,491.0,516.0,511.0
503.0,515.0,495.0,517.0,504.0
513.0,512.0,500.0,522.0,503.0
509.0,509.0,501.0,516.0,501.0
514.0,506.0,506.0,513.0,499.0
517.0,506.0,512.0,512.0,502.0
524.0,507.0,521.0,511.0,504.0
530.0,508.0,529.0,512.0,506.0
538.0,508.0,535.0,512.0,502.0
532.0,508.0,538.0,512.0,509.0
528.0,509.0,539.0,511.0,517.0
519.0,503.0,530.0,506.0,524.0
515.0,505.0,525.0,507.0,526.0
501.0,499.0,510.0,505.0,533.0
501.0,502.0,503.0,506.0,530.0
495.0,505.0,495.0,508.0,525.0
499.0,509.0,493.0,513.0,517.0
500.0,514.0,493.0,516.0,511.0
501.0,512.0,496.0,520.0,505.0
505.0,512.0,499.0,518.0,506.0
511.0,511.0,502.0,516.0,503.0
512.0,507.0,507.0,512.0,505.0
518.0,506.0,515.0,510.0,504.0
524.0,504.0,522.0,510.0,504.0
531.0,507.0,530.0,510.0,506.0
532.0,505.0,536.0,509.0,507.0
533.0,506.0,537.0,509.0,510.0
525.0,506.0,538.0,509.0,519.0
514.0,505.0,528.0,502.0,528.0
507.0,503.0,518.0,501.0,534.0
499.0,502.0,506.0,502.0,528.0
497.0,505.0,500.0,507.0,525.0
498.0,505.0,495.0,511.0,522.0
496.0,508.0,492.0,514.0,517.0
499.0,509.0,493.0,516.0,507.0
505.0,510.0,499.0,520.0,504.0
506.0,510.0,497.0,514.0,501.0
512.0,509.0,504.0,515.0,500.0
515.0,504.0,509.0,509.0,499.0
520.0,506.0,518.0,512.0,504.0
531.0,507.0,529.0,509.0,501.0
534.0,509.0,534.0,510.0,506.0
536.0,511.0,538.0,509.0,511.0
528.0,507.0,537.0,506.0,519.0
522.0,506.0,534.0,505.0,524.0
521.0,505.0,529.0,506.0,525.0
506.0,502.0,514.0,502.0,529.0
499.0,503.0,503.0,504.0,527.0
499.0,507.0,499.0,513.0,522.0
494.0,511.0,493.0,514.0,517.0
495.0,508.0,492.0,512.0,515.0
502.0,512.0,495.0,520.0,511.0
504.0,510.0,498.0,516.0,504.0
506.0,508.0,499.0,515.0,503.0
508.0,506.0,503.0,510.0,502.0
514.0,507.0,512.0,510.0,504.0
519.0,504.0,517.0,507.0,504.0
525.0,508.0,528.0,510.0,502.0
530.0,509.0,537.0,511.0,505.0
528.0,507.0,537.0,506.0,512.0
529.0,506.0,534.0,504.0,516.0
521.0,506.0,530.0,501.0,517.0
516.0,506.0,526.0,505.0,524.0
503.0,503.0,512.0,503.0,535.0
494.0,505.0,499.0,504.0,529.0
498.0,505.0,495.0,509.0,523.0
499.0,512.0,493.0,514.0,513.0
501.0,508.0,496.0,514.0,508.0
505.0,513.0,498.0,520.0,504.0
509.0,514.0,501.0,519.0,503.0
508.0,507.0,500.0,513.0,501.0
512.0,510.0,505.0,511.0,502.0
517.0,504.0,515.0,510.0,501.0
521.0,505.0,522.0,510.0,504.0
528.0,507.0,531.0,511.0,504.0
528.0,511.0,536.0,510.0,507.0
527.0,506.0,537.0,508.0,513.0
527.0,507.0,536.0,509.0,515.0
519.0,506.0,530.0,506.0,523.0
510.0,501.0,518.0,502.0,531.0
502.0,500.0,507.0,503.0,536.0
499.0,504.0,500.0,510.0,528.0
498.0,506.0,494.0,510.0,522.0
503.0,509.0,494.0,515.0,514.0
500.0,509.0,495.0,516.0,508.0
506.0,510.0,498.0,516.0,505.0
507.0,512.0,499.0,514.0,501.0
509.0,507.0,503.0,512.0,501.0
513.0,503.0,508.0,508.0,501.0
523.0,505.0,518.0,510.0,502.0
527.0,507.0,530.0,511.0,502.0
534.0,512.0,535.0,515.0,505.0
530.0,508.0,538.0,512.0,514.0
530.0,508.0,540.0,518.0,514.0
524.0,506.0,537.0,512.0,520.0
520.0,504.0,530.0,513.0,525.0
505.0,500.0,514.0,505.0,532.0
498.0,501.0,504.0,507.0,529.0
498.0,505.0,499.0,511.0,526.0
496.0,507.0,500.0,510.0,518.0
501.0,509.0,494.0,514.0,509.0
507.0,511.0,496.0,516.0,504.0
507.0,510.0,498.0,512.0,503.0
507.0,507.0,502.0,509.0,504.0
510.0,506.0,504.0,504.0,504.0
510.0,504.0,511.0,503.0,508.0
521.0,504.0,519.0,506.0,506.0
527.0,508.0,529.0,512.0,507.0
532.0,508.0,537.0,516.0,508.0
530.0,506.0,539.0,518.0,514.0
530.0,506.0,539.0,519.0,515.0
523.0,505.0,533.0,522.0,524.0
518.0,505.0,529.0,518.0,528.0
498.0,499.0,515.0,511.0,534.0
496.0,501.0,501.0,509.0,529.0
496.0,506.0,497.0,509.0,525.0
499.0,508.0,494.0,508.0,518.0
499.0,507.0,491.0,505.0,510.0
505.0,512.0,498.0,509.0,509.0
507.0,509.0,499.0,502.0,502.0
514.0,510.0,503.0,502.0,506.0
510.0,505.0,507.0,499.0,502.0
518.0,504.0,515.0,503.0,502.0
521.0,509.0,522.0,507.0,502.0
529.0,507.0,531.0,515.0,503.0
533.0,506.0,539.0,524.0,507.0
532.0,507.0,540.0,525.0,515.0
528.0,506.0,538.0,529.0,516.0
522.0,506.0,532.0,532.0,518.0
511.0,500.0,519.0,519.0,529.0
500.0,498.0,507.0,516.0,532.0
499.0,504.0,501.0,514.0,527.0
496.0,506.0,495.0,508.0,521.0
499.0,513.0,493.0,505.0,515.0
499.0,508.0,494.0,501.0,514.0
505.0,511.0,498.0,499.0,505.0
505.0,507.0,502.0,496.0,504.0
507.0,506.0,503.0,491.0,499.0
511.0,507.0,511.0,493.0,502.0
520.0,505.0,518.0,499.0,499.0
525.0,506.0,527.0,506.0,501.0
527.0,508.0,535.0,518.0,505.0
528.0,505.0,538.0,528.0,508.0
529.0,505.0,540.0,540.0,513.0
523.0,505.0,538.0,540.0,521.0
515.0,506.0,531.0,539.0,524.0
504.0,502.0,515.0,531.0,529.0
501.0,501.0,504.0,523.0,528.0
498.0,503.0,498.0,515.0,521.0
499.0,508.0,495.0,508.0,513.0
500.0,510.0,495.0,501.0,509.0
501.0,509.0,495.0,495.0,506.0
506.0,511.0,502.0,495.0,505.0
502.0,508.0,502.0,489.0,505.0
509.0,507.0,506.0,491.0,501.0
516.0,505.0,513.0,491.0,501.0
522.0,505.0,520.0,499.0,506.0
527.0,506.0,529.0,511.0,505.0
531.0,508.0,543.0,523.0,505.0
532.0,506.0,541.0,535.0,513.0
528.0,506.0,538.0,538.0,514.0
521.0,505.0,533.0,539.0,520.0
521.0,504.0,531.0,539.0,525.0
504.0,498.0,510.0,529.0,528.0
495.0,501.0,503.0,522.0,529.0
498.0,506.0,497.0,514.0,525.0
499.0,508.0,494.0,510.0,520.0
497.0,506.0,491.0,499.0,512.0
502.0,510.0,500.0,494.0,506.0
507.0,510.0,500.0,490.0,505.0
506.0,507.0,502.0,485.0,506.0
511.0,506.0,508.0,488.0,504.0
518.0,505.0,515.0,494.0,506.0
522.0,505.0,522.0,502.0,505.0
529.0,508.0,533.0,514.0,504.0
533.0,508.0,539.0,527.0,505.0
530.0,505.0,541.0,532.0,509.0
521.0,505.0,536.0,538.0,521.0
519.0,505.0,533.0,540.0,522.0
512.0,501.0,521.0,534.0,533.0
500.0,503.0,507.0,525.0,538.0
500.0,501.0,499.0,517.0,527.0
497.0,505.0,496.0,510.0,523.0
499.0,508.0,498.0,506.0,517.0
501.0,508.0,494.0,497.0,511.0
507.0,514.0,497.0,495.0,505.0
509.0,508.0,499.0,490.0,499.0
509.0,507.0,504.0,488.0,498.0
517.0,506.0,510.0,491.0,500.0
519.0,503.0,518.0,498.0,501.0
525.0,505.0,526.0,504.0,500.0
529.0,507.0,534.0,517.0,508.0
531.0,505.0,537.0,526.0,510.0
528.0,506.0,541.0,536.0,516.0
522.0,505.0,535.0,537.0,521.0
522.0,505.0,529.0,537.0,524.0
505.0,499.0,515.0,529.0,534.0
496.0,501.0,505.0,522.0,531.0
495.0,507.0,500.0,516.0,526.0
499.0,505.0,494.0,514.0,522.0
500.0,508.0,494.0,502.0,513.0
503.0,509.0,495.0,497.0,510.0
505.0,510.0,499.0,494.0,503.0
507.0,506.0,501.0,490.0,502.0
511.0,508.0,504.0,488.0,502.0
514.0,504.0,511.0,491.0,502.0
521.0,504.0,520.0,500.0,503.0
527.0,506.0,535.0,510.0,499.0
529.0,506.0,537.0,524.0,504.0
531.0,506.0,544.0,528.0,509.0
530.0,505.0,537.0,535.0,512.0
524.0,510.0,534.0,539.0,524.0
519.0,507.0,531.0,540.0,523.0
507.0,502.0,514.0,532.0,532.0
499.0,502.0,503.0,521.0,534.0
498.0,509.0,495.0,513.0,527.0
499.0,508.0,493.0,506.0,518.0
500.0,510.0,495.0,501.0,514.0
502.0,514.0,494.0,495.0,504.0
510.0,512.0,501.0,494.0,504.0
509.0,507.0,500.0,488.0,500.0
513.0,507.0,507.0,488.0,505.0
518.0,504.0,512.0,493.0,501.0
521.0,508.0,521.0,503.0,503.0
531.0,506.0,530.0,515.0,505.0
531.0,507.0,540.0,524.0,507.0
531.0,507.0,542.0,531.0,512.0
525.0,506.0,538.0,538.0,517.0
518.0,506.0,532.0,538.0,520.0
510.0,500.0,523.0,534.0,528.0
497.0,501.0,508.0,523.0,535.0
495.0,502.0,500.0,517.0,530.0
497.0,507.0,496.0,512.0,524.0
499.0,507.0,492.0,503.0,514.0
502.0,509.0,493.0,502.0,511.0
504.0,510.0,496.0,495.0,501.0
509.0,509.0,504.0,492.0,499.0
513.0,508.0,504.0,488.0,501.0
512.0,505.0,507.0,488.0,501.0
519.0,506.0,518.0,496.0,504.0
522.0,505.0,524.0,505.0,503.0
528.0,506.0,532.0,516.0,505.0
531.0,506.0,539.0,527.0,508.0
528.0,507.0,540.0,535.0,514.0
524.0,506.0,536.0,538.0,521.0
519.0,506.0,531.0,539.0,523.0
508.0,499.0,515.0,531.0,531.0
502.0,502.0,504.0,526.0,532.0
494.0,507.0,497.0,518.0,524.0
496.0,508.0,494.0,508.0,523.0
516.0,508.0,506.0,491.0,506.0
521.0,507.0,519.0,495.0,504.0
522.0,508.0,520.0,503.0,505.0
528.0,506.0,530.0,513.0,507.0
535.0,505.0,538.0,523.0,508.0
534.0,503.0,539.0,531.0,505.0
526.0,499.0,533.0,533.0,509.0
519.0,499.0,533.0,535.0,517.0
513.0,499.0,520.0,533.0,526.0
508.0,503.0,507.0,528.0,530.0
500.0,504.0,502.0,528.0,528.0
500.0,510.0,497.0,518.0,528.0
501.0,513.0,495.0,512.0,520.0
502.0,514.0,494.0,505.0,513.0
509.0,515.0,499.0,504.0,508.0
504.0,509.0,496.0,493.0,508.0
511.0,510.0,502.0,492.0,506.0
518.0,506.0,507.0,494.0,507.0
521.0,506.0,515.0,498.0,503.0
524.0,504.0,524.0,505.0,500.0
529.0,505.0,529.0,516.0,499.0
528.0,502.0,536.0,523.0,502.0
530.0,503.0,541.0,532.0,509.0
522.0,499.0,532.0,534.0,515.0
518.0,500.0,529.0,535.0,517.0
505.0,497.0,514.0,533.0,528.0
498.0,501.0,505.0,526.0,528.0
497.0,506.0,499.0,520.0,528.0
496.0,511.0,495.0,515.0,521.0
502.0,515.0,495.0,510.0,519.0
506.0,514.0,495.0,505.0,507.0
506.0,513.0,497.0,498.0,506.0
507.0,510.0,501.0,496.0,509.0
511.0,509.0,503.0,491.0,506.0
511.0,505.0,507.0,495.0,509.0
517.0,505.0,518.0,499.0,505.0
523.0,505.0,529.0,509.0,498.0
530.0,508.0,536.0,522.0,498.0
527.0,503.0,539.0,528.0,503.0
532.0,502.0,537.0,533.0,505.0
519.0,498.0,529.0,532.0,518.0
512.0,497.0,525.0,534.0,527.0
503.0,499.0,511.0,528.0,534.0
508.0,504.0,503.0,524.0,532.0
504.0,510.0,498.0,521.0,526.0
502.0,512.0,496.0,515.0,515.0
503.0,514.0,492.0,508.0,511.0
509.0,517.0,499.0,505.0,509.0
505.0,516.0,496.0,495.0,506.0
505.0,508.0,501.0,493.0,505.0
509.0,506.0,505.0,491.0,507.0
514.0,508.0,515.0,497.0,504.0
519.0,503.0,520.0,501.0,503.0
523.0,503.0,528.0,512.0,503.0
525.0,502.0,537.0,522.0,504.0
524.0,503.0,540.0,532.0,508.0
522.0,501.0,534.0,533.0,515.0
519.0,498.0,526.0,533.0,520.0
508.0,498.0,521.0,532.0,526.0
501.0,499.0,509.0,528.0,529.0
506.0,502.0,501.0,522.0,527.0
501.0,510.0,496.0,518.0,522.0
500.0,515.0,496.0,513.0,518.0
500.0,517.0,494.0,506.0,512.0
509.0,514.0,498.0,501.0,504.0
507.0,511.0,496.0,491.0,512.0
511.0,511.0,503.0,493.0,507.0
510.0,506.0,506.0,490.0,505.0
527.0,506.0,516.0,498.0,505.0
529.0,505.0,523.0,505.0,505.0
529.0,503.0,530.0,514.0,498.0
529.0,502.0,535.0,522.0,503.0
529.0,504.0,539.0,532.0,504.0
527.0,500.0,532.0,532.0,506.0
521.0,499.0,532.0,534.0,515.0
508.0,497.0,516.0,534.0,524.0
498.0,500.0,504.0,525.0,525.0
492.0,505.0,499.0,520.0,529.0
497.0,514.0,495.0,515.0,527.0
503.0,515.0,495.0,510.0,523.0
503.0,516.0,500.0,503.0,520.0
505.0,516.0,495.0,497.0,512.0
510.0,510.0,497.0,491.0,507.0
522.0,510.0,505.0,493.0,497.0
518.0,506.0,510.0,498.0,494.0
519.0,509.0,518.0,498.0,498.0
523.0,504.0,526.0,507.0,500.0
524.0,503.0,534.0,518.0,501.0
531.0,505.0,538.0,527.0,506.0
521.0,505.0,537.0,534.0,509.0
514.0,498.0,530.0,531.0,517.0
511.0,499.0,525.0,537.0,514.0
501.0,497.0,509.0,528.0,525.0
496.0,501.0,501.0,525.0,529.0
504.0,508.0,499.0,519.0,524.0
507.0,514.0,496.0,515.0,518.0
505.0,513.0,494.0,507.0,515.0
507.0,515.0,498.0,504.0,508.0
505.0,512.0,497.0,496.0,508.0
508.0,511.0,502.0,495.0,506.0
508.0,506.0,503.0,489.0,502.0
517.0,506.0,513.0,500.0,506.0
521.0,504.0,520.0,501.0,505.0
526.0,505.0,526.0,510.0,504.0
530.0,503.0,538.0,520.0,504.0
529.0,503.0,537.0,528.0,510.0
529.0,501.0,534.0,532.0,509.0
518.0,497.0,526.0,531.0,517.0
512.0,497.0,520.0,531.0,523.0
502.0,498.0,508.0,527.0,525.0
503.0,506.0,501.0,524.0,522.0
497.0,510.0,497.0,521.0,521.0
497.0,511.0,493.0,510.0,516.0
498.0,513.0,494.0,505.0,520.0
505.0,516.0,498.0,502.0,516.0
505.0,511.0,498.0,494.0,515.0
516.0,511.0,501.0,492.0,517.0
516.0,505.0,504.0,488.0,508.0
520.0,506.0,516.0,496.0,498.0
523.0,510.0,522.0,504.0,503.0
527.0,506.0,531.0,514.0,501.0
530.0,504.0,538.0,524.0,502.0
526.0,504.0,538.0,529.0,505.0
521.0,501.0,531.0,531.0,514.0
520.0,500.0,527.0,533.0,520.0
511.0,496.0,515.0,529.0,530.0
505.0,500.0,505.0,525.0,530.0
502.0,505.0,499.0,520.0,529.0
500.0,511.0,496.0,516.0,526.0
497.0,514.0,495.0,510.0,519.0
500.0,515.0,497.0,506.0,508.0
502.0,515.0,500.0,504.0,505.0
500.0,507.0,496.0,491.0,510.0
509.0,509.0,503.0,492.0,509.0
512.0,506.0,509.0,493.0,507.0
517.0,503.0,517.0,499.0,506.0
525.0,504.0,527.0,508.0,504.0
532.0,505.0,535.0,519.0,505.0
532.0,503.0,538.0,526.0,506.0
529.0,503.0,538.0,533.0,506.0
520.0,499.0,531.0,533.0,518.0
516.0,501.0,527.0,536.0,525.0
503.0,498.0,513.0,529.0,530.0
497.0,502.0,503.0,523.0,533.0
497.0,507.0,498.0,520.0,528.0
499.0,512.0,497.0,515.0,524.0
496.0,511.0,494.0,507.0,523.0
497.0,512.0,497.0,502.0,518.0
498.0,514.0,495.0,495.0,512.0
511.0,509.0,503.0,491.0,504.0
519.0,506.0,504.0,490.0,499.0
517.0,511.0,510.0,493.0,500.0
523.0,504.0,522.0,501.0,497.0
529.0,503.0,528.0,510.0,496.0
533.0,507.0,534.0,522.0,501.0
534.0,503.0,539.0,529.0,507.0
528.0,501.0,536.0,533.0,512.0
517.0,497.0,529.0,530.0,517.0
513.0,497.0,522.0,531.0,522.0
500.0,497.0,509.0,526.0,525.0
495.0,504.0,501.0,523.0,522.0
497.0,508.0,497.0,518.0,520.0
500.0,513.0,496.0,514.0,516.0
505.0,512.0,493.0,505.0,511.0
512.0,515.0,498.0,502.0,506.0
510.0,512.0,498.0,495.0,509.0
510.0,510.0,501.0,492.0,507.0
511.0,506.0,506.0,490.0,508.0
528.0,505.0,517.0,500.0,506.0
531.0,508.0,523.0,505.0,504.0
532.0,505.0,534.0,515.0,504.0
533.0,504.0,539.0,526.0,504.0
530.0,503.0,538.0,534.0,502.0
524.0,498.0,531.0,533.0,507.0
519.0,499.0,528.0,535.0,510.0
505.0,495.0,515.0,530.0,528.0
500.0,500.0,507.0,527.0,531.0
499.0,507.0,501.0,526.0,526.0
496.0,511.0,497.0,518.0,524.0
497.0,513.0,495.0,510.0,515.0
499.0,515.0,496.0,506.0,506.0
504.0,515.0,502.0,502.0,503.0
502.0,508.0,497.0,492.0,503.0
508.0,509.0,503.0,491.0,511.0
517.0,505.0,507.0,490.0,511.0
523.0,504.0,517.0,498.0,506.0
526.0,505.0,527.0,508.0,502.0
529.0,506.0,534.0,518.0,502.0
531.0,503.0,536.0,526.0,506.0
531.0,503.0,537.0,534.0,511.0
524.0,497.0,528.0,532.0,518.0
523.0,503.0,525.0,537.0,531.0
512.0,501.0,511.0,529.0,532.0
504.0,500.0,502.0,523.0,537.0
501.0,506.0,496.0,517.0,532.0
504.0,513.0,496.0,515.0,527.0
509.0,514.0,496.0,506.0,523.0
505.0,515.0,497.0,506.0,518.0
500.0,512.0,496.0,496.0,508.0
500.0,511.0,500.0,494.0,503.0
507.0,507.0,504.0,491.0,496.0
514.0,506.0,513.0,497.0,500.0
517.0,504.0,519.0,500.0,503.0
521.0,508.0,527.0,510.0,503.0
525.0,504.0,536.0,521.0,501.0
520.0,502.0,537.0,529.0,505.0
524.0,500.0,533.0,531.0,507.0
516.0,499.0,525.0,530.0,508.0
519.0,499.0,523.0,535.0,521.0
508.0,498.0,508.0,527.0,529.0
500.0,503.0,500.0,521.0,529.0
499.0,508.0,496.0,518.0,525.0
499.0,512.0,495.0,513.0,518.0
506.0,514.0,495.0,507.0,514.0
508.0,513.0,498.0,503.0,504.0
507.0,511.0,497.0,495.0,510.0
506.0,509.0,501.0,493.0,509.0
505.0,505.0,505.0,491.0,509.0
509.0,503.0,516.0,495.0,511.0
524.0,502.0,520.0,502.0,506.0
528.0,501.0,527.0,512.0,504.0
530.0,501.0,535.0,522.0,505.0
540.0,503.0,542.0,531.0,505.0
536.0,504.0,532.0,534.0,509.0
521.0,499.0,528.0,535.0,517.0
508.0,496.0,516.0,531.0,527.0
501.0,499.0,506.0,527.0,530.0
502.0,505.0,499.0,522.0,528.0
499.0,510.0,497.0,518.0,523.0
502.0,514.0,496.0,512.0,521.0
500.0,513.0,495.0,505.0,514.0
506.0,515.0,499.0,501.0,508.0
507.0,508.0,497.0,493.0,508.0
511.0,509.0,503.0,495.0,509.0
516.0,504.0,510.0,490.0,503.0
519.0,503.0,517.0,499.0,503.0
530.0,507.0,526.0,508.0,500.0
535.0,506.0,535.0,518.0,498.0
534.0,503.0,537.0,529.0,506.0
531.0,503.0,537.0,533.0,505.0
526.0,498.0,529.0,529.0,514.0
517.0,499.0,525.0,539.0,519.0
503.0,498.0,513.0,527.0,531.0
495.0,501.0,503.0,524.0,533.0
495.0,508.0,499.0,520.0,529.0
497.0,515.0,496.0,514.0,519.0
499.0,512.0,493.0,507.0,513.0
504.0,516.0,498.0,505.0,514.0
504.0,516.0,496.0,498.0,518.0
508.0,513.0,499.0,493.0,518.0
512.0,508.0,503.0,490.0,509.0
516.0,507.0,511.0,494.0,508.0
521.0,506.0,520.0,501.0,501.0
523.0,504.0,527.0,511.0,500.0
527.0,503.0,536.0,521.0,500.0
527.0,504.0,538.0,531.0,506.0
522.0,502.0,537.0,533.0,513.0
511.0,499.0,528.0,531.0,522.0
528.0,501.0,525.0,533.0,518.0
511.0,500.0,510.0,529.0,529.0
502.0,503.0,501.0,524.0,529.0
501.0,508.0,498.0,519.0,525.0
507.0,511.0,495.0,512.0,513.0
506.0,513.0,494.0,507.0,513.0
512.0,516.0,499.0,502.0,507.0
508.0,510.0,496.0,494.0,510.0
514.0,512.0,502.0,494.0,506.0
513.0,505.0,504.0,491.0,504.0
518.0,504.0,514.0,495.0,505.0
521.0,505.0,522.0,505.0,502.0
526.0,503.0,529.0,513.0,502.0
533.0,503.0,536.0,523.0,502.0
533.0,502.0,539.0,532.0,505.0
526.0,501.0,533.0,534.0,512.0
519.0,498.0,527.0,535.0,520.0
507.0,496.0,517.0,531.0,532.0
497.0,498.0,506.0,526.0,539.0
498.0,506.0,502.0,524.0,527.0
500.0,512.0,497.0,520.0,523.0
501.0,512.0,493.0,511.0,517.0
502.0,515.0,501.0,507.0,514.0
506.0,513.0,497.0,499.0,509.0
507.0,508.0,497.0,493.0,511.0
516.0,509.0,503.0,496.0,503.0
512.0,505.0,507.0,493.0,500.0
517.0,503.0,516.0,499.0,503.0
520.0,503.0,523.0,505.0,497.0
528.0,504.0,533.0,517.0,497.0
529.0,502.0,537.0,525.0,502.0
527.0,502.0,536.0,533.0,504.0
518.0,497.0,528.0,532.0,515.0
512.0,497.0,525.0,534.0,529.0
499.0,497.0,511.0,529.0,534.0
493.0,499.0,507.0,524.0,532.0
493.0,505.0,497.0,520.0,526.0
501.0,511.0,501.0,515.0,519.0
497.0,516.0,493.0,508.0,520.0
508.0,515.0,496.0,504.0,514.0
513.0,514.0,497.0,498.0,510.0
511.0,509.0,498.0,493.0,510.0
513.0,509.0,504.0,491.0,508.0
519.0,508.0,509.0,495.0,504.0
517.0,504.0,515.0,497.0,500.0
526.0,505.0,526.0,509.0,500.0
531.0,510.0,533.0,520.0,504.0
532.0,502.0,537.0,528.0,511.0
528.0,499.0,535.0,535.0,514.0
518.0,497.0,527.0,532.0,521.0
516.0,501.0,525.0,536.0,523.0
509.0,498.0,511.0,530.0,527.0
500.0,502.0,500.0,522.0,523.0
500.0,508.0,498.0,519.0,524.0
500.0,514.0,495.0,516.0,521.0
496.0,513.0,495.0,505.0,518.0
499.0,513.0,496.0,501.0,510.0
501.0,511.0,497.0,494.0,512.0
505.0,513.0,502.0,491.0,510.0
509.0,510.0,505.0,490.0,509.0
529.0,504.0,513.0,493.0,503.0
529.0,505.0,521.0,503.0,503.0
531.0,504.0,529.0,512.0,501.0
537.0,501.0,534.0,521.0,496.0
532.0,501.0,538.0,531.0,501.0
524.0,500.0,534.0,534.0,511.0
515.0,498.0,528.0,535.0,517.0
509.0,496.0,516.0,530.0,523.0
505.0,497.0,505.0,525.0,526.0
502.0,503.0,502.0,524.0,522.0
499.0,510.0,497.0,518.0,523.0
506.0,514.0,496.0,516.0,519.0
505.0,513.0,495.0,505.0,512.0
509.0,515.0,499.0,502.0,507.0
502.0,508.0,495.0,492.0,507.0
514.0,510.0,504.0,491.0,505.0
516.0,505.0,508.0,492.0,503.0
518.0,504.0,514.0,496.0,503.0
521.0,506.0,525.0,505.0,506.0
529.0,506.0,533.0,517.0,505.0
535.0,504.0,538.0,526.0,505.0
534.0,503.0,538.0,533.0,506.0
521.0,498.0,530.0,531.0,515.0
518.0,499.0,526.0,536.0,514.0
506.0,496.0,514.0,531.0,523.0
502.0,501.0,503.0,524.0,526.0
507.0,507.0,499.0,521.0,525.0
504.0,512.0,496.0,520.0,523.0
494.0,513.0,494.0,513.0,524.0
489.0,514.0,500.0,505.0,526.0
495.0,515.0,496.0,498.0,520.0
494.0,509.0,499.0,493.0,509.0
496.0,508.0,504.0,490.0,507.0
501.0,505.0,513.0,492.0,503.0
546.0,507.0,517.0,499.0,496.0
546.0,505.0,529.0,506.0,492.0
540.0,505.0,533.0,518.0,496.0
536.0,504.0,539.0,528.0,506.0
531.0,503.0,538.0,535.0,504.0
521.0,499.0,527.0,537.0,510.0
518.0,500.0,525.0,536.0,516.0
505.0,499.0,511.0,529.0,529.0
502.0,503.0,502.0,525.0,530.0
500.0,512.0,496.0,520.0,531.0
503.0,513.0,495.0,517.0,524.0
503.0,513.0,493.0,507.0,518.0
508.0,516.0,498.0,504.0,499.0
509.0,514.0,498.0,498.0,506.0
511.0,510.0,500.0,495.0,503.0
512.0,507.0,505.0,491.0,504.0
518.0,505.0,514.0,495.0,506.0
523.0,504.0,520.0,501.0,503.0
526.0,503.0,527.0,511.0,500.0
529.0,508.0,534.0,523.0,506.0
529.0,505.0,539.0,532.0,506.0
522.0,501.0,534.0,533.0,515.0
514.0,498.0,527.0,533.0,519.0
506.0,496.0,517.0,531.0,528.0
501.0,503.0,506.0,526.0,531.0
505.0,504.0,500.0,523.0,527.0
500.0,509.0,495.0,516.0,524.0
504.0,514.0,496.0,513.0,514.0
505.0,514.0,495.0,506.0,508.0
504.0,515.0,498.0,501.0,504.0
503.0,513.0,497.0,494.0,503.0
507.0,511.0,503.0,494.0,499.0
510.0,506.0,506.0,492.0,504.0
518.0,505.0,516.0,496.0,508.0
523.0,505.0,524.0,506.0,509.0
529.0,506.0,532.0,516.0,507.0
530.0,503.0,536.0,524.0,505.0
529.0,503.0,537.0,532.0,504.0
520.0,498.0,529.0,531.0,511.0
520.0,500.0,532.0,535.0,517.0
504.0,497.0,516.0,531.0,529.0
500.0,503.0,506.0,526.0,530.0
497.0,505.0,499.0,524.0,525.0
499.0,511.0,496.0,516.0,521.0
500.0,513.0,494.0,510.0,516.0
503.0,515.0,496.0,505.0,508.0
509.0,517.0,497.0,500.0,506.0
504.0,508.0,497.0,492.0,506.0
508.0,509.0,504.0,491.0,503.0
512.0,505.0,511.0,493.0,509.0
517.0,504.0,518.0,499.0,513.0
523.0,507.0,525.0,507.0,501.0
527.0,502.0,533.0,518.0,501.0
528.0,506.0,536.0,528.0,507.0
527.0,504.0,538.0,534.0,510.0
519.0,498.0,530.0,533.0,519.0
515.0,501.0,526.0,536.0,520.0
502.0,499.0,508.0,528.0,528.0
496.0,502.0,502.0,522.0,529.0
496.0,507.0,498.0,520.0,525.0
498.0,512.0,496.0,514.0,520.0
502.0,514.0,495.0,508.0,518.0
509.0,514.0,496.0,502.0,511.0
508.0,512.0,497.0,495.0,509.0
513.0,511.0,502.0,490.0,509.0
513.0,507.0,506.0,496.0,512.0
516.0,505.0,512.0,494.0,508.0
524.0,505.0,521.0,503.0,502.0
528.0,505.0,530.0,513.0,502.0
529.0,504.0,537.0,526.0,501.0
528.0,503.0,539.0,531.0,503.0
520.0,500.0,535.0,531.0,511.0
512.0,499.0,528.0,532.0,519.0
506.0,498.0,520.0,531.0,529.0
510.0,499.0,509.0,527.0,532.0
508.0,505.0,502.0,523.0,528.0
505.0,507.0,496.0,516.0,516.0
504.0,513.0,495.0,512.0,514.0
507.0,515.0,495.0,505.0,513.0
510.0,515.0,498.0,501.0,511.0
505.0,508.0,494.0,490.0,514.0
505.0,509.0,502.0,492.0,504.0
511.0,506.0,507.0,492.0,505.0
514.0,507.0,515.0,497.0,506.0
516.0,502.0,522.0,504.0,506.0
525.0,507.0,532.0,515.0,501.0
533.0,504.0,538.0,526.0,505.0
531.0,504.0,539.0,533.0,503.0
521.0,498.0,531.0,532.0,513.0
520.0,501.0,531.0,537.0,520.0
505.0,496.0,515.0,529.0,530.0
500.0,499.0,504.0,524.0,534.0
505.0,507.0,501.0,520.0,529.0
501.0,512.0,497.0,517.0,523.0
507.0,513.0,494.0,510.0,513.0
507.0,514.0,499.0,504.0,502.0
502.0,514.0,498.0,499.0,507.0
501.0,510.0,498.0,494.0,508.0
510.0,511.0,501.0,489.0,504.0
519.0,505.0,507.0,490.0,506.0
522.0,504.0,518.0,498.0,508.0
526.0,505.0,528.0,508.0,506.0
533.0,506.0,535.0,519.0,505.0
534.0,501.0,536.0,526.0,505.0
530.0,502.0,538.0,533.0,507.0
518.0,499.0,530.0,534.0,510.0
511.0,501.0,527.0,536.0,515.0
500.0,500.0,512.0,530.0,527.0
496.0,501.0,503.0,524.0,527.0
496.0,507.0,498.0,520.0,523.0
502.0,513.0,496.0,519.0,519.0
498.0,515.0,495.0,509.0,515.0
500.0,516.0,503.0,504.0,508.0
508.0,514.0,497.0,495.0,509.0
508.0,508.0,501.0,492.0,505.0
510.0,508.0,505.0,491.0,506.0
528.0,507.0,514.0,493.0,501.0
525.0,505.0,523.0,500.0,505.0
530.0,505.0,528.0,513.0,504.0
532.0,509.0,536.0,525.0,504.0
533.0,504.0,540.0,530.0,507.0
528.0,501.0,535.0,533.0,513.0
521.0,498.0,525.0,531.0,517.0
513.0,497.0,519.0,530.0,521.0
502.0,498.0,510.0,526.0,527.0
493.0,503.0,502.0,523.0,531.0
492.0,505.0,500.0,517.0,523.0
490.0,512.0,498.0,513.0,518.0
497.0,515.0,496.0,507.0,513.0
510.0,516.0,505.0,503.0,509.0
501.0,510.0,495.0,492.0,510.0
502.0,509.0,504.0,492.0,509.0
511.0,507.0,515.0,493.0,499.0
513.0,509.0,522.0,497.0,499.0
523.0,509.0,525.0,504.0,499.0
530.0,504.0,537.0,515.0,502.0
541.0,506.0,550.0,526.0,507.0
534.0,503.0,550.0,533.0,509.0
526.0,499.0,522.0,531.0,520.0
524.0,499.0,513.0,534.0,519.0
511.0,496.0,508.0,530.0,534.0
503.0,500.0,504.0,527.0,535.0
498.0,503.0,496.0,522.0,525.0
501.0,509.0,495.0,515.0,524.0
499.0,514.0,503.0,514.0,520.0
502.0,515.0,506.0,509.0,518.0
506.0,514.0,505.0,500.0,506.0
502.0,509.0,504.0,494.0,509.0
500.0,509.0,504.0,494.0,513.0
501.0,510.0,499.0,488.0,500.0
496.0,502.0,506.0,500.0,501.0
497.0,503.0,526.0,509.0,502.0
510.0,505.0,533.0,514.0,498.0
505.0,502.0,528.0,526.0,508.0
516.0,501.0,529.0,535.0,520.0
520.0,500.0,526.0,533.0,530.0
523.0,502.0,524.0,537.0,520.0
521.0,500.0,516.0,531.0,525.0
517.0,505.0,513.0,527.0,522.0
514.0,511.0,511.0,522.0,512.0
505.0,514.0,512.0,518.0,503.0
499.0,513.0,500.0,510.0,505.0
507.0,515.0,483.0,504.0,507.0
501.0,512.0,483.0,496.0,511.0
504.0,511.0,490.0,494.0,508.0
525.0,512.0,501.0,489.0,507.0
530.0,510.0,507.0,495.0,502.0
529.0,502.0,513.0,500.0,501.0
533.0,504.0,524.0,510.0,499.0
533.0,507.0,532.0,520.0,497.0
536.0,504.0,536.0,533.0,498.0
532.0,504.0,534.0,535.0,509.0
520.0,500.0,526.0,533.0,520.0
512.0,499.0,519.0,533.0,527.0
506.0,500.0,506.0,527.0,530.0
503.0,504.0,498.0,523.0,528.0
503.0,509.0,494.0,519.0,522.0
501.0,510.0,489.0,512.0,510.0
500.0,511.0,489.0,508.0,515.0
498.0,513.0,498.0,505.0,521.0
498.0,509.0,493.0,496.0,519.0
496.0,509.0,501.0,487.0,512.0
497.0,505.0,503.0,489.0,511.0
533.0,508.0,515.0,497.0,506.0
533.0,507.0,522.0,505.0,512.0
535.0,506.0,530.0,515.0,511.0
538.0,505.0,537.0,525.0,504.0
535.0,503.0,537.0,533.0,504.0
531.0,502.0,536.0,535.0,514.0
519.0,502.0,529.0,538.0,519.0
502.0,495.0,514.0,530.0,527.0
502.0,499.0,505.0,526.0,523.0
497.0,504.0,497.0,522.0,519.0
499.0,510.0,493.0,519.0,515.0
499.0,514.0,493.0,512.0,510.0
503.0,515.0,496.0,507.0,508.0
505.0,514.0,492.0,501.0,502.0
505.0,510.0,496.0,495.0,509.0
511.0,509.0,501.0,495.0,508.0
510.0,505.0,506.0,493.0,503.0
520.0,504.0,517.0,498.0,505.0
521.0,503.0,521.0,507.0,501.0
520.0,503.0,530.0,517.0,500.0
524.0,499.0,533.0,526.0,506.0
523.0,502.0,534.0,533.0,512.0
516.0,501.0,529.0,534.0,522.0
510.0,502.0,528.0,537.0,525.0
500.0,501.0,512.0,532.0,533.0
513.0,502.0,501.0,527.0,524.0
504.0,508.0,496.0,522.0,514.0
502.0,513.0,494.0,518.0,513.0
503.0,515.0,493.0,511.0,514.0
507.0,515.0,494.0,506.0,509.0
512.0,514.0,495.0,503.0,510.0
508.0,514.0,502.0,493.0,507.0
512.0,507.0,501.0,492.0,503.0
517.0,506.0,509.0,496.0,501.0
524.0,504.0,515.0,505.0,502.0
527.0,503.0,523.0,511.0,499.0
536.0,504.0,534.0,521.0,499.0
534.0,504.0,535.0,532.0,503.0
528.0,502.0,533.0,535.0,508.0
517.0,496.0,524.0,534.0,516.0
508.0,496.0,518.0,536.0,523.0
494.0,496.0,507.0,529.0,526.0
489.0,502.0,497.0,528.0,526.0
488.0,506.0,492.0,521.0,522.0
490.0,510.0,490.0,513.0,519.0
491.0,511.0,489.0,506.0,518.0
497.0,516.0,495.0,503.0,514.0
514.0,513.0,495.0,495.0,510.0
518.0,515.0,498.0,495.0,506.0
527.0,508.0,504.0,499.0,492.0
530.0,506.0,512.0,499.0,489.0
524.0,508.0,516.0,503.0,493.0
520.0,503.0,526.0,514.0,501.0
515.0,501.0,533.0,524.0,519.0
513.0,502.0,534.0,533.0,525.0
510.0,500.0,529.0,533.0,526.0
512.0,500.0,528.0,535.0,529.0
502.0,498.0,518.0,532.0,530.0
516.0,501.0,503.0,531.0,527.0
509.0,505.0,497.0,524.0,521.0
505.0,511.0,494.0,520.0,518.0
508.0,518.0,493.0,515.0,518.0
510.0,514.0,492.0,507.0,514.0
511.0,514.0,494.0,500.0,503.0
510.0,509.0,492.0,497.0,515.0
511.0,508.0,496.0,492.0,507.0
520.0,505.0,503.0,488.0,508.0
524.0,505.0,513.0,496.0,517.0
526.0,503.0,522.0,508.0,506.0
528.0,503.0,529.0,517.0,496.0
524.0,501.0,533.0,529.0,508.0
526.0,501.0,534.0,545.0,502.0
521.0,497.0,524.0,532.0,510.0
516.0,500.0,523.0,533.0,516.0
506.0,498.0,509.0,530.0,526.0
500.0,502.0,501.0,527.0,531.0
495.0,510.0,495.0,522.0,534.0
496.0,511.0,492.0,516.0,523.0
503.0,514.0,491.0,510.0,523.0
516.0,519.0,496.0,508.0,519.0
511.0,513.0,493.0,497.0,516.0
507.0,508.0,494.0,494.0,509.0
508.0,506.0,498.0,495.0,504.0
510.0,506.0,506.0,495.0,512.0
520.0,505.0,514.0,498.0,496.0
527.0,507.0,528.0,511.0,491.0
528.0,505.0,533.0,522.0,497.0
524.0,501.0,533.0,532.0,500.0
521.0,501.0,532.0,534.0,504.0
516.0,498.0,528.0,534.0,507.0
514.0,501.0,519.0,537.0,524.0
504.0,495.0,509.0,531.0,529.0
505.0,505.0,501.0,526.0,529.0
501.0,510.0,496.0,519.0,527.0
504.0,514.0,494.0,516.0,516.0
498.0,517.0,487.0,506.0,509.0
506.0,516.0,494.0,503.0,508.0
505.0,512.0,501.0,498.0,512.0
506.0,509.0,502.0,492.0,508.0
511.0,508.0,510.0,493.0,505.0
512.0,505.0,513.0,496.0,500.0
513.0,502.0,512.0,504.0,502.0
513.0,503.0,520.0,515.0,495.0
520.0,502.0,533.0,524.0,506.0
521.0,502.0,536.0,532.0,510.0
515.0,500.0,531.0,533.0,520.0
508.0,497.0,524.0,534.0,516.0
516.0,495.0,509.0,533.0,509.0
507.0,499.0,504.0,534.0,515.0
490.0,502.0,497.0,524.0,522.0
484.0,506.0,488.0,516.0,517.0
484.0,509.0,492.0,509.0,514.0
499.0,514.0,493.0,509.0,502.0
512.0,518.0,498.0,507.0,505.0
512.0,510.0,496.0,494.0,507.0
516.0,513.0,504.0,496.0,506.0
515.0,508.0,505.0,491.0,513.0
528.0,506.0,515.0,498.0,515.0
531.0,505.0,527.0,506.0,512.0
527.0,505.0,536.0,518.0,506.0
530.0,502.0,537.0,526.0,509.0
538.0,501.0,537.0,534.0,515.0
523.0,499.0,526.0,533.0,510.0
515.0,499.0,523.0,537.0,515.0
511.0,499.0,509.0,531.0,520.0
510.0,502.0,501.0,526.0,524.0
502.0,507.0,496.0,521.0,537.0
511.0,514.0,497.0,518.0,524.0
511.0,513.0,492.0,507.0,511.0
517.0,515.0,495.0,502.0,529.0
521.0,515.0,496.0,502.0,499.0
510.0,513.0,498.0,493.0,492.0
515.0,506.0,501.0,490.0,503.0
514.0,505.0,509.0,494.0,507.0
515.0,501.0,516.0,498.0,507.0
534.0,505.0,527.0,511.0,507.0
542.0,505.0,535.0,521.0,506.0
543.0,503.0,537.0,530.0,506.0
528.0,504.0,535.0,534.0,513.0
513.0,497.0,525.0,530.0,517.0
497.0,495.0,522.0,533.0,524.0
485.0,499.0,509.0,528.0,529.0
498.0,505.0,502.0,524.0,537.0
513.0,509.0,498.0,520.0,530.0
513.0,514.0,501.0,513.0,524.0
508.0,513.0,496.0,505.0,522.0
518.0,516.0,505.0,503.0,514.0
504.0,511.0,502.0,497.0,503.0
510.0,508.0,503.0,491.0,498.0
514.0,507.0,500.0,491.0,506.0
518.0,504.0,506.0,500.0,513.0
518.0,502.0,518.0,507.0,501.0
525.0,503.0,526.0,506.0,499.0
534.0,504.0,532.0,520.0,496.0
534.0,503.0,537.0,532.0,501.0
536.0,502.0,535.0,535.0,504.0
519.0,498.0,527.0,535.0,514.0
509.0,496.0,517.0,532.0,526.0
497.0,497.0,507.0,531.0,532.0
484.0,501.0,499.0,524.0,532.0
477.0,505.0,496.0,519.0,525.0
477.0,508.0,491.0,511.0,523.0
482.0,510.0,492.0,502.0,515.0
490.0,512.0,496.0,496.0,514.0
480.0,505.0,496.0,493.0,518.0
511.0,508.0,500.0,487.0,511.0
524.0,506.0,504.0,489.0,508.0
514.0,505.0,514.0,497.0,511.0
529.0,507.0,525.0,508.0,509.0
532.0,510.0,538.0,519.0,525.0
523.0,505.0,538.0,528.0,538.0
535.0,510.0,542.0,537.0,539.0
533.0,507.0,536.0,533.0,545.0
535.0,504.0,530.0,533.0,519.0
511.0,494.0,509.0,525.0,520.0
512.0,500.0,501.0,521.0,517.0
493.0,500.0,496.0,519.0,528.0
506.0,511.0,492.0,514.0,506.0
515.0,515.0,494.0,510.0,511.0
502.0,513.0,494.0,507.0,511.0
492.0,509.0,494.0,505.0,496.0
484.0,505.0,492.0,489.0,516.0
512.0,511.0,502.0,494.0,490.0
515.0,505.0,516.0,493.0,486.0
521.0,505.0,518.0,501.0,491.0
538.0,504.0,528.0,511.0,496.0
555.0,509.0,533.0,519.0,497.0
548.0,502.0,536.0,525.0,518.0
543.0,504.0,538.0,536.0,512.0
527.0,500.0,526.0,534.0,526.0
521.0,501.0,525.0,537.0,530.0
496.0,500.0,513.0,532.0,530.0
492.0,503.0,502.0,528.0,527.0
488.0,509.0,496.0,522.0,509.0
503.0,515.0,500.0,523.0,503.0
494.0,514.0,492.0,509.0,517.0
504.0,514.0,497.0,506.0,518.0
496.0,512.0,497.0,497.0,521.0
500.0,511.0,501.0,495.0,525.0
497.0,505.0,508.0,493.0,538.0
492.0,504.0,517.0,499.0,535.0
497.0,501.0,517.0,495.0,521.0
496.0,503.0,528.0,506.0,503.0
532.0,505.0,532.0,525.0,461.0
532.0,505.0,537.0,534.0,454.0
482.0,498.0,535.0,540.0,518.0
482.0,498.0,538.0,532.0,536.0
480.0,496.0,529.0,533.0,533.0
512.0,503.0,520.0,529.0,526.0
576.0,511.0,513.0,525.0,503.0
546.0,512.0,481.0,517.0,501.0
517.0,511.0,481.0,509.0,508.0
509.0,511.0,485.0,504.0,519.0
499.0,508.0,493.0,503.0,500.0
481.0,508.0,493.0,496.0,490.0
486.0,511.0,500.0,498.0,486.0
510.0,510.0,507.0,502.0,509.0
489.0,506.0,516.0,502.0,495.0
501.0,504.0,525.0,516.0,484.0
494.0,504.0,532.0,523.0,508.0
503.0,502.0,536.0,526.0,537.0
490.0,495.0,534.0,538.0,542.0
473.0,489.0,525.0,531.0,522.0
455.0,489.0,519.0,532.0,499.0
459.0,492.0,508.0,536.0,511.0
471.0,496.0,500.0,524.0,544.0
438.0,500.0,496.0,517.0,548.0
465.0,506.0,491.0,515.0,527.0
512.0,518.0,495.0,499.0,527.0
576.0,523.0,497.0,499.0,515.0
536.0,518.0,499.0,503.0,504.0
508.0,514.0,500.0,496.0,518.0
541.0,523.0,508.0,491.0,551.0
524.0,508.0,507.0,489.0,547.0
504.0,508.0,520.0,502.0,528.0
528.0,511.0,535.0,513.0,521.0
547.0,513.0,539.0,524.0,506.0
548.0,507.0,543.0,526.0,498.0
557.0,502.0,540.0,537.0,475.0
569.0,493.0,526.0,540.0,470.0
539.0,494.0,522.0,542.0,465.0
497.0,488.0,505.0,538.0,486.0
468.0,493.0,495.0,526.0,492.0
472.0,499.0,493.0,526.0,503.0
446.0,506.0,493.0,519.0,524.0
466.0,516.0,494.0,512.0,504.0
527.0,529.0,503.0,510.0,489.0
476.0,514.0,494.0,497.0,478.0
426.0,501.0,492.0,492.0,507.0
421.0,496.0,496.0,484.0,541.0
450.0,492.0,502.0,488.0,536.0
467.0,494.0,511.0,496.0,550.0
472.0,502.0,527.0,512.0,524.0
522.0,510.0,539.0,526.0,497.0
539.0,511.0,545.0,538.0,491.0
516.0,504.0,541.0,538.0,522.0
515.0,502.0,525.0,531.0,527.0
556.0,498.0,517.0,530.0,532.0
569.0,501.0,506.0,524.0,548.0
537.0,500.0,498.0,520.0,548.0
546.0,508.0,494.0,519.0,526.0
552.0,522.0,499.0,525.0,501.0
539.0,521.0,500.0,522.0,485.0
543.0,521.0,499.0,504.0,490.0
541.0,513.0,494.0,494.0,564.0
541.0,514.0,500.0,497.0,594.0
526.0,511.0,514.0,503.0,571.0
558.0,506.0,512.0,492.0,534.0
573.0,492.0,506.0,489.0,509.0
547.0,492.0,520.0,506.0,461.0
519.0,491.0,532.0,529.0,429.0
560.0,500.0,537.0,537.0,452.0
559.0,507.0,537.0,541.0,508.0
546.0,503.0,530.0,541.0,508.0
514.0,498.0,516.0,528.0,492.0
482.0,501.0,504.0,530.0,510.0
461.0,500.0,495.0,525.0,545.0
440.0,501.0,490.0,517.0,551.0
481.0,512.0,488.0,508.0,538.0
514.0,512.0,488.0,501.0,516.0
593.0,518.0,491.0,500.0,470.0
558.0,516.0,499.0,503.0,479.0
527.0,513.0,509.0,514.0,500.0
504.0,511.0,518.0,503.0,461.0
511.0,510.0,519.0,500.0,522.0
540.0,497.0,523.0,506.0,504.0
528.0,502.0,530.0,524.0,507.0
506.0,496.0,537.0,522.0,506.0
487.0,500.0,542.0,537.0,530.0
496.0,501.0,533.0,530.0,513.0
512.0,505.0,527.0,534.0,499.0
538.0,494.0,505.0,522.0,584.0
605.0,500.0,495.0,519.0,594.0
585.0,516.0,498.0,522.0,579.0
523.0,517.0,492.0,510.0,563.0
457.0,512.0,496.0,511.0,520.0
403.0,519.0,503.0,523.0,454.0
389.0,511.0,502.0,504.0,498.0
297.0,491.0,493.0,490.0,576.0
269.0,482.0,490.0,491.0,489.0
295.0,477.0,492.0,487.0,502.0
362.0,483.0,499.0,489.0,515.0
515.0,491.0,518.0,511.0,492.0
623.0,501.0,537.0,536.0,396.0
604.0,504.0,542.0,538.0,387.0
520.0,501.0,540.0,529.0,472.0
476.0,508.0,538.0,528.0,592.0
544.0,520.0,543.0,538.0,593.0
531.0,516.0,524.0,530.0,589.0
535.0,513.0,510.0,529.0,540.0
536.0,500.0,491.0,516.0,586.0
521.0,492.0,484.0,497.0,578.0
436.0,494.0,478.0,503.0,447.0
423.0,488.0,479.0,502.0,430.0
390.0,493.0,488.0,503.0,406.0
354.0,503.0,495.0,508.0,441.0
323.0,498.0,498.0,490.0,589.0
439.0,505.0,515.0,498.0,538.0
542.0,505.0,524.0,507.0,592.0
488.0,495.0,531.0,511.0,607.0
469.0,497.0,541.0,528.0,460.0
550.0,507.0,550.0,547.0,435.0
489.0,494.0,538.0,539.0,389.0
481.0,489.0,526.0,536.0,313.0
296.0,473.0,514.0,538.0,432.0
252.0,487.0,498.0,506.0,554.0
275.0,496.0,493.0,511.0,600.0
292.0,485.0,483.0,518.0,541.0
378.0,495.0,479.0,505.0,551.0
411.0,510.0,483.0,502.0,569.0
551.0,526.0,502.0,512.0,547.0
605.0,527.0,501.0,497.0,597.0
636.0,519.0,494.0,485.0,613.0
455.0,503.0,499.0,476.0,649.0
360.0,493.0,510.0,493.0,593.0
338.0,497.0,532.0,525.0,532.0
370.0,491.0,536.0,535.0,505.0
496.0,478.0,535.0,546.0,446.0
512.0,480.0,533.0,524.0,488.0
638.0,502.0,540.0,509.0,518.0
743.0,528.0,554.0,524.0,483.0
599.0,505.0,524.0,522.0,463.0
543.0,500.0,507.0,520.0,539.0
562.0,506.0,499.0,525.0,490.0
490.0,511.0,494.0,521.0,471.0
463.0,507.0,489.0,514.0,392.0
479.0,522.0,501.0,511.0,516.0
464.0,522.0,503.0,509.0,634.0
480.0,512.0,507.0,519.0,567.0
484.0,483.0,488.0,504.0,544.0
554.0,489.0,495.0,500.0,492.0
780.0,518.0,517.0,488.0,493.0
772.0,517.0,530.0,485.0,579.0
669.0,506.0,542.0,499.0,538.0
640.0,510.0,551.0,524.0,526.0
602.0,512.0,553.0,526.0,574.0
559.0,515.0,555.0,534.0,591.0
533.0,507.0,544.0,536.0,501.0
516.0,493.0,508.0,519.0,518.0
486.0,488.0,492.0,523.0,518.0
517.0,502.0,493.0,528.0,500.0
609.0,520.0,493.0,513.0,492.0
626.0,517.0,486.0,506.0,486.0
598.0,510.0,483.0,507.0,378.0
449.0,497.0,481.0,497.0,463.0
471.0,501.0,483.0,478.0,458.0
518.0,519.0,502.0,491.0,486.0
616.0,524.0,516.0,488.0,534.0
684.0,508.0,521.0,491.0,568.0
525.0,488.0,529.0,511.0,471.0
423.0,473.0,534.0,524.0,466.0
375.0,486.0,548.0,546.0,462.0
373.0,498.0,553.0,544.0,544.0
405.0,514.0,556.0,550.0,572.0
437.0,504.0,530.0,532.0,639.0
544.0,502.0,515.0,517.0,551.0
555.0,495.0,501.0,526.0,449.0
558.0,512.0,503.0,521.0,414.0
515.0,514.0,497.0,506.0,568.0
487.0,517.0,494.0,511.0,494.0
520.0,517.0,491.0,519.0,487.0
561.0,509.0,494.0,527.0,501.0
564.0,515.0,504.0,519.0,508.0
404.0,492.0,496.0,478.0,681.0
295.0,470.0,493.0,464.0,588.0
321.0,477.0,517.0,500.0,490.0
409.0,490.0,539.0,534.0,497.0
728.0,519.0,549.0,530.0,481.0
737.0,522.0,548.0,532.0,461.0
788.0,522.0,548.0,524.0,384.0
659.0,509.0,544.0,534.0,425.0
514.0,499.0,534.0,552.0,436.0
482.0,502.0,517.0,525.0,573.0
381.0,505.0,508.0,514.0,663.0
456.0,527.0,511.0,513.0,632.0
576.0,531.0,500.0,516.0,513.0
507.0,507.0,488.0,500.0,427.0
409.0,495.0,484.0,504.0,385.0
448.0,512.0,498.0,489.0,558.0
401.0,510.0,508.0,494.0,550.0
314.0,467.0,489.0,469.0,480.0
270.0,451.0,482.0,461.0,488.0
437.0,465.0,512.0,506.0,499.0
508.0,504.0,537.0,522.0,503.0
347.0,497.0,538.0,544.0,523.0
495.0,511.0,542.0,516.0,535.0
739.0,527.0,550.0,543.0,460.0
741.0,534.0,555.0,558.0,498.0
627.0,527.0,541.0,563.0,519.0
591.0,531.0,535.0,563.0,536.0
550.0,510.0,509.0,531.0,586.0
413.0,482.0,477.0,494.0,621.0
336.0,483.0,461.0,433.0,639.0
357.0,486.0,475.0,473.0,530.0
532.0,500.0,492.0,500.0,459.0
633.0,527.0,510.0,497.0,524.0
720.0,544.0,526.0,508.0,496.0
686.0,522.0,525.0,511.0,486.0
547.0,501.0,522.0,511.0,493.0
437.0,491.0,524.0,519.0,390.0
462.0,491.0,527.0,500.0,510.0
460.0,504.0,536.0,523.0,483.0
452.0,505.0,540.0,541.0,431.0
433.0,488.0,529.0,535.0,478.0
649.0,514.0,528.0,543.0,463.0
688.0,529.0,525.0,543.0,480.0
521.0,513.0,513.0,527.0,476.0
480.0,499.0,494.0,505.0,569.0
523.0,514.0,504.0,529.0,556.0
505.0,515.0,496.0,512.0,631.0
489.0,513.0,493.0,488.0,589.0
580.0,503.0,492.0,494.0,453.0
575.0,513.0,514.0,509.0,399.0
522.0,514.0,516.0,508.0,428.0
482.0,503.0,512.0,489.0,489.0
552.0,504.0,519.0,496.0,527.0
601.0,510.0,530.0,513.0,562.0
617.0,514.0,541.0,530.0,482.0
626.0,515.0,544.0,534.0,623.0
581.0,512.0,532.0,512.0,706.0
589.0,506.0,526.0,535.0,595.0
479.0,488.0,504.0,534.0,476.0
492.0,512.0,508.0,528.0,501.0
425.0,519.0,520.0,540.0,455.0
328.0,490.0,493.0,529.0,445.0
398.0,486.0,481.0,512.0,420.0
464.0,508.0,496.0,497.0,514.0
573.0,526.0,502.0,492.0,568.0
544.0,507.0,492.0,474.0,542.0
564.0,507.0,499.0,479.0,478.0
541.0,506.0,513.0,499.0,449.0
616.0,507.0,514.0,498.0,428.0
655.0,517.0,525.0,511.0,503.0
584.0,506.0,534.0,526.0,532.0
522.0,507.0,538.0,539.0,501.0
503.0,498.0,531.0,541.0,524.0
410.0,482.0,519.0,533.0,477.0
340.0,476.0,513.0,533.0,446.0
462.0,492.0,504.0,531.0,474.0
513.0,490.0,497.0,522.0,596.0
494.0,501.0,489.0,513.0,537.0
495.0,514.0,490.0,509.0,523.0
473.0,515.0,501.0,518.0,433.0
430.0,513.0,509.0,518.0,488.0
411.0,510.0,511.0,506.0,568.0
540.0,523.0,511.0,500.0,544.0
591.0,511.0,499.0,477.0,501.0
624.0,505.0,503.0,476.0,507.0
699.0,527.0,526.0,505.0,472.0
626.0,512.0,533.0,526.0,448.0
557.0,503.0,536.0,541.0,464.0
519.0,501.0,535.0,538.0,516.0
515.0,493.0,523.0,531.0,590.0
547.0,499.0,524.0,531.0,585.0
585.0,507.0,518.0,539.0,517.0
462.0,497.0,509.0,534.0,525.0
356.0,490.0,494.0,516.0,537.0
334.0,490.0,486.0,504.0,546.0
455.0,504.0,485.0,505.0,570.0
574.0,522.0,498.0,505.0,527.0
608.0,521.0,500.0,502.0,472.0
574.0,523.0,506.0,506.0,431.0
556.0,516.0,515.0,506.0,480.0
562.0,509.0,514.0,495.0,581.0
462.0,493.0,515.0,505.0,663.0
390.0,488.0,520.0,544.0,693.0
472.0,506.0,533.0,512.0,586.0
548.0,508.0,530.0,538.0,435.0
379.0,492.0,532.0,535.0,432.0
422.0,493.0,523.0,499.0,529.0
617.0,518.0,529.0,525.0,500.0
594.0,515.0,520.0,536.0,575.0
571.0,519.0,518.0,550.0,505.0
515.0,500.0,495.0,530.0,462.0
554.0,497.0,482.0,514.0,437.0
556.0,504.0,487.0,507.0,531.0
466.0,505.0,502.0,520.0,517.0
450.0,502.0,495.0,503.0,387.0
505.0,510.0,498.0,503.0,307.0
567.0,517.0,506.0,480.0,521.0
495.0,510.0,514.0,491.0,553.0
531.0,503.0,517.0,494.0,539.0
518.0,505.0,521.0,492.0,491.0
593.0,513.0,533.0,518.0,419.0
661.0,518.0,537.0,535.0,434.0
607.0,515.0,538.0,541.0,462.0
575.0,509.0,534.0,546.0,497.0
525.0,498.0,520.0,534.0,607.0
467.0,493.0,503.0,521.0,569.0
438.0,501.0,500.0,521.0,586.0
413.0,500.0,495.0,514.0,603.0
516.0,514.0,498.0,515.0,525.0
554.0,531.0,507.0,518.0,506.0
506.0,518.0,501.0,511.0,488.0
426.0,498.0,492.0,488.0,542.0
426.0,501.0,498.0,497.0,541.0
530.0,512.0,514.0,507.0,493.0
546.0,501.0,511.0,492.0,510.0
495.0,491.0,509.0,503.0,527.0
553.0,498.0,524.0,527.0,503.0
591.0,502.0,536.0,532.0,490.0
498.0,500.0,534.0,538.0,519.0
521.0,508.0,533.0,539.0,462.0
536.0,504.0,522.0,539.0,469.0
531.0,495.0,510.0,529.0,456.0
529.0,501.0,500.0,519.0,554.0
494.0,505.0,500.0,532.0,485.0
442.0,500.0,491.0,515.0,540.0
403.0,503.0,490.0,505.0,554.0
532.0,521.0,498.0,501.0,590.0
619.0,517.0,496.0,498.0,542.0
551.0,498.0,491.0,499.0,558.0
438.0,487.0,494.0,503.0,548.0
383.0,488.0,499.0,491.0,487.0
394.0,486.0,506.0,493.0,496.0
520.0,507.0,521.0,505.0,501.0
666.0,522.0,536.0,526.0,449.0
577.0,511.0,541.0,533.0,497.0
521.0,504.0,536.0,545.0,509.0
477.0,501.0,532.0,540.0,552.0
524.0,503.0,528.0,545.0,512.0
568.0,504.0,517.0,548.0,475.0
638.0,520.0,511.0,535.0,478.0
534.0,510.0,499.0,518.0,587.0
508.0,509.0,495.0,513.0,539.0
524.0,517.0,497.0,509.0,451.0
537.0,520.0,502.0,512.0,434.0
568.0,517.0,502.0,503.0,463.0
527.0,507.0,499.0,492.0,542.0
462.0,502.0,506.0,495.0,579.0
500.0,501.0,513.0,495.0,602.0
517.0,503.0,514.0,494.0,537.0
571.0,512.0,529.0,524.0,415.0
590.0,511.0,535.0,528.0,479.0
550.0,510.0,541.0,533.0,539.0
520.0,508.0,541.0,543.0,572.0
431.0,484.0,528.0,541.0,548.0
399.0,475.0,516.0,534.0,613.0
401.0,490.0,506.0,542.0,483.0
376.0,491.0,502.0,522.0,549.0
474.0,494.0,489.0,505.0,516.0
630.0,522.0,497.0,519.0,480.0
537.0,523.0,497.0,525.0,437.0
563.0,529.0,511.0,523.0,445.0
551.0,523.0,505.0,492.0,508.0
544.0,516.0,504.0,485.0,493.0
528.0,499.0,499.0,479.0,507.0
531.0,500.0,510.0,486.0,520.0
556.0,505.0,521.0,501.0,519.0
567.0,516.0,540.0,528.0,494.0
542.0,519.0,544.0,534.0,491.0
508.0,502.0,539.0,539.0,541.0
495.0,499.0,538.0,558.0,533.0
431.0,492.0,531.0,553.0,499.0
365.0,484.0,513.0,543.0,475.0
295.0,473.0,495.0,533.0,498.0
339.0,478.0,485.0,504.0,524.0
495.0,498.0,489.0,506.0,531.0
511.0,504.0,491.0,518.0,556.0
449.0,513.0,497.0,515.0,499.0
670.0,535.0,511.0,507.0,407.0
706.0,515.0,500.0,478.0,526.0
582.0,514.0,501.0,478.0,535.0
568.0,517.0,515.0,499.0,477.0
577.0,516.0,524.0,507.0,495.0
573.0,507.0,527.0,525.0,531.0
558.0,510.0,531.0,513.0,533.0
542.0,508.0,538.0,518.0,623.0
525.0,509.0,540.0,532.0,603.0
526.0,500.0,532.0,543.0,551.0
546.0,496.0,526.0,576.0,357.0
508.0,495.0,515.0,549.0,446.0
500.0,507.0,509.0,519.0,583.0
437.0,502.0,496.0,511.0,529.0
470.0,505.0,491.0,503.0,565.0
505.0,512.0,495.0,503.0,539.0
515.0,517.0,498.0,502.0,524.0
523.0,514.0,499.0,497.0,534.0
499.0,505.0,496.0,491.0,522.0
540.0,516.0,509.0,495.0,482.0
531.0,507.0,510.0,499.0,421.0
532.0,508.0,518.0,500.0,529.0
549.0,506.0,524.0,506.0,489.0
539.0,513.0,538.0,519.0,543.0
517.0,512.0,543.0,536.0,533.0
486.0,502.0,542.0,544.0,498.0
473.0,505.0,539.0,555.0,505.0
490.0,505.0,533.0,559.0,504.0
481.0,485.0,506.0,540.0,582.0
514.0,493.0,491.0,522.0,547.0
408.0,490.0,482.0,512.0,549.0
458.0,504.0,487.0,509.0,480.0
568.0,513.0,496.0,512.0,432.0
521.0,514.0,500.0,498.0,507.0
524.0,511.0,495.0,485.0,554.0
509.0,506.0,497.0,487.0,490.0
537.0,504.0,509.0,495.0,476.0
545.0,517.0,519.0,508.0,436.0
553.0,510.0,519.0,501.0,513.0
536.0,503.0,520.0,507.0,506.0
556.0,506.0,534.0,518.0,520.0
554.0,509.0,540.0,537.0,519.0
529.0,514.0,542.0,552.0,510.0
525.0,509.0,530.0,545.0,517.0
517.0,493.0,519.0,547.0,536.0
419.0,486.0,507.0,547.0,568.0
368.0,497.0,505.0,533.0,553.0
403.0,517.0,508.0,524.0,538.0
520.0,525.0,505.0,519.0,525.0
612.0,513.0,494.0,504.0,460.0
482.0,500.0,494.0,498.0,505.0
458.0,504.0,499.0,490.0,514.0
467.0,511.0,504.0,488.0,527.0
501.0,512.0,508.0,484.0,520.0
570.0,510.0,515.0,490.0,515.0
526.0,497.0,516.0,500.0,543.0
546.0,496.0,527.0,524.0,531.0
568.0,507.0,539.0,539.0,465.0
633.0,516.0,544.0,549.0,449.0
601.0,504.0,531.0,537.0,478.0
541.0,502.0,526.0,538.0,493.0
459.0,498.0,512.0,531.0,508.0
464.0,503.0,510.0,531.0,591.0
465.0,497.0,499.0,523.0,608.0
511.0,511.0,499.0,513.0,559.0
490.0,512.0,492.0,505.0,486.0
500.0,519.0,499.0,501.0,461.0
499.0,517.0,503.0,499.0,500.0
477.0,502.0,497.0,490.0,503.0
492.0,502.0,504.0,484.0,542.0
549.0,506.0,513.0,496.0,518.0
513.0,500.0,518.0,504.0,472.0
558.0,511.0,531.0,519.0,465.0
545.0,499.0,531.0,525.0,453.0
469.0,485.0,525.0,525.0,541.0
408.0,489.0,533.0,543.0,558.0
490.0,500.0,537.0,550.0,504.0
534.0,511.0,535.0,543.0,544.0
535.0,513.0,522.0,533.0,558.0
526.0,513.0,509.0,530.0,518.0
500.0,502.0,494.0,516.0,532.0
498.0,500.0,493.0,512.0,510.0
539.0,512.0,491.0,504.0,511.0
602.0,521.0,499.0,503.0,492.0
539.0,512.0,501.0,497.0,515.0
550.0,514.0,502.0,486.0,539.0
568.0,509.0,503.0,487.0,509.0
543.0,499.0,506.0,496.0,526.0
540.0,501.0,518.0,505.0,490.0
537.0,506.0,527.0,516.0,481.0
538.0,503.0,535.0,530.0,490.0
527.0,513.0,544.0,542.0,473.0
501.0,506.0,543.0,545.0,512.0
475.0,502.0,530.0,539.0,564.0
482.0,494.0,519.0,540.0,508.0
523.0,495.0,507.0,532.0,485.0
477.0,494.0,498.0,529.0,516.0
531.0,509.0,497.0,524.0,471.0
508.0,515.0,499.0,521.0,512.0
527.0,522.0,503.0,515.0,496.0
472.0,507.0,499.0,501.0,567.0
486.0,506.0,504.0,495.0,551.0
508.0,510.0,509.0,477.0,541.0
518.0,519.0,516.0,490.0,551.0
558.0,517.0,523.0,496.0,545.0
583.0,515.0,530.0,510.0,471.0
538.0,513.0,534.0,516.0,474.0
526.0,512.0,545.0,540.0,410.0
481.0,496.0,536.0,538.0,503.0
403.0,488.0,527.0,535.0,536.0
481.0,503.0,526.0,539.0,501.0
513.0,495.0,511.0,534.0,502.0
563.0,500.0,512.0,527.0,535.0
493.0,503.0,498.0,511.0,553.0
538.0,512.0,496.0,508.0,531.0
548.0,512.0,496.0,510.0,510.0
521.0,508.0,497.0,504.0,470.0
502.0,520.0,509.0,504.0,534.0
480.0,510.0,506.0,495.0,475.0
487.0,509.0,503.0,493.0,463.0
506.0,500.0,511.0,497.0,469.0
520.0,508.0,523.0,513.0,507.0
477.0,499.0,529.0,518.0,562.0
455.0,501.0,533.0,517.0,593.0
403.0,489.0,527.0,518.0,563.0
482.0,496.0,535.0,535.0,524.0
601.0,506.0,528.0,532.0,528.0
642.0,515.0,531.0,550.0,479.0
594.0,507.0,515.0,539.0,493.0
499.0,491.0,498.0,522.0,557.0
426.0,495.0,493.0,516.0,538.0
463.0,506.0,494.0,510.0,491.0
553.0,522.0,506.0,514.0,444.0
508.0,510.0,506.0,506.0,482.0
495.0,511.0,502.0,490.0,547.0
479.0,507.0,499.0,486.0,572.0
505.0,505.0,503.0,484.0,552.0
541.0,507.0,513.0,487.0,497.0
538.0,517.0,527.0,502.0,488.0
508.0,512.0,537.0,519.0,487.0
581.0,516.0,538.0,524.0,503.0
566.0,505.0,542.0,536.0,503.0
546.0,504.0,538.0,545.0,494.0
567.0,499.0,533.0,538.0,529.0
557.0,498.0,519.0,538.0,525.0
507.0,489.0,501.0,533.0,539.0
463.0,494.0,493.0,515.0,557.0
403.0,496.0,493.0,513.0,534.0
385.0,503.0,500.0,511.0,556.0
370.0,503.0,492.0,491.0,542.0
561.0,522.0,502.0,501.0,472.0
640.0,519.0,500.0,490.0,484.0
557.0,515.0,504.0,495.0,465.0
534.0,512.0,514.0,509.0,429.0
545.0,508.0,516.0,500.0,492.0
553.0,510.0,522.0,494.0,524.0
581.0,517.0,540.0,524.0,495.0
556.0,512.0,545.0,541.0,490.0
559.0,500.0,534.0,533.0,478.0
552.0,498.0,533.0,529.0,475.0
519.0,503.0,526.0,536.0,535.0
486.0,493.0,516.0,537.0,566.0
412.0,484.0,500.0,527.0,550.0
448.0,498.0,495.0,520.0,572.0
503.0,514.0,500.0,516.0,556.0
532.0,517.0,497.0,506.0,553.0
517.0,511.0,498.0,506.0,491.0
468.0,504.0,497.0,496.0,466.0
523.0,510.0,492.0,480.0,482.0
547.0,514.0,504.0,485.0,521.0
546.0,508.0,512.0,492.0,520.0
531.0,508.0,523.0,508.0,506.0
542.0,513.0,531.0,511.0,495.0
538.0,513.0,543.0,523.0,501.0
494.0,502.0,540.0,540.0,524.0
495.0,499.0,537.0,544.0,501.0
504.0,501.0,531.0,537.0,467.0
480.0,497.0,522.0,540.0,489.0
502.0,502.0,515.0,538.0,563.0
508.0,505.0,506.0,526.0,585.0
507.0,507.0,502.0,522.0,503.0
506.0,500.0,493.0,511.0,526.0
526.0,507.0,493.0,511.0,479.0
502.0,507.0,495.0,496.0,524.0
527.0,514.0,496.0,486.0,503.0
510.0,512.0,499.0,480.0,510.0
563.0,508.0,504.0,488.0,473.0
552.0,508.0,514.0,497.0,474.0
495.0,509.0,526.0,506.0,527.0
551.0,515.0,534.0,512.0,521.0
519.0,505.0,538.0,529.0,502.0
533.0,506.0,539.0,537.0,498.0
510.0,507.0,542.0,551.0,499.0
469.0,499.0,531.0,538.0,521.0
549.0,500.0,519.0,529.0,560.0
520.0,496.0,509.0,530.0,538.0
487.0,489.0,495.0,523.0,517.0
476.0,504.0,492.0,504.0,524.0
501.0,509.0,493.0,508.0,508.0
501.0,507.0,492.0,500.0,527.0
514.0,511.0,498.0,489.0,533.0
536.0,511.0,500.0,495.0,510.0
486.0,502.0,501.0,489.0,476.0
456.0,500.0,513.0,506.0,469.0
440.0,509.0,521.0,491.0,522.0
510.0,508.0,530.0,500.0,506.0
626.0,516.0,540.0,518.0,501.0
647.0,519.0,543.0,534.0,483.0
640.0,518.0,544.0,544.0,486.0
532.0,490.0,530.0,544.0,536.0
437.0,491.0,527.0,544.0,498.0
493.0,495.0,514.0,527.0,525.0
523.0,500.0,505.0,524.0,541.0
494.0,500.0,501.0,526.0,504.0
482.0,506.0,498.0,509.0,543.0
462.0,507.0,496.0,502.0,506.0
535.0,515.0,500.0,505.0,515.0
525.0,516.0,504.0,502.0,505.0
512.0,510.0,508.0,496.0,539.0
495.0,507.0,505.0,481.0,550.0
479.0,504.0,512.0,487.0,519.0
417.0,494.0,515.0,486.0,522.0
424.0,497.0,526.0,508.0,491.0
542.0,517.0,537.0,519.0,484.0
629.0,524.0,541.0,533.0,437.0
548.0,504.0,534.0,537.0,502.0
463.0,499.0,533.0,539.0,544.0
490.0,502.0,530.0,543.0,526.0
548.0,497.0,511.0,530.0,513.0
557.0,507.0,509.0,536.0,462.0
508.0,513.0,506.0,523.0,527.0
484.0,516.0,505.0,518.0,537.0
492.0,500.0,490.0,502.0,536.0
513.0,506.0,495.0,497.0,497.0
531.0,516.0,498.0,490.0,507.0
523.0,506.0,497.0,477.0,506.0
502.0,505.0,508.0,490.0,501.0
520.0,504.0,517.0,500.0,527.0
521.0,500.0,518.0,516.0,505.0
535.0,503.0,526.0,504.0,493.0
557.0,508.0,537.0,518.0,486.0
532.0,503.0,539.0,535.0,483.0
543.0,506.0,535.0,545.0,496.0
556.0,505.0,532.0,540.0,512.0
538.0,500.0,519.0,533.0,562.0
466.0,494.0,512.0,521.0,569.0
424.0,507.0,507.0,531.0,527.0
469.0,506.0,500.0,515.0,494.0
508.0,523.0,501.0,513.0,526.0
531.0,509.0,496.0,503.0,533.0
523.0,520.0,502.0,504.0,583.0
527.0,518.0,506.0,483.0,557.0
521.0,514.0,504.0,487.0,499.0
511.0,501.0,501.0,480.0,505.0
531.0,500.0,507.0,492.0,474.0
547.0,505.0,515.0,492.0,507.0
575.0,509.0,530.0,520.0,460.0
557.0,502.0,532.0,527.0,531.0
513.0,501.0,537.0,534.0,499.0
496.0,501.0,531.0,541.0,474.0
511.0,501.0,527.0,539.0,495.0
502.0,499.0,516.0,535.0,524.0
500.0,501.0,509.0,531.0,544.0
497.0,506.0,502.0,526.0,525.0
494.0,513.0,498.0,522.0,480.0
504.0,509.0,495.0,506.0,480.0
507.0,508.0,493.0,494.0,540.0
502.0,514.0,501.0,493.0,530.0
498.0,518.0,502.0,491.0,507.0
498.0,512.0,508.0,496.0,474.0
506.0,505.0,511.0,494.0,514.0
537.0,500.0,513.0,497.0,496.0
543.0,503.0,523.0,510.0,462.0
542.0,502.0,531.0,517.0,508.0
541.0,511.0,541.0,540.0,508.0
536.0,508.0,540.0,537.0,518.0
538.0,502.0,532.0,539.0,531.0
525.0,507.0,535.0,544.0,541.0
523.0,501.0,515.0,537.0,545.0
501.0,499.0,507.0,523.0,537.0
513.0,504.0,497.0,517.0,527.0
484.0,505.0,495.0,514.0,521.0
484.0,514.0,493.0,506.0,531.0
507.0,513.0,499.0,502.0,514.0
516.0,509.0,496.0,494.0,480.0
477.0,501.0,498.0,488.0,505.0
503.0,506.0,503.0,486.0,508.0
535.0,507.0,512.0,486.0,481.0
531.0,506.0,522.0,506.0,497.0
533.0,509.0,533.0,516.0,493.0
543.0,510.0,537.0,525.0,468.0
543.0,506.0,539.0,540.0,469.0
536.0,503.0,536.0,544.0,495.0
514.0,498.0,529.0,542.0,524.0
493.0,504.0,528.0,541.0,551.0
497.0,498.0,512.0,534.0,542.0
489.0,502.0,501.0,525.0,545.0
506.0,506.0,499.0,517.0,537.0
492.0,505.0,496.0,512.0,524.0
509.0,511.0,491.0,500.0,521.0
514.0,515.0,499.0,498.0,501.0
503.0,509.0,496.0,488.0,497.0
512.0,509.0,501.0,483.0,517.0
520.0,505.0,506.0,485.0,513.0
512.0,504.0,515.0,493.0,502.0
510.0,502.0,517.0,499.0,504.0
530.0,503.0,529.0,513.0,504.0
547.0,505.0,538.0,525.0,493.0
553.0,507.0,544.0,537.0,502.0
534.0,500.0,538.0,545.0,500.0
524.0,502.0,529.0,538.0,522.0
521.0,502.0,520.0,532.0,533.0
503.0,498.0,507.0,530.0,536.0
487.0,502.0,502.0,521.0,535.0
488.0,508.0,500.0,519.0,517.0
496.0,512.0,497.0,506.0,515.0
494.0,509.0,495.0,501.0,499.0
497.0,510.0,500.0,499.0,506.0
503.0,508.0,499.0,483.0,512.0
516.0,511.0,505.0,489.0,509.0
519.0,507.0,508.0,488.0,504.0
515.0,505.0,516.0,497.0,510.0
528.0,511.0,525.0,505.0,502.0
534.0,509.0,540.0,521.0,503.0
536.0,507.0,540.0,536.0,507.0
540.0,506.0,538.0,541.0,505.0
534.0,502.0,533.0,541.0,504.0
517.0,501.0,529.0,541.0,527.0
490.0,504.0,514.0,533.0,531.0
493.0,498.0,504.0,528.0,515.0
509.0,506.0,499.0,520.0,520.0
525.0,510.0,501.0,514.0,492.0
499.0,508.0,494.0,501.0,506.0
490.0,514.0,501.0,502.0,502.0
472.0,511.0,501.0,495.0,543.0
488.0,504.0,500.0,491.0,527.0
524.0,509.0,506.0,485.0,522.0
553.0,509.0,513.0,486.0,512.0
555.0,506.0,521.0,497.0,508.0
542.0,507.0,528.0,508.0,496.0
527.0,506.0,535.0,522.0,492.0
528.0,502.0,536.0,533.0,491.0
533.0,503.0,538.0,542.0,502.0
523.0,503.0,530.0,540.0,521.0
520.0,501.0,526.0,542.0,522.0
497.0,495.0,513.0,546.0,533.0
504.0,504.0,505.0,523.0,525.0
506.0,509.0,498.0,511.0,524.0
502.0,511.0,498.0,514.0,521.0
504.0,513.0,497.0,502.0,523.0
516.0,519.0,504.0,500.0,521.0
513.0,510.0,500.0,488.0,524.0
526.0,509.0,501.0,483.0,509.0
514.0,507.0,509.0,490.0,496.0
513.0,504.0,516.0,494.0,496.0
518.0,503.0,522.0,501.0,498.0
525.0,508.0,531.0,516.0,507.0
546.0,508.0,539.0,531.0,501.0
538.0,506.0,538.0,537.0,504.0
530.0,504.0,536.0,542.0,512.0
521.0,501.0,529.0,541.0,525.0
512.0,497.0,519.0,542.0,523.0
504.0,498.0,507.0,529.0,526.0
503.0,505.0,503.0,525.0,530.0
504.0,508.0,499.0,517.0,527.0
500.0,511.0,497.0,508.0,518.0
499.0,511.0,496.0,501.0,520.0
503.0,513.0,501.0,500.0,511.0
509.0,511.0,501.0,488.0,516.0
513.0,508.0,509.0,485.0,500.0
519.0,508.0,511.0,490.0,503.0
526.0,506.0,519.0,497.0,504.0
530.0,506.0,526.0,508.0,497.0
535.0,506.0,533.0,522.0,498.0
536.0,503.0,540.0,533.0,508.0
544.0,507.0,539.0,540.0,501.0
528.0,501.0,532.0,540.0,511.0
519.0,499.0,526.0,544.0,522.0
507.0,496.0,513.0,532.0,531.0
501.0,500.0,505.0,529.0,532.0
497.0,503.0,502.0,525.0,528.0
500.0,508.0,498.0,516.0,524.0
499.0,510.0,493.0,504.0,521.0
513.0,517.0,502.0,494.0,507.0
510.0,514.0,502.0,493.0,506.0
506.0,508.0,500.0,486.0,509.0
515.0,508.0,507.0,488.0,509.0
522.0,505.0,511.0,490.0,503.0
527.0,506.0,521.0,501.0,504.0
536.0,507.0,534.0,514.0,501.0
537.0,508.0,541.0,529.0,503.0
540.0,509.0,538.0,537.0,506.0
534.0,506.0,538.0,543.0,508.0
524.0,501.0,530.0,543.0,518.0
519.0,501.0,526.0,544.0,520.0
506.0,498.0,512.0,534.0,529.0
501.0,502.0,504.0,527.0,530.0
504.0,507.0,504.0,524.0,527.0
500.0,511.0,497.0,510.0,521.0
503.0,512.0,497.0,503.0,516.0
507.0,513.0,499.0,498.0,507.0
509.0,512.0,502.0,492.0,508.0
510.0,508.0,503.0,488.0,509.0
516.0,506.0,508.0,487.0,505.0
523.0,507.0,517.0,496.0,503.0
524.0,506.0,520.0,502.0,499.0
534.0,506.0,531.0,518.0,497.0
541.0,509.0,536.0,528.0,499.0
537.0,505.0,542.0,537.0,505.0
531.0,503.0,536.0,546.0,511.0
523.0,502.0,528.0,545.0,519.0
514.0,500.0,520.0,540.0,525.0
505.0,500.0,508.0,534.0,529.0
502.0,503.0,502.0,528.0,524.0
499.0,509.0,499.0,517.0,522.0
503.0,510.0,499.0,512.0,515.0
503.0,512.0,500.0,507.0,513.0
509.0,514.0,502.0,501.0,506.0
509.0,510.0,502.0,494.0,505.0
510.0,508.0,502.0,495.0,504.0
518.0,505.0,505.0,494.0,507.0
526.0,504.0,515.0,496.0,500.0
533.0,505.0,523.0,502.0,499.0
542.0,508.0,532.0,515.0,500.0
535.0,506.0,537.0,529.0,505.0
536.0,503.0,537.0,539.0,506.0
535.0,503.0,532.0,546.0,507.0
521.0,501.0,528.0,547.0,515.0
515.0,498.0,514.0,538.0,524.0
501.0,498.0,502.0,526.0,527.0
498.0,503.0,498.0,520.0,523.0
503.0,514.0,499.0,514.0,520.0
496.0,510.0,495.0,505.0,521.0
503.0,515.0,500.0,504.0,514.0
508.0,513.0,501.0,497.0,504.0
508.0,508.0,501.0,491.0,502.0
514.0,511.0,510.0,491.0,503.0
519.0,505.0,512.0,494.0,499.0
523.0,509.0,518.0,500.0,504.0
529.0,506.0,528.0,510.0,508.0
541.0,508.0,535.0,525.0,501.0
538.0,506.0,541.0,538.0,502.0
533.0,504.0,536.0,541.0,508.0
527.0,498.0,526.0,538.0,514.0
520.0,501.0,524.0,542.0,517.0
507.0,500.0,511.0,535.0,527.0
501.0,503.0,503.0,529.0,529.0
503.0,508.0,500.0,519.0,525.0
503.0,510.0,495.0,511.0,513.0
506.0,514.0,497.0,505.0,512.0
508.0,513.0,498.0,500.0,504.0
516.0,512.0,503.0,493.0,503.0
509.0,513.0,501.0,489.0,506.0
516.0,508.0,507.0,490.0,504.0
525.0,508.0,515.0,498.0,502.0
528.0,505.0,520.0,503.0,501.0
536.0,505.0,527.0,515.0,499.0
538.0,505.0,535.0,529.0,499.0
538.0,506.0,538.0,540.0,504.0
533.0,505.0,534.0,543.0,508.0
524.0,501.0,526.0,540.0,516.0
515.0,498.0,520.0,538.0,521.0
507.0,500.0,508.0,533.0,527.0
504.0,506.0,503.0,527.0,525.0
502.0,509.0,498.0,518.0,521.0
504.0,512.0,496.0,510.0,513.0
510.0,513.0,498.0,507.0,509.0
510.0,515.0,501.0,495.0,502.0
511.0,512.0,501.0,492.0,505.0
513.0,510.0,505.0,490.0,501.0
518.0,508.0,509.0,491.0,499.0
524.0,507.0,518.0,499.0,503.0
531.0,507.0,527.0,507.0,495.0
538.0,507.0,532.0,524.0,495.0
543.0,507.0,540.0,532.0,498.0
534.0,506.0,537.0,540.0,503.0
524.0,502.0,530.0,542.0,511.0
521.0,500.0,523.0,537.0,516.0
510.0,497.0,516.0,532.0,522.0
502.0,499.0,505.0,528.0,522.0
499.0,506.0,500.0,520.0,523.0
506.0,511.0,498.0,513.0,517.0
503.0,512.0,495.0,505.0,511.0
509.0,514.0,500.0,503.0,505.0
512.0,513.0,502.0,498.0,501.0
510.0,509.0,501.0,491.0,504.0
519.0,511.0,510.0,495.0,499.0
518.0,511.0,512.0,494.0,501.0
524.0,506.0,518.0,502.0,499.0
533.0,507.0,527.0,511.0,496.0
535.0,508.0,534.0,528.0,497.0
535.0,505.0,537.0,530.0,503.0
536.0,506.0,536.0,537.0,506.0
526.0,503.0,529.0,540.0,518.0
523.0,504.0,525.0,531.0,517.0
510.0,500.0,516.0,523.0,525.0
503.0,502.0,503.0,519.0,524.0
502.0,509.0,501.0,518.0,520.0
503.0,511.0,498.0,509.0,511.0
509.0,516.0,498.0,509.0,507.0
515.0,517.0,500.0,507.0,499.0
512.0,514.0,502.0,503.0,502.0
513.0,507.0,502.0,500.0,506.0
524.0,509.0,507.0,500.0,500.0
530.0,508.0,515.0,503.0,500.0
524.0,505.0,521.0,512.0,500.0
524.0,506.0,527.0,513.0,500.0
533.0,506.0,533.0,519.0,501.0
535.0,507.0,536.0,526.0,505.0
529.0,508.0,534.0,527.0,511.0
521.0,501.0,526.0,522.0,519.0
517.0,503.0,519.0,520.0,521.0
504.0,502.0,509.0,516.0,528.0
497.0,503.0,500.0,512.0,525.0
499.0,508.0,497.0,512.0,518.0
502.0,514.0,497.0,513.0,514.0
502.0,514.0,495.0,508.0,507.0
510.0,517.0,502.0,512.0,505.0
509.0,511.0,499.0,505.0,505.0
511.0,509.0,503.0,504.0,502.0
517.0,511.0,510.0,507.0,502.0
521.0,506.0,517.0,508.0,500.0
529.0,509.0,524.0,513.0,499.0
532.0,511.0,529.0,517.0,498.0
536.0,512.0,534.0,520.0,499.0
534.0,507.0,539.0,521.0,503.0
527.0,504.0,530.0,520.0,518.0
516.0,502.0,523.0,514.0,519.0
510.0,500.0,510.0,510.0,524.0
504.0,504.0,506.0,511.0,528.0
499.0,506.0,497.0,509.0,524.0
506.0,514.0,497.0,513.0,519.0
503.0,513.0,495.0,513.0,511.0
510.0,517.0,500.0,521.0,505.0
510.0,516.0,501.0,515.0,502.0
508.0,513.0,501.0,509.0,506.0
510.0,511.0,505.0,509.0,504.0
516.0,507.0,510.0,508.0,504.0
522.0,507.0,515.0,510.0,501.0
528.0,509.0,526.0,514.0,500.0
531.0,507.0,532.0,516.0,502.0
532.0,506.0,534.0,517.0,506.0
529.0,504.0,535.0,516.0,510.0
522.0,502.0,526.0,513.0,519.0
515.0,505.0,524.0,511.0,522.0
505.0,500.0,509.0,507.0,527.0
503.0,506.0,501.0,508.0,521.0
507.0,506.0,499.0,514.0,521.0
508.0,512.0,497.0,515.0,518.0
507.0,516.0,497.0,520.0,516.0
506.0,523.0,502.0,522.0,512.0
499.0,518.0,503.0,517.0,511.0
498.0,511.0,502.0,510.0,509.0
509.0,510.0,506.0,512.0,499.0
507.0,508.0,512.0,509.0,501.0
513.0,510.0,520.0,510.0,500.0
526.0,508.0,526.0,514.0,497.0
547.0,513.0,532.0,516.0,496.0
546.0,507.0,533.0,514.0,497.0
535.0,504.0,530.0,512.0,504.0
523.0,501.0,522.0,507.0,513.0
517.0,503.0,518.0,508.0,520.0
508.0,503.0,506.0,512.0,526.0
503.0,507.0,505.0,510.0,525.0
502.0,509.0,497.0,514.0,520.0
503.0,514.0,498.0,518.0,513.0
506.0,516.0,497.0,520.0,510.0
509.0,518.0,502.0,523.0,505.0
508.0,513.0,500.0,517.0,504.0
512.0,511.0,504.0,518.0,503.0
517.0,512.0,507.0,515.0,502.0
523.0,508.0,519.0,514.0,496.0
526.0,507.0,521.0,514.0,500.0
531.0,510.0,530.0,515.0,502.0
537.0,508.0,536.0,513.0,502.0
534.0,509.0,533.0,514.0,506.0
528.0,505.0,530.0,509.0,511.0
518.0,501.0,519.0,503.0,522.0
506.0,500.0,511.0,503.0,530.0
499.0,502.0,507.0,506.0,532.0
496.0,505.0,498.0,509.0,530.0
494.0,511.0,494.0,515.0,526.0
496.0,513.0,495.0,519.0,516.0
506.0,517.0,497.0,524.0,510.0
507.0,519.0,500.0,524.0,506.0
512.0,512.0,501.0,520.0,508.0
513.0,514.0,506.0,520.0,502.0
516.0,507.0,509.0,513.0,497.0
520.0,507.0,517.0,515.0,504.0
525.0,510.0,526.0,516.0,508.0
527.0,513.0,531.0,517.0,510.0
527.0,505.0,532.0,516.0,506.0
523.0,505.0,532.0,513.0,502.0
509.0,503.0,525.0,507.0,512.0
501.0,502.0,521.0,508.0,518.0
490.0,496.0,506.0,503.0,515.0
482.0,499.0,496.0,503.0,519.0
506.0,510.0,496.0,514.0,518.0
517.0,514.0,496.0,520.0,510.0
519.0,515.0,495.0,524.0,503.0
518.0,517.0,500.0,527.0,502.0
512.0,517.0,502.0,525.0,499.0
514.0,513.0,500.0,519.0,502.0
521.0,511.0,505.0,519.0,501.0
521.0,509.0,512.0,516.0,504.0
523.0,508.0,517.0,512.0,512.0
531.0,510.0,526.0,515.0,504.0
535.0,508.0,531.0,513.0,504.0
533.0,508.0,532.0,512.0,507.0
529.0,507.0,530.0,509.0,512.0
519.0,502.0,522.0,508.0,520.0
514.0,502.0,515.0,503.0,524.0
503.0,501.0,503.0,503.0,531.0
502.0,506.0,499.0,511.0,532.0
497.0,510.0,501.0,514.0,526.0
501.0,513.0,495.0,519.0,519.0
503.0,514.0,497.0,521.0,518.0
509.0,518.0,501.0,525.0,512.0
508.0,516.0,501.0,521.0,511.0
510.0,511.0,503.0,519.0,509.0
514.0,508.0,507.0,516.0,502.0
518.0,505.0,514.0,515.0,500.0
526.0,506.0,520.0,516.0,501.0
528.0,505.0,524.0,514.0,502.0
531.0,506.0,529.0,512.0,501.0
529.0,505.0,530.0,511.0,507.0
524.0,503.0,527.0,508.0,512.0
516.0,501.0,523.0,508.0,520.0
507.0,499.0,510.0,503.0,526.0
501.0,502.0,505.0,504.0,526.0
498.0,505.0,497.0,509.0,520.0
504.0,511.0,497.0,515.0,521.0
500.0,513.0,494.0,521.0,523.0
502.0,513.0,495.0,521.0,514.0
506.0,519.0,501.0,522.0,510.0
505.0,509.0,499.0,516.0,511.0
511.0,511.0,506.0,517.0,509.0
512.0,507.0,509.0,511.0,507.0
520.0,511.0,516.0,513.0,507.0
527.0,506.0,523.0,512.0,501.0
529.0,507.0,529.0,514.0,502.0
532.0,506.0,532.0,513.0,505.0
529.0,505.0,532.0,511.0,507.0
516.0,502.0,525.0,506.0,516.0
515.0,503.0,522.0,506.0,522.0
504.0,498.0,506.0,501.0,527.0
500.0,503.0,501.0,504.0,531.0
497.0,505.0,497.0,509.0,526.0
500.0,511.0,497.0,516.0,520.0
502.0,513.0,498.0,519.0,517.0
504.0,513.0,499.0,519.0,511.0
506.0,514.0,501.0,518.0,513.0
506.0,509.0,501.0,513.0,514.0
515.0,510.0,511.0,512.0,511.0
520.0,506.0,513.0,511.0,513.0
520.0,504.0,518.0,510.0,510.0
528.0,507.0,527.0,513.0,506.0
532.0,507.0,535.0,512.0,500.0
530.0,504.0,532.0,510.0,503.0
526.0,503.0,530.0,508.0,504.0
517.0,500.0,523.0,505.0,516.0
517.0,500.0,522.0,502.0,518.0
505.0,503.0,509.0,504.0,527.0
498.0,503.0,499.0,504.0,525.0
499.0,508.0,497.0,510.0,524.0
502.0,514.0,496.0,514.0,523.0
500.0,511.0,497.0,515.0,515.0
502.0,516.0,501.0,517.0,512.0
506.0,510.0,502.0,514.0,510.0
506.0,508.0,504.0,514.0,508.0
512.0,505.0,508.0,511.0,501.0
518.0,503.0,513.0,509.0,502.0
522.0,509.0,520.0,509.0,503.0
530.0,509.0,530.0,513.0,503.0
536.0,508.0,535.0,514.0,502.0
532.0,505.0,534.0,512.0,504.0
523.0,502.0,529.0,507.0,511.0
514.0,499.0,522.0,502.0,521.0
507.0,497.0,513.0,500.0,527.0
498.0,499.0,504.0,500.0,528.0
497.0,504.0,500.0,505.0,526.0
497.0,509.0,498.0,514.0,521.0
500.0,511.0,497.0,513.0,514.0
505.0,515.0,497.0,517.0,513.0
506.0,513.0,501.0,515.0,510.0
508.0,508.0,500.0,512.0,510.0
507.0,509.0,511.0,511.0,506.0
514.0,504.0,509.0,510.0,508.0
523.0,506.0,520.0,511.0,503.0
518.0,501.0,525.0,510.0,508.0
524.0,506.0,532.0,512.0,506.0
527.0,505.0,536.0,509.0,512.0
532.0,506.0,538.0,509.0,511.0
518.0,501.0,528.0,505.0,519.0
515.0,501.0,524.0,503.0,517.0
507.0,503.0,514.0,503.0,526.0
499.0,500.0,503.0,502.0,526.0
501.0,507.0,502.0,507.0,526.0
502.0,510.0,499.0,511.0,518.0
503.0,514.0,500.0,513.0,517.0
503.0,514.0,500.0,513.0,512.0
510.0,515.0,505.0,514.0,511.0
508.0,510.0,504.0,509.0,508.0
513.0,509.0,508.0,508.0,500.0
524.0,507.0,519.0,509.0,500.0
524.0,504.0,520.0,506.0,504.0
527.0,503.0,527.0,507.0,500.0
532.0,505.0,535.0,511.0,496.0
529.0,503.0,536.0,509.0,502.0
524.0,507.0,534.0,508.0,509.0
519.0,503.0,527.0,505.0,518.0
513.0,500.0,521.0,502.0,520.0
502.0,499.0,510.0,500.0,528.0
498.0,503.0,505.0,504.0,528.0
497.0,505.0,499.0,505.0,523.0
504.0,512.0,503.0,516.0,520.0
500.0,511.0,499.0,511.0,517.0
507.0,516.0,506.0,516.0,514.0
505.0,509.0,504.0,510.0,518.0
508.0,512.0,507.0,509.0,522.0
506.0,512.0,510.0,505.0,521.0
515.0,507.0,520.0,507.0,522.0
520.0,506.0,525.0,507.0,511.0
523.0,504.0,530.0,508.0,497.0
530.0,506.0,534.0,511.0,486.0
534.0,504.0,535.0,507.0,488.0
525.0,502.0,532.0,507.0,495.0
520.0,500.0,526.0,505.0,511.0
509.0,496.0,514.0,499.0,521.0
507.0,501.0,508.0,503.0,527.0
496.0,507.0,500.0,504.0,521.0
498.0,511.0,497.0,508.0,519.0
500.0,510.0,499.0,512.0,516.0
503.0,512.0,501.0,515.0,511.0
506.0,512.0,504.0,514.0,506.0
507.0,507.0,502.0,509.0,510.0
511.0,509.0,511.0,513.0,506.0
516.0,506.0,513.0,507.0,504.0
522.0,510.0,518.0,507.0,504.0
524.0,505.0,525.0,510.0,499.0
531.0,506.0,534.0,512.0,497.0
532.0,504.0,536.0,511.0,497.0
531.0,504.0,536.0,511.0,504.0
522.0,502.0,529.0,509.0,513.0
515.0,500.0,524.0,504.0,519.0
507.0,499.0,513.0,501.0,530.0
501.0,499.0,503.0,501.0,527.0
506.0,505.0,502.0,512.0,526.0
501.0,511.0,499.0,510.0,522.0
502.0,511.0,499.0,514.0,518.0
504.0,514.0,506.0,517.0,513.0
509.0,513.0,505.0,516.0,510.0
507.0,508.0,503.0,507.0,511.0
512.0,506.0,508.0,510.0,509.0
518.0,506.0,515.0,510.0,508.0
519.0,504.0,520.0,507.0,508.0
528.0,505.0,528.0,511.0,502.0
534.0,506.0,534.0,513.0,501.0
533.0,505.0,536.0,512.0,505.0
529.0,505.0,537.0,511.0,508.0
519.0,500.0,526.0,506.0,516.0
513.0,501.0,523.0,503.0,518.0
503.0,499.0,510.0,503.0,530.0
497.0,501.0,502.0,504.0,529.0
496.0,506.0,499.0,508.0,528.0
499.0,510.0,499.0,513.0,524.0
500.0,511.0,499.0,515.0,518.0
504.0,514.0,503.0,517.0,512.0
507.0,510.0,503.0,514.0,506.0
509.0,508.0,504.0,511.0,509.0
511.0,506.0,508.0,509.0,510.0
517.0,506.0,518.0,512.0,507.0
526.0,505.0,521.0,510.0,501.0
532.0,505.0,528.0,512.0,499.0
533.0,506.0,535.0,512.0,498.0
531.0,506.0,535.0,513.0,503.0
524.0,503.0,530.0,508.0,511.0
515.0,502.0,524.0,507.0,523.0
508.0,497.0,514.0,502.0,527.0
502.0,499.0,505.0,503.0,530.0
496.0,503.0,504.0,506.0,528.0
499.0,507.0,499.0,512.0,519.0
502.0,511.0,499.0,516.0,518.0
504.0,512.0,499.0,517.0,513.0
507.0,514.0,503.0,518.0,510.0
503.0,512.0,502.0,513.0,511.0
505.0,507.0,506.0,515.0,507.0
510.0,509.0,510.0,512.0,504.0
515.0,505.0,518.0,513.0,502.0
520.0,506.0,525.0,514.0,503.0
522.0,506.0,531.0,516.0,506.0
535.0,505.0,535.0,512.0,505.0
529.0,504.0,533.0,512.0,507.0
519.0,501.0,527.0,507.0,514.0
516.0,501.0,523.0,507.0,524.0
507.0,499.0,511.0,504.0,530.0
502.0,502.0,504.0,506.0,531.0
504.0,507.0,501.0,511.0,529.0
507.0,509.0,497.0,513.0,520.0
503.0,511.0,497.0,515.0,519.0
511.0,517.0,501.0,520.0,512.0
509.0,513.0,503.0,518.0,508.0
509.0,509.0,505.0,518.0,511.0
512.0,509.0,509.0,514.0,508.0
513.0,507.0,513.0,511.0,508.0
521.0,506.0,520.0,510.0,508.0
524.0,507.0,530.0,512.0,509.0
528.0,506.0,532.0,513.0,508.0
528.0,504.0,532.0,511.0,506.0
528.0,504.0,531.0,511.0,509.0
524.0,502.0,524.0,507.0,513.0
518.0,502.0,524.0,507.0,513.0
506.0,499.0,507.0,503.0,523.0
499.0,503.0,504.0,507.0,526.0
500.0,508.0,498.0,511.0,522.0
502.0,512.0,499.0,516.0,521.0
501.0,511.0,497.0,517.0,516.0
504.0,514.0,501.0,519.0,508.0
506.0,510.0,502.0,517.0,505.0
507.0,509.0,503.0,514.0,505.0
509.0,506.0,507.0,512.0,503.0
512.0,505.0,515.0,512.0,509.0
522.0,505.0,519.0,510.0,501.0
531.0,507.0,528.0,512.0,502.0
531.0,510.0,532.0,513.0,501.0
532.0,506.0,535.0,514.0,505.0
530.0,509.0,530.0,512.0,511.0
516.0,499.0,522.0,505.0,517.0
514.0,503.0,515.0,504.0,524.0
501.0,499.0,505.0,504.0,529.0
497.0,502.0,500.0,507.0,527.0
495.0,507.0,498.0,515.0,523.0
499.0,509.0,497.0,513.0,517.0
497.0,514.0,499.0,517.0,515.0
501.0,513.0,502.0,518.0,512.0
506.0,512.0,503.0,515.0,516.0
506.0,510.0,506.0,513.0,512.0
513.0,505.0,510.0,510.0,509.0
528.0,507.0,519.0,513.0,506.0
528.0,505.0,524.0,517.0,498.0
531.0,506.0,530.0,513.0,497.0
531.0,505.0,535.0,515.0,493.0
532.0,503.0,533.0,516.0,499.0
524.0,500.0,526.0,510.0,506.0
514.0,499.0,522.0,506.0,523.0
505.0,501.0,511.0,504.0,533.0
498.0,501.0,503.0,504.0,530.0
496.0,505.0,498.0,511.0,526.0
498.0,510.0,498.0,514.0,521.0
503.0,515.0,497.0,517.0,519.0
502.0,512.0,502.0,521.0,509.0
508.0,515.0,505.0,521.0,509.0
502.0,513.0,500.0,514.0,509.0
508.0,509.0,508.0,514.0,508.0
511.0,505.0,513.0,508.0,505.0
515.0,503.0,519.0,512.0,504.0
521.0,507.0,526.0,515.0,503.0
523.0,506.0,533.0,515.0,504.0
520.0,507.0,530.0,510.0,507.0
521.0,504.0,532.0,511.0,509.0
524.0,500.0,526.0,508.0,518.0
526.0,501.0,522.0,509.0,519.0
506.0,498.0,509.0,504.0,529.0
497.0,501.0,500.0,506.0,532.0
491.0,506.0,498.0,511.0,524.0
493.0,514.0,497.0,517.0,516.0
494.0,510.0,497.0,518.0,512.0
493.0,516.0,500.0,519.0,513.0
505.0,510.0,501.0,515.0,514.0
512.0,507.0,501.0,512.0,512.0
527.0,507.0,511.0,514.0,507.0
528.0,505.0,514.0,510.0,506.0
529.0,506.0,521.0,512.0,505.0
530.0,506.0,529.0,514.0,504.0
531.0,505.0,534.0,514.0,505.0
539.0,507.0,535.0,514.0,507.0
533.0,503.0,532.0,512.0,514.0
520.0,503.0,524.0,506.0,520.0
514.0,496.0,514.0,504.0,522.0
505.0,500.0,506.0,505.0,526.0
495.0,502.0,500.0,513.0,519.0
490.0,506.0,496.0,513.0,520.0
487.0,509.0,497.0,517.0,521.0
487.0,510.0,497.0,516.0,522.0
495.0,514.0,502.0,521.0,515.0
496.0,511.0,501.0,517.0,516.0
517.0,510.0,504.0,514.0,510.0
522.0,508.0,509.0,513.0,504.0
530.0,506.0,516.0,515.0,500.0
540.0,507.0,526.0,512.0,499.0
541.0,507.0,530.0,515.0,498.0
534.0,504.0,534.0,513.0,500.0
529.0,504.0,532.0,512.0,505.0
526.0,502.0,528.0,509.0,512.0
520.0,502.0,520.0,507.0,517.0
510.0,498.0,514.0,504.0,526.0
501.0,501.0,504.0,505.0,531.0
506.0,505.0,504.0,510.0,524.0
504.0,507.0,494.0,512.0,519.0
501.0,510.0,496.0,517.0,516.0
503.0,513.0,499.0,520.0,512.0
506.0,513.0,503.0,521.0,511.0
504.0,507.0,499.0,514.0,511.0
519.0,509.0,506.0,515.0,506.0
519.0,504.0,511.0,512.0,509.0
522.0,505.0,517.0,512.0,502.0
528.0,506.0,526.0,514.0,502.0
535.0,504.0,531.0,512.0,500.0
529.0,503.0,531.0,510.0,503.0
528.0,503.0,531.0,511.0,509.0
519.0,499.0,523.0,507.0,517.0
517.0,504.0,519.0,506.0,522.0
501.0,497.0,506.0,502.0,532.0
498.0,500.0,499.0,504.0,533.0
494.0,505.0,498.0,511.0,529.0
498.0,510.0,495.0,516.0,521.0
497.0,511.0,497.0,518.0,516.0
508.0,513.0,503.0,523.0,503.0
508.0,509.0,501.0,520.0,500.0
507.0,507.0,502.0,516.0,506.0
520.0,508.0,512.0,518.0,504.0
516.0,504.0,514.0,513.0,503.0
520.0,504.0,519.0,513.0,501.0
527.0,505.0,527.0,511.0,500.0
529.0,504.0,532.0,513.0,504.0
529.0,503.0,533.0,510.0,504.0
524.0,502.0,530.0,510.0,508.0
517.0,500.0,524.0,506.0,518.0
512.0,498.0,517.0,505.0,525.0
501.0,498.0,505.0,503.0,524.0
499.0,502.0,501.0,509.0,522.0
499.0,505.0,497.0,516.0,519.0
501.0,513.0,500.0,521.0,516.0
499.0,514.0,502.0,519.0,518.0
503.0,512.0,501.0,519.0,515.0
503.0,508.0,499.0,515.0,515.0
509.0,508.0,505.0,516.0,510.0
511.0,504.0,511.0,517.0,507.0
518.0,507.0,518.0,514.0,507.0
522.0,506.0,523.0,513.0,508.0
527.0,506.0,530.0,514.0,502.0
528.0,503.0,534.0,513.0,506.0
532.0,507.0,535.0,513.0,507.0
521.0,501.0,528.0,509.0,513.0
514.0,500.0,522.0,506.0,518.0
510.0,497.0,511.0,504.0,526.0
501.0,498.0,504.0,506.0,530.0
498.0,504.0,500.0,510.0,531.0
495.0,508.0,497.0,515.0,527.0
498.0,511.0,498.0,517.0,524.0
502.0,514.0,499.0,520.0,521.0
506.0,518.0,502.0,522.0,511.0
505.0,509.0,506.0,521.0,512.0
510.0,507.0,506.0,516.0,501.0
514.0,506.0,511.0,514.0,495.0
517.0,505.0,516.0,509.0,501.0
525.0,504.0,524.0,512.0,502.0
528.0,504.0,530.0,513.0,502.0
529.0,503.0,531.0,512.0,504.0
524.0,503.0,531.0,511.0,509.0
517.0,499.0,528.0,510.0,511.0
516.0,500.0,521.0,507.0,514.0
505.0,498.0,512.0,503.0,526.0
500.0,503.0,498.0,504.0,526.0
500.0,506.0,499.0,511.0,524.0
501.0,511.0,498.0,517.0,518.0
505.0,514.0,497.0,520.0,515.0
504.0,513.0,500.0,520.0,509.0
510.0,513.0,503.0,519.0,508.0
505.0,511.0,501.0,514.0,509.0
512.0,507.0,508.0,515.0,505.0
515.0,505.0,515.0,514.0,506.0
521.0,504.0,519.0,513.0,502.0
527.0,505.0,526.0,514.0,499.0
536.0,506.0,535.0,515.0,499.0
531.0,503.0,533.0,518.0,504.0
527.0,504.0,534.0,512.0,509.0
519.0,504.0,523.0,508.0,520.0
512.0,498.0,516.0,504.0,520.0
502.0,499.0,506.0,505.0,527.0
499.0,502.0,501.0,509.0,527.0
504.0,508.0,500.0,513.0,523.0
503.0,512.0,499.0,519.0,520.0
505.0,514.0,499.0,521.0,518.0
510.0,518.0,502.0,524.0,512.0
509.0,509.0,499.0,517.0,510.0
508.0,510.0,505.0,518.0,509.0
511.0,507.0,511.0,518.0,506.0
516.0,504.0,515.0,513.0,505.0
521.0,505.0,522.0,512.0,507.0
524.0,505.0,528.0,512.0,505.0
532.0,504.0,531.0,512.0,501.0
532.0,505.0,534.0,514.0,504.0
523.0,501.0,528.0,510.0,509.0
511.0,500.0,522.0,506.0,517.0
508.0,501.0,512.0,505.0,524.0
509.0,499.0,505.0,508.0,528.0
504.0,506.0,502.0,512.0,522.0
493.0,508.0,497.0,516.0,521.0
499.0,511.0,497.0,519.0,522.0
501.0,509.0,497.0,522.0,516.0
507.0,511.0,500.0,518.0,508.0
502.0,513.0,500.0,515.0,510.0
509.0,509.0,507.0,519.0,510.0
511.0,507.0,509.0,514.0,505.0
520.0,506.0,520.0,514.0,505.0
524.0,507.0,530.0,514.0,501.0
536.0,509.0,533.0,517.0,500.0
532.0,504.0,534.0,514.0,506.0
529.0,507.0,534.0,515.0,511.0
521.0,501.0,526.0,508.0,516.0
513.0,499.0,520.0,505.0,518.0
503.0,498.0,509.0,503.0,525.0
500.0,502.0,502.0,508.0,531.0
500.0,508.0,500.0,512.0,528.0
501.0,511.0,499.0,518.0,520.0
499.0,512.0,497.0,518.0,515.0
505.0,514.0,501.0,523.0,511.0
507.0,513.0,504.0,521.0,512.0
504.0,507.0,500.0,515.0,514.0
510.0,509.0,508.0,512.0,509.0
517.0,507.0,515.0,516.0,504.0
515.0,504.0,519.0,513.0,505.0
528.0,507.0,526.0,514.0,501.0
529.0,505.0,533.0,515.0,501.0
533.0,504.0,534.0,512.0,505.0
530.0,503.0,532.0,511.0,509.0
519.0,500.0,525.0,507.0,524.0
513.0,500.0,522.0,508.0,525.0
502.0,499.0,507.0,505.0,531.0
494.0,501.0,499.0,507.0,533.0
494.0,505.0,496.0,516.0,526.0
499.0,510.0,498.0,520.0,519.0
503.0,514.0,499.0,523.0,513.0
501.0,511.0,500.0,521.0,507.0
498.0,510.0,501.0,516.0,509.0
510.0,510.0,504.0,518.0,509.0
508.0,505.0,507.0,513.0,507.0
522.0,507.0,517.0,515.0,508.0
533.0,507.0,523.0,515.0,502.0
534.0,507.0,530.0,516.0,500.0
535.0,506.0,534.0,515.0,500.0
531.0,506.0,534.0,513.0,504.0
528.0,504.0,532.0,509.0,511.0
521.0,501.0,523.0,508.0,521.0
512.0,496.0,512.0,505.0,532.0
503.0,499.0,505.0,505.0,525.0
499.0,505.0,501.0,511.0,525.0
498.0,509.0,499.0,517.0,520.0
500.0,511.0,501.0,521.0,515.0
502.0,510.0,497.0,519.0,508.0
508.0,513.0,502.0,523.0,508.0
516.0,512.0,504.0,519.0,511.0
515.0,507.0,506.0,516.0,506.0
518.0,509.0,511.0,514.0,506.0
521.0,506.0,519.0,513.0,503.0
526.0,505.0,524.0,515.0,499.0
532.0,505.0,531.0,515.0,496.0
531.0,505.0,536.0,513.0,498.0
533.0,504.0,538.0,515.0,505.0
519.0,500.0,526.0,508.0,513.0
516.0,503.0,523.0,509.0,515.0
508.0,500.0,511.0,507.0,524.0
500.0,505.0,501.0,508.0,522.0
502.0,507.0,500.0,514.0,522.0
497.0,510.0,499.0,518.0,523.0
502.0,512.0,497.0,523.0,520.0
504.0,513.0,503.0,522.0,510.0
504.0,516.0,506.0,522.0,509.0
508.0,508.0,502.0,519.0,514.0
510.0,508.0,508.0,516.0,508.0
513.0,503.0,513.0,514.0,512.0
517.0,504.0,518.0,511.0,508.0
526.0,506.0,527.0,516.0,498.0
530.0,506.0,533.0,515.0,497.0
529.0,504.0,534.0,513.0,503.0
529.0,503.0,531.0,513.0,505.0
527.0,500.0,525.0,508.0,512.0
514.0,501.0,520.0,510.0,516.0
499.0,500.0,507.0,508.0,523.0
499.0,509.0,499.0,507.0,528.0
502.0,508.0,500.0,514.0,524.0
499.0,510.0,498.0,519.0,517.0
499.0,510.0,496.0,517.0,515.0
509.0,515.0,506.0,527.0,513.0
503.0,511.0,502.0,519.0,510.0
502.0,508.0,503.0,515.0,510.0
510.0,506.0,512.0,513.0,510.0
514.0,505.0,516.0,514.0,506.0
521.0,505.0,522.0,514.0,505.0
527.0,504.0,527.0,514.0,503.0
536.0,505.0,534.0,514.0,502.0
536.0,506.0,534.0,513.0,504.0
528.0,505.0,532.0,512.0,512.0
516.0,499.0,523.0,507.0,521.0
507.0,497.0,511.0,501.0,524.0
504.0,500.0,505.0,505.0,528.0
496.0,505.0,503.0,509.0,528.0
497.0,508.0,497.0,515.0,523.0
498.0,511.0,497.0,522.0,515.0
502.0,514.0,500.0,521.0,513.0
507.0,514.0,503.0,523.0,511.0
503.0,509.0,502.0,514.0,507.0
508.0,512.0,503.0,514.0,510.0
513.0,506.0,510.0,514.0,508.0
520.0,506.0,517.0,515.0,509.0
525.0,506.0,524.0,513.0,504.0
529.0,505.0,530.0,513.0,500.0
528.0,504.0,532.0,511.0,502.0
527.0,503.0,533.0,511.0,504.0
521.0,503.0,525.0,508.0,513.0
516.0,501.0,522.0,507.0,522.0
506.0,498.0,510.0,507.0,528.0
500.0,500.0,501.0,504.0,526.0
498.0,505.0,501.0,513.0,524.0
499.0,511.0,501.0,519.0,522.0
501.0,513.0,498.0,525.0,518.0
503.0,514.0,500.0,521.0,510.0
510.0,514.0,505.0,522.0,510.0
504.0,508.0,502.0,516.0,511.0
512.0,509.0,509.0,517.0,511.0
512.0,505.0,510.0,510.0,505.0
522.0,506.0,520.0,513.0,505.0
529.0,507.0,528.0,515.0,500.0
532.0,505.0,533.0,516.0,500.0
529.0,504.0,534.0,513.0,504.0
526.0,504.0,533.0,512.0,509.0
517.0,500.0,524.0,507.0,517.0
510.0,501.0,520.0,507.0,519.0
501.0,501.0,509.0,505.0,528.0
496.0,502.0,501.0,509.0,528.0
497.0,506.0,499.0,510.0,525.0
496.0,510.0,498.0,518.0,521.0
503.0,514.0,499.0,520.0,516.0
506.0,514.0,502.0,521.0,511.0
504.0,511.0,502.0,522.0,514.0
501.0,507.0,507.0,522.0,514.0
510.0,507.0,510.0,516.0,506.0
517.0,506.0,517.0,514.0,508.0
521.0,505.0,520.0,511.0,503.0
528.0,505.0,527.0,512.0,497.0
529.0,507.0,531.0,513.0,497.0
528.0,503.0,532.0,513.0,505.0
524.0,502.0,529.0,509.0,512.0
524.0,501.0,527.0,504.0,514.0
512.0,501.0,513.0,504.0,524.0
500.0,499.0,505.0,505.0,526.0
499.0,505.0,498.0,508.0,524.0
496.0,507.0,498.0,513.0,522.0
500.0,512.0,498.0,519.0,515.0
505.0,513.0,502.0,519.0,513.0
512.0,514.0,503.0,525.0,505.0
505.0,508.0,500.0,519.0,511.0
509.0,509.0,505.0,513.0,510.0
516.0,506.0,515.0,513.0,508.0
518.0,504.0,516.0,509.0,504.0
523.0,506.0,524.0,513.0,503.0
528.0,506.0,531.0,514.0,501.0
528.0,503.0,534.0,513.0,503.0
525.0,505.0,535.0,512.0,505.0
518.0,502.0,528.0,509.0,514.0
512.0,500.0,522.0,507.0,523.0
504.0,496.0,509.0,504.0,531.0
502.0,499.0,502.0,505.0,530.0
505.0,505.0,500.0,509.0,524.0
501.0,510.0,498.0,517.0,520.0
504.0,511.0,498.0,518.0,518.0
509.0,513.0,500.0,521.0,508.0
503.0,512.0,502.0,521.0,507.0
506.0,508.0,505.0,519.0,509.0
514.0,508.0,508.0,516.0,505.0
515.0,507.0,515.0,516.0,504.0
517.0,504.0,517.0,512.0,503.0
527.0,504.0,526.0,515.0,498.0
541.0,507.0,532.0,514.0,500.0
536.0,503.0,533.0,514.0,504.0
530.0,504.0,533.0,515.0,506.0
517.0,500.0,524.0,507.0,515.0
512.0,499.0,520.0,506.0,522.0
499.0,499.0,507.0,505.0,528.0
500.0,500.0,501.0,507.0,531.0
496.0,506.0,498.0,512.0,525.0
501.0,512.0,496.0,516.0,520.0
507.0,512.0,501.0,521.0,512.0
508.0,516.0,504.0,524.0,509.0
500.0,510.0,502.0,516.0,509.0
500.0,508.0,504.0,515.0,513.0
504.0,508.0,512.0,519.0,509.0
512.0,507.0,516.0,515.0,506.0
517.0,505.0,521.0,515.0,508.0
544.0,506.0,530.0,514.0,501.0
545.0,509.0,535.0,517.0,501.0
536.0,507.0,536.0,517.0,505.0
527.0,504.0,531.0,512.0,512.0
515.0,500.0,524.0,505.0,519.0
508.0,496.0,512.0,502.0,525.0
507.0,500.0,507.0,511.0,528.0
500.0,503.0,500.0,510.0,531.0
500.0,507.0,497.0,514.0,521.0
503.0,511.0,497.0,517.0,515.0
505.0,512.0,499.0,521.0,511.0
506.0,513.0,502.0,521.0,510.0
506.0,508.0,502.0,516.0,512.0
507.0,508.0,510.0,517.0,509.0
510.0,505.0,510.0,514.0,509.0
518.0,506.0,519.0,515.0,508.0
521.0,509.0,522.0,512.0,507.0
527.0,504.0,529.0,513.0,503.0
527.0,503.0,532.0,512.0,505.0
528.0,504.0,533.0,514.0,506.0
521.0,501.0,527.0,511.0,513.0
514.0,500.0,521.0,507.0,523.0
503.0,500.0,511.0,506.0,535.0
496.0,502.0,505.0,508.0,538.0
496.0,506.0,501.0,513.0,534.0
494.0,509.0,502.0,519.0,525.0
500.0,511.0,496.0,518.0,509.0
507.0,512.0,500.0,522.0,497.0
502.0,513.0,501.0,521.0,496.0
501.0,512.0,501.0,516.0,505.0
510.0,508.0,507.0,516.0,503.0
513.0,506.0,513.0,515.0,504.0
516.0,503.0,517.0,513.0,501.0
521.0,505.0,525.0,517.0,492.0
524.0,506.0,533.0,520.0,495.0
523.0,508.0,533.0,515.0,500.0
524.0,504.0,532.0,515.0,510.0
526.0,499.0,523.0,506.0,517.0
518.0,499.0,520.0,509.0,525.0
504.0,499.0,508.0,506.0,529.0
500.0,502.0,501.0,509.0,528.0
498.0,506.0,497.0,512.0,526.0
499.0,509.0,497.0,516.0,517.0
502.0,511.0,497.0,519.0,516.0
507.0,515.0,502.0,525.0,512.0
507.0,511.0,503.0,521.0,514.0
503.0,507.0,502.0,515.0,512.0
512.0,507.0,513.0,516.0,510.0
515.0,505.0,513.0,512.0,506.0
520.0,505.0,520.0,513.0,506.0
533.0,507.0,530.0,515.0,501.0
533.0,506.0,532.0,516.0,498.0
527.0,505.0,533.0,515.0,502.0
524.0,503.0,530.0,512.0,508.0
517.0,500.0,522.0,510.0,517.0
510.0,499.0,516.0,506.0,524.0
500.0,498.0,505.0,506.0,527.0
496.0,500.0,499.0,509.0,528.0
498.0,507.0,498.0,514.0,525.0
501.0,511.0,497.0,518.0,520.0
499.0,511.0,498.0,518.0,523.0
507.0,513.0,503.0,522.0,508.0
512.0,510.0,503.0,519.0,507.0
511.0,513.0,505.0,517.0,510.0
513.0,505.0,509.0,512.0,507.0
520.0,505.0,518.0,513.0,506.0
524.0,503.0,523.0,513.0,504.0
529.0,505.0,531.0,517.0,503.0
530.0,503.0,533.0,515.0,504.0
529.0,504.0,534.0,515.0,507.0
522.0,500.0,527.0,510.0,514.0
514.0,497.0,520.0,507.0,520.0
505.0,497.0,510.0,506.0,527.0
500.0,500.0,503.0,507.0,530.0
502.0,504.0,499.0,514.0,526.0
497.0,507.0,497.0,515.0,520.0
500.0,511.0,499.0,519.0,516.0
506.0,515.0,502.0,521.0,513.0
508.0,512.0,502.0,519.0,508.0
514.0,509.0,502.0,517.0,514.0
511.0,507.0,506.0,513.0,507.0
515.0,506.0,511.0,512.0,507.0
520.0,504.0,519.0,516.0,505.0
526.0,505.0,526.0,515.0,500.0
532.0,506.0,532.0,519.0,503.0
536.0,504.0,533.0,514.0,504.0
529.0,503.0,537.0,515.0,508.0
519.0,501.0,525.0,511.0,519.0
513.0,500.0,521.0,510.0,520.0
503.0,498.0,507.0,504.0,529.0
496.0,501.0,501.0,507.0,528.0
497.0,506.0,498.0,513.0,528.0
497.0,513.0,498.0,516.0,522.0
496.0,511.0,497.0,516.0,517.0
502.0,514.0,503.0,518.0,511.0
508.0,512.0,504.0,517.0,510.0
505.0,507.0,502.0,512.0,512.0
513.0,508.0,508.0,512.0,510.0
520.0,508.0,517.0,513.0,508.0
523.0,507.0,520.0,513.0,510.0
529.0,505.0,529.0,516.0,505.0
533.0,507.0,535.0,518.0,501.0
534.0,505.0,535.0,519.0,498.0
530.0,502.0,531.0,518.0,500.0
516.0,501.0,523.0,512.0,512.0
508.0,501.0,518.0,509.0,523.0
499.0,499.0,505.0,505.0,528.0
498.0,504.0,501.0,509.0,528.0
499.0,508.0,498.0,513.0,524.0
499.0,511.0,498.0,518.0,519.0
498.0,513.0,499.0,515.0,517.0
501.0,511.0,505.0,515.0,511.0
505.0,510.0,507.0,511.0,511.0
503.0,511.0,505.0,510.0,510.0
516.0,506.0,510.0,511.0,505.0
527.0,508.0,517.0,512.0,503.0
529.0,506.0,524.0,518.0,504.0
527.0,507.0,531.0,517.0,501.0
530.0,504.0,533.0,515.0,502.0
529.0,506.0,535.0,520.0,507.0
524.0,505.0,530.0,515.0,515.0
509.0,502.0,525.0,508.0,521.0
501.0,496.0,510.0,506.0,528.0
501.0,501.0,502.0,507.0,527.0
492.0,503.0,495.0,508.0,527.0
487.0,508.0,498.0,512.0,525.0
485.0,512.0,496.0,512.0,519.0
495.0,512.0,498.0,514.0,513.0
513.0,513.0,503.0,515.0,507.0
503.0,510.0,502.0,509.0,512.0
512.0,510.0,509.0,513.0,508.0
531.0,511.0,514.0,511.0,505.0
533.0,507.0,522.0,513.0,507.0
530.0,507.0,526.0,511.0,505.0
539.0,510.0,532.0,516.0,501.0
536.0,505.0,534.0,517.0,506.0
534.0,505.0,534.0,519.0,508.0
527.0,502.0,526.0,515.0,514.0
521.0,503.0,524.0,519.0,516.0
508.0,500.0,510.0,509.0,527.0
503.0,502.0,504.0,509.0,528.0
499.0,505.0,498.0,511.0,523.0
502.0,511.0,495.0,514.0,518.0
494.0,514.0,494.0,512.0,516.0
502.0,513.0,501.0,515.0,511.0
502.0,511.0,503.0,513.0,509.0
501.0,506.0,501.0,509.0,516.0
510.0,506.0,511.0,506.0,507.0
517.0,507.0,513.0,508.0,507.0
532.0,505.0,522.0,513.0,505.0
531.0,505.0,527.0,515.0,505.0
531.0,506.0,532.0,516.0,503.0
531.0,505.0,535.0,518.0,509.0
527.0,503.0,532.0,518.0,515.0
518.0,500.0,524.0,514.0,522.0
512.0,499.0,517.0,512.0,527.0
502.0,499.0,506.0,507.0,530.0
500.0,503.0,500.0,510.0,525.0
501.0,508.0,498.0,513.0,518.0
502.0,515.0,495.0,514.0,509.0
503.0,512.0,498.0,515.0,511.0
509.0,515.0,502.0,516.0,509.0
507.0,510.0,501.0,511.0,509.0
508.0,508.0,504.0,509.0,505.0
514.0,508.0,511.0,510.0,503.0
517.0,505.0,516.0,510.0,501.0
521.0,503.0,521.0,511.0,498.0
526.0,504.0,528.0,516.0,497.0
531.0,505.0,532.0,517.0,504.0
531.0,507.0,535.0,520.0,505.0
522.0,503.0,531.0,519.0,511.0
518.0,501.0,522.0,515.0,518.0
509.0,498.0,512.0,509.0,530.0
494.0,499.0,503.0,508.0,537.0
493.0,505.0,500.0,512.0,536.0
499.0,509.0,498.0,514.0,526.0
498.0,511.0,497.0,515.0,520.0
499.0,513.0,498.0,515.0,510.0
506.0,512.0,503.0,516.0,491.0
512.0,512.0,501.0,512.0,503.0
516.0,508.0,505.0,510.0,506.0
517.0,509.0,511.0,510.0,507.0
522.0,504.0,519.0,513.0,504.0
526.0,505.0,526.0,516.0,502.0
532.0,507.0,533.0,518.0,504.0
533.0,503.0,534.0,520.0,504.0
529.0,504.0,533.0,519.0,509.0
517.0,500.0,525.0,514.0,515.0
517.0,498.0,520.0,513.0,517.0
505.0,498.0,509.0,510.0,528.0
498.0,504.0,501.0,510.0,528.0
501.0,507.0,501.0,514.0,523.0
498.0,510.0,499.0,516.0,519.0
499.0,512.0,500.0,514.0,517.0
505.0,513.0,501.0,515.0,513.0
506.0,512.0,501.0,513.0,510.0
504.0,514.0,500.0,506.0,512.0
512.0,507.0,508.0,508.0,508.0
516.0,506.0,514.0,509.0,506.0
519.0,506.0,521.0,511.0,507.0
528.0,506.0,527.0,517.0,503.0
538.0,507.0,536.0,519.0,500.0
531.0,505.0,535.0,522.0,504.0
526.0,503.0,532.0,522.0,510.0
515.0,500.0,523.0,516.0,519.0
511.0,499.0,517.0,513.0,523.0
502.0,500.0,507.0,510.0,528.0
499.0,502.0,501.0,510.0,528.0
499.0,508.0,499.0,513.0,526.0
503.0,512.0,497.0,514.0,522.0
501.0,512.0,497.0,512.0,515.0
507.0,514.0,502.0,514.0,509.0
507.0,514.0,503.0,509.0,508.0
508.0,509.0,503.0,507.0,509.0
512.0,507.0,513.0,508.0,505.0
520.0,504.0,517.0,509.0,503.0
521.0,506.0,522.0,511.0,507.0
523.0,508.0,528.0,515.0,504.0
531.0,503.0,533.0,520.0,502.0
532.0,504.0,532.0,523.0,503.0
524.0,502.0,531.0,523.0,511.0
519.0,500.0,524.0,518.0,523.0
505.0,498.0,512.0,513.0,534.0
499.0,498.0,502.0,510.0,531.0
493.0,507.0,498.0,510.0,526.0
498.0,510.0,495.0,512.0,521.0
504.0,510.0,497.0,511.0,513.0
505.0,514.0,500.0,511.0,511.0
507.0,514.0,502.0,509.0,508.0
507.0,509.0,502.0,504.0,508.0
512.0,510.0,506.0,505.0,510.0
515.0,506.0,512.0,507.0,507.0
525.0,506.0,520.0,509.0,499.0
526.0,506.0,526.0,518.0,502.0
528.0,507.0,531.0,518.0,507.0
529.0,504.0,533.0,521.0,508.0
527.0,503.0,532.0,522.0,509.0
525.0,505.0,529.0,521.0,517.0
516.0,502.0,523.0,521.0,521.0
501.0,498.0,511.0,515.0,530.0
498.0,501.0,502.0,512.0,529.0
497.0,505.0,497.0,510.0,525.0
500.0,512.0,496.0,511.0,520.0
498.0,512.0,498.0,507.0,519.0
505.0,518.0,501.0,510.0,511.0
507.0,515.0,503.0,506.0,509.0
501.0,505.0,499.0,501.0,509.0
515.0,509.0,508.0,505.0,504.0
522.0,507.0,514.0,506.0,505.0
524.0,504.0,519.0,511.0,503.0
529.0,506.0,530.0,514.0,504.0
532.0,506.0,534.0,520.0,505.0
531.0,504.0,534.0,523.0,507.0
526.0,503.0,531.0,524.0,512.0
517.0,504.0,524.0,522.0,522.0
515.0,500.0,520.0,521.0,524.0
505.0,499.0,508.0,515.0,528.0
499.0,502.0,502.0,513.0,528.0
499.0,505.0,496.0,510.0,525.0
504.0,512.0,498.0,512.0,517.0
504.0,513.0,499.0,510.0,513.0
504.0,514.0,501.0,509.0,510.0
502.0,509.0,503.0,507.0,508.0
506.0,510.0,502.0,500.0,510.0
518.0,506.0,509.0,506.0,508.0
521.0,504.0,515.0,506.0,504.0
521.0,504.0,519.0,510.0,503.0
525.0,503.0,530.0,517.0,500.0
527.0,503.0,533.0,522.0,503.0
524.0,507.0,535.0,532.0,506.0
521.0,503.0,531.0,525.0,514.0
511.0,499.0,522.0,520.0,521.0
503.0,497.0,514.0,517.0,527.0
496.0,501.0,505.0,513.0,530.0
500.0,507.0,499.0,510.0,527.0
506.0,507.0,496.0,509.0,520.0
512.0,515.0,497.0,509.0,513.0
506.0,513.0,500.0,510.0,511.0
511.0,513.0,502.0,509.0,507.0
512.0,510.0,503.0,504.0,509.0
516.0,511.0,505.0,505.0,508.0
513.0,505.0,513.0,505.0,506.0
521.0,504.0,518.0,509.0,503.0
527.0,507.0,527.0,520.0,499.0
534.0,508.0,534.0,522.0,501.0
530.0,504.0,534.0,521.0,504.0
531.0,503.0,533.0,525.0,507.0
528.0,505.0,528.0,523.0,515.0
514.0,499.0,522.0,520.0,523.0
506.0,498.0,511.0,515.0,530.0
499.0,501.0,503.0,513.0,532.0
500.0,506.0,499.0,514.0,528.0
499.0,509.0,497.0,510.0,521.0
502.0,511.0,498.0,509.0,518.0
506.0,517.0,500.0,510.0,512.0
507.0,512.0,506.0,510.0,510.0
505.0,506.0,500.0,501.0,510.0
512.0,505.0,507.0,504.0,508.0
519.0,507.0,514.0,507.0,508.0
520.0,508.0,520.0,509.0,509.0
528.0,504.0,531.0,516.0,503.0
533.0,506.0,534.0,526.0,501.0
529.0,502.0,534.0,523.0,507.0
526.0,503.0,532.0,524.0,512.0
519.0,498.0,524.0,521.0,516.0
513.0,498.0,518.0,520.0,522.0
506.0,497.0,506.0,512.0,527.0
500.0,501.0,501.0,513.0,528.0
498.0,506.0,498.0,513.0,524.0
501.0,510.0,501.0,512.0,519.0
503.0,512.0,498.0,510.0,519.0
505.0,511.0,500.0,509.0,510.0
508.0,511.0,503.0,507.0,509.0
509.0,511.0,502.0,504.0,511.0
516.0,507.0,508.0,504.0,506.0
519.0,505.0,517.0,509.0,505.0
523.0,504.0,523.0,514.0,503.0
530.0,505.0,528.0,519.0,503.0
532.0,505.0,535.0,524.0,501.0
530.0,502.0,535.0,529.0,502.0
523.0,498.0,527.0,522.0,513.0
521.0,498.0,523.0,523.0,523.0
507.0,496.0,514.0,518.0,526.0
502.0,496.0,504.0,512.0,528.0
498.0,501.0,498.0,509.0,527.0
500.0,506.0,496.0,511.0,523.0
499.0,511.0,498.0,513.0,519.0
502.0,512.0,500.0,511.0,512.0
508.0,511.0,502.0,505.0,506.0
502.0,510.0,500.0,500.0,515.0
513.0,511.0,504.0,501.0,513.0
509.0,509.0,508.0,501.0,508.0
518.0,509.0,516.0,507.0,506.0
527.0,507.0,527.0,514.0,504.0
529.0,505.0,531.0,520.0,503.0
530.0,502.0,534.0,529.0,507.0
533.0,505.0,534.0,529.0,511.0
523.0,501.0,529.0,527.0,518.0
512.0,500.0,525.0,524.0,521.0
504.0,497.0,509.0,516.0,528.0
499.0,500.0,502.0,514.0,529.0
499.0,505.0,499.0,514.0,526.0
500.0,509.0,497.0,513.0,516.0
500.0,511.0,497.0,509.0,516.0
505.0,517.0,499.0,510.0,512.0
507.0,512.0,503.0,507.0,508.0
507.0,510.0,501.0,503.0,511.0
511.0,508.0,507.0,502.0,505.0
516.0,507.0,514.0,504.0,508.0
521.0,504.0,520.0,512.0,509.0
527.0,505.0,527.0,517.0,501.0
531.0,504.0,533.0,525.0,502.0
533.0,505.0,535.0,528.0,507.0
528.0,503.0,532.0,528.0,508.0
519.0,499.0,525.0,525.0,518.0
514.0,500.0,521.0,524.0,522.0
504.0,499.0,508.0,518.0,530.0
500.0,503.0,502.0,515.0,531.0
501.0,510.0,499.0,513.0,528.0
498.0,509.0,496.0,509.0,519.0
500.0,511.0,497.0,508.0,516.0
507.0,517.0,500.0,507.0,510.0
505.0,511.0,502.0,503.0,507.0
507.0,508.0,503.0,500.0,510.0
511.0,505.0,507.0,500.0,505.0
515.0,505.0,516.0,506.0,504.0
524.0,505.0,520.0,510.0,498.0
529.0,506.0,527.0,517.0,499.0
531.0,506.0,534.0,526.0,500.0
530.0,506.0,536.0,530.0,511.0
528.0,504.0,532.0,529.0,519.0
514.0,500.0,523.0,525.0,531.0
514.0,500.0,515.0,523.0,532.0
511.0,503.0,506.0,517.0,535.0
498.0,504.0,500.0,513.0,532.0
497.0,512.0,496.0,511.0,526.0
503.0,512.0,497.0,510.0,516.0
506.0,514.0,500.0,507.0,507.0
509.0,514.0,501.0,508.0,500.0
504.0,513.0,501.0,501.0,506.0
503.0,508.0,504.0,501.0,509.0
506.0,504.0,509.0,503.0,513.0
514.0,506.0,517.0,508.0,501.0
521.0,507.0,525.0,515.0,500.0
534.0,508.0,531.0,522.0,497.0
539.0,506.0,533.0,525.0,499.0
536.0,506.0,533.0,530.0,503.0
533.0,509.0,529.0,528.0,514.0
522.0,501.0,526.0,525.0,518.0
510.0,498.0,509.0,518.0,525.0
504.0,502.0,502.0,514.0,524.0
506.0,508.0,501.0,514.0,523.0
501.0,510.0,497.0,512.0,520.0
500.0,511.0,497.0,510.0,517.0
507.0,515.0,501.0,511.0,512.0
509.0,514.0,503.0,505.0,504.0
507.0,512.0,501.0,502.0,509.0
509.0,507.0,503.0,499.0,508.0
517.0,506.0,513.0,503.0,503.0
521.0,507.0,519.0,511.0,502.0
521.0,510.0,525.0,518.0,506.0
521.0,507.0,533.0,524.0,512.0
523.0,505.0,534.0,528.0,508.0
527.0,503.0,532.0,530.0,504.0
515.0,500.0,524.0,524.0,514.0
507.0,500.0,519.0,522.0,523.0
521.0,501.0,509.0,517.0,525.0
508.0,502.0,500.0,513.0,530.0
501.0,512.0,497.0,512.0,527.0
503.0,513.0,498.0,512.0,521.0
499.0,517.0,497.0,510.0,518.0
505.0,515.0,501.0,510.0,510.0
503.0,513.0,501.0,505.0,512.0
506.0,508.0,501.0,501.0,514.0
514.0,509.0,507.0,505.0,510.0
519.0,508.0,519.0,506.0,505.0
529.0,512.0,521.0,511.0,507.0
533.0,509.0,533.0,517.0,504.0
534.0,507.0,536.0,523.0,502.0
531.0,506.0,534.0,528.0,507.0
524.0,503.0,527.0,525.0,514.0
513.0,500.0,522.0,522.0,517.0
505.0,498.0,515.0,517.0,524.0
501.0,501.0,505.0,515.0,529.0
498.0,505.0,500.0,513.0,527.0
499.0,509.0,498.0,512.0,524.0
500.0,510.0,497.0,511.0,522.0
501.0,513.0,496.0,507.0,515.0
507.0,515.0,502.0,508.0,509.0
507.0,512.0,503.0,504.0,512.0
508.0,507.0,503.0,502.0,508.0
514.0,506.0,509.0,503.0,507.0
522.0,507.0,518.0,509.0,505.0
525.0,506.0,524.0,513.0,501.0
528.0,508.0,531.0,520.0,504.0
530.0,506.0,537.0,523.0,506.0
529.0,507.0,534.0,527.0,507.0
521.0,503.0,529.0,526.0,517.0
515.0,501.0,522.0,523.0,521.0
508.0,500.0,510.0,518.0,528.0
497.0,500.0,501.0,514.0,533.0
494.0,509.0,496.0,511.0,524.0
497.0,511.0,497.0,512.0,517.0
501.0,513.0,497.0,514.0,517.0
505.0,515.0,501.0,510.0,513.0
505.0,513.0,500.0,506.0,507.0
504.0,509.0,501.0,502.0,510.0
511.0,510.0,508.0,504.0,507.0
514.0,505.0,511.0,506.0,501.0
518.0,505.0,519.0,513.0,500.0
528.0,507.0,526.0,513.0,503.0
531.0,508.0,530.0,520.0,502.0
526.0,505.0,533.0,524.0,508.0
526.0,505.0,533.0,531.0,509.0
518.0,502.0,526.0,524.0,516.0
511.0,500.0,519.0,521.0,520.0
502.0,499.0,509.0,516.0,527.0
498.0,502.0,500.0,512.0,529.0
499.0,509.0,499.0,513.0,525.0
499.0,512.0,500.0,512.0,519.0
500.0,512.0,496.0,508.0,514.0
506.0,515.0,501.0,509.0,510.0
507.0,514.0,504.0,505.0,511.0
505.0,507.0,501.0,499.0,512.0
511.0,508.0,508.0,502.0,509.0
517.0,506.0,516.0,506.0,507.0
520.0,505.0,520.0,509.0,505.0
525.0,506.0,526.0,516.0,503.0
530.0,505.0,536.0,524.0,503.0
530.0,506.0,535.0,529.0,503.0
524.0,505.0,531.0,526.0,511.0
516.0,500.0,524.0,521.0,519.0
510.0,500.0,516.0,518.0,527.0
503.0,500.0,508.0,514.0,529.0
499.0,504.0,500.0,511.0,529.0
496.0,507.0,497.0,509.0,524.0
499.0,512.0,497.0,508.0,519.0
502.0,517.0,498.0,507.0,516.0
503.0,514.0,507.0,510.0,512.0
504.0,511.0,502.0,505.0,512.0
508.0,509.0,505.0,503.0,510.0
514.0,506.0,508.0,502.0,507.0
520.0,505.0,516.0,508.0,505.0
525.0,505.0,524.0,514.0,502.0
532.0,508.0,531.0,520.0,498.0
530.0,506.0,534.0,521.0,500.0
529.0,505.0,534.0,524.0,504.0
523.0,502.0,528.0,527.0,509.0
515.0,500.0,522.0,520.0,516.0
506.0,498.0,513.0,516.0,525.0
501.0,502.0,504.0,513.0,529.0
498.0,509.0,501.0,512.0,529.0
496.0,510.0,500.0,510.0,525.0
497.0,511.0,497.0,509.0,520.0
501.0,514.0,500.0,510.0,513.0
505.0,516.0,503.0,509.0,507.0
502.0,512.0,499.0,502.0,507.0
509.0,509.0,508.0,506.0,505.0
515.0,505.0,510.0,504.0,502.0
522.0,504.0,517.0,508.0,505.0
528.0,507.0,527.0,516.0,501.0
530.0,503.0,532.0,519.0,504.0
527.0,503.0,532.0,521.0,505.0
525.0,504.0,533.0,525.0,511.0
518.0,499.0,526.0,522.0,516.0
515.0,498.0,519.0,519.0,518.0
506.0,499.0,508.0,514.0,527.0
500.0,501.0,501.0,511.0,531.0
500.0,506.0,498.0,512.0,529.0
501.0,510.0,497.0,511.0,523.0
500.0,514.0,495.0,509.0,516.0
512.0,514.0,503.0,514.0,507.0
511.0,511.0,503.0,508.0,503.0
512.0,509.0,502.0,501.0,508.0
513.0,507.0,509.0,503.0,509.0
520.0,506.0,515.0,507.0,501.0
525.0,505.0,521.0,510.0,504.0
529.0,506.0,528.0,517.0,503.0
531.0,506.0,533.0,521.0,504.0
532.0,506.0,535.0,523.0,505.0
527.0,503.0,530.0,524.0,509.0
519.0,500.0,523.0,521.0,517.0
513.0,499.0,517.0,517.0,528.0
503.0,500.0,507.0,514.0,530.0
500.0,503.0,500.0,512.0,528.0
498.0,506.0,496.0,509.0,525.0
502.0,511.0,497.0,511.0,517.0
504.0,513.0,499.0,509.0,516.0
507.0,513.0,500.0,508.0,510.0
508.0,513.0,502.0,506.0,510.0
507.0,507.0,502.0,502.0,508.0
513.0,507.0,510.0,504.0,505.0
518.0,506.0,517.0,510.0,506.0
521.0,506.0,522.0,512.0,499.0
529.0,505.0,528.0,519.0,498.0
539.0,505.0,539.0,523.0,504.0
530.0,507.0,535.0,527.0,509.0
524.0,504.0,529.0,525.0,515.0
518.0,501.0,522.0,522.0,523.0
508.0,496.0,514.0,516.0,528.0
499.0,499.0,501.0,510.0,528.0
493.0,503.0,497.0,512.0,528.0
494.0,509.0,497.0,511.0,523.0
500.0,512.0,497.0,513.0,521.0
504.0,513.0,500.0,512.0,517.0
506.0,515.0,502.0,508.0,509.0
507.0,513.0,501.0,503.0,515.0
510.0,508.0,505.0,505.0,509.0
520.0,507.0,513.0,505.0,506.0
521.0,506.0,518.0,508.0,507.0
528.0,507.0,524.0,514.0,501.0
530.0,507.0,531.0,519.0,500.0
531.0,505.0,535.0,523.0,508.0
532.0,508.0,535.0,527.0,508.0
526.0,503.0,526.0,524.0,516.0
514.0,500.0,521.0,521.0,520.0
504.0,499.0,509.0,515.0,528.0
501.0,503.0,503.0,512.0,531.0
502.0,506.0,503.0,512.0,527.0
498.0,511.0,499.0,512.0,525.0
497.0,510.0,496.0,507.0,520.0
506.0,512.0,501.0,510.0,513.0
508.0,516.0,503.0,509.0,510.0
504.0,509.0,501.0,501.0,510.0
511.0,508.0,507.0,503.0,507.0
518.0,505.0,514.0,510.0,505.0
523.0,505.0,519.0,510.0,501.0
525.0,506.0,526.0,516.0,500.0
532.0,504.0,533.0,520.0,501.0
530.0,504.0,534.0,524.0,506.0
527.0,505.0,531.0,525.0,513.0
519.0,502.0,529.0,523.0,520.0
515.0,500.0,518.0,517.0,524.0
503.0,500.0,511.0,513.0,523.0
497.0,503.0,500.0,511.0,526.0
498.0,507.0,497.0,510.0,523.0
500.0,512.0,498.0,512.0,519.0
500.0,512.0,496.0,508.0,514.0
506.0,514.0,502.0,510.0,510.0
505.0,512.0,507.0,510.0,509.0
505.0,508.0,501.0,504.0,508.0
509.0,505.0,508.0,506.0,509.0
520.0,505.0,521.0,506.0,499.0
525.0,505.0,523.0,512.0,501.0
527.0,505.0,529.0,516.0,502.0
530.0,504.0,537.0,520.0,499.0
531.0,505.0,533.0,524.0,503.0
525.0,503.0,530.0,523.0,515.0
518.0,504.0,525.0,518.0,521.0
506.0,497.0,510.0,511.0,530.0
499.0,499.0,502.0,511.0,530.0
499.0,504.0,500.0,507.0,527.0
499.0,508.0,497.0,511.0,523.0
501.0,511.0,497.0,511.0,519.0
505.0,513.0,500.0,513.0,514.0
507.0,510.0,501.0,511.0,510.0
505.0,508.0,501.0,505.0,514.0
510.0,512.0,505.0,507.0,511.0
513.0,505.0,510.0,505.0,506.0
516.0,508.0,516.0,509.0,505.0
526.0,508.0,526.0,516.0,501.0
534.0,507.0,532.0,521.0,503.0
531.0,505.0,533.0,522.0,505.0
526.0,504.0,532.0,521.0,512.0
520.0,499.0,526.0,518.0,517.0
513.0,500.0,521.0,517.0,520.0
509.0,500.0,513.0,513.0,524.0
500.0,503.0,507.0,512.0,524.0
499.0,504.0,497.0,511.0,522.0
501.0,509.0,496.0,510.0,520.0
503.0,509.0,497.0,510.0,514.0
503.0,514.0,501.0,513.0,510.0
502.0,513.0,503.0,511.0,511.0
500.0,507.0,502.0,506.0,509.0
506.0,506.0,508.0,507.0,507.0
512.0,507.0,517.0,508.0,504.0
515.0,502.0,517.0,508.0,504.0
530.0,503.0,526.0,514.0,500.0
540.0,507.0,535.0,522.0,500.0
537.0,506.0,536.0,523.0,502.0
533.0,504.0,531.0,522.0,507.0
518.0,499.0,524.0,522.0,516.0
512.0,499.0,517.0,515.0,520.0
504.0,502.0,506.0,512.0,527.0
496.0,501.0,499.0,510.0,527.0
494.0,505.0,496.0,510.0,529.0
502.0,511.0,497.0,513.0,518.0
503.0,512.0,499.0,514.0,516.0
505.0,513.0,500.0,513.0,509.0
509.0,514.0,504.0,514.0,510.0
506.0,507.0,503.0,506.0,508.0
512.0,506.0,509.0,507.0,505.0
519.0,505.0,518.0,515.0,501.0
522.0,504.0,522.0,514.0,502.0
523.0,505.0,528.0,516.0,502.0
530.0,503.0,532.0,519.0,500.0
533.0,505.0,538.0,523.0,502.0
522.0,502.0,530.0,521.0,511.0
517.0,498.0,521.0,514.0,515.0
513.0,499.0,511.0,512.0,523.0
506.0,503.0,503.0,511.0,530.0
498.0,505.0,499.0,509.0,525.0
501.0,509.0,498.0,514.0,523.0
501.0,516.0,498.0,511.0,522.0
502.0,510.0,497.0,511.0,511.0
512.0,513.0,507.0,514.0,509.0
507.0,509.0,502.0,507.0,514.0
512.0,508.0,505.0,505.0,508.0
512.0,510.0,510.0,507.0,509.0
517.0,504.0,518.0,514.0,507.0
523.0,505.0,524.0,514.0,506.0
528.0,505.0,532.0,520.0,498.0
529.0,504.0,533.0,521.0,501.0
529.0,503.0,533.0,522.0,505.0
524.0,503.0,525.0,518.0,512.0
513.0,502.0,518.0,514.0,521.0
503.0,498.0,509.0,511.0,526.0
500.0,501.0,502.0,510.0,531.0
498.0,505.0,502.0,511.0,524.0
498.0,509.0,497.0,514.0,520.0
500.0,512.0,498.0,514.0,514.0
506.0,517.0,503.0,515.0,512.0
506.0,512.0,504.0,513.0,513.0
506.0,509.0,502.0,506.0,508.0
510.0,506.0,508.0,507.0,509.0
514.0,506.0,513.0,508.0,503.0
518.0,504.0,520.0,511.0,506.0
518.0,505.0,527.0,515.0,501.0
524.0,505.0,532.0,519.0,502.0
524.0,505.0,534.0,521.0,507.0
519.0,505.0,532.0,525.0,514.0
516.0,501.0,524.0,516.0,521.0
517.0,504.0,517.0,513.0,523.0
507.0,500.0,507.0,511.0,530.0
501.0,504.0,502.0,512.0,529.0
500.0,507.0,497.0,513.0,523.0
502.0,509.0,497.0,513.0,514.0
507.0,513.0,498.0,515.0,515.0
505.0,513.0,500.0,513.0,508.0
508.0,512.0,503.0,511.0,507.0
506.0,506.0,502.0,506.0,508.0
513.0,507.0,511.0,509.0,507.0
517.0,503.0,515.0,508.0,505.0
522.0,506.0,522.0,513.0,503.0
529.0,506.0,529.0,518.0,500.0
530.0,505.0,534.0,520.0,503.0
528.0,503.0,533.0,525.0,501.0
522.0,502.0,529.0,521.0,510.0
517.0,504.0,520.0,515.0,517.0
505.0,497.0,512.0,512.0,527.0
499.0,500.0,505.0,513.0,531.0
496.0,503.0,499.0,511.0,527.0
497.0,507.0,495.0,511.0,519.0
498.0,511.0,497.0,513.0,515.0
502.0,513.0,499.0,515.0,513.0
507.0,515.0,504.0,516.0,510.0
508.0,507.0,505.0,509.0,510.0
509.0,509.0,506.0,509.0,510.0
512.0,505.0,511.0,508.0,507.0
518.0,503.0,517.0,510.0,505.0
524.0,506.0,524.0,517.0,499.0
528.0,505.0,531.0,520.0,500.0
528.0,508.0,532.0,521.0,509.0
530.0,507.0,535.0,523.0,508.0
522.0,503.0,529.0,522.0,510.0
514.0,505.0,521.0,517.0,520.0
502.0,497.0,509.0,512.0,525.0
496.0,499.0,503.0,509.0,526.0
496.0,503.0,498.0,512.0,526.0
500.0,511.0,498.0,516.0,518.0
504.0,513.0,498.0,517.0,515.0
510.0,513.0,500.0,516.0,508.0
505.0,512.0,502.0,511.0,511.0
504.0,507.0,502.0,508.0,514.0
512.0,505.0,506.0,507.0,508.0
518.0,506.0,513.0,513.0,509.0
520.0,502.0,518.0,510.0,511.0
526.0,504.0,526.0,516.0,502.0
537.0,509.0,534.0,521.0,498.0
532.0,506.0,537.0,521.0,501.0
525.0,505.0,536.0,521.0,508.0
518.0,501.0,528.0,517.0,516.0
509.0,501.0,520.0,516.0,523.0
497.0,497.0,506.0,511.0,532.0
492.0,501.0,501.0,508.0,530.0
494.0,506.0,500.0,510.0,527.0
501.0,509.0,495.0,515.0,518.0
501.0,511.0,497.0,512.0,517.0
511.0,514.0,503.0,515.0,512.0
513.0,509.0,502.0,511.0,508.0
513.0,509.0,502.0,508.0,506.0
512.0,504.0,507.0,508.0,511.0
515.0,506.0,516.0,507.0,505.0
528.0,507.0,521.0,511.0,504.0
528.0,504.0,529.0,516.0,501.0
530.0,505.0,533.0,518.0,501.0
530.0,503.0,533.0,519.0,504.0
526.0,503.0,530.0,519.0,511.0
514.0,499.0,522.0,515.0,519.0
504.0,497.0,510.0,511.0,529.0
497.0,500.0,505.0,510.0,528.0
496.0,505.0,501.0,510.0,527.0
497.0,509.0,498.0,512.0,523.0
504.0,513.0,498.0,514.0,519.0
504.0,512.0,499.0,514.0,514.0
507.0,512.0,502.0,514.0,507.0
505.0,509.0,501.0,510.0,508.0
509.0,508.0,505.0,508.0,508.0
515.0,507.0,512.0,509.0,509.0
518.0,509.0,520.0,509.0,505.0
524.0,505.0,525.0,514.0,504.0
529.0,507.0,531.0,518.0,506.0
534.0,505.0,538.0,519.0,503.0
533.0,504.0,534.0,522.0,506.0
524.0,502.0,531.0,518.0,513.0
514.0,499.0,521.0,515.0,520.0
502.0,497.0,510.0,513.0,527.0
499.0,502.0,503.0,510.0,529.0
499.0,507.0,502.0,512.0,527.0
501.0,513.0,498.0,516.0,521.0
500.0,512.0,500.0,513.0,515.0
504.0,516.0,499.0,514.0,509.0
507.0,512.0,503.0,513.0,511.0
504.0,508.0,502.0,508.0,516.0
509.0,509.0,507.0,508.0,506.0
515.0,506.0,514.0,510.0,507.0
524.0,505.0,519.0,515.0,505.0
525.0,505.0,527.0,517.0,503.0
530.0,506.0,534.0,522.0,498.0
529.0,503.0,534.0,520.0,502.0
524.0,500.0,530.0,518.0,514.0
515.0,500.0,526.0,516.0,519.0
517.0,499.0,518.0,516.0,522.0
507.0,500.0,508.0,512.0,528.0
497.0,503.0,501.0,510.0,531.0
503.0,509.0,501.0,514.0,523.0
502.0,512.0,499.0,516.0,518.0
503.0,514.0,499.0,515.0,512.0
506.0,513.0,501.0,519.0,514.0
509.0,511.0,501.0,511.0,507.0
509.0,508.0,502.0,507.0,509.0
513.0,507.0,512.0,510.0,506.0
521.0,504.0,517.0,508.0,503.0
520.0,505.0,518.0,512.0,504.0
529.0,503.0,525.0,515.0,501.0
531.0,507.0,533.0,520.0,504.0
531.0,506.0,538.0,524.0,504.0
526.0,503.0,531.0,521.0,511.0
517.0,499.0,523.0,516.0,520.0
508.0,497.0,511.0,511.0,531.0
504.0,500.0,505.0,509.0,537.0
501.0,504.0,501.0,512.0,529.0
500.0,507.0,499.0,518.0,521.0
507.0,511.0,502.0,515.0,517.0
502.0,511.0,498.0,514.0,513.0
504.0,513.0,502.0,515.0,507.0
509.0,513.0,502.0,512.0,509.0
507.0,504.0,503.0,508.0,506.0
513.0,506.0,510.0,509.0,508.0
518.0,504.0,516.0,511.0,506.0
521.0,504.0,525.0,512.0,508.0
524.0,504.0,529.0,517.0,504.0
528.0,504.0,534.0,525.0,504.0
524.0,506.0,533.0,522.0,509.0
518.0,501.0,528.0,518.0,513.0
512.0,499.0,520.0,514.0,520.0
510.0,497.0,510.0,512.0,529.0
505.0,498.0,503.0,509.0,525.0
501.0,509.0,499.0,512.0,523.0
504.0,511.0,497.0,514.0,520.0
508.0,512.0,500.0,513.0,516.0
507.0,515.0,501.0,515.0,513.0
510.0,515.0,506.0,517.0,509.0
504.0,509.0,502.0,509.0,509.0
509.0,507.0,506.0,509.0,503.0
518.0,508.0,515.0,511.0,504.0
519.0,503.0,516.0,507.0,507.0
526.0,502.0,525.0,513.0,504.0
529.0,504.0,532.0,517.0,502.0
525.0,503.0,532.0,518.0,507.0
526.0,502.0,529.0,519.0,509.0
513.0,501.0,526.0,513.0,518.0
510.0,501.0,520.0,515.0,522.0
505.0,502.0,509.0,511.0,532.0
501.0,502.0,500.0,510.0,527.0
497.0,507.0,498.0,513.0,524.0
502.0,513.0,497.0,514.0,521.0
501.0,513.0,497.0,514.0,520.0
508.0,514.0,502.0,519.0,513.0
507.0,512.0,502.0,514.0,511.0
512.0,512.0,502.0,508.0,513.0
517.0,506.0,508.0,508.0,509.0
522.0,506.0,515.0,511.0,503.0
527.0,506.0,523.0,514.0,504.0
532.0,506.0,530.0,519.0,501.0
533.0,505.0,534.0,520.0,502.0
528.0,505.0,535.0,519.0,503.0
523.0,503.0,530.0,518.0,514.0
518.0,497.0,524.0,512.0,520.0
503.0,497.0,513.0,515.0,526.0
498.0,501.0,506.0,512.0,529.0
496.0,503.0,501.0,511.0,526.0
502.0,508.0,499.0,512.0,522.0
500.0,512.0,498.0,515.0,520.0
501.0,512.0,499.0,514.0,518.0
506.0,512.0,501.0,513.0,512.0
510.0,510.0,501.0,509.0,508.0
511.0,508.0,505.0,508.0,512.0
514.0,505.0,510.0,508.0,506.0
518.0,505.0,518.0,511.0,505.0
527.0,509.0,524.0,514.0,504.0
530.0,507.0,532.0,518.0,502.0
529.0,505.0,532.0,520.0,502.0
528.0,504.0,532.0,519.0,506.0
522.0,503.0,527.0,517.0,512.0
513.0,499.0,521.0,513.0,518.0
506.0,498.0,510.0,510.0,526.0
499.0,501.0,503.0,511.0,529.0
498.0,506.0,499.0,512.0,526.0
503.0,513.0,499.0,516.0,521.0
506.0,514.0,503.0,516.0,517.0
501.0,513.0,499.0,512.0,517.0
504.0,514.0,502.0,513.0,514.0
504.0,510.0,502.0,512.0,514.0
510.0,509.0,507.0,509.0,507.0
515.0,505.0,512.0,509.0,503.0
520.0,506.0,519.0,511.0,503.0
526.0,507.0,527.0,517.0,502.0
531.0,507.0,533.0,523.0,500.0
527.0,504.0,533.0,520.0,507.0
525.0,504.0,533.0,521.0,508.0
518.0,500.0,526.0,516.0,516.0
510.0,501.0,519.0,514.0,522.0
501.0,499.0,507.0,512.0,527.0
499.0,503.0,500.0,509.0,527.0
498.0,506.0,497.0,511.0,521.0
500.0,511.0,498.0,512.0,517.0
503.0,512.0,498.0,515.0,516.0
507.0,515.0,502.0,516.0,513.0
506.0,515.0,504.0,512.0,510.0
505.0,505.0,503.0,507.0,509.0
514.0,509.0,509.0,510.0,509.0
519.0,507.0,518.0,516.0,500.0
522.0,505.0,521.0,514.0,504.0
529.0,506.0,532.0,516.0,503.0
531.0,507.0,534.0,520.0,504.0
532.0,505.0,536.0,523.0,505.0
525.0,503.0,531.0,519.0,511.0
516.0,500.0,524.0,516.0,519.0
508.0,500.0,517.0,512.0,526.0
499.0,500.0,506.0,511.0,531.0
496.0,503.0,503.0,511.0,528.0
497.0,512.0,497.0,514.0,524.0
500.0,511.0,498.0,515.0,519.0
503.0,515.0,497.0,512.0,515.0
508.0,514.0,503.0,512.0,511.0
511.0,513.0,505.0,514.0,512.0
507.0,508.0,503.0,509.0,512.0
510.0,506.0,510.0,509.0,512.0
518.0,505.0,518.0,510.0,508.0
520.0,507.0,525.0,514.0,508.0
524.0,506.0,531.0,518.0,509.0
524.0,504.0,534.0,520.0,507.0
525.0,505.0,535.0,519.0,506.0
527.0,503.0,527.0,517.0,506.0
523.0,501.0,521.0,514.0,513.0
510.0,498.0,510.0,512.0,523.0
507.0,501.0,504.0,510.0,523.0
504.0,506.0,500.0,513.0,523.0
506.0,510.0,498.0,515.0,521.0
504.0,511.0,497.0,514.0,517.0
510.0,514.0,500.0,517.0,510.0
514.0,515.0,504.0,514.0,512.0
513.0,510.0,502.0,508.0,514.0
511.0,508.0,505.0,508.0,510.0
514.0,506.0,512.0,510.0,511.0
519.0,504.0,519.0,512.0,505.0
527.0,507.0,527.0,519.0,506.0
531.0,507.0,532.0,521.0,505.0
531.0,506.0,533.0,520.0,508.0
533.0,505.0,532.0,521.0,508.0
524.0,502.0,524.0,519.0,510.0
514.0,500.0,520.0,516.0,519.0
510.0,499.0,512.0,511.0,523.0
497.0,501.0,502.0,512.0,525.0
496.0,512.0,499.0,515.0,528.0
501.0,510.0,497.0,514.0,528.0
500.0,510.0,496.0,511.0,521.0
498.0,513.0,499.0,513.0,512.0
504.0,512.0,502.0,512.0,512.0
505.0,509.0,502.0,506.0,517.0
509.0,506.0,506.0,506.0,509.0
514.0,507.0,514.0,509.0,506.0
520.0,506.0,521.0,512.0,507.0
527.0,507.0,528.0,517.0,503.0
527.0,507.0,533.0,520.0,505.0
527.0,506.0,534.0,521.0,508.0
521.0,504.0,531.0,521.0,509.0
513.0,502.0,525.0,518.0,516.0
506.0,499.0,517.0,514.0,522.0
498.0,499.0,506.0,514.0,527.0
498.0,502.0,500.0,510.0,528.0
504.0,506.0,499.0,508.0,523.0
505.0,512.0,497.0,513.0,519.0
509.0,512.0,498.0,511.0,515.0
508.0,515.0,506.0,519.0,510.0
507.0,508.0,501.0,509.0,509.0
508.0,505.0,503.0,507.0,511.0
514.0,505.0,510.0,512.0,509.0
518.0,503.0,517.0,509.0,506.0
522.0,505.0,522.0,512.0,504.0
528.0,505.0,528.0,516.0,499.0
534.0,504.0,537.0,521.0,500.0
532.0,506.0,535.0,525.0,503.0
529.0,504.0,535.0,518.0,510.0
516.0,501.0,522.0,516.0,519.0
507.0,497.0,512.0,510.0,526.0
496.0,498.0,502.0,508.0,527.0
496.0,505.0,498.0,512.0,528.0
497.0,509.0,497.0,513.0,522.0
501.0,512.0,498.0,514.0,517.0
503.0,514.0,500.0,519.0,513.0
507.0,512.0,502.0,512.0,507.0
509.0,510.0,503.0,509.0,510.0
508.0,510.0,503.0,507.0,506.0
515.0,506.0,512.0,512.0,507.0
522.0,505.0,519.0,511.0,504.0
526.0,506.0,525.0,515.0,505.0
533.0,508.0,532.0,519.0,504.0
531.0,506.0,535.0,521.0,505.0
532.0,505.0,536.0,520.0,507.0
522.0,502.0,527.0,518.0,515.0
516.0,499.0,519.0,516.0,521.0
503.0,497.0,507.0,509.0,525.0
498.0,501.0,500.0,512.0,526.0
498.0,505.0,498.0,512.0,523.0
501.0,511.0,498.0,515.0,520.0
502.0,511.0,498.0,514.0,517.0
504.0,512.0,501.0,515.0,511.0
508.0,513.0,503.0,513.0,507.0
505.0,508.0,503.0,511.0,510.0
510.0,506.0,506.0,509.0,506.0
517.0,506.0,516.0,512.0,505.0
521.0,506.0,519.0,512.0,502.0
530.0,507.0,528.0,517.0,503.0
535.0,511.0,536.0,520.0,505.0
530.0,506.0,535.0,521.0,510.0
527.0,503.0,530.0,517.0,509.0
519.0,500.0,523.0,514.0,516.0
512.0,498.0,516.0,511.0,526.0
503.0,499.0,506.0,509.0,529.0
499.0,502.0,501.0,510.0,529.0
501.0,507.0,502.0,512.0,525.0
499.0,512.0,498.0,514.0,524.0
504.0,512.0,501.0,512.0,513.0
510.0,516.0,507.0,516.0,508.0
507.0,512.0,504.0,512.0,512.0
507.0,508.0,502.0,507.0,510.0
512.0,506.0,509.0,508.0,508.0
519.0,507.0,517.0,511.0,504.0
525.0,508.0,524.0,515.0,502.0
530.0,508.0,531.0,518.0,502.0
531.0,507.0,535.0,519.0,504.0
530.0,506.0,534.0,520.0,509.0
523.0,503.0,530.0,517.0,510.0
516.0,501.0,523.0,514.0,518.0
506.0,498.0,511.0,509.0,525.0
501.0,502.0,504.0,510.0,525.0
503.0,504.0,503.0,511.0,523.0
501.0,507.0,496.0,512.0,517.0
505.0,513.0,497.0,515.0,514.0
509.0,515.0,500.0,516.0,511.0
503.0,513.0,501.0,512.0,508.0
505.0,508.0,500.0,511.0,508.0
506.0,508.0,505.0,508.0,508.0
515.0,509.0,512.0,508.0,507.0
521.0,504.0,518.0,515.0,505.0
523.0,505.0,525.0,514.0,501.0
528.0,505.0,531.0,517.0,502.0
531.0,505.0,537.0,518.0,504.0
525.0,507.0,532.0,524.0,508.0
520.0,503.0,527.0,516.0,518.0
514.0,500.0,519.0,513.0,519.0
503.0,499.0,508.0,508.0,530.0
501.0,501.0,501.0,513.0,529.0
501.0,505.0,500.0,513.0,523.0
499.0,510.0,497.0,513.0,520.0
499.0,513.0,498.0,514.0,518.0
502.0,512.0,500.0,514.0,512.0
507.0,513.0,502.0,513.0,510.0
506.0,508.0,505.0,507.0,515.0
513.0,509.0,507.0,508.0,510.0
519.0,509.0,516.0,512.0,507.0
520.0,506.0,520.0,512.0,506.0
524.0,505.0,525.0,516.0,500.0
530.0,506.0,532.0,523.0,501.0
528.0,505.0,533.0,525.0,502.0
521.0,503.0,529.0,518.0,510.0
522.0,501.0,522.0,514.0,514.0
516.0,500.0,517.0,512.0,521.0
506.0,502.0,507.0,511.0,529.0
499.0,503.0,501.0,511.0,531.0
499.0,506.0,496.0,511.0,522.0
506.0,512.0,498.0,515.0,516.0
506.0,513.0,498.0,514.0,515.0
508.0,515.0,501.0,516.0,509.0
507.0,513.0,503.0,512.0,509.0
504.0,507.0,503.0,508.0,513.0
504.0,506.0,507.0,507.0,508.0
511.0,507.0,516.0,511.0,505.0
515.0,503.0,520.0,511.0,501.0
526.0,506.0,531.0,516.0,499.0
526.0,505.0,532.0,518.0,503.0
532.0,506.0,532.0,520.0,503.0
533.0,504.0,529.0,518.0,508.0
518.0,501.0,522.0,516.0,518.0
507.0,499.0,512.0,511.0,531.0
506.0,500.0,503.0,509.0,532.0
498.0,508.0,498.0,508.0,527.0
497.0,509.0,496.0,512.0,523.0
502.0,512.0,497.0,514.0,521.0
508.0,515.0,500.0,517.0,513.0
515.0,519.0,503.0,516.0,506.0
512.0,511.0,503.0,507.0,510.0
516.0,507.0,504.0,506.0,508.0
515.0,505.0,509.0,507.0,505.0
523.0,507.0,520.0,511.0,506.0
527.0,511.0,526.0,514.0,504.0
532.0,510.0,531.0,519.0,506.0
533.0,507.0,534.0,520.0,507.0
530.0,506.0,534.0,520.0,513.0
520.0,503.0,529.0,518.0,518.0
511.0,502.0,519.0,514.0,518.0
505.0,498.0,507.0,509.0,520.0
506.0,501.0,505.0,511.0,525.0
496.0,505.0,499.0,513.0,524.0
499.0,510.0,501.0,517.0,518.0
511.0,516.0,495.0,514.0,515.0
512.0,516.0,500.0,514.0,514.0
513.0,513.0,506.0,514.0,509.0
508.0,508.0,502.0,509.0,509.0
509.0,513.0,507.0,508.0,506.0
515.0,506.0,513.0,510.0,503.0
519.0,508.0,519.0,511.0,503.0
528.0,507.0,527.0,519.0,503.0
530.0,506.0,532.0,519.0,499.0
530.0,505.0,534.0,520.0,500.0
531.0,504.0,531.0,521.0,504.0
520.0,503.0,524.0,515.0,511.0
512.0,500.0,517.0,510.0,523.0
504.0,501.0,508.0,511.0,529.0
497.0,505.0,504.0,509.0,532.0
500.0,509.0,499.0,510.0,528.0
498.0,511.0,495.0,512.0,520.0
498.0,511.0,500.0,513.0,514.0
506.0,516.0,506.0,516.0,508.0
508.0,513.0,503.0,514.0,510.0
506.0,508.0,503.0,509.0,509.0
514.0,507.0,508.0,513.0,510.0
517.0,505.0,516.0,509.0,507.0
523.0,506.0,523.0,514.0,509.0
529.0,507.0,530.0,517.0,503.0
529.0,507.0,535.0,519.0,502.0
530.0,503.0,534.0,519.0,506.0
522.0,502.0,528.0,515.0,510.0
514.0,501.0,523.0,513.0,515.0
506.0,498.0,512.0,509.0,523.0
501.0,501.0,506.0,510.0,529.0
499.0,508.0,502.0,512.0,527.0
498.0,509.0,497.0,513.0,524.0
500.0,512.0,498.0,515.0,521.0
501.0,512.0,498.0,515.0,514.0
505.0,516.0,505.0,515.0,508.0
506.0,513.0,502.0,512.0,506.0
506.0,508.0,505.0,508.0,509.0
515.0,506.0,512.0,511.0,506.0
521.0,504.0,518.0,516.0,501.0
524.0,510.0,525.0,515.0,500.0
528.0,509.0,533.0,519.0,500.0
531.0,505.0,534.0,519.0,499.0
526.0,505.0,534.0,519.0,502.0
519.0,502.0,527.0,514.0,514.0
513.0,500.0,521.0,513.0,521.0
504.0,499.0,510.0,510.0,529.0
502.0,505.0,503.0,510.0,532.0
499.0,506.0,499.0,516.0,528.0
496.0,509.0,497.0,513.0,521.0
500.0,512.0,497.0,515.0,515.0
506.0,516.0,500.0,517.0,511.0
507.0,517.0,503.0,514.0,508.0
506.0,506.0,502.0,510.0,510.0
510.0,506.0,507.0,510.0,507.0
518.0,506.0,514.0,511.0,505.0
524.0,504.0,522.0,513.0,505.0
525.0,504.0,526.0,514.0,502.0
530.0,506.0,533.0,518.0,503.0
529.0,506.0,538.0,519.0,503.0
526.0,505.0,534.0,520.0,508.0
514.0,500.0,525.0,514.0,522.0
508.0,499.0,518.0,511.0,523.0
500.0,500.0,507.0,509.0,529.0
498.0,503.0,502.0,510.0,529.0
497.0,507.0,503.0,512.0,525.0
500.0,511.0,498.0,515.0,523.0
498.0,511.0,497.0,513.0,514.0
509.0,514.0,502.0,516.0,509.0
516.0,516.0,505.0,517.0,506.0
506.0,509.0,503.0,510.0,510.0
508.0,506.0,508.0,506.0,510.0
514.0,505.0,514.0,510.0,511.0
519.0,504.0,521.0,511.0,505.0
525.0,506.0,529.0,516.0,504.0
529.0,506.0,535.0,520.0,506.0
529.0,507.0,536.0,521.0,510.0
523.0,504.0,531.0,518.0,512.0
518.0,502.0,523.0,516.0,517.0
509.0,501.0,512.0,510.0,526.0
501.0,500.0,505.0,509.0,527.0
498.0,503.0,499.0,509.0,523.0
497.0,506.0,496.0,512.0,519.0
503.0,512.0,497.0,514.0,512.0
504.0,514.0,499.0,519.0,514.0
506.0,515.0,503.0,515.0,507.0
508.0,510.0,503.0,512.0,506.0
510.0,508.0,505.0,509.0,511.0
513.0,505.0,514.0,506.0,505.0
519.0,508.0,517.0,510.0,504.0
526.0,508.0,526.0,515.0,501.0
529.0,507.0,531.0,518.0,500.0
529.0,505.0,533.0,520.0,500.0
528.0,505.0,533.0,519.0,505.0
522.0,502.0,527.0,517.0,512.0
514.0,500.0,523.0,512.0,519.0
504.0,499.0,510.0,509.0,528.0
500.0,502.0,503.0,510.0,531.0
498.0,507.0,500.0,513.0,529.0
501.0,514.0,499.0,516.0,524.0
497.0,511.0,498.0,515.0,519.0
501.0,513.0,500.0,516.0,507.0
506.0,512.0,503.0,515.0,507.0
500.0,508.0,506.0,510.0,507.0
512.0,508.0,508.0,509.0,505.0
522.0,507.0,516.0,510.0,504.0
524.0,505.0,521.0,510.0,504.0
533.0,508.0,529.0,517.0,500.0
536.0,506.0,535.0,517.0,499.0
532.0,504.0,534.0,517.0,501.0
529.0,503.0,533.0,520.0,506.0
521.0,501.0,526.0,519.0,517.0
513.0,499.0,519.0,513.0,523.0
504.0,499.0,511.0,509.0,524.0
503.0,503.0,503.0,512.0,524.0
498.0,506.0,499.0,511.0,526.0
496.0,511.0,498.0,513.0,521.0
497.0,512.0,498.0,514.0,516.0
507.0,513.0,502.0,515.0,508.0
509.0,513.0,505.0,513.0,509.0
508.0,509.0,500.0,506.0,506.0
515.0,512.0,509.0,508.0,505.0
519.0,509.0,516.0,512.0,507.0
524.0,503.0,520.0,512.0,506.0
531.0,509.0,529.0,516.0,504.0
535.0,507.0,532.0,519.0,502.0
528.0,504.0,538.0,517.0,504.0
521.0,501.0,529.0,516.0,513.0
515.0,499.0,523.0,514.0,518.0
507.0,495.0,510.0,507.0,524.0
499.0,500.0,505.0,510.0,526.0
500.0,506.0,502.0,513.0,527.0
507.0,510.0,499.0,514.0,522.0
502.0,513.0,499.0,516.0,518.0
500.0,512.0,497.0,514.0,512.0
508.0,514.0,503.0,517.0,509.0
507.0,509.0,503.0,513.0,511.0
508.0,508.0,505.0,510.0,511.0
514.0,506.0,512.0,511.0,507.0
520.0,502.0,517.0,509.0,505.0
523.0,506.0,524.0,514.0,502.0
528.0,505.0,531.0,517.0,500.0
529.0,502.0,532.0,517.0,500.0
531.0,505.0,534.0,520.0,505.0
523.0,502.0,528.0,515.0,512.0
513.0,500.0,520.0,516.0,518.0
504.0,500.0,511.0,508.0,528.0
499.0,502.0,504.0,508.0,530.0
497.0,505.0,499.0,512.0,528.0
497.0,508.0,496.0,512.0,521.0
500.0,512.0,498.0,514.0,516.0
506.0,514.0,501.0,518.0,512.0
509.0,512.0,503.0,516.0,511.0
508.0,507.0,501.0,510.0,509.0
510.0,509.0,508.0,512.0,506.0
522.0,510.0,515.0,515.0,502.0
522.0,508.0,522.0,515.0,504.0
526.0,507.0,528.0,516.0,503.0
528.0,510.0,533.0,516.0,505.0
528.0,506.0,533.0,515.0,507.0
526.0,504.0,532.0,517.0,510.0
520.0,502.0,527.0,514.0,516.0
515.0,501.0,521.0,513.0,524.0
503.0,497.0,509.0,511.0,531.0
498.0,500.0,500.0,507.0,529.0
499.0,507.0,499.0,511.0,523.0
506.0,511.0,503.0,514.0,517.0
503.0,513.0,499.0,516.0,516.0
507.0,514.0,502.0,517.0,510.0
509.0,509.0,504.0,515.0,510.0
506.0,505.0,500.0,508.0,511.0
515.0,507.0,509.0,510.0,512.0
515.0,506.0,517.0,512.0,504.0
521.0,511.0,522.0,512.0,504.0
529.0,508.0,529.0,516.0,503.0
537.0,507.0,535.0,518.0,498.0
535.0,506.0,536.0,517.0,501.0
529.0,505.0,533.0,516.0,508.0
519.0,502.0,525.0,513.0,519.0
509.0,498.0,514.0,508.0,528.0
502.0,500.0,505.0,509.0,529.0
501.0,505.0,501.0,509.0,527.0
501.0,510.0,498.0,514.0,523.0
502.0,512.0,498.0,515.0,518.0
505.0,513.0,498.0,515.0,515.0
509.0,514.0,504.0,518.0,509.0
507.0,510.0,503.0,513.0,507.0
512.0,509.0,507.0,512.0,512.0
513.0,505.0,508.0,508.0,507.0
520.0,507.0,518.0,512.0,508.0
526.0,506.0,524.0,514.0,505.0
531.0,507.0,532.0,518.0,501.0
528.0,506.0,538.0,516.0,505.0
532.0,505.0,533.0,519.0,508.0
525.0,502.0,529.0,517.0,515.0
518.0,500.0,520.0,511.0,517.0
507.0,498.0,510.0,507.0,526.0
500.0,502.0,503.0,507.0,530.0
500.0,505.0,499.0,515.0,528.0
500.0,509.0,498.0,513.0,520.0
505.0,513.0,498.0,516.0,518.0
505.0,516.0,499.0,516.0,513.0
505.0,512.0,500.0,515.0,511.0
506.0,507.0,503.0,512.0,513.0
510.0,508.0,506.0,510.0,508.0
516.0,507.0,513.0,510.0,512.0
518.0,506.0,518.0,511.0,509.0
527.0,507.0,527.0,515.0,503.0
535.0,508.0,538.0,520.0,501.0
531.0,506.0,534.0,518.0,508.0
528.0,506.0,533.0,518.0,511.0
520.0,501.0,527.0,515.0,521.0
512.0,498.0,522.0,510.0,517.0
502.0,504.0,508.0,507.0,524.0
500.0,502.0,502.0,510.0,527.0
500.0,507.0,498.0,511.0,525.0
502.0,511.0,498.0,515.0,515.0
504.0,513.0,499.0,516.0,520.0
510.0,514.0,501.0,517.0,513.0
506.0,512.0,503.0,512.0,509.0
509.0,508.0,504.0,512.0,512.0
512.0,506.0,507.0,509.0,506.0
519.0,506.0,516.0,512.0,505.0
526.0,506.0,522.0,510.0,505.0
530.0,506.0,529.0,516.0,502.0
533.0,504.0,532.0,517.0,499.0
529.0,508.0,532.0,520.0,508.0
527.0,505.0,531.0,519.0,514.0
519.0,501.0,523.0,513.0,522.0
509.0,498.0,514.0,509.0,532.0
503.0,498.0,504.0,506.0,530.0
499.0,504.0,501.0,511.0,527.0
499.0,512.0,497.0,513.0,522.0
503.0,513.0,499.0,517.0,516.0
507.0,513.0,499.0,517.0,514.0
505.0,511.0,500.0,514.0,507.0
507.0,510.0,503.0,513.0,508.0
506.0,506.0,505.0,513.0,510.0
509.0,505.0,508.0,508.0,508.0
516.0,505.0,517.0,511.0,504.0
527.0,506.0,527.0,513.0,502.0
530.0,506.0,529.0,517.0,499.0
529.0,503.0,532.0,518.0,501.0
529.0,506.0,534.0,520.0,509.0
520.0,500.0,529.0,520.0,516.0
510.0,502.0,520.0,513.0,523.0
500.0,497.0,510.0,510.0,529.0
493.0,499.0,503.0,509.0,529.0
495.0,504.0,500.0,513.0,524.0
501.0,508.0,497.0,514.0,519.0
506.0,511.0,497.0,515.0,515.0
507.0,510.0,500.0,516.0,511.0
514.0,512.0,502.0,516.0,506.0
517.0,511.0,504.0,513.0,509.0
518.0,508.0,506.0,511.0,507.0
520.0,506.0,512.0,511.0,504.0
524.0,505.0,519.0,513.0,503.0
530.0,506.0,528.0,517.0,500.0
536.0,505.0,532.0,519.0,498.0
535.0,505.0,531.0,519.0,499.0
529.0,504.0,534.0,520.0,505.0
