CH1,CH2,CH3,CH4,CH5
506.0,502.0,521.0,482.0,510.0
503.0,498.0,520.0,476.0,517.0
508.0,500.0,526.0,479.0,514.0
517.0,503.0,530.0,490.0,507.0
522.0,504.0,530.0,503.0,501.0
529.0,510.0,533.0,520.0,498.0
535.0,514.0,533.0,538.0,492.0
531.0,513.0,522.0,547.0,494.0
535.0,516.0,518.0,556.0,500.0
523.0,513.0,507.0,552.0,508.0
513.0,509.0,496.0,546.0,516.0
499.0,502.0,485.0,531.0,528.0
495.0,502.0,490.0,520.0,535.0
491.0,504.0,492.0,509.0,533.0
496.0,505.0,499.0,498.0,531.0
501.0,504.0,507.0,489.0,527.0
505.0,505.0,516.0,484.0,519.0
507.0,503.0,521.0,480.0,516.0
505.0,499.0,520.0,475.0,514.0
511.0,500.0,526.0,486.0,507.0
519.0,502.0,530.0,492.0,503.0
523.0,508.0,531.0,507.0,504.0
532.0,516.0,533.0,524.0,493.0
537.0,515.0,530.0,543.0,492.0
534.0,516.0,522.0,552.0,493.0
527.0,516.0,514.0,554.0,506.0
519.0,513.0,504.0,550.0,514.0
504.0,505.0,490.0,539.0,526.0
495.0,503.0,482.0,526.0,531.0
491.0,502.0,488.0,515.0,534.0
493.0,503.0,494.0,503.0,535.0
496.0,505.0,504.0,494.0,529.0
500.0,505.0,510.0,488.0,523.0
506.0,505.0,518.0,486.0,513.0
508.0,503.0,522.0,479.0,514.0
505.0,498.0,521.0,474.0,515.0
516.0,501.0,532.0,484.0,508.0
523.0,504.0,531.0,498.0,501.0
529.0,509.0,533.0,513.0,495.0
536.0,514.0,537.0,531.0,493.0
535.0,514.0,527.0,544.0,490.0
535.0,517.0,522.0,554.0,495.0
525.0,513.0,508.0,553.0,503.0
520.0,512.0,504.0,549.0,515.0
502.0,506.0,488.0,534.0,532.0
492.0,502.0,484.0,521.0,536.0
492.0,502.0,487.0,510.0,535.0
495.0,503.0,496.0,501.0,528.0
496.0,503.0,503.0,492.0,527.0
503.0,504.0,514.0,490.0,524.0
506.0,504.0,519.0,483.0,518.0
506.0,499.0,521.0,475.0,517.0
510.0,501.0,524.0,477.0,510.0
519.0,501.0,529.0,492.0,505.0
526.0,505.0,531.0,502.0,502.0
532.0,510.0,533.0,519.0,496.0
537.0,514.0,532.0,537.0,493.0
534.0,511.0,523.0,547.0,495.0
532.0,516.0,522.0,554.0,499.0
521.0,512.0,507.0,551.0,508.0
510.0,506.0,499.0,543.0,519.0
497.0,503.0,487.0,536.0,531.0
493.0,503.0,487.0,519.0,536.0
492.0,502.0,491.0,507.0,534.0
495.0,504.0,499.0,498.0,528.0
496.0,502.0,505.0,488.0,528.0
499.0,506.0,513.0,484.0,518.0
504.0,501.0,521.0,480.0,516.0
503.0,498.0,522.0,476.0,517.0
510.0,500.0,531.0,485.0,509.0
515.0,501.0,530.0,493.0,503.0
520.0,505.0,531.0,506.0,502.0
532.0,510.0,532.0,524.0,494.0
542.0,516.0,532.0,542.0,492.0
538.0,515.0,523.0,550.0,492.0
533.0,515.0,515.0,554.0,504.0
524.0,512.0,504.0,552.0,512.0
508.0,505.0,491.0,540.0,525.0
498.0,502.0,486.0,529.0,529.0
495.0,501.0,487.0,514.0,532.0
494.0,502.0,491.0,506.0,534.0
498.0,503.0,501.0,500.0,525.0
502.0,502.0,509.0,493.0,522.0
507.0,506.0,519.0,483.0,520.0
508.0,504.0,522.0,479.0,514.0
507.0,498.0,522.0,476.0,513.0
515.0,500.0,526.0,484.0,505.0
522.0,502.0,530.0,497.0,500.0
529.0,507.0,534.0,512.0,494.0
533.0,514.0,533.0,531.0,488.0
536.0,515.0,533.0,545.0,492.0
533.0,516.0,524.0,552.0,495.0
533.0,518.0,512.0,554.0,506.0
517.0,509.0,501.0,549.0,516.0
498.0,503.0,487.0,537.0,529.0
493.0,501.0,485.0,526.0,536.0
491.0,503.0,488.0,512.0,536.0
498.0,503.0,498.0,503.0,528.0
501.0,503.0,504.0,494.0,526.0
504.0,506.0,514.0,487.0,522.0
502.0,505.0,518.0,481.0,516.0
503.0,499.0,520.0,476.0,514.0
508.0,500.0,523.0,477.0,511.0
513.0,499.0,529.0,487.0,502.0
522.0,506.0,529.0,500.0,501.0
532.0,509.0,533.0,518.0,496.0
535.0,512.0,531.0,532.0,490.0
536.0,515.0,527.0,547.0,493.0
530.0,514.0,518.0,553.0,498.0
519.0,512.0,511.0,550.0,511.0
510.0,511.0,498.0,547.0,522.0
497.0,504.0,488.0,533.0,530.0
490.0,501.0,485.0,519.0,533.0
491.0,503.0,493.0,508.0,539.0
495.0,504.0,499.0,498.0,532.0
497.0,503.0,506.0,489.0,527.0
501.0,505.0,515.0,485.0,519.0
504.0,503.0,520.0,480.0,516.0
502.0,498.0,521.0,472.0,515.0
510.0,500.0,526.0,483.0,509.0
517.0,502.0,530.0,493.0,504.0
526.0,505.0,531.0,505.0,501.0
532.0,509.0,531.0,526.0,491.0
541.0,514.0,530.0,541.0,490.0
534.0,515.0,525.0,552.0,497.0
529.0,521.0,513.0,554.0,502.0
520.0,512.0,504.0,551.0,512.0
507.0,508.0,488.0,539.0,522.0
498.0,503.0,489.0,528.0,531.0
494.0,504.0,489.0,518.0,534.0
495.0,508.0,492.0,504.0,533.0
496.0,504.0,501.0,495.0,528.0
498.0,502.0,507.0,487.0,523.0
507.0,508.0,518.0,485.0,518.0
508.0,504.0,523.0,478.0,514.0
507.0,499.0,521.0,477.0,514.0
515.0,500.0,528.0,483.0,507.0
522.0,501.0,531.0,501.0,503.0
531.0,508.0,533.0,515.0,493.0
534.0,512.0,534.0,529.0,493.0
534.0,514.0,528.0,544.0,490.0
534.0,517.0,523.0,555.0,494.0
525.0,513.0,512.0,553.0,505.0
517.0,510.0,502.0,549.0,517.0
502.0,504.0,488.0,535.0,531.0
494.0,502.0,485.0,520.0,533.0
490.0,502.0,489.0,511.0,535.0
492.0,504.0,497.0,503.0,531.0
494.0,505.0,502.0,491.0,527.0
499.0,505.0,511.0,486.0,520.0
504.0,504.0,517.0,480.0,515.0
504.0,500.0,520.0,475.0,518.0
511.0,500.0,525.0,478.0,513.0
522.0,502.0,529.0,487.0,504.0
526.0,503.0,529.0,498.0,498.0
535.0,510.0,538.0,519.0,494.0
537.0,514.0,533.0,534.0,491.0
535.0,516.0,527.0,547.0,496.0
532.0,514.0,518.0,554.0,498.0
523.0,514.0,509.0,553.0,509.0
514.0,511.0,497.0,547.0,518.0
498.0,502.0,484.0,531.0,529.0
492.0,499.0,484.0,518.0,534.0
491.0,507.0,490.0,513.0,534.0
495.0,504.0,499.0,499.0,531.0
497.0,504.0,506.0,491.0,526.0
501.0,505.0,514.0,484.0,521.0
508.0,502.0,518.0,479.0,514.0
508.0,498.0,521.0,480.0,516.0
515.0,502.0,528.0,482.0,510.0
521.0,503.0,531.0,493.0,502.0
526.0,505.0,531.0,505.0,498.0
533.0,514.0,532.0,529.0,492.0
538.0,515.0,532.0,540.0,487.0
537.0,516.0,525.0,550.0,495.0
529.0,512.0,512.0,551.0,504.0
517.0,511.0,503.0,550.0,512.0
503.0,504.0,491.0,539.0,527.0
495.0,502.0,486.0,528.0,534.0
493.0,503.0,487.0,518.0,537.0
491.0,507.0,492.0,505.0,533.0
494.0,505.0,500.0,494.0,530.0
500.0,504.0,507.0,486.0,525.0
506.0,506.0,517.0,484.0,518.0
504.0,503.0,520.0,479.0,514.0
504.0,500.0,520.0,475.0,512.0
515.0,501.0,527.0,485.0,506.0
521.0,505.0,535.0,495.0,504.0
528.0,508.0,533.0,512.0,499.0
534.0,513.0,533.0,529.0,492.0
538.0,516.0,532.0,546.0,491.0
528.0,517.0,523.0,556.0,492.0
520.0,512.0,511.0,554.0,504.0
513.0,511.0,502.0,554.0,517.0
498.0,503.0,487.0,536.0,533.0
491.0,503.0,483.0,523.0,537.0
488.0,503.0,489.0,513.0,537.0
499.0,505.0,496.0,503.0,530.0
506.0,504.0,503.0,491.0,527.0
504.0,505.0,512.0,488.0,526.0
509.0,504.0,519.0,481.0,517.0
507.0,501.0,521.0,477.0,516.0
507.0,499.0,523.0,477.0,511.0
519.0,499.0,528.0,486.0,508.0
527.0,506.0,530.0,499.0,499.0
532.0,511.0,534.0,522.0,494.0
537.0,514.0,533.0,535.0,490.0
542.0,517.0,527.0,548.0,494.0
531.0,516.0,519.0,553.0,497.0
521.0,512.0,506.0,552.0,507.0
516.0,509.0,498.0,547.0,521.0
502.0,504.0,488.0,534.0,531.0
491.0,501.0,484.0,520.0,536.0
489.0,501.0,489.0,508.0,537.0
493.0,503.0,499.0,497.0,528.0
499.0,504.0,504.0,490.0,524.0
505.0,504.0,514.0,485.0,518.0
506.0,504.0,518.0,479.0,518.0
505.0,500.0,519.0,474.0,515.0
513.0,500.0,526.0,480.0,510.0
523.0,504.0,531.0,493.0,504.0
526.0,505.0,531.0,505.0,503.0
531.0,506.0,531.0,525.0,491.0
536.0,516.0,532.0,541.0,492.0
531.0,515.0,524.0,551.0,494.0
523.0,515.0,515.0,554.0,505.0
513.0,509.0,505.0,551.0,512.0
498.0,504.0,491.0,541.0,523.0
493.0,503.0,485.0,534.0,533.0
492.0,504.0,491.0,518.0,533.0
488.0,503.0,492.0,507.0,533.0
504.0,506.0,500.0,497.0,525.0
509.0,504.0,508.0,490.0,517.0
506.0,505.0,516.0,484.0,518.0
507.0,502.0,521.0,478.0,513.0
504.0,497.0,520.0,474.0,516.0
514.0,499.0,530.0,485.0,509.0
523.0,505.0,531.0,497.0,501.0
528.0,507.0,531.0,510.0,498.0
540.0,512.0,532.0,529.0,492.0
543.0,514.0,527.0,543.0,490.0
537.0,517.0,523.0,554.0,494.0
529.0,515.0,512.0,555.0,505.0
521.0,512.0,503.0,551.0,514.0
502.0,504.0,488.0,537.0,529.0
494.0,502.0,484.0,523.0,535.0
496.0,503.0,488.0,513.0,535.0
499.0,505.0,495.0,504.0,531.0
499.0,504.0,502.0,493.0,526.0
500.0,505.0,514.0,487.0,524.0
506.0,503.0,518.0,482.0,518.0
506.0,500.0,520.0,478.0,513.0
507.0,499.0,524.0,475.0,510.0
515.0,500.0,527.0,485.0,502.0
521.0,502.0,529.0,500.0,500.0
528.0,508.0,537.0,515.0,498.0
534.0,515.0,532.0,533.0,493.0
537.0,520.0,527.0,547.0,495.0
538.0,519.0,517.0,553.0,495.0
523.0,520.0,507.0,552.0,511.0
515.0,511.0,499.0,547.0,520.0
500.0,504.0,487.0,533.0,529.0
492.0,502.0,484.0,520.0,535.0
495.0,504.0,490.0,509.0,536.0
497.0,506.0,501.0,502.0,530.0
496.0,505.0,505.0,490.0,528.0
503.0,506.0,515.0,486.0,520.0
506.0,503.0,519.0,479.0,514.0
505.0,499.0,520.0,475.0,514.0
511.0,499.0,525.0,478.0,508.0
519.0,502.0,530.0,494.0,506.0
524.0,505.0,535.0,507.0,500.0
532.0,510.0,532.0,521.0,494.0
536.0,514.0,530.0,541.0,492.0
532.0,514.0,524.0,549.0,493.0
533.0,518.0,517.0,555.0,502.0
521.0,512.0,506.0,549.0,511.0
506.0,507.0,492.0,541.0,522.0
496.0,501.0,486.0,533.0,533.0
489.0,503.0,487.0,517.0,535.0
488.0,504.0,491.0,505.0,532.0
490.0,502.0,500.0,496.0,529.0
492.0,501.0,506.0,486.0,524.0
501.0,502.0,516.0,484.0,517.0
502.0,500.0,521.0,483.0,515.0
507.0,500.0,522.0,476.0,515.0
523.0,501.0,527.0,484.0,507.0
528.0,503.0,530.0,495.0,501.0
530.0,509.0,533.0,511.0,498.0
535.0,512.0,532.0,526.0,493.0
540.0,516.0,529.0,543.0,493.0
534.0,517.0,523.0,555.0,496.0
525.0,514.0,512.0,554.0,503.0
515.0,511.0,501.0,549.0,511.0
501.0,504.0,489.0,539.0,529.0
494.0,503.0,485.0,523.0,535.0
492.0,503.0,488.0,512.0,532.0
491.0,501.0,494.0,502.0,530.0
494.0,502.0,500.0,492.0,528.0
498.0,502.0,510.0,486.0,525.0
503.0,503.0,518.0,484.0,516.0
505.0,502.0,521.0,479.0,517.0
508.0,499.0,524.0,477.0,513.0
509.0,504.0,528.0,488.0,505.0
519.0,502.0,529.0,499.0,500.0
529.0,508.0,533.0,516.0,491.0
535.0,513.0,537.0,533.0,492.0
538.0,516.0,526.0,546.0,492.0
541.0,518.0,519.0,554.0,498.0
526.0,512.0,507.0,551.0,507.0
515.0,509.0,499.0,551.0,519.0
506.0,504.0,487.0,534.0,531.0
494.0,501.0,483.0,522.0,534.0
493.0,502.0,488.0,509.0,534.0
495.0,505.0,498.0,501.0,529.0
498.0,503.0,504.0,491.0,524.0
505.0,504.0,514.0,487.0,514.0
506.0,502.0,519.0,482.0,513.0
505.0,496.0,520.0,475.0,518.0
515.0,500.0,527.0,482.0,506.0
519.0,502.0,531.0,495.0,502.0
523.0,508.0,532.0,502.0,499.0
533.0,513.0,531.0,519.0,494.0
535.0,516.0,533.0,539.0,495.0
534.0,518.0,524.0,548.0,494.0
530.0,517.0,518.0,557.0,501.0
520.0,513.0,506.0,552.0,510.0
508.0,506.0,493.0,544.0,521.0
497.0,503.0,486.0,529.0,534.0
493.0,504.0,488.0,518.0,536.0
494.0,505.0,493.0,506.0,534.0
498.0,505.0,500.0,495.0,529.0
497.0,506.0,507.0,487.0,526.0
504.0,504.0,515.0,484.0,518.0
506.0,502.0,521.0,479.0,516.0
508.0,496.0,520.0,473.0,513.0
512.0,497.0,525.0,480.0,506.0
518.0,504.0,530.0,493.0,500.0
524.0,505.0,531.0,508.0,497.0
531.0,512.0,534.0,527.0,491.0
533.0,513.0,529.0,542.0,490.0
534.0,517.0,523.0,552.0,492.0
525.0,513.0,511.0,552.0,501.0
519.0,511.0,506.0,549.0,515.0
510.0,509.0,490.0,538.0,526.0
498.0,503.0,487.0,525.0,533.0
495.0,505.0,489.0,513.0,538.0
497.0,506.0,496.0,503.0,526.0
498.0,504.0,503.0,494.0,530.0
500.0,504.0,511.0,487.0,523.0
506.0,504.0,519.0,484.0,515.0
509.0,503.0,523.0,480.0,514.0
508.0,498.0,523.0,476.0,514.0
515.0,498.0,528.0,484.0,508.0
520.0,502.0,530.0,496.0,505.0
537.0,510.0,534.0,521.0,494.0
507.0,486.0,462.0,479.0,510.0
509.0,485.0,467.0,478.0,505.0
511.0,492.0,484.0,486.0,501.0
521.0,496.0,507.0,499.0,500.0
533.0,507.0,532.0,515.0,496.0
547.0,518.0,556.0,533.0,494.0
547.0,526.0,571.0,546.0,497.0
541.0,529.0,578.0,556.0,507.0
528.0,531.0,576.0,555.0,517.0
521.0,532.0,569.0,553.0,519.0
501.0,519.0,539.0,539.0,534.0
493.0,513.0,514.0,524.0,536.0
489.0,505.0,492.0,512.0,532.0
491.0,500.0,476.0,502.0,525.0
490.0,491.0,462.0,490.0,521.0
493.0,489.0,458.0,487.0,520.0
511.0,489.0,461.0,478.0,513.0
514.0,486.0,464.0,479.0,512.0
518.0,489.0,476.0,481.0,508.0
523.0,492.0,495.0,491.0,503.0
533.0,499.0,514.0,502.0,501.0
531.0,510.0,539.0,524.0,501.0
540.0,520.0,563.0,537.0,496.0
542.0,525.0,574.0,550.0,503.0
531.0,531.0,581.0,554.0,511.0
522.0,531.0,576.0,553.0,518.0
513.0,524.0,558.0,546.0,528.0
502.0,515.0,533.0,531.0,540.0
493.0,509.0,508.0,520.0,537.0
492.0,502.0,487.0,509.0,534.0
490.0,498.0,469.0,497.0,529.0
502.0,493.0,461.0,488.0,519.0
503.0,488.0,456.0,482.0,517.0
507.0,487.0,462.0,480.0,516.0
509.0,486.0,466.0,478.0,517.0
513.0,487.0,479.0,482.0,510.0
522.0,496.0,502.0,495.0,507.0
530.0,503.0,524.0,511.0,497.0
538.0,514.0,547.0,527.0,490.0
539.0,523.0,569.0,542.0,496.0
534.0,528.0,574.0,550.0,502.0
527.0,529.0,576.0,552.0,506.0
519.0,529.0,570.0,552.0,515.0
502.0,520.0,546.0,539.0,529.0
493.0,514.0,524.0,529.0,536.0
489.0,510.0,499.0,518.0,531.0
488.0,501.0,480.0,506.0,526.0
487.0,492.0,465.0,493.0,523.0
498.0,491.0,459.0,486.0,518.0
510.0,490.0,458.0,484.0,507.0
506.0,487.0,463.0,479.0,509.0
511.0,487.0,468.0,478.0,502.0
523.0,490.0,485.0,486.0,498.0
525.0,497.0,507.0,498.0,496.0
532.0,509.0,532.0,517.0,494.0
539.0,519.0,555.0,536.0,496.0
538.0,526.0,573.0,546.0,509.0
536.0,528.0,577.0,552.0,514.0
530.0,530.0,575.0,554.0,520.0
524.0,530.0,569.0,554.0,523.0
506.0,520.0,542.0,538.0,536.0
493.0,514.0,514.0,523.0,537.0
490.0,505.0,494.0,517.0,528.0
491.0,500.0,477.0,503.0,526.0
491.0,491.0,461.0,490.0,523.0
500.0,490.0,459.0,486.0,521.0
505.0,487.0,460.0,481.0,511.0
504.0,483.0,462.0,478.0,506.0
510.0,485.0,473.0,479.0,504.0
520.0,491.0,492.0,489.0,500.0
526.0,497.0,513.0,502.0,502.0
535.0,508.0,543.0,519.0,493.0
539.0,518.0,561.0,537.0,495.0
539.0,526.0,575.0,548.0,500.0
528.0,529.0,581.0,552.0,511.0
517.0,529.0,573.0,553.0,517.0
510.0,525.0,561.0,549.0,523.0
498.0,520.0,535.0,536.0,532.0
497.0,510.0,510.0,521.0,530.0
489.0,503.0,487.0,509.0,527.0
495.0,498.0,472.0,498.0,523.0
498.0,491.0,460.0,487.0,520.0
503.0,488.0,459.0,484.0,517.0
503.0,487.0,461.0,478.0,517.0
506.0,484.0,463.0,475.0,515.0
515.0,487.0,483.0,480.0,505.0
522.0,494.0,500.0,494.0,506.0
526.0,502.0,521.0,506.0,504.0
535.0,515.0,547.0,525.0,500.0
540.0,524.0,569.0,541.0,497.0
535.0,528.0,575.0,549.0,504.0
528.0,530.0,577.0,552.0,509.0
519.0,528.0,569.0,550.0,518.0
506.0,517.0,548.0,542.0,530.0
496.0,514.0,525.0,529.0,538.0
489.0,507.0,501.0,517.0,536.0
484.0,500.0,478.0,504.0,535.0
484.0,494.0,466.0,497.0,528.0
488.0,490.0,458.0,485.0,521.0
490.0,488.0,459.0,485.0,517.0
504.0,490.0,461.0,478.0,511.0
512.0,484.0,473.0,477.0,504.0
524.0,488.0,486.0,487.0,502.0
530.0,496.0,506.0,498.0,500.0
541.0,508.0,535.0,515.0,496.0
544.0,519.0,553.0,529.0,497.0
540.0,524.0,570.0,542.0,501.0
535.0,529.0,581.0,551.0,508.0
528.0,531.0,577.0,553.0,516.0
520.0,530.0,573.0,549.0,523.0
506.0,518.0,543.0,538.0,538.0
494.0,510.0,515.0,523.0,540.0
491.0,505.0,491.0,510.0,533.0
492.0,501.0,475.0,501.0,527.0
494.0,492.0,465.0,492.0,526.0
499.0,489.0,458.0,483.0,519.0
504.0,486.0,460.0,480.0,514.0
505.0,486.0,463.0,480.0,512.0
510.0,486.0,473.0,479.0,504.0
520.0,492.0,491.0,488.0,497.0
527.0,500.0,513.0,503.0,492.0
531.0,509.0,537.0,520.0,494.0
536.0,519.0,561.0,535.0,493.0
533.0,524.0,573.0,545.0,501.0
529.0,531.0,580.0,553.0,512.0
523.0,533.0,573.0,553.0,515.0
513.0,529.0,560.0,551.0,522.0
497.0,516.0,533.0,530.0,531.0
491.0,508.0,508.0,521.0,534.0
491.0,503.0,486.0,509.0,531.0
495.0,498.0,473.0,499.0,535.0
496.0,493.0,465.0,488.0,532.0
496.0,487.0,457.0,481.0,519.0
502.0,487.0,460.0,481.0,514.0
504.0,486.0,464.0,476.0,513.0
511.0,488.0,477.0,481.0,507.0
519.0,495.0,500.0,493.0,505.0
520.0,501.0,524.0,506.0,501.0
536.0,512.0,544.0,525.0,494.0
540.0,524.0,567.0,541.0,499.0
535.0,528.0,578.0,549.0,505.0
537.0,530.0,578.0,551.0,508.0
529.0,532.0,571.0,551.0,517.0
509.0,519.0,553.0,539.0,530.0
500.0,514.0,526.0,530.0,539.0
495.0,510.0,503.0,518.0,538.0
489.0,501.0,481.0,505.0,538.0
492.0,495.0,472.0,491.0,529.0
498.0,494.0,460.0,487.0,522.0
501.0,490.0,458.0,481.0,509.0
503.0,483.0,459.0,475.0,510.0
508.0,486.0,467.0,477.0,513.0
519.0,488.0,484.0,485.0,502.0
528.0,496.0,504.0,496.0,500.0
534.0,507.0,529.0,513.0,496.0
541.0,517.0,555.0,532.0,496.0
539.0,526.0,572.0,543.0,497.0
532.0,527.0,577.0,550.0,504.0
524.0,529.0,576.0,553.0,510.0
514.0,525.0,569.0,553.0,515.0
496.0,518.0,542.0,537.0,531.0
488.0,510.0,515.0,523.0,537.0
486.0,503.0,493.0,512.0,533.0
489.0,502.0,477.0,504.0,528.0
501.0,495.0,465.0,492.0,524.0
501.0,491.0,458.0,485.0,519.0
505.0,486.0,457.0,479.0,511.0
514.0,486.0,464.0,478.0,511.0
516.0,487.0,473.0,478.0,512.0
519.0,491.0,491.0,487.0,511.0
524.0,499.0,512.0,501.0,506.0
530.0,508.0,536.0,518.0,498.0
536.0,522.0,562.0,537.0,491.0
534.0,527.0,576.0,548.0,497.0
528.0,530.0,578.0,553.0,503.0
523.0,530.0,574.0,554.0,512.0
521.0,526.0,563.0,549.0,519.0
507.0,516.0,533.0,535.0,531.0
501.0,510.0,509.0,523.0,538.0
497.0,504.0,488.0,508.0,535.0
493.0,498.0,471.0,498.0,529.0
495.0,492.0,461.0,490.0,525.0
502.0,490.0,458.0,482.0,518.0
507.0,488.0,460.0,479.0,508.0
508.0,486.0,463.0,476.0,507.0
509.0,486.0,476.0,480.0,502.0
517.0,493.0,498.0,491.0,500.0
522.0,502.0,519.0,506.0,500.0
536.0,515.0,546.0,524.0,497.0
537.0,523.0,568.0,545.0,495.0
536.0,528.0,578.0,551.0,503.0
526.0,532.0,578.0,556.0,510.0
519.0,530.0,571.0,552.0,517.0
518.0,521.0,550.0,542.0,528.0
509.0,514.0,527.0,530.0,536.0
501.0,509.0,503.0,517.0,536.0
496.0,505.0,481.0,506.0,530.0
496.0,496.0,468.0,494.0,525.0
496.0,490.0,458.0,487.0,525.0
500.0,489.0,459.0,483.0,513.0
505.0,485.0,462.0,479.0,511.0
510.0,486.0,468.0,478.0,509.0
516.0,489.0,484.0,484.0,505.0
529.0,497.0,505.0,496.0,502.0
532.0,508.0,529.0,514.0,497.0
539.0,518.0,554.0,532.0,494.0
538.0,524.0,575.0,543.0,496.0
529.0,527.0,576.0,551.0,505.0
522.0,529.0,577.0,552.0,512.0
517.0,528.0,568.0,552.0,517.0
502.0,518.0,542.0,538.0,524.0
494.0,510.0,516.0,525.0,529.0
492.0,505.0,494.0,514.0,523.0
492.0,500.0,476.0,503.0,521.0
493.0,495.0,463.0,491.0,534.0
495.0,488.0,457.0,484.0,527.0
500.0,488.0,458.0,479.0,515.0
501.0,483.0,460.0,475.0,509.0
508.0,490.0,473.0,479.0,508.0
520.0,493.0,492.0,488.0,505.0
529.0,500.0,512.0,501.0,502.0
534.0,510.0,536.0,518.0,496.0
539.0,521.0,560.0,537.0,496.0
541.0,527.0,574.0,545.0,496.0
535.0,529.0,579.0,553.0,500.0
526.0,528.0,573.0,553.0,513.0
514.0,526.0,561.0,547.0,529.0
503.0,515.0,535.0,532.0,539.0
491.0,509.0,510.0,522.0,539.0
491.0,503.0,488.0,508.0,535.0
497.0,498.0,473.0,499.0,528.0
497.0,490.0,460.0,488.0,522.0
497.0,488.0,459.0,480.0,519.0
506.0,490.0,458.0,478.0,510.0
509.0,489.0,463.0,476.0,512.0
512.0,487.0,480.0,480.0,507.0
518.0,494.0,499.0,491.0,501.0
527.0,504.0,519.0,506.0,497.0
532.0,512.0,542.0,523.0,493.0
536.0,523.0,564.0,540.0,495.0
537.0,528.0,576.0,550.0,498.0
530.0,529.0,577.0,554.0,506.0
522.0,530.0,572.0,554.0,517.0
506.0,520.0,552.0,541.0,535.0
496.0,513.0,526.0,527.0,537.0
493.0,509.0,503.0,517.0,537.0
490.0,501.0,482.0,505.0,535.0
493.0,495.0,467.0,494.0,527.0
498.0,489.0,457.0,484.0,518.0
503.0,489.0,459.0,482.0,513.0
504.0,486.0,461.0,479.0,508.0
509.0,488.0,465.0,480.0,508.0
513.0,489.0,483.0,484.0,506.0
521.0,496.0,505.0,498.0,502.0
532.0,511.0,530.0,513.0,499.0
532.0,516.0,551.0,528.0,496.0
537.0,526.0,573.0,542.0,501.0
538.0,529.0,576.0,550.0,502.0
526.0,530.0,578.0,551.0,512.0
520.0,529.0,570.0,555.0,521.0
502.0,517.0,541.0,537.0,534.0
496.0,511.0,517.0,525.0,538.0
493.0,505.0,494.0,513.0,534.0
496.0,502.0,477.0,506.0,527.0
496.0,495.0,464.0,491.0,524.0
499.0,492.0,456.0,482.0,519.0
506.0,490.0,460.0,481.0,511.0
504.0,486.0,462.0,476.0,506.0
510.0,485.0,471.0,478.0,501.0
521.0,494.0,489.0,488.0,502.0
524.0,498.0,511.0,500.0,501.0
537.0,509.0,535.0,516.0,498.0
540.0,520.0,560.0,535.0,497.0
538.0,525.0,573.0,547.0,498.0
531.0,527.0,576.0,552.0,506.0
527.0,528.0,578.0,554.0,511.0
520.0,526.0,565.0,550.0,520.0
499.0,515.0,534.0,533.0,536.0
489.0,509.0,511.0,522.0,535.0
481.0,503.0,488.0,510.0,535.0
483.0,499.0,473.0,499.0,535.0
483.0,493.0,461.0,491.0,531.0
487.0,488.0,457.0,486.0,524.0
509.0,490.0,461.0,482.0,522.0
514.0,486.0,462.0,475.0,507.0
523.0,489.0,477.0,482.0,501.0
525.0,494.0,497.0,492.0,496.0
528.0,502.0,518.0,505.0,495.0
535.0,517.0,543.0,525.0,489.0
540.0,523.0,566.0,541.0,488.0
535.0,527.0,575.0,550.0,498.0
532.0,530.0,576.0,552.0,505.0
532.0,531.0,574.0,555.0,514.0
518.0,523.0,553.0,544.0,532.0
495.0,511.0,526.0,528.0,532.0
490.0,506.0,502.0,518.0,532.0
488.0,504.0,480.0,505.0,535.0
493.0,497.0,467.0,499.0,525.0
494.0,489.0,458.0,486.0,518.0
501.0,488.0,457.0,481.0,514.0
500.0,485.0,460.0,477.0,510.0
504.0,486.0,466.0,477.0,510.0
518.0,488.0,481.0,483.0,504.0
521.0,495.0,503.0,495.0,501.0
528.0,504.0,525.0,511.0,493.0
534.0,516.0,551.0,529.0,493.0
533.0,524.0,570.0,543.0,500.0
541.0,530.0,577.0,551.0,502.0
532.0,531.0,577.0,554.0,509.0
521.0,530.0,571.0,554.0,512.0
501.0,519.0,544.0,537.0,533.0
496.0,513.0,520.0,527.0,535.0
494.0,507.0,495.0,513.0,537.0
498.0,500.0,475.0,502.0,531.0
499.0,496.0,464.0,493.0,528.0
503.0,491.0,459.0,485.0,516.0
506.0,488.0,458.0,484.0,511.0
509.0,487.0,462.0,477.0,509.0
510.0,485.0,469.0,477.0,507.0
514.0,490.0,487.0,486.0,503.0
521.0,498.0,508.0,499.0,503.0
532.0,508.0,533.0,516.0,499.0
535.0,521.0,558.0,533.0,501.0
534.0,527.0,573.0,545.0,503.0
531.0,528.0,576.0,551.0,508.0
524.0,530.0,577.0,553.0,514.0
517.0,528.0,566.0,551.0,521.0
498.0,514.0,534.0,533.0,534.0
491.0,510.0,511.0,522.0,537.0
491.0,504.0,489.0,508.0,534.0
494.0,502.0,470.0,497.0,528.0
492.0,494.0,462.0,488.0,530.0
494.0,487.0,456.0,481.0,523.0
511.0,489.0,461.0,483.0,516.0
509.0,486.0,462.0,477.0,509.0
513.0,486.0,476.0,482.0,503.0
520.0,494.0,497.0,494.0,500.0
526.0,503.0,515.0,503.0,496.0
535.0,512.0,541.0,523.0,498.0
540.0,523.0,565.0,543.0,499.0
538.0,527.0,576.0,549.0,507.0
530.0,530.0,577.0,553.0,514.0
523.0,530.0,570.0,552.0,521.0
508.0,520.0,553.0,543.0,533.0
500.0,515.0,528.0,531.0,535.0
493.0,509.0,504.0,518.0,533.0
487.0,501.0,486.0,505.0,524.0
490.0,496.0,468.0,496.0,521.0
495.0,492.0,459.0,487.0,518.0
499.0,487.0,456.0,480.0,510.0
505.0,487.0,465.0,479.0,505.0
507.0,486.0,466.0,477.0,503.0
513.0,489.0,482.0,483.0,504.0
526.0,496.0,503.0,495.0,500.0
532.0,506.0,529.0,512.0,498.0
534.0,514.0,548.0,527.0,500.0
535.0,523.0,569.0,543.0,501.0
535.0,532.0,577.0,553.0,508.0
529.0,531.0,577.0,554.0,511.0
525.0,530.0,571.0,554.0,510.0
506.0,519.0,544.0,542.0,528.0
497.0,512.0,520.0,529.0,536.0
489.0,504.0,496.0,513.0,535.0
489.0,500.0,478.0,501.0,529.0
489.0,493.0,463.0,491.0,525.0
494.0,492.0,460.0,485.0,516.0
499.0,489.0,460.0,479.0,509.0
508.0,485.0,462.0,476.0,508.0
522.0,487.0,472.0,479.0,505.0
525.0,492.0,490.0,488.0,502.0
527.0,497.0,510.0,504.0,498.0
535.0,510.0,536.0,519.0,495.0
537.0,518.0,557.0,532.0,496.0
538.0,525.0,573.0,546.0,503.0
534.0,528.0,578.0,551.0,510.0
530.0,533.0,576.0,554.0,521.0
522.0,530.0,568.0,551.0,524.0
505.0,520.0,537.0,533.0,528.0
496.0,508.0,510.0,521.0,525.0
487.0,504.0,487.0,509.0,530.0
492.0,497.0,473.0,499.0,527.0
496.0,492.0,462.0,490.0,528.0
493.0,489.0,456.0,480.0,534.0
501.0,489.0,463.0,479.0,522.0
508.0,487.0,464.0,478.0,503.0
508.0,487.0,475.0,480.0,500.0
516.0,493.0,495.0,490.0,500.0
521.0,500.0,516.0,505.0,505.0
527.0,511.0,540.0,522.0,498.0
547.0,522.0,565.0,544.0,494.0
540.0,526.0,573.0,549.0,505.0
533.0,530.0,578.0,553.0,509.0
523.0,530.0,573.0,554.0,515.0
516.0,523.0,557.0,545.0,527.0
497.0,514.0,528.0,531.0,534.0
493.0,507.0,504.0,519.0,533.0
493.0,502.0,483.0,506.0,532.0
494.0,500.0,468.0,496.0,530.0
497.0,491.0,460.0,485.0,523.0
499.0,487.0,456.0,481.0,515.0
506.0,486.0,459.0,476.0,509.0
508.0,486.0,465.0,476.0,509.0
519.0,488.0,485.0,481.0,503.0
523.0,494.0,502.0,493.0,498.0
527.0,505.0,525.0,510.0,496.0
532.0,515.0,549.0,527.0,499.0
534.0,522.0,568.0,541.0,498.0
528.0,527.0,576.0,550.0,509.0
519.0,529.0,576.0,554.0,517.0
520.0,529.0,572.0,554.0,521.0
507.0,520.0,546.0,540.0,533.0
495.0,513.0,521.0,532.0,540.0
495.0,507.0,502.0,514.0,536.0
493.0,501.0,479.0,504.0,528.0
493.0,495.0,466.0,497.0,523.0
497.0,491.0,460.0,486.0,517.0
500.0,488.0,459.0,481.0,510.0
501.0,484.0,460.0,476.0,506.0
506.0,487.0,471.0,477.0,506.0
520.0,491.0,487.0,485.0,509.0
529.0,496.0,507.0,496.0,500.0
537.0,507.0,532.0,515.0,494.0
541.0,520.0,557.0,533.0,495.0
540.0,526.0,573.0,546.0,500.0
531.0,528.0,579.0,549.0,506.0
523.0,528.0,574.0,553.0,514.0
516.0,527.0,565.0,551.0,519.0
501.0,518.0,538.0,536.0,535.0
490.0,510.0,510.0,523.0,536.0
494.0,506.0,489.0,509.0,531.0
501.0,500.0,476.0,498.0,523.0
505.0,493.0,461.0,488.0,523.0
506.0,490.0,459.0,483.0,519.0
507.0,488.0,459.0,478.0,512.0
506.0,484.0,461.0,475.0,512.0
510.0,487.0,477.0,483.0,508.0
512.0,493.0,495.0,491.0,494.0
521.0,500.0,515.0,503.0,493.0
528.0,511.0,540.0,521.0,493.0
533.0,522.0,564.0,538.0,493.0
530.0,527.0,575.0,548.0,498.0
530.0,530.0,576.0,553.0,506.0
524.0,530.0,572.0,558.0,515.0
511.0,523.0,558.0,545.0,530.0
499.0,514.0,530.0,532.0,534.0
492.0,509.0,503.0,518.0,532.0
490.0,504.0,484.0,506.0,534.0
492.0,497.0,469.0,495.0,525.0
494.0,492.0,463.0,487.0,523.0
494.0,488.0,457.0,481.0,521.0
499.0,487.0,461.0,479.0,518.0
505.0,488.0,466.0,478.0,511.0
523.0,490.0,481.0,484.0,500.0
527.0,495.0,502.0,496.0,492.0
534.0,506.0,524.0,512.0,486.0
535.0,513.0,547.0,527.0,488.0
541.0,523.0,568.0,543.0,494.0
540.0,529.0,581.0,552.0,514.0
529.0,530.0,576.0,553.0,521.0
521.0,529.0,570.0,554.0,525.0
507.0,520.0,546.0,541.0,535.0
498.0,513.0,519.0,531.0,538.0
495.0,505.0,497.0,515.0,531.0
495.0,501.0,478.0,504.0,523.0
495.0,493.0,463.0,492.0,520.0
500.0,490.0,460.0,484.0,514.0
501.0,488.0,458.0,480.0,513.0
507.0,486.0,462.0,477.0,517.0
505.0,490.0,467.0,479.0,511.0
513.0,491.0,488.0,487.0,504.0
528.0,499.0,510.0,501.0,499.0
531.0,508.0,532.0,517.0,490.0
538.0,521.0,557.0,533.0,494.0
537.0,526.0,571.0,547.0,496.0
528.0,530.0,576.0,555.0,501.0
523.0,528.0,573.0,555.0,509.0
515.0,529.0,566.0,552.0,516.0
502.0,520.0,540.0,539.0,533.0
493.0,510.0,513.0,523.0,535.0
492.0,510.0,490.0,512.0,534.0
491.0,500.0,473.0,499.0,532.0
491.0,493.0,460.0,488.0,523.0
497.0,489.0,458.0,482.0,518.0
502.0,488.0,460.0,480.0,509.0
508.0,486.0,464.0,476.0,507.0
506.0,489.0,472.0,479.0,506.0
519.0,495.0,495.0,492.0,501.0
529.0,499.0,513.0,502.0,497.0
532.0,510.0,539.0,521.0,494.0
536.0,523.0,562.0,541.0,492.0
533.0,526.0,574.0,546.0,500.0
528.0,530.0,576.0,552.0,509.0
516.0,527.0,570.0,553.0,519.0
516.0,523.0,555.0,545.0,526.0
505.0,517.0,533.0,533.0,535.0
496.0,510.0,507.0,522.0,533.0
494.0,503.0,488.0,510.0,529.0
500.0,498.0,469.0,498.0,527.0
500.0,493.0,460.0,488.0,523.0
499.0,487.0,456.0,478.0,520.0
504.0,486.0,460.0,478.0,512.0
506.0,484.0,466.0,477.0,511.0
514.0,488.0,480.0,483.0,506.0
520.0,494.0,500.0,494.0,500.0
526.0,503.0,523.0,509.0,497.0
529.0,513.0,547.0,526.0,498.0
541.0,523.0,569.0,543.0,497.0
542.0,529.0,578.0,553.0,505.0
534.0,530.0,578.0,558.0,513.0
529.0,532.0,571.0,554.0,520.0
509.0,519.0,548.0,545.0,534.0
497.0,508.0,521.0,526.0,537.0
495.0,504.0,498.0,514.0,532.0
494.0,500.0,479.0,504.0,528.0
494.0,496.0,463.0,492.0,523.0
498.0,490.0,460.0,487.0,514.0
501.0,489.0,460.0,483.0,508.0
503.0,486.0,462.0,478.0,508.0
505.0,484.0,468.0,478.0,506.0
518.0,488.0,486.0,483.0,499.0
519.0,496.0,507.0,497.0,497.0
528.0,511.0,530.0,515.0,494.0
535.0,518.0,556.0,533.0,493.0
542.0,525.0,572.0,551.0,496.0
537.0,530.0,578.0,553.0,505.0
532.0,531.0,576.0,554.0,512.0
515.0,530.0,566.0,551.0,520.0
498.0,517.0,538.0,534.0,532.0
490.0,509.0,512.0,522.0,538.0
489.0,504.0,492.0,514.0,534.0
489.0,500.0,479.0,500.0,528.0
494.0,496.0,463.0,491.0,522.0
503.0,491.0,456.0,483.0,514.0
513.0,489.0,461.0,477.0,510.0
507.0,487.0,464.0,478.0,508.0
513.0,489.0,478.0,480.0,502.0
515.0,494.0,494.0,490.0,508.0
524.0,499.0,516.0,504.0,500.0
533.0,511.0,539.0,522.0,488.0
540.0,522.0,561.0,536.0,485.0
536.0,527.0,574.0,548.0,495.0
530.0,530.0,577.0,551.0,503.0
523.0,530.0,575.0,553.0,513.0
513.0,524.0,558.0,545.0,530.0
497.0,515.0,530.0,531.0,533.0
489.0,512.0,506.0,521.0,535.0
488.0,504.0,485.0,508.0,531.0
495.0,498.0,470.0,497.0,524.0
491.0,490.0,460.0,487.0,515.0
495.0,486.0,456.0,480.0,512.0
511.0,487.0,461.0,478.0,507.0
512.0,486.0,465.0,477.0,509.0
515.0,488.0,479.0,484.0,507.0
518.0,493.0,500.0,495.0,502.0
529.0,504.0,522.0,508.0,496.0
534.0,515.0,546.0,529.0,494.0
537.0,524.0,568.0,542.0,497.0
539.0,529.0,576.0,551.0,500.0
529.0,530.0,577.0,554.0,506.0
524.0,530.0,570.0,552.0,512.0
507.0,520.0,548.0,541.0,528.0
497.0,512.0,522.0,528.0,533.0
496.0,506.0,499.0,516.0,534.0
493.0,500.0,477.0,503.0,531.0
494.0,496.0,465.0,494.0,530.0
495.0,489.0,459.0,485.0,522.0
497.0,490.0,458.0,482.0,518.0
501.0,487.0,464.0,478.0,510.0
511.0,485.0,467.0,478.0,503.0
518.0,488.0,483.0,484.0,500.0
522.0,496.0,505.0,497.0,495.0
533.0,508.0,531.0,514.0,493.0
541.0,518.0,554.0,534.0,491.0
538.0,527.0,574.0,546.0,495.0
532.0,528.0,577.0,551.0,504.0
527.0,530.0,573.0,553.0,513.0
520.0,530.0,569.0,557.0,522.0
502.0,521.0,539.0,538.0,538.0
494.0,511.0,515.0,525.0,539.0
492.0,504.0,493.0,513.0,535.0
494.0,501.0,476.0,502.0,527.0
495.0,493.0,461.0,493.0,520.0
498.0,488.0,456.0,484.0,513.0
503.0,488.0,460.0,480.0,512.0
503.0,485.0,462.0,476.0,512.0
508.0,486.0,474.0,480.0,507.0
515.0,491.0,492.0,489.0,504.0
530.0,501.0,514.0,503.0,501.0
537.0,512.0,538.0,520.0,498.0
541.0,521.0,562.0,536.0,501.0
532.0,527.0,578.0,548.0,503.0
531.0,529.0,578.0,554.0,510.0
526.0,530.0,574.0,555.0,511.0
519.0,525.0,560.0,549.0,517.0
503.0,515.0,530.0,531.0,528.0
494.0,509.0,507.0,521.0,533.0
489.0,503.0,486.0,510.0,527.0
492.0,497.0,470.0,497.0,517.0
496.0,492.0,461.0,490.0,514.0
502.0,491.0,457.0,482.0,513.0
500.0,487.0,460.0,478.0,505.0
502.0,484.0,464.0,476.0,506.0
510.0,486.0,476.0,481.0,503.0
517.0,494.0,500.0,493.0,502.0
527.0,503.0,520.0,509.0,500.0
529.0,514.0,546.0,526.0,496.0
533.0,523.0,567.0,541.0,493.0
529.0,528.0,575.0,549.0,490.0
522.0,528.0,576.0,554.0,502.0
514.0,529.0,572.0,554.0,515.0
501.0,521.0,548.0,542.0,528.0
505.0,518.0,527.0,529.0,543.0
496.0,509.0,500.0,517.0,540.0
493.0,502.0,479.0,504.0,530.0
492.0,500.0,464.0,492.0,525.0
499.0,494.0,460.0,486.0,521.0
500.0,488.0,458.0,481.0,511.0
510.0,485.0,459.0,476.0,506.0
510.0,485.0,467.0,477.0,506.0
510.0,488.0,484.0,484.0,505.0
519.0,496.0,506.0,497.0,501.0
536.0,508.0,530.0,515.0,492.0
545.0,520.0,556.0,533.0,491.0
541.0,527.0,572.0,548.0,495.0
532.0,527.0,577.0,552.0,504.0
524.0,530.0,576.0,554.0,512.0
520.0,528.0,569.0,554.0,517.0
502.0,519.0,542.0,538.0,533.0
491.0,510.0,514.0,523.0,535.0
489.0,505.0,493.0,512.0,531.0
488.0,498.0,475.0,501.0,527.0
491.0,491.0,461.0,489.0,523.0
496.0,489.0,459.0,484.0,519.0
500.0,488.0,456.0,480.0,512.0
504.0,484.0,462.0,476.0,510.0
513.0,485.0,477.0,480.0,506.0
525.0,492.0,494.0,488.0,503.0
527.0,498.0,512.0,501.0,504.0
532.0,507.0,537.0,521.0,495.0
535.0,519.0,561.0,538.0,492.0
534.0,526.0,578.0,549.0,496.0
528.0,530.0,575.0,557.0,505.0
524.0,528.0,574.0,557.0,513.0
507.0,524.0,559.0,547.0,525.0
502.0,519.0,535.0,535.0,531.0
495.0,510.0,508.0,520.0,533.0
498.0,505.0,488.0,510.0,531.0
499.0,499.0,473.0,496.0,529.0
493.0,492.0,462.0,484.0,522.0
498.0,491.0,457.0,481.0,522.0
496.0,487.0,460.0,479.0,514.0
498.0,485.0,463.0,476.0,507.0
513.0,487.0,479.0,482.0,503.0
518.0,493.0,499.0,493.0,497.0
525.0,508.0,520.0,507.0,499.0
534.0,514.0,543.0,524.0,498.0
545.0,524.0,570.0,539.0,493.0
539.0,527.0,576.0,549.0,500.0
533.0,530.0,580.0,552.0,514.0
528.0,531.0,570.0,555.0,512.0
510.0,519.0,549.0,541.0,528.0
503.0,515.0,523.0,530.0,534.0
496.0,508.0,506.0,519.0,532.0
489.0,500.0,480.0,504.0,531.0
490.0,495.0,467.0,495.0,523.0
493.0,491.0,459.0,488.0,519.0
500.0,489.0,457.0,484.0,513.0
506.0,487.0,461.0,478.0,507.0
516.0,486.0,465.0,477.0,503.0
516.0,487.0,483.0,483.0,502.0
522.0,497.0,505.0,497.0,500.0
530.0,506.0,529.0,514.0,495.0
535.0,516.0,553.0,532.0,494.0
534.0,524.0,571.0,545.0,498.0
530.0,529.0,577.0,550.0,504.0
529.0,532.0,574.0,557.0,512.0
519.0,529.0,568.0,558.0,518.0
499.0,517.0,540.0,537.0,530.0
495.0,514.0,515.0,526.0,539.0
495.0,509.0,493.0,513.0,533.0
495.0,500.0,476.0,501.0,530.0
496.0,495.0,464.0,492.0,526.0
497.0,490.0,458.0,483.0,520.0
499.0,485.0,463.0,479.0,512.0
503.0,486.0,462.0,477.0,506.0
506.0,487.0,474.0,480.0,504.0
512.0,491.0,491.0,493.0,503.0
517.0,497.0,511.0,500.0,502.0
529.0,511.0,536.0,519.0,495.0
537.0,522.0,562.0,536.0,496.0
536.0,528.0,574.0,547.0,501.0
539.0,530.0,576.0,551.0,507.0
526.0,529.0,573.0,555.0,517.0
512.0,525.0,562.0,549.0,526.0
500.0,517.0,535.0,535.0,534.0
497.0,509.0,508.0,519.0,535.0
492.0,503.0,485.0,508.0,533.0
495.0,497.0,471.0,497.0,526.0
496.0,492.0,461.0,494.0,522.0
501.0,493.0,457.0,483.0,516.0
505.0,487.0,460.0,481.0,510.0
505.0,483.0,464.0,477.0,504.0
507.0,486.0,476.0,479.0,500.0
518.0,493.0,498.0,492.0,491.0
523.0,502.0,518.0,504.0,495.0
532.0,512.0,545.0,522.0,495.0
537.0,522.0,567.0,540.0,490.0
533.0,529.0,579.0,549.0,498.0
529.0,529.0,578.0,554.0,504.0
523.0,528.0,573.0,555.0,511.0
505.0,520.0,549.0,542.0,534.0
496.0,513.0,522.0,527.0,546.0
491.0,506.0,500.0,516.0,535.0
490.0,500.0,480.0,503.0,530.0
491.0,494.0,473.0,495.0,527.0
494.0,490.0,459.0,486.0,520.0
495.0,486.0,456.0,480.0,517.0
505.0,489.0,463.0,478.0,513.0
509.0,487.0,469.0,476.0,510.0
512.0,488.0,484.0,484.0,504.0
520.0,496.0,505.0,497.0,500.0
532.0,507.0,529.0,514.0,491.0
533.0,514.0,551.0,529.0,487.0
533.0,522.0,570.0,544.0,494.0
531.0,528.0,577.0,552.0,503.0
533.0,531.0,580.0,552.0,511.0
527.0,530.0,570.0,553.0,517.0
515.0,521.0,543.0,539.0,531.0
509.0,512.0,521.0,525.0,531.0
502.0,506.0,494.0,514.0,528.0
499.0,501.0,477.0,502.0,529.0
498.0,493.0,463.0,490.0,522.0
501.0,489.0,457.0,483.0,518.0
505.0,489.0,459.0,480.0,514.0
505.0,485.0,462.0,477.0,509.0
510.0,485.0,475.0,476.0,502.0
519.0,491.0,490.0,487.0,500.0
521.0,497.0,511.0,498.0,495.0
532.0,509.0,536.0,522.0,492.0
536.0,519.0,558.0,534.0,494.0
534.0,526.0,574.0,547.0,503.0
529.0,532.0,577.0,552.0,511.0
526.0,529.0,574.0,553.0,514.0
516.0,526.0,562.0,548.0,522.0
500.0,521.0,534.0,534.0,532.0
493.0,508.0,509.0,519.0,531.0
493.0,502.0,486.0,508.0,531.0
495.0,499.0,472.0,501.0,523.0
499.0,492.0,462.0,487.0,519.0
496.0,487.0,455.0,480.0,516.0
505.0,488.0,460.0,479.0,513.0
503.0,486.0,463.0,474.0,508.0
507.0,487.0,476.0,481.0,505.0
517.0,494.0,498.0,493.0,493.0
523.0,500.0,517.0,506.0,489.0
528.0,513.0,541.0,522.0,490.0
547.0,523.0,565.0,539.0,497.0
536.0,528.0,574.0,548.0,508.0
525.0,530.0,577.0,551.0,519.0
518.0,531.0,572.0,554.0,525.0
506.0,523.0,556.0,542.0,533.0
507.0,515.0,526.0,531.0,532.0
498.0,509.0,501.0,519.0,536.0
492.0,503.0,482.0,507.0,527.0
492.0,501.0,467.0,495.0,520.0
497.0,491.0,459.0,487.0,517.0
502.0,489.0,457.0,484.0,513.0
506.0,487.0,461.0,479.0,508.0
507.0,485.0,464.0,477.0,505.0
509.0,487.0,482.0,483.0,500.0
522.0,496.0,500.0,495.0,500.0
530.0,505.0,526.0,511.0,492.0
537.0,516.0,554.0,531.0,486.0
536.0,525.0,570.0,544.0,488.0
539.0,529.0,576.0,552.0,490.0
530.0,529.0,576.0,553.0,496.0
523.0,529.0,568.0,553.0,509.0
503.0,519.0,541.0,541.0,541.0
496.0,515.0,518.0,527.0,547.0
493.0,509.0,497.0,516.0,536.0
494.0,501.0,477.0,504.0,531.0
495.0,494.0,465.0,488.0,525.0
500.0,490.0,461.0,484.0,519.0
502.0,492.0,457.0,479.0,519.0
505.0,485.0,463.0,473.0,510.0
512.0,486.0,472.0,478.0,508.0
518.0,490.0,490.0,487.0,502.0
523.0,497.0,509.0,500.0,498.0
533.0,509.0,536.0,518.0,497.0
538.0,520.0,560.0,535.0,494.0
532.0,526.0,572.0,547.0,498.0
526.0,527.0,576.0,552.0,510.0
521.0,530.0,574.0,556.0,511.0
513.0,528.0,565.0,553.0,519.0
498.0,517.0,535.0,534.0,528.0
491.0,507.0,507.0,519.0,534.0
498.0,503.0,485.0,511.0,528.0
496.0,497.0,471.0,497.0,521.0
496.0,491.0,460.0,489.0,513.0
499.0,488.0,459.0,483.0,513.0
503.0,488.0,460.0,481.0,512.0
506.0,486.0,464.0,474.0,512.0
511.0,487.0,477.0,478.0,506.0
520.0,495.0,497.0,492.0,503.0
527.0,503.0,519.0,506.0,502.0
534.0,513.0,542.0,521.0,499.0
540.0,524.0,566.0,539.0,501.0
535.0,529.0,574.0,548.0,506.0
528.0,529.0,577.0,553.0,513.0
523.0,530.0,572.0,557.0,516.0
507.0,521.0,551.0,544.0,525.0
498.0,515.0,528.0,531.0,527.0
494.0,508.0,503.0,517.0,532.0
494.0,502.0,482.0,506.0,532.0
497.0,497.0,468.0,495.0,526.0
500.0,492.0,460.0,486.0,523.0
501.0,488.0,458.0,481.0,516.0
506.0,486.0,461.0,478.0,510.0
508.0,485.0,466.0,474.0,504.0
510.0,486.0,480.0,482.0,502.0
510.0,495.0,503.0,495.0,497.0
523.0,507.0,531.0,511.0,500.0
535.0,516.0,552.0,530.0,499.0
538.0,524.0,570.0,544.0,503.0
531.0,530.0,578.0,552.0,511.0
528.0,530.0,576.0,553.0,508.0
526.0,533.0,571.0,553.0,515.0
504.0,519.0,546.0,540.0,530.0
497.0,512.0,518.0,526.0,527.0
493.0,504.0,495.0,514.0,522.0
491.0,500.0,478.0,503.0,512.0
493.0,493.0,464.0,493.0,498.0
499.0,488.0,459.0,486.0,490.0
501.0,487.0,458.0,480.0,489.0
499.0,482.0,460.0,474.0,496.0
504.0,485.0,472.0,479.0,514.0
511.0,490.0,490.0,490.0,526.0
514.0,494.0,507.0,498.0,535.0
533.0,510.0,534.0,516.0,521.0
543.0,520.0,558.0,532.0,503.0
547.0,529.0,575.0,549.0,508.0
540.0,529.0,576.0,553.0,514.0
534.0,529.0,574.0,551.0,489.0
527.0,530.0,563.0,554.0,488.0
506.0,522.0,535.0,535.0,515.0
492.0,509.0,510.0,526.0,525.0
490.0,501.0,486.0,517.0,529.0
488.0,499.0,476.0,498.0,549.0
493.0,494.0,461.0,482.0,539.0
504.0,488.0,456.0,482.0,525.0
499.0,490.0,459.0,481.0,516.0
506.0,487.0,464.0,475.0,511.0
513.0,486.0,475.0,479.0,505.0
518.0,494.0,494.0,490.0,505.0
523.0,500.0,516.0,503.0,504.0
530.0,512.0,543.0,520.0,497.0
532.0,522.0,566.0,541.0,497.0
529.0,529.0,579.0,554.0,502.0
522.0,530.0,579.0,552.0,508.0
520.0,529.0,570.0,551.0,499.0
512.0,521.0,551.0,543.0,513.0
499.0,513.0,524.0,529.0,517.0
499.0,508.0,503.0,520.0,526.0
494.0,501.0,481.0,505.0,548.0
498.0,497.0,469.0,499.0,538.0
499.0,490.0,459.0,490.0,520.0
508.0,487.0,457.0,479.0,500.0
510.0,487.0,462.0,481.0,494.0
507.0,486.0,471.0,479.0,498.0
501.0,487.0,481.0,487.0,517.0
511.0,495.0,505.0,508.0,531.0
532.0,509.0,529.0,512.0,503.0
541.0,523.0,556.0,526.0,488.0
541.0,528.0,573.0,544.0,483.0
533.0,527.0,580.0,552.0,483.0
527.0,530.0,576.0,553.0,502.0
520.0,527.0,569.0,555.0,517.0
495.0,515.0,543.0,540.0,572.0
493.0,514.0,516.0,522.0,574.0
490.0,506.0,497.0,512.0,531.0
487.0,498.0,479.0,503.0,513.0
492.0,492.0,468.0,493.0,505.0
496.0,489.0,461.0,486.0,501.0
497.0,487.0,457.0,481.0,510.0
504.0,486.0,461.0,479.0,509.0
509.0,485.0,467.0,478.0,509.0
518.0,491.0,486.0,488.0,517.0
518.0,497.0,509.0,509.0,510.0
531.0,510.0,535.0,521.0,506.0
544.0,524.0,559.0,530.0,496.0
535.0,533.0,573.0,541.0,509.0
524.0,529.0,577.0,551.0,514.0
513.0,531.0,575.0,550.0,513.0
511.0,531.0,567.0,550.0,517.0
498.0,521.0,541.0,536.0,526.0
493.0,512.0,519.0,523.0,522.0
500.0,507.0,492.0,513.0,524.0
502.0,503.0,473.0,501.0,515.0
513.0,492.0,459.0,487.0,490.0
504.0,484.0,452.0,480.0,489.0
511.0,486.0,458.0,482.0,476.0
509.0,485.0,461.0,477.0,488.0
507.0,484.0,477.0,480.0,496.0
516.0,490.0,494.0,495.0,502.0
526.0,498.0,511.0,503.0,522.0
544.0,512.0,539.0,519.0,504.0
550.0,525.0,568.0,536.0,482.0
546.0,530.0,576.0,549.0,486.0
533.0,529.0,576.0,553.0,494.0
518.0,528.0,572.0,552.0,508.0
501.0,519.0,551.0,541.0,524.0
489.0,514.0,529.0,530.0,527.0
486.0,508.0,502.0,517.0,531.0
494.0,505.0,489.0,512.0,528.0
492.0,503.0,471.0,500.0,535.0
489.0,494.0,457.0,489.0,539.0
488.0,489.0,453.0,478.0,536.0
496.0,487.0,464.0,475.0,542.0
496.0,484.0,466.0,475.0,518.0
513.0,486.0,480.0,484.0,482.0
515.0,493.0,503.0,497.0,481.0
514.0,501.0,525.0,510.0,484.0
528.0,517.0,552.0,529.0,474.0
534.0,524.0,571.0,545.0,482.0
525.0,528.0,578.0,552.0,493.0
519.0,529.0,579.0,552.0,512.0
538.0,531.0,573.0,553.0,535.0
532.0,525.0,551.0,543.0,539.0
516.0,512.0,520.0,528.0,545.0
509.0,506.0,497.0,514.0,543.0
504.0,500.0,477.0,501.0,534.0
502.0,497.0,465.0,493.0,512.0
501.0,492.0,463.0,490.0,489.0
501.0,487.0,458.0,484.0,472.0
514.0,487.0,463.0,487.0,483.0
519.0,484.0,475.0,494.0,483.0
516.0,491.0,488.0,491.0,503.0
519.0,498.0,509.0,504.0,520.0
523.0,514.0,536.0,521.0,530.0
524.0,522.0,561.0,531.0,538.0
517.0,527.0,577.0,549.0,520.0
510.0,528.0,582.0,554.0,521.0
515.0,531.0,576.0,551.0,561.0
520.0,532.0,568.0,549.0,562.0
509.0,520.0,541.0,538.0,536.0
497.0,513.0,515.0,528.0,526.0
491.0,507.0,495.0,518.0,509.0
490.0,497.0,473.0,502.0,500.0
482.0,486.0,458.0,484.0,505.0
493.0,482.0,449.0,476.0,540.0
534.0,490.0,454.0,474.0,520.0
542.0,490.0,464.0,482.0,492.0
520.0,488.0,475.0,486.0,456.0
523.0,495.0,494.0,493.0,489.0
539.0,503.0,516.0,502.0,512.0
532.0,509.0,540.0,526.0,493.0
527.0,521.0,565.0,537.0,475.0
516.0,529.0,584.0,558.0,486.0
519.0,530.0,588.0,554.0,529.0
503.0,524.0,576.0,565.0,554.0
482.0,514.0,552.0,549.0,551.0
479.0,515.0,529.0,522.0,522.0
450.0,502.0,500.0,509.0,561.0
461.0,497.0,481.0,510.0,568.0
476.0,495.0,466.0,487.0,551.0
480.0,491.0,459.0,480.0,538.0
525.0,494.0,463.0,485.0,537.0
556.0,494.0,468.0,488.0,494.0
554.0,494.0,476.0,487.0,431.0
516.0,488.0,485.0,495.0,424.0
497.0,494.0,504.0,512.0,395.0
503.0,500.0,521.0,502.0,443.0
498.0,508.0,544.0,520.0,519.0
527.0,522.0,569.0,538.0,557.0
548.0,525.0,574.0,548.0,555.0
539.0,531.0,574.0,552.0,578.0
538.0,533.0,572.0,550.0,558.0
516.0,521.0,548.0,539.0,585.0
503.0,515.0,525.0,536.0,589.0
510.0,509.0,502.0,526.0,517.0
496.0,500.0,476.0,508.0,476.0
503.0,496.0,469.0,505.0,476.0
486.0,496.0,464.0,490.0,467.0
481.0,493.0,460.0,475.0,501.0
493.0,488.0,459.0,475.0,542.0
532.0,488.0,472.0,485.0,542.0
552.0,487.0,484.0,488.0,504.0
589.0,494.0,501.0,489.0,489.0
594.0,511.0,528.0,516.0,457.0
578.0,515.0,554.0,533.0,454.0
552.0,520.0,569.0,553.0,430.0
504.0,533.0,584.0,564.0,483.0
483.0,536.0,587.0,567.0,524.0
475.0,528.0,572.0,554.0,543.0
482.0,517.0,543.0,548.0,605.0
480.0,504.0,502.0,510.0,607.0
510.0,502.0,484.0,505.0,509.0
504.0,493.0,467.0,501.0,439.0
504.0,493.0,458.0,491.0,491.0
509.0,489.0,453.0,484.0,539.0
509.0,484.0,454.0,486.0,537.0
530.0,487.0,462.0,467.0,494.0
551.0,489.0,471.0,475.0,469.0
543.0,495.0,493.0,483.0,478.0
530.0,505.0,518.0,504.0,492.0
511.0,515.0,543.0,527.0,536.0
496.0,519.0,562.0,542.0,526.0
526.0,529.0,578.0,550.0,475.0
493.0,528.0,579.0,563.0,424.0
497.0,522.0,567.0,560.0,415.0
512.0,524.0,553.0,544.0,538.0
506.0,518.0,530.0,533.0,621.0
490.0,506.0,507.0,527.0,649.0
522.0,499.0,480.0,515.0,628.0
504.0,489.0,462.0,498.0,630.0
496.0,487.0,456.0,490.0,541.0
479.0,488.0,459.0,496.0,516.0
478.0,486.0,457.0,484.0,492.0
481.0,480.0,458.0,482.0,433.0
493.0,480.0,473.0,488.0,457.0
474.0,478.0,487.0,484.0,422.0
437.0,487.0,508.0,498.0,449.0
442.0,506.0,544.0,531.0,433.0
464.0,525.0,573.0,548.0,466.0
457.0,531.0,591.0,563.0,443.0
463.0,527.0,580.0,571.0,407.0
501.0,528.0,571.0,547.0,520.0
536.0,524.0,550.0,535.0,565.0
532.0,527.0,532.0,536.0,562.0
579.0,523.0,510.0,524.0,603.0
558.0,504.0,484.0,524.0,493.0
535.0,494.0,463.0,521.0,471.0
552.0,491.0,458.0,521.0,491.0
543.0,482.0,454.0,501.0,597.0
551.0,478.0,452.0,474.0,608.0
546.0,480.0,456.0,453.0,573.0
515.0,484.0,477.0,461.0,463.0
469.0,487.0,501.0,497.0,381.0
484.0,493.0,523.0,527.0,437.0
523.0,517.0,558.0,534.0,443.0
522.0,528.0,582.0,553.0,417.0
540.0,539.0,593.0,550.0,437.0
545.0,534.0,592.0,552.0,461.0
527.0,524.0,565.0,536.0,633.0
462.0,502.0,528.0,518.0,598.0
424.0,482.0,490.0,495.0,702.0
423.0,495.0,495.0,518.0,599.0
504.0,507.0,487.0,507.0,605.0
524.0,495.0,462.0,476.0,618.0
468.0,479.0,450.0,482.0,489.0
394.0,467.0,445.0,464.0,587.0
406.0,477.0,462.0,471.0,565.0
380.0,471.0,464.0,468.0,605.0
364.0,463.0,477.0,474.0,549.0
381.0,476.0,509.0,493.0,596.0
454.0,503.0,538.0,534.0,479.0
474.0,514.0,563.0,551.0,416.0
440.0,521.0,575.0,547.0,465.0
392.0,516.0,584.0,533.0,528.0
379.0,527.0,587.0,525.0,523.0
365.0,518.0,558.0,505.0,507.0
396.0,507.0,535.0,509.0,618.0
303.0,488.0,500.0,518.0,624.0
288.0,473.0,471.0,521.0,551.0
424.0,490.0,467.0,503.0,462.0
406.0,487.0,460.0,493.0,393.0
497.0,497.0,464.0,497.0,417.0
584.0,509.0,476.0,497.0,534.0
616.0,479.0,456.0,457.0,630.0
577.0,473.0,452.0,436.0,511.0
625.0,494.0,500.0,488.0,463.0
617.0,498.0,511.0,467.0,548.0
607.0,512.0,542.0,488.0,491.0
598.0,521.0,575.0,531.0,423.0
529.0,530.0,589.0,538.0,454.0
477.0,518.0,574.0,520.0,591.0
501.0,529.0,580.0,544.0,563.0
479.0,515.0,552.0,518.0,437.0
462.0,502.0,521.0,518.0,349.0
375.0,487.0,489.0,523.0,399.0
275.0,484.0,474.0,514.0,591.0
196.0,477.0,459.0,491.0,688.0
76.0,465.0,445.0,463.0,580.0
16.0,449.0,430.0,465.0,497.0
77.0,458.0,449.0,479.0,477.0
335.0,473.0,467.0,470.0,534.0
452.0,480.0,481.0,460.0,585.0
539.0,490.0,501.0,474.0,547.0
572.0,520.0,543.0,511.0,486.0
693.0,525.0,562.0,533.0,533.0
742.0,531.0,579.0,527.0,595.0
692.0,547.0,597.0,535.0,589.0
644.0,531.0,582.0,535.0,504.0
658.0,521.0,568.0,543.0,486.0
662.0,509.0,526.0,521.0,429.0
737.0,524.0,519.0,532.0,367.0
676.0,521.0,506.0,550.0,404.0
544.0,510.0,485.0,519.0,498.0
486.0,498.0,463.0,492.0,534.0
438.0,484.0,458.0,481.0,570.0
496.0,488.0,460.0,459.0,690.0
665.0,505.0,477.0,478.0,589.0
686.0,509.0,485.0,494.0,565.0
566.0,484.0,484.0,485.0,487.0
521.0,493.0,506.0,499.0,344.0
476.0,492.0,520.0,495.0,515.0
420.0,496.0,545.0,528.0,448.0
438.0,502.0,562.0,535.0,371.0
485.0,539.0,592.0,555.0,393.0
547.0,550.0,595.0,562.0,523.0
610.0,524.0,555.0,537.0,480.0
654.0,513.0,524.0,524.0,501.0
622.0,509.0,502.0,512.0,500.0
684.0,520.0,498.0,523.0,499.0
578.0,505.0,476.0,481.0,682.0
513.0,488.0,458.0,493.0,623.0
596.0,493.0,456.0,472.0,542.0
549.0,486.0,461.0,460.0,541.0
593.0,495.0,470.0,485.0,556.0
622.0,505.0,490.0,493.0,588.0
666.0,531.0,537.0,543.0,521.0
627.0,529.0,548.0,540.0,529.0
549.0,515.0,558.0,527.0,456.0
576.0,505.0,547.0,493.0,471.0
557.0,511.0,554.0,514.0,502.0
557.0,524.0,570.0,562.0,438.0
526.0,512.0,559.0,555.0,473.0
485.0,510.0,545.0,559.0,369.0
526.0,524.0,533.0,536.0,481.0
520.0,511.0,508.0,513.0,530.0
480.0,489.0,469.0,482.0,571.0
480.0,495.0,476.0,494.0,532.0
498.0,512.0,484.0,504.0,557.0
492.0,501.0,477.0,497.0,531.0
527.0,482.0,459.0,475.0,427.0
546.0,479.0,453.0,464.0,509.0
509.0,484.0,482.0,503.0,556.0
381.0,482.0,503.0,501.0,645.0
311.0,475.0,518.0,521.0,506.0
384.0,501.0,549.0,546.0,437.0
487.0,524.0,569.0,545.0,504.0
578.0,547.0,586.0,537.0,394.0
525.0,549.0,593.0,555.0,375.0
521.0,536.0,575.0,549.0,495.0
501.0,516.0,545.0,529.0,645.0
496.0,500.0,514.0,528.0,712.0
456.0,499.0,490.0,514.0,616.0
394.0,496.0,477.0,542.0,402.0
381.0,486.0,455.0,504.0,496.0
421.0,474.0,446.0,471.0,483.0
515.0,487.0,461.0,475.0,390.0
652.0,500.0,476.0,487.0,431.0
587.0,488.0,475.0,481.0,455.0
575.0,486.0,487.0,477.0,569.0
544.0,495.0,510.0,494.0,527.0
440.0,497.0,534.0,510.0,500.0
406.0,516.0,575.0,551.0,504.0
434.0,523.0,590.0,571.0,465.0
566.0,525.0,584.0,570.0,509.0
615.0,528.0,577.0,560.0,460.0
550.0,521.0,562.0,534.0,612.0
403.0,494.0,517.0,503.0,573.0
354.0,499.0,506.0,509.0,522.0
469.0,518.0,501.0,525.0,565.0
512.0,514.0,488.0,504.0,590.0
436.0,500.0,479.0,505.0,586.0
498.0,507.0,477.0,513.0,548.0
499.0,492.0,465.0,503.0,504.0
527.0,464.0,447.0,490.0,443.0
538.0,471.0,467.0,486.0,495.0
562.0,491.0,494.0,486.0,544.0
610.0,519.0,530.0,502.0,503.0
612.0,524.0,546.0,516.0,389.0
622.0,523.0,568.0,530.0,396.0
622.0,526.0,573.0,543.0,499.0
499.0,517.0,573.0,554.0,512.0
470.0,516.0,571.0,565.0,485.0
486.0,506.0,546.0,546.0,474.0
430.0,507.0,531.0,542.0,485.0
416.0,519.0,522.0,543.0,531.0
395.0,511.0,497.0,540.0,489.0
397.0,495.0,467.0,509.0,429.0
539.0,485.0,455.0,484.0,509.0
670.0,509.0,470.0,496.0,536.0
661.0,504.0,473.0,494.0,624.0
590.0,493.0,461.0,463.0,585.0
520.0,480.0,474.0,474.0,450.0
554.0,494.0,500.0,498.0,469.0
629.0,507.0,528.0,521.0,464.0
631.0,526.0,559.0,539.0,445.0
602.0,537.0,578.0,544.0,577.0
505.0,529.0,581.0,542.0,623.0
417.0,519.0,568.0,551.0,555.0
417.0,527.0,573.0,573.0,415.0
444.0,521.0,546.0,554.0,451.0
521.0,518.0,519.0,518.0,609.0
538.0,511.0,500.0,504.0,685.0
462.0,490.0,471.0,508.0,590.0
382.0,449.0,446.0,531.0,438.0
415.0,481.0,463.0,501.0,462.0
488.0,488.0,455.0,470.0,509.0
581.0,499.0,462.0,481.0,605.0
623.0,502.0,480.0,511.0,360.0
609.0,501.0,495.0,490.0,374.0
637.0,505.0,512.0,484.0,472.0
621.0,521.0,540.0,500.0,519.0
598.0,534.0,573.0,539.0,495.0
561.0,530.0,583.0,556.0,418.0
563.0,523.0,582.0,558.0,344.0
536.0,528.0,579.0,562.0,406.0
506.0,526.0,568.0,549.0,608.0
474.0,513.0,537.0,538.0,600.0
474.0,491.0,497.0,509.0,601.0
442.0,486.0,469.0,494.0,541.0
481.0,499.0,466.0,500.0,531.0
450.0,489.0,455.0,491.0,497.0
451.0,487.0,460.0,491.0,509.0
510.0,497.0,463.0,480.0,514.0
572.0,503.0,474.0,484.0,525.0
551.0,494.0,484.0,491.0,506.0
523.0,488.0,497.0,495.0,487.0
532.0,515.0,533.0,527.0,511.0
545.0,529.0,563.0,546.0,519.0
537.0,523.0,573.0,553.0,508.0
553.0,508.0,564.0,548.0,470.0
464.0,508.0,560.0,547.0,469.0
416.0,503.0,548.0,534.0,505.0
513.0,521.0,546.0,548.0,482.0
573.0,524.0,533.0,531.0,513.0
447.0,505.0,500.0,531.0,586.0
307.0,483.0,469.0,525.0,533.0
389.0,489.0,459.0,503.0,561.0
459.0,493.0,464.0,468.0,610.0
470.0,489.0,465.0,481.0,555.0
359.0,481.0,472.0,491.0,596.0
454.0,488.0,477.0,494.0,557.0
544.0,500.0,485.0,486.0,412.0
529.0,490.0,503.0,497.0,382.0
623.0,506.0,525.0,515.0,430.0
611.0,521.0,556.0,536.0,476.0
658.0,524.0,565.0,533.0,515.0
643.0,526.0,567.0,532.0,571.0
615.0,546.0,583.0,565.0,518.0
590.0,545.0,582.0,562.0,491.0
588.0,535.0,555.0,538.0,508.0
585.0,526.0,532.0,539.0,524.0
512.0,513.0,505.0,537.0,541.0
432.0,493.0,481.0,535.0,505.0
357.0,487.0,467.0,516.0,445.0
387.0,487.0,466.0,498.0,495.0
429.0,466.0,442.0,459.0,501.0
596.0,488.0,453.0,454.0,501.0
605.0,494.0,476.0,481.0,541.0
555.0,497.0,500.0,511.0,515.0
569.0,514.0,518.0,510.0,469.0
597.0,525.0,548.0,531.0,434.0
582.0,523.0,566.0,545.0,413.0
479.0,512.0,568.0,538.0,470.0
495.0,519.0,575.0,546.0,490.0
488.0,516.0,562.0,543.0,519.0
537.0,531.0,561.0,533.0,584.0
559.0,527.0,539.0,543.0,539.0
529.0,512.0,511.0,539.0,582.0
471.0,492.0,475.0,510.0,531.0
520.0,501.0,471.0,497.0,511.0
552.0,505.0,466.0,494.0,487.0
577.0,504.0,468.0,515.0,521.0
593.0,501.0,475.0,501.0,488.0
530.0,477.0,461.0,491.0,608.0
326.0,467.0,473.0,478.0,633.0
330.0,472.0,494.0,485.0,502.0
402.0,488.0,519.0,518.0,357.0
550.0,523.0,560.0,560.0,382.0
483.0,509.0,558.0,548.0,413.0
475.0,520.0,574.0,560.0,452.0
529.0,541.0,584.0,544.0,613.0
500.0,536.0,577.0,547.0,569.0
530.0,515.0,542.0,522.0,545.0
508.0,507.0,521.0,518.0,563.0
411.0,489.0,493.0,508.0,536.0
490.0,497.0,473.0,497.0,532.0
569.0,507.0,469.0,490.0,496.0
551.0,501.0,469.0,497.0,568.0
465.0,488.0,454.0,463.0,554.0
471.0,488.0,469.0,494.0,460.0
614.0,505.0,482.0,511.0,415.0
621.0,511.0,498.0,510.0,391.0
593.0,508.0,512.0,499.0,486.0
521.0,512.0,534.0,510.0,613.0
590.0,525.0,558.0,541.0,485.0
570.0,518.0,567.0,547.0,486.0
574.0,516.0,560.0,525.0,476.0
566.0,520.0,574.0,552.0,586.0
551.0,513.0,564.0,570.0,611.0
517.0,506.0,533.0,542.0,595.0
516.0,515.0,509.0,509.0,469.0
507.0,513.0,494.0,506.0,478.0
487.0,498.0,479.0,493.0,568.0
548.0,507.0,473.0,507.0,540.0
520.0,514.0,484.0,500.0,523.0
485.0,513.0,485.0,496.0,569.0
420.0,480.0,465.0,481.0,579.0
493.0,468.0,456.0,483.0,476.0
496.0,473.0,469.0,475.0,426.0
613.0,505.0,512.0,497.0,338.0
603.0,505.0,533.0,520.0,446.0
588.0,513.0,553.0,537.0,427.0
561.0,520.0,572.0,552.0,486.0
525.0,528.0,577.0,563.0,491.0
505.0,525.0,572.0,548.0,564.0
488.0,512.0,556.0,555.0,483.0
510.0,516.0,535.0,537.0,536.0
495.0,508.0,508.0,514.0,570.0
408.0,504.0,495.0,512.0,474.0
371.0,493.0,474.0,502.0,524.0
423.0,492.0,464.0,489.0,498.0
541.0,497.0,460.0,485.0,556.0
503.0,482.0,454.0,479.0,548.0
487.0,488.0,463.0,479.0,488.0
518.0,495.0,481.0,488.0,517.0
482.0,490.0,498.0,497.0,523.0
466.0,493.0,519.0,522.0,469.0
533.0,513.0,547.0,543.0,427.0
516.0,520.0,568.0,548.0,417.0
617.0,538.0,585.0,548.0,521.0
620.0,542.0,586.0,541.0,528.0
609.0,544.0,585.0,559.0,544.0
518.0,517.0,556.0,549.0,544.0
512.0,510.0,523.0,520.0,552.0
540.0,509.0,507.0,520.0,559.0
437.0,502.0,489.0,514.0,570.0
413.0,496.0,476.0,501.0,568.0
383.0,483.0,459.0,482.0,554.0
459.0,481.0,456.0,479.0,494.0
465.0,479.0,457.0,477.0,476.0
448.0,481.0,464.0,483.0,449.0
420.0,472.0,471.0,480.0,476.0
496.0,493.0,504.0,502.0,498.0
560.0,511.0,531.0,507.0,532.0
600.0,522.0,554.0,528.0,524.0
648.0,540.0,576.0,540.0,461.0
646.0,541.0,587.0,555.0,447.0
653.0,534.0,578.0,555.0,518.0
516.0,521.0,571.0,566.0,570.0
494.0,520.0,545.0,527.0,544.0
498.0,519.0,526.0,531.0,573.0
524.0,505.0,497.0,522.0,540.0
466.0,500.0,481.0,501.0,605.0
413.0,489.0,465.0,490.0,516.0
443.0,479.0,452.0,484.0,454.0
550.0,490.0,454.0,475.0,573.0
538.0,488.0,463.0,487.0,552.0
539.0,483.0,470.0,489.0,511.0
554.0,490.0,491.0,481.0,448.0
567.0,505.0,517.0,504.0,506.0
554.0,511.0,537.0,517.0,451.0
539.0,517.0,559.0,532.0,439.0
549.0,523.0,574.0,553.0,420.0
524.0,530.0,578.0,559.0,504.0
492.0,530.0,578.0,561.0,565.0
528.0,532.0,568.0,548.0,598.0
487.0,524.0,544.0,548.0,489.0
489.0,504.0,512.0,528.0,395.0
455.0,488.0,480.0,515.0,430.0
469.0,504.0,476.0,507.0,531.0
481.0,500.0,471.0,488.0,548.0
537.0,499.0,464.0,482.0,564.0
558.0,491.0,458.0,474.0,540.0
447.0,475.0,459.0,479.0,481.0
464.0,490.0,477.0,482.0,518.0
477.0,492.0,497.0,486.0,566.0
558.0,500.0,518.0,506.0,495.0
611.0,512.0,540.0,514.0,489.0
579.0,521.0,570.0,544.0,494.0
536.0,529.0,582.0,544.0,480.0
531.0,527.0,578.0,551.0,546.0
503.0,520.0,573.0,554.0,541.0
503.0,515.0,552.0,534.0,465.0
442.0,504.0,525.0,529.0,467.0
449.0,501.0,503.0,524.0,498.0
472.0,508.0,484.0,513.0,560.0
543.0,504.0,466.0,499.0,533.0
541.0,497.0,465.0,488.0,520.0
504.0,485.0,456.0,467.0,549.0
521.0,490.0,464.0,476.0,526.0
514.0,488.0,470.0,483.0,497.0
531.0,495.0,491.0,492.0,486.0
541.0,498.0,512.0,505.0,490.0
531.0,507.0,529.0,510.0,533.0
515.0,510.0,549.0,531.0,486.0
541.0,523.0,569.0,541.0,506.0
521.0,528.0,579.0,555.0,465.0
527.0,528.0,576.0,549.0,489.0
442.0,516.0,561.0,546.0,532.0
393.0,510.0,541.0,540.0,558.0
387.0,512.0,521.0,529.0,530.0
530.0,513.0,501.0,511.0,577.0
633.0,520.0,490.0,506.0,604.0
670.0,514.0,477.0,501.0,572.0
573.0,496.0,466.0,502.0,559.0
524.0,498.0,468.0,498.0,424.0
556.0,494.0,471.0,487.0,415.0
452.0,481.0,473.0,484.0,473.0
447.0,494.0,495.0,494.0,500.0
568.0,497.0,513.0,509.0,461.0
563.0,493.0,517.0,500.0,511.0
553.0,511.0,551.0,524.0,485.0
550.0,523.0,571.0,534.0,530.0
552.0,526.0,574.0,539.0,523.0
526.0,527.0,574.0,557.0,479.0
543.0,527.0,566.0,544.0,530.0
533.0,520.0,537.0,530.0,535.0
457.0,503.0,509.0,512.0,573.0
430.0,494.0,489.0,516.0,565.0
502.0,508.0,486.0,508.0,537.0
494.0,498.0,468.0,492.0,586.0
437.0,488.0,462.0,488.0,566.0
422.0,479.0,458.0,477.0,510.0
436.0,476.0,458.0,467.0,489.0
512.0,486.0,474.0,474.0,451.0
529.0,499.0,503.0,492.0,454.0
569.0,505.0,521.0,504.0,504.0
585.0,513.0,542.0,521.0,494.0
544.0,514.0,562.0,537.0,446.0
530.0,526.0,580.0,553.0,459.0
478.0,520.0,574.0,554.0,447.0
485.0,537.0,584.0,569.0,487.0
505.0,532.0,562.0,534.0,571.0
438.0,510.0,530.0,532.0,524.0
478.0,513.0,518.0,537.0,565.0
518.0,515.0,496.0,505.0,579.0
444.0,492.0,472.0,504.0,520.0
465.0,484.0,457.0,482.0,504.0
554.0,488.0,455.0,474.0,493.0
599.0,490.0,458.0,467.0,478.0
593.0,487.0,465.0,483.0,457.0
557.0,487.0,482.0,481.0,529.0
527.0,493.0,505.0,500.0,508.0
528.0,502.0,528.0,522.0,505.0
547.0,511.0,548.0,527.0,507.0
570.0,530.0,573.0,536.0,517.0
551.0,531.0,577.0,551.0,484.0
484.0,517.0,574.0,562.0,526.0
503.0,525.0,569.0,543.0,547.0
496.0,514.0,542.0,529.0,503.0
497.0,510.0,520.0,525.0,506.0
482.0,505.0,500.0,517.0,556.0
529.0,510.0,483.0,504.0,525.0
515.0,499.0,475.0,511.0,546.0
505.0,501.0,462.0,481.0,583.0
464.0,478.0,453.0,467.0,602.0
420.0,482.0,463.0,478.0,522.0
469.0,480.0,474.0,488.0,412.0
594.0,504.0,497.0,505.0,398.0
539.0,498.0,511.0,519.0,413.0
567.0,514.0,541.0,528.0,432.0
548.0,524.0,562.0,518.0,569.0
526.0,527.0,573.0,529.0,591.0
565.0,533.0,585.0,554.0,520.0
555.0,532.0,583.0,557.0,461.0
536.0,529.0,572.0,552.0,487.0
511.0,516.0,537.0,531.0,571.0
496.0,507.0,508.0,519.0,575.0
523.0,502.0,489.0,507.0,567.0
479.0,495.0,470.0,500.0,505.0
496.0,496.0,466.0,490.0,522.0
475.0,495.0,469.0,486.0,516.0
464.0,486.0,461.0,488.0,493.0
452.0,480.0,462.0,493.0,528.0
579.0,495.0,475.0,467.0,472.0
540.0,500.0,500.0,502.0,516.0
531.0,504.0,520.0,520.0,536.0
532.0,504.0,536.0,500.0,535.0
549.0,516.0,560.0,527.0,476.0
578.0,526.0,575.0,539.0,505.0
597.0,534.0,577.0,558.0,492.0
548.0,521.0,568.0,550.0,519.0
464.0,513.0,556.0,545.0,513.0
497.0,519.0,533.0,530.0,537.0
489.0,506.0,506.0,519.0,523.0
500.0,504.0,484.0,500.0,503.0
483.0,501.0,475.0,497.0,497.0
463.0,496.0,465.0,488.0,495.0
481.0,492.0,466.0,485.0,474.0
538.0,496.0,469.0,483.0,505.0
523.0,489.0,471.0,485.0,498.0
519.0,485.0,482.0,485.0,502.0
517.0,493.0,505.0,496.0,500.0
514.0,497.0,524.0,514.0,505.0
500.0,504.0,542.0,523.0,522.0
547.0,522.0,567.0,541.0,485.0
579.0,535.0,584.0,549.0,505.0
553.0,534.0,581.0,555.0,511.0
523.0,529.0,576.0,562.0,498.0
496.0,517.0,546.0,545.0,493.0
470.0,509.0,517.0,526.0,548.0
468.0,504.0,497.0,514.0,523.0
491.0,502.0,482.0,507.0,511.0
463.0,497.0,470.0,496.0,571.0
484.0,495.0,465.0,487.0,563.0
509.0,491.0,463.0,482.0,527.0
532.0,488.0,466.0,479.0,523.0
527.0,487.0,469.0,473.0,493.0
515.0,490.0,489.0,492.0,472.0
514.0,499.0,510.0,501.0,492.0
544.0,515.0,538.0,524.0,466.0
560.0,524.0,562.0,543.0,467.0
538.0,528.0,577.0,548.0,490.0
557.0,528.0,573.0,542.0,500.0
552.0,534.0,582.0,554.0,516.0
550.0,530.0,570.0,557.0,525.0
548.0,524.0,541.0,548.0,525.0
513.0,506.0,511.0,526.0,524.0
460.0,491.0,483.0,500.0,596.0
442.0,493.0,476.0,493.0,573.0
467.0,487.0,460.0,480.0,513.0
494.0,488.0,457.0,485.0,496.0
497.0,487.0,464.0,484.0,513.0
515.0,486.0,464.0,481.0,500.0
508.0,485.0,476.0,488.0,492.0
514.0,492.0,495.0,486.0,506.0
534.0,501.0,517.0,501.0,475.0
538.0,514.0,541.0,526.0,446.0
511.0,517.0,562.0,537.0,488.0
513.0,523.0,574.0,542.0,524.0
545.0,527.0,582.0,552.0,510.0
556.0,531.0,576.0,553.0,519.0
523.0,522.0,556.0,544.0,535.0
511.0,515.0,533.0,532.0,554.0
488.0,507.0,506.0,517.0,564.0
505.0,504.0,491.0,508.0,525.0
490.0,493.0,467.0,494.0,505.0
479.0,494.0,465.0,491.0,531.0
497.0,492.0,465.0,484.0,516.0
513.0,491.0,464.0,486.0,511.0
513.0,484.0,465.0,483.0,502.0
513.0,489.0,479.0,483.0,513.0
499.0,492.0,503.0,498.0,526.0
520.0,508.0,526.0,512.0,531.0
519.0,516.0,551.0,528.0,467.0
543.0,524.0,568.0,536.0,467.0
573.0,530.0,579.0,548.0,481.0
551.0,523.0,574.0,549.0,494.0
528.0,523.0,568.0,549.0,491.0
511.0,514.0,546.0,537.0,523.0
495.0,511.0,520.0,528.0,550.0
490.0,509.0,497.0,513.0,558.0
498.0,500.0,480.0,507.0,525.0
506.0,498.0,472.0,497.0,508.0
502.0,493.0,462.0,488.0,511.0
503.0,489.0,460.0,482.0,515.0
508.0,489.0,465.0,481.0,508.0
516.0,493.0,471.0,483.0,506.0
525.0,492.0,488.0,490.0,497.0
530.0,497.0,508.0,499.0,494.0
535.0,506.0,532.0,517.0,489.0
540.0,518.0,557.0,532.0,492.0
539.0,524.0,573.0,546.0,494.0
528.0,525.0,578.0,550.0,505.0
538.0,529.0,576.0,554.0,508.0
526.0,526.0,569.0,551.0,515.0
503.0,513.0,538.0,534.0,530.0
492.0,507.0,514.0,522.0,537.0
490.0,503.0,492.0,514.0,532.0
493.0,498.0,476.0,501.0,530.0
494.0,494.0,464.0,491.0,524.0
501.0,495.0,462.0,489.0,514.0
504.0,489.0,465.0,484.0,509.0
506.0,489.0,466.0,480.0,509.0
517.0,488.0,476.0,484.0,507.0
519.0,494.0,500.0,493.0,500.0
529.0,500.0,517.0,505.0,497.0
536.0,510.0,540.0,524.0,492.0
545.0,518.0,562.0,537.0,487.0
542.0,525.0,576.0,549.0,489.0
536.0,525.0,575.0,554.0,500.0
527.0,526.0,572.0,551.0,508.0
525.0,520.0,555.0,543.0,520.0
502.0,516.0,530.0,531.0,532.0
492.0,506.0,506.0,519.0,533.0
492.0,503.0,485.0,508.0,532.0
494.0,499.0,471.0,498.0,530.0
496.0,495.0,463.0,491.0,523.0
502.0,492.0,461.0,486.0,520.0
508.0,490.0,465.0,483.0,510.0
512.0,489.0,469.0,485.0,505.0
514.0,488.0,483.0,489.0,501.0
524.0,497.0,503.0,496.0,496.0
531.0,503.0,526.0,512.0,494.0
546.0,514.0,554.0,528.0,488.0
545.0,524.0,573.0,545.0,481.0
540.0,530.0,582.0,552.0,487.0
531.0,524.0,573.0,550.0,504.0
539.0,524.0,569.0,550.0,505.0
516.0,515.0,549.0,541.0,519.0
502.0,515.0,523.0,531.0,525.0
491.0,507.0,502.0,519.0,532.0
488.0,503.0,484.0,509.0,528.0
474.0,495.0,467.0,494.0,532.0
488.0,492.0,461.0,487.0,522.0
511.0,490.0,462.0,485.0,513.0
516.0,490.0,466.0,482.0,509.0
522.0,494.0,472.0,484.0,502.0
528.0,496.0,488.0,495.0,494.0
534.0,496.0,509.0,502.0,489.0
539.0,505.0,532.0,517.0,488.0
545.0,516.0,556.0,532.0,486.0
543.0,522.0,572.0,545.0,491.0
537.0,524.0,575.0,550.0,503.0
530.0,526.0,575.0,553.0,509.0
522.0,526.0,569.0,552.0,519.0
504.0,516.0,541.0,539.0,536.0
495.0,509.0,517.0,526.0,536.0
490.0,505.0,499.0,515.0,534.0
491.0,502.0,479.0,508.0,531.0
503.0,497.0,471.0,494.0,528.0
501.0,495.0,464.0,494.0,525.0
509.0,491.0,463.0,486.0,521.0
510.0,490.0,469.0,489.0,512.0
512.0,493.0,477.0,486.0,512.0
526.0,493.0,496.0,495.0,500.0
532.0,500.0,515.0,507.0,496.0
544.0,510.0,541.0,523.0,489.0
548.0,520.0,565.0,542.0,488.0
542.0,525.0,577.0,551.0,495.0
535.0,524.0,576.0,553.0,504.0
529.0,526.0,573.0,554.0,511.0
519.0,522.0,560.0,547.0,521.0
503.0,514.0,529.0,534.0,531.0
496.0,505.0,508.0,522.0,531.0
494.0,501.0,488.0,515.0,529.0
497.0,497.0,473.0,505.0,525.0
498.0,493.0,464.0,498.0,521.0
501.0,490.0,462.0,493.0,516.0
508.0,488.0,465.0,490.0,511.0
511.0,488.0,471.0,489.0,504.0
518.0,489.0,484.0,493.0,501.0
530.0,496.0,505.0,503.0,500.0
532.0,501.0,525.0,521.0,494.0
533.0,512.0,547.0,533.0,488.0
536.0,520.0,567.0,548.0,489.0
534.0,526.0,574.0,559.0,492.0
525.0,523.0,568.0,553.0,510.0
540.0,526.0,565.0,556.0,505.0
516.0,517.0,542.0,548.0,526.0
507.0,510.0,519.0,538.0,535.0
501.0,506.0,498.0,522.0,534.0
497.0,502.0,481.0,516.0,532.0
500.0,498.0,470.0,506.0,523.0
502.0,494.0,467.0,501.0,517.0
507.0,489.0,465.0,493.0,513.0
508.0,492.0,467.0,492.0,507.0
515.0,489.0,476.0,492.0,502.0
523.0,494.0,493.0,498.0,500.0
533.0,497.0,510.0,510.0,496.0
539.0,507.0,533.0,526.0,490.0
545.0,514.0,553.0,542.0,487.0
544.0,521.0,568.0,558.0,494.0
544.0,526.0,571.0,559.0,497.0
534.0,527.0,568.0,559.0,505.0
525.0,526.0,561.0,560.0,512.0
507.0,516.0,533.0,545.0,525.0
501.0,509.0,506.0,532.0,531.0
494.0,505.0,489.0,525.0,529.0
499.0,501.0,476.0,516.0,525.0
501.0,495.0,467.0,508.0,525.0
500.0,494.0,465.0,501.0,515.0
503.0,488.0,463.0,498.0,515.0
504.0,489.0,471.0,491.0,510.0
511.0,495.0,479.0,494.0,502.0
524.0,497.0,497.0,505.0,496.0
534.0,501.0,514.0,516.0,493.0
542.0,511.0,539.0,534.0,490.0
550.0,520.0,560.0,550.0,490.0
549.0,526.0,572.0,558.0,486.0
540.0,525.0,570.0,562.0,494.0
532.0,528.0,567.0,562.0,502.0
519.0,523.0,554.0,554.0,523.0
500.0,512.0,527.0,541.0,534.0
490.0,506.0,503.0,530.0,536.0
488.0,504.0,485.0,522.0,530.0
489.0,500.0,472.0,513.0,525.0
497.0,496.0,464.0,506.0,522.0
511.0,493.0,463.0,502.0,514.0
510.0,492.0,466.0,499.0,511.0
509.0,489.0,470.0,497.0,509.0
518.0,489.0,481.0,500.0,507.0
527.0,497.0,502.0,509.0,497.0
535.0,504.0,524.0,521.0,492.0
542.0,512.0,545.0,539.0,486.0
549.0,522.0,566.0,553.0,484.0
544.0,528.0,574.0,560.0,490.0
529.0,523.0,567.0,560.0,500.0
524.0,526.0,565.0,562.0,505.0
511.0,520.0,548.0,551.0,524.0
500.0,512.0,520.0,538.0,532.0
493.0,507.0,497.0,529.0,534.0
492.0,502.0,479.0,519.0,532.0
499.0,499.0,469.0,511.0,523.0
503.0,499.0,462.0,508.0,515.0
506.0,490.0,460.0,500.0,513.0
504.0,489.0,462.0,495.0,509.0
511.0,490.0,466.0,494.0,505.0
516.0,490.0,485.0,502.0,499.0
529.0,496.0,505.0,515.0,493.0
538.0,505.0,529.0,529.0,488.0
542.0,514.0,550.0,543.0,485.0
545.0,521.0,570.0,554.0,488.0
535.0,528.0,578.0,562.0,501.0
525.0,527.0,574.0,562.0,511.0
526.0,529.0,567.0,561.0,516.0
504.0,515.0,539.0,549.0,528.0
492.0,509.0,514.0,535.0,537.0
491.0,507.0,494.0,527.0,534.0
492.0,508.0,475.0,518.0,523.0
498.0,498.0,464.0,510.0,518.0
505.0,497.0,461.0,505.0,511.0
506.0,491.0,458.0,497.0,508.0
508.0,487.0,461.0,494.0,507.0
511.0,487.0,469.0,495.0,508.0
522.0,493.0,492.0,505.0,501.0
528.0,499.0,511.0,516.0,493.0
537.0,510.0,537.0,530.0,494.0
542.0,520.0,557.0,545.0,486.0
541.0,524.0,571.0,555.0,490.0
534.0,525.0,572.0,556.0,502.0
523.0,526.0,571.0,557.0,509.0
514.0,523.0,560.0,556.0,519.0
495.0,515.0,533.0,543.0,532.0
486.0,513.0,507.0,533.0,538.0
486.0,509.0,486.0,523.0,537.0
499.0,503.0,474.0,516.0,526.0
509.0,498.0,460.0,505.0,520.0
513.0,495.0,460.0,500.0,514.0
510.0,495.0,461.0,497.0,514.0
510.0,490.0,465.0,495.0,507.0
517.0,491.0,478.0,498.0,502.0
526.0,497.0,500.0,509.0,500.0
530.0,502.0,517.0,519.0,496.0
540.0,514.0,543.0,534.0,490.0
545.0,523.0,566.0,552.0,489.0
542.0,526.0,573.0,558.0,495.0
533.0,523.0,570.0,556.0,506.0
527.0,527.0,566.0,559.0,509.0
510.0,523.0,545.0,553.0,527.0
501.0,515.0,522.0,538.0,534.0
499.0,511.0,501.0,530.0,532.0
497.0,506.0,482.0,520.0,528.0
499.0,501.0,468.0,513.0,524.0
503.0,497.0,461.0,500.0,517.0
502.0,492.0,460.0,494.0,518.0
505.0,495.0,463.0,491.0,512.0
511.0,491.0,472.0,493.0,506.0
518.0,492.0,487.0,498.0,501.0
526.0,498.0,507.0,508.0,497.0
536.0,508.0,529.0,526.0,492.0
540.0,515.0,549.0,538.0,489.0
538.0,519.0,565.0,553.0,487.0
531.0,526.0,571.0,556.0,497.0
525.0,530.0,566.0,556.0,507.0
531.0,529.0,561.0,556.0,513.0
506.0,517.0,533.0,541.0,530.0
501.0,513.0,510.0,531.0,533.0
503.0,510.0,493.0,524.0,530.0
498.0,507.0,478.0,513.0,529.0
495.0,497.0,465.0,502.0,524.0
499.0,497.0,463.0,497.0,513.0
500.0,493.0,463.0,490.0,514.0
501.0,489.0,467.0,485.0,512.0
510.0,492.0,478.0,489.0,506.0
517.0,493.0,492.0,499.0,501.0
521.0,500.0,512.0,512.0,503.0
539.0,509.0,534.0,524.0,495.0
547.0,519.0,555.0,539.0,492.0
540.0,525.0,567.0,550.0,496.0
533.0,528.0,567.0,555.0,507.0
527.0,526.0,561.0,556.0,510.0
521.0,525.0,552.0,552.0,517.0
502.0,515.0,525.0,537.0,532.0
499.0,511.0,503.0,530.0,534.0
498.0,506.0,484.0,516.0,530.0
498.0,502.0,471.0,504.0,521.0
504.0,498.0,464.0,500.0,519.0
509.0,495.0,464.0,492.0,509.0
508.0,494.0,466.0,487.0,506.0
514.0,494.0,473.0,487.0,502.0
515.0,495.0,486.0,490.0,504.0
516.0,498.0,502.0,498.0,500.0
522.0,503.0,519.0,508.0,503.0
531.0,518.0,540.0,525.0,499.0
538.0,520.0,557.0,542.0,490.0
536.0,525.0,567.0,551.0,495.0
533.0,524.0,563.0,556.0,505.0
527.0,524.0,558.0,555.0,512.0
511.0,516.0,538.0,544.0,523.0
500.0,511.0,516.0,533.0,529.0
496.0,508.0,501.0,521.0,531.0
497.0,504.0,480.0,509.0,528.0
498.0,505.0,473.0,501.0,525.0
499.0,503.0,469.0,493.0,522.0
501.0,503.0,467.0,487.0,519.0
506.0,497.0,470.0,482.0,509.0
509.0,497.0,478.0,485.0,505.0
513.0,502.0,492.0,490.0,502.0
524.0,503.0,510.0,501.0,499.0
530.0,510.0,529.0,516.0,498.0
544.0,518.0,546.0,533.0,492.0
540.0,520.0,561.0,547.0,495.0
536.0,522.0,564.0,553.0,504.0
525.0,521.0,557.0,552.0,510.0
521.0,522.0,552.0,555.0,515.0
505.0,512.0,527.0,539.0,528.0
499.0,509.0,507.0,529.0,534.0
500.0,505.0,496.0,520.0,531.0
495.0,503.0,482.0,506.0,525.0
491.0,503.0,470.0,494.0,522.0
500.0,504.0,472.0,491.0,517.0
505.0,499.0,474.0,484.0,513.0
505.0,500.0,474.0,482.0,507.0
514.0,499.0,487.0,486.0,504.0
520.0,499.0,499.0,493.0,497.0
525.0,505.0,516.0,506.0,500.0
530.0,509.0,534.0,524.0,496.0
538.0,518.0,551.0,538.0,494.0
537.0,522.0,558.0,550.0,498.0
531.0,521.0,557.0,552.0,504.0
525.0,519.0,554.0,554.0,512.0
515.0,516.0,542.0,550.0,516.0
501.0,508.0,518.0,536.0,528.0
496.0,506.0,500.0,523.0,531.0
494.0,503.0,485.0,512.0,527.0
495.0,504.0,477.0,502.0,524.0
499.0,503.0,473.0,494.0,521.0
503.0,501.0,473.0,489.0,514.0
505.0,499.0,476.0,484.0,507.0
509.0,498.0,482.0,483.0,508.0
512.0,498.0,490.0,484.0,510.0
520.0,504.0,506.0,495.0,501.0
528.0,505.0,522.0,509.0,500.0
535.0,515.0,538.0,527.0,493.0
540.0,516.0,554.0,543.0,491.0
539.0,520.0,560.0,557.0,494.0
528.0,516.0,554.0,553.0,508.0
524.0,518.0,550.0,559.0,512.0
511.0,511.0,532.0,544.0,525.0
499.0,506.0,511.0,531.0,537.0
494.0,506.0,496.0,520.0,537.0
493.0,504.0,483.0,508.0,530.0
497.0,503.0,476.0,498.0,527.0
500.0,502.0,474.0,495.0,521.0
501.0,499.0,475.0,486.0,517.0
504.0,497.0,477.0,481.0,511.0
511.0,498.0,485.0,483.0,508.0
516.0,500.0,499.0,490.0,510.0
523.0,502.0,513.0,499.0,510.0
530.0,509.0,530.0,518.0,505.0
537.0,516.0,547.0,533.0,503.0
536.0,517.0,555.0,545.0,499.0
535.0,520.0,558.0,554.0,500.0
529.0,519.0,553.0,555.0,509.0
523.0,519.0,547.0,554.0,505.0
512.0,508.0,524.0,541.0,512.0
498.0,506.0,508.0,530.0,529.0
489.0,507.0,492.0,517.0,533.0
487.0,502.0,481.0,505.0,528.0
484.0,498.0,472.0,493.0,524.0
488.0,500.0,473.0,487.0,520.0
488.0,494.0,471.0,478.0,521.0
488.0,494.0,477.0,479.0,516.0
500.0,497.0,486.0,480.0,509.0
542.0,504.0,502.0,491.0,494.0
547.0,505.0,514.0,501.0,480.0
548.0,510.0,532.0,520.0,477.0
554.0,518.0,551.0,539.0,479.0
551.0,521.0,559.0,549.0,484.0
541.0,522.0,559.0,554.0,495.0
529.0,519.0,550.0,552.0,501.0
523.0,517.0,545.0,551.0,512.0
507.0,510.0,522.0,533.0,527.0
496.0,504.0,496.0,519.0,533.0
496.0,503.0,486.0,510.0,530.0
500.0,503.0,484.0,503.0,525.0
493.0,502.0,474.0,491.0,526.0
501.0,500.0,476.0,485.0,517.0
502.0,495.0,472.0,478.0,514.0
508.0,497.0,479.0,478.0,509.0
514.0,498.0,491.0,482.0,504.0
519.0,499.0,505.0,492.0,496.0
522.0,504.0,520.0,506.0,495.0
534.0,513.0,538.0,524.0,491.0
539.0,520.0,559.0,540.0,491.0
536.0,521.0,566.0,551.0,502.0
527.0,517.0,555.0,550.0,508.0
527.0,521.0,553.0,552.0,513.0
510.0,512.0,533.0,542.0,525.0
500.0,508.0,515.0,531.0,530.0
494.0,507.0,499.0,519.0,533.0
488.0,508.0,484.0,504.0,533.0
488.0,503.0,473.0,495.0,526.0
493.0,497.0,470.0,486.0,521.0
500.0,496.0,470.0,479.0,517.0
502.0,498.0,477.0,479.0,511.0
504.0,496.0,483.0,479.0,511.0
519.0,500.0,492.0,482.0,505.0
530.0,504.0,513.0,498.0,501.0
533.0,508.0,528.0,517.0,495.0
538.0,514.0,547.0,530.0,492.0
540.0,519.0,558.0,544.0,490.0
535.0,522.0,561.0,552.0,495.0
524.0,520.0,557.0,556.0,508.0
521.0,520.0,551.0,553.0,508.0
501.0,510.0,527.0,536.0,528.0
489.0,505.0,504.0,522.0,534.0
490.0,504.0,492.0,514.0,530.0
493.0,504.0,483.0,501.0,528.0
495.0,503.0,474.0,490.0,525.0
503.0,502.0,477.0,486.0,515.0
503.0,496.0,473.0,478.0,514.0
507.0,496.0,480.0,476.0,508.0
512.0,497.0,486.0,479.0,507.0
523.0,500.0,501.0,487.0,503.0
525.0,503.0,515.0,499.0,505.0
534.0,511.0,535.0,517.0,496.0
536.0,516.0,550.0,531.0,490.0
540.0,520.0,560.0,546.0,493.0
534.0,520.0,563.0,550.0,502.0
525.0,519.0,554.0,550.0,505.0
518.0,518.0,545.0,548.0,513.0
502.0,508.0,520.0,531.0,528.0
494.0,506.0,501.0,520.0,532.0
494.0,506.0,489.0,507.0,533.0
493.0,501.0,478.0,497.0,528.0
494.0,499.0,471.0,487.0,523.0
501.0,500.0,474.0,485.0,518.0
502.0,498.0,473.0,479.0,517.0
505.0,494.0,480.0,476.0,508.0
512.0,495.0,490.0,480.0,506.0
519.0,498.0,506.0,491.0,499.0
525.0,503.0,521.0,503.0,496.0
533.0,511.0,540.0,522.0,489.0
539.0,518.0,556.0,542.0,487.0
536.0,522.0,563.0,548.0,493.0
527.0,519.0,558.0,548.0,512.0
519.0,519.0,554.0,548.0,512.0
508.0,518.0,537.0,541.0,530.0
501.0,509.0,517.0,531.0,533.0
491.0,505.0,499.0,516.0,533.0
492.0,504.0,486.0,506.0,530.0
492.0,504.0,476.0,495.0,529.0
497.0,497.0,472.0,486.0,517.0
500.0,496.0,473.0,481.0,510.0
502.0,498.0,476.0,477.0,506.0
507.0,495.0,486.0,477.0,503.0
511.0,495.0,494.0,483.0,505.0
521.0,501.0,514.0,496.0,507.0
525.0,505.0,528.0,508.0,496.0
533.0,511.0,545.0,525.0,493.0
539.0,518.0,559.0,539.0,494.0
536.0,521.0,565.0,547.0,497.0
528.0,520.0,557.0,547.0,507.0
522.0,521.0,552.0,549.0,514.0
507.0,512.0,533.0,536.0,528.0
497.0,507.0,514.0,525.0,532.0
493.0,504.0,496.0,510.0,532.0
493.0,501.0,481.0,500.0,531.0
495.0,498.0,474.0,493.0,529.0
498.0,497.0,475.0,487.0,520.0
498.0,492.0,474.0,479.0,519.0
504.0,492.0,478.0,476.0,516.0
511.0,489.0,485.0,477.0,509.0
520.0,495.0,501.0,487.0,505.0
523.0,498.0,515.0,496.0,499.0
531.0,508.0,535.0,514.0,495.0
537.0,515.0,552.0,531.0,491.0
538.0,521.0,562.0,543.0,494.0
533.0,525.0,564.0,549.0,501.0
526.0,525.0,559.0,550.0,511.0
522.0,525.0,551.0,548.0,516.0
508.0,514.0,525.0,533.0,528.0
498.0,509.0,506.0,521.0,532.0
490.0,502.0,491.0,512.0,534.0
490.0,499.0,479.0,497.0,529.0
494.0,494.0,471.0,487.0,523.0
502.0,493.0,474.0,484.0,516.0
498.0,488.0,474.0,478.0,516.0
502.0,489.0,480.0,476.0,511.0
510.0,490.0,490.0,481.0,506.0
517.0,493.0,505.0,490.0,503.0
523.0,501.0,520.0,502.0,498.0
531.0,509.0,539.0,519.0,490.0
534.0,519.0,557.0,537.0,489.0
541.0,526.0,567.0,548.0,492.0
530.0,523.0,562.0,547.0,505.0
517.0,522.0,554.0,547.0,514.0
515.0,519.0,542.0,543.0,523.0
503.0,514.0,518.0,529.0,534.0
490.0,503.0,498.0,514.0,534.0
485.0,501.0,485.0,504.0,533.0
500.0,501.0,478.0,497.0,529.0
508.0,501.0,473.0,490.0,520.0
507.0,493.0,473.0,484.0,512.0
508.0,493.0,478.0,480.0,509.0
507.0,492.0,482.0,476.0,512.0
515.0,495.0,493.0,482.0,511.0
521.0,499.0,510.0,494.0,503.0
527.0,506.0,528.0,506.0,507.0
535.0,514.0,545.0,521.0,495.0
540.0,520.0,559.0,540.0,493.0
541.0,524.0,564.0,550.0,496.0
528.0,521.0,557.0,547.0,509.0
526.0,523.0,552.0,551.0,509.0
513.0,516.0,531.0,539.0,528.0
498.0,507.0,512.0,526.0,534.0
492.0,503.0,493.0,512.0,533.0
491.0,500.0,480.0,500.0,530.0
498.0,500.0,474.0,491.0,527.0
500.0,497.0,474.0,488.0,519.0
504.0,493.0,470.0,477.0,518.0
505.0,492.0,477.0,475.0,512.0
510.0,492.0,484.0,478.0,511.0
518.0,496.0,500.0,486.0,505.0
524.0,500.0,516.0,499.0,504.0
531.0,510.0,539.0,516.0,493.0
537.0,517.0,551.0,531.0,492.0
537.0,521.0,561.0,545.0,494.0
537.0,526.0,562.0,551.0,501.0
524.0,525.0,557.0,552.0,512.0
514.0,518.0,548.0,548.0,516.0
501.0,510.0,527.0,533.0,531.0
494.0,505.0,505.0,521.0,537.0
491.0,502.0,489.0,509.0,534.0
495.0,501.0,481.0,500.0,524.0
493.0,497.0,472.0,491.0,519.0
499.0,495.0,473.0,483.0,515.0
504.0,492.0,474.0,476.0,514.0
509.0,496.0,480.0,478.0,510.0
513.0,496.0,490.0,481.0,506.0
524.0,498.0,508.0,493.0,499.0
525.0,502.0,523.0,501.0,495.0
533.0,511.0,540.0,523.0,492.0
539.0,518.0,554.0,536.0,490.0
530.0,521.0,562.0,547.0,493.0
526.0,521.0,559.0,551.0,504.0
523.0,524.0,555.0,552.0,511.0
511.0,516.0,541.0,542.0,519.0
501.0,509.0,517.0,530.0,529.0
499.0,505.0,499.0,515.0,530.0
492.0,502.0,486.0,506.0,530.0
493.0,499.0,477.0,496.0,528.0
497.0,496.0,470.0,486.0,523.0
498.0,493.0,473.0,479.0,519.0
503.0,492.0,476.0,476.0,514.0
506.0,490.0,483.0,477.0,511.0
515.0,495.0,496.0,483.0,508.0
522.0,497.0,510.0,494.0,497.0
527.0,505.0,525.0,508.0,494.0
535.0,513.0,542.0,524.0,491.0
544.0,521.0,558.0,542.0,489.0
538.0,525.0,564.0,551.0,492.0
526.0,522.0,556.0,552.0,508.0
521.0,522.0,552.0,552.0,511.0
504.0,512.0,532.0,535.0,526.0
496.0,508.0,511.0,526.0,533.0
495.0,506.0,496.0,515.0,531.0
493.0,501.0,487.0,502.0,528.0
493.0,497.0,477.0,492.0,525.0
499.0,496.0,474.0,487.0,520.0
500.0,492.0,475.0,481.0,517.0
506.0,491.0,479.0,479.0,513.0
508.0,495.0,485.0,479.0,509.0
515.0,496.0,496.0,486.0,502.0
525.0,499.0,516.0,499.0,499.0
531.0,509.0,534.0,519.0,493.0
533.0,516.0,548.0,531.0,488.0
536.0,523.0,561.0,545.0,491.0
533.0,526.0,562.0,552.0,499.0
527.0,529.0,557.0,553.0,510.0
516.0,523.0,551.0,550.0,514.0
500.0,513.0,525.0,536.0,531.0
491.0,506.0,509.0,522.0,533.0
494.0,505.0,492.0,517.0,530.0
497.0,500.0,480.0,504.0,523.0
494.0,492.0,471.0,489.0,521.0
503.0,492.0,473.0,484.0,516.0
503.0,486.0,471.0,476.0,516.0
503.0,487.0,476.0,478.0,511.0
511.0,488.0,489.0,480.0,507.0
517.0,491.0,503.0,490.0,501.0
525.0,500.0,521.0,504.0,499.0
534.0,512.0,539.0,521.0,494.0
536.0,519.0,554.0,536.0,489.0
537.0,527.0,562.0,550.0,492.0
531.0,528.0,561.0,553.0,501.0
524.0,526.0,553.0,552.0,504.0
517.0,524.0,543.0,549.0,517.0
502.0,514.0,518.0,532.0,531.0
491.0,506.0,499.0,520.0,533.0
487.0,501.0,482.0,507.0,531.0
494.0,498.0,478.0,498.0,526.0
498.0,493.0,473.0,491.0,523.0
502.0,488.0,472.0,483.0,516.0
502.0,484.0,475.0,480.0,511.0
508.0,488.0,483.0,480.0,511.0
512.0,491.0,494.0,483.0,508.0
519.0,497.0,510.0,494.0,504.0
525.0,503.0,525.0,508.0,499.0
530.0,513.0,542.0,524.0,493.0
536.0,522.0,559.0,542.0,493.0
533.0,528.0,568.0,551.0,498.0
525.0,526.0,556.0,550.0,507.0
525.0,529.0,554.0,554.0,510.0
507.0,519.0,532.0,540.0,524.0
497.0,513.0,513.0,526.0,533.0
494.0,506.0,496.0,516.0,536.0
488.0,501.0,482.0,504.0,529.0
493.0,497.0,477.0,495.0,525.0
500.0,496.0,474.0,489.0,517.0
505.0,493.0,475.0,485.0,514.0
502.0,492.0,477.0,483.0,517.0
505.0,490.0,483.0,475.0,514.0
513.0,491.0,494.0,483.0,506.0
526.0,498.0,516.0,499.0,503.0
533.0,509.0,534.0,516.0,496.0
539.0,518.0,550.0,533.0,490.0
539.0,525.0,561.0,548.0,489.0
536.0,528.0,563.0,553.0,497.0
522.0,526.0,556.0,552.0,505.0
517.0,526.0,550.0,555.0,512.0
502.0,518.0,527.0,538.0,528.0
491.0,509.0,505.0,523.0,536.0
493.0,504.0,494.0,510.0,530.0
494.0,498.0,480.0,502.0,527.0
497.0,495.0,474.0,492.0,523.0
504.0,497.0,475.0,490.0,517.0
501.0,491.0,474.0,479.0,519.0
507.0,487.0,480.0,482.0,513.0
511.0,490.0,487.0,478.0,506.0
520.0,494.0,505.0,491.0,503.0
526.0,498.0,523.0,505.0,496.0
534.0,510.0,538.0,521.0,492.0
540.0,522.0,555.0,541.0,491.0
539.0,527.0,562.0,547.0,492.0
530.0,527.0,561.0,551.0,504.0
521.0,526.0,555.0,551.0,510.0
513.0,524.0,547.0,546.0,519.0
499.0,512.0,520.0,532.0,533.0
494.0,507.0,501.0,517.0,533.0
493.0,504.0,487.0,509.0,533.0
493.0,497.0,477.0,497.0,524.0
498.0,493.0,472.0,489.0,517.0
505.0,492.0,475.0,484.0,514.0
510.0,488.0,480.0,481.0,512.0
508.0,489.0,480.0,477.0,505.0
513.0,488.0,493.0,482.0,502.0
522.0,496.0,511.0,496.0,500.0
525.0,501.0,523.0,509.0,498.0
536.0,512.0,543.0,526.0,491.0
540.0,521.0,557.0,541.0,486.0
536.0,527.0,563.0,551.0,491.0
526.0,525.0,558.0,549.0,515.0
522.0,527.0,555.0,551.0,513.0
503.0,515.0,532.0,537.0,521.0
495.0,510.0,511.0,526.0,532.0
492.0,505.0,497.0,518.0,531.0
495.0,501.0,483.0,505.0,531.0
498.0,497.0,476.0,496.0,525.0
499.0,492.0,474.0,487.0,525.0
502.0,489.0,474.0,481.0,522.0
507.0,489.0,479.0,479.0,513.0
511.0,487.0,483.0,479.0,508.0
514.0,491.0,497.0,486.0,505.0
523.0,497.0,514.0,498.0,502.0
532.0,505.0,531.0,513.0,494.0
536.0,515.0,548.0,529.0,490.0
539.0,524.0,565.0,543.0,490.0
535.0,526.0,564.0,553.0,498.0
523.0,522.0,554.0,550.0,507.0
518.0,526.0,550.0,550.0,518.0
501.0,518.0,528.0,537.0,536.0
494.0,510.0,505.0,523.0,540.0
492.0,506.0,492.0,513.0,536.0
491.0,502.0,482.0,501.0,533.0
493.0,495.0,472.0,492.0,523.0
497.0,492.0,472.0,486.0,511.0
500.0,488.0,472.0,478.0,513.0
507.0,491.0,479.0,479.0,507.0
512.0,488.0,490.0,479.0,506.0
515.0,490.0,501.0,488.0,504.0
523.0,498.0,519.0,506.0,504.0
532.0,506.0,535.0,516.0,495.0
542.0,519.0,559.0,537.0,491.0
538.0,523.0,559.0,547.0,491.0
531.0,525.0,560.0,552.0,502.0
524.0,527.0,556.0,558.0,507.0
517.0,525.0,545.0,549.0,516.0
500.0,518.0,519.0,533.0,530.0
493.0,508.0,504.0,525.0,533.0
490.0,502.0,486.0,510.0,532.0
496.0,499.0,478.0,500.0,527.0
501.0,498.0,472.0,491.0,525.0
502.0,488.0,472.0,484.0,517.0
501.0,484.0,472.0,475.0,517.0
504.0,487.0,478.0,480.0,512.0
511.0,493.0,490.0,481.0,509.0
518.0,497.0,505.0,492.0,502.0
526.0,503.0,525.0,509.0,500.0
535.0,513.0,544.0,526.0,495.0
541.0,522.0,562.0,542.0,493.0
536.0,526.0,565.0,552.0,493.0
527.0,525.0,558.0,552.0,500.0
520.0,529.0,553.0,553.0,510.0
507.0,519.0,533.0,541.0,525.0
497.0,512.0,513.0,529.0,532.0
493.0,508.0,499.0,516.0,535.0
493.0,501.0,481.0,503.0,530.0
495.0,498.0,474.0,495.0,525.0
499.0,494.0,473.0,488.0,522.0
505.0,489.0,473.0,481.0,517.0
500.0,490.0,478.0,478.0,514.0
507.0,487.0,484.0,479.0,505.0
517.0,491.0,498.0,488.0,504.0
521.0,495.0,513.0,498.0,498.0
530.0,507.0,532.0,515.0,494.0
535.0,517.0,549.0,533.0,489.0
537.0,523.0,561.0,546.0,492.0
535.0,528.0,563.0,551.0,501.0
526.0,525.0,556.0,550.0,510.0
521.0,528.0,551.0,553.0,516.0
506.0,518.0,528.0,542.0,529.0
501.0,513.0,507.0,526.0,535.0
492.0,505.0,490.0,511.0,532.0
493.0,501.0,481.0,502.0,529.0
497.0,497.0,474.0,492.0,525.0
501.0,494.0,474.0,488.0,519.0
502.0,491.0,472.0,479.0,520.0
506.0,487.0,477.0,477.0,511.0
513.0,489.0,487.0,480.0,507.0
519.0,493.0,503.0,491.0,502.0
524.0,503.0,517.0,501.0,500.0
534.0,510.0,538.0,520.0,495.0
538.0,519.0,555.0,536.0,490.0
538.0,526.0,566.0,547.0,494.0
531.0,527.0,563.0,554.0,504.0
523.0,528.0,556.0,552.0,513.0
518.0,525.0,552.0,548.0,522.0
501.0,516.0,523.0,532.0,533.0
492.0,508.0,502.0,522.0,530.0
498.0,505.0,491.0,511.0,532.0
495.0,503.0,480.0,499.0,528.0
498.0,492.0,470.0,489.0,520.0
502.0,490.0,472.0,485.0,514.0
500.0,484.0,471.0,478.0,513.0
507.0,488.0,480.0,479.0,510.0
510.0,490.0,489.0,481.0,502.0
523.0,497.0,509.0,495.0,499.0
528.0,500.0,520.0,505.0,499.0
535.0,511.0,540.0,523.0,494.0
538.0,521.0,559.0,540.0,491.0
537.0,528.0,567.0,552.0,492.0
530.0,529.0,560.0,552.0,502.0
519.0,526.0,551.0,551.0,506.0
508.0,520.0,538.0,541.0,522.0
501.0,512.0,516.0,529.0,529.0
491.0,510.0,496.0,517.0,529.0
492.0,507.0,483.0,506.0,529.0
494.0,497.0,476.0,496.0,526.0
497.0,494.0,472.0,487.0,525.0
500.0,489.0,470.0,480.0,519.0
506.0,486.0,478.0,476.0,517.0
507.0,488.0,482.0,476.0,516.0
516.0,491.0,497.0,486.0,513.0
523.0,497.0,514.0,498.0,501.0
536.0,507.0,532.0,516.0,494.0
537.0,513.0,550.0,530.0,488.0
536.0,520.0,559.0,543.0,484.0
535.0,528.0,565.0,552.0,487.0
525.0,526.0,557.0,552.0,503.0
519.0,526.0,552.0,551.0,506.0
502.0,514.0,528.0,537.0,525.0
492.0,510.0,506.0,524.0,531.0
492.0,506.0,492.0,513.0,532.0
492.0,500.0,484.0,505.0,526.0
496.0,494.0,473.0,493.0,523.0
501.0,496.0,471.0,486.0,514.0
500.0,487.0,469.0,479.0,515.0
508.0,487.0,478.0,480.0,509.0
514.0,488.0,487.0,481.0,506.0
523.0,491.0,501.0,490.0,502.0
525.0,498.0,518.0,502.0,497.0
535.0,509.0,538.0,520.0,491.0
537.0,517.0,552.0,534.0,486.0
538.0,524.0,564.0,548.0,490.0
532.0,526.0,563.0,553.0,500.0
528.0,529.0,558.0,554.0,508.0
519.0,525.0,548.0,551.0,513.0
501.0,514.0,523.0,535.0,527.0
493.0,508.0,503.0,521.0,533.0
494.0,504.0,489.0,509.0,534.0
494.0,496.0,478.0,500.0,530.0
496.0,492.0,471.0,489.0,524.0
506.0,490.0,474.0,483.0,515.0
502.0,486.0,471.0,478.0,514.0
507.0,486.0,479.0,479.0,509.0
514.0,489.0,491.0,482.0,507.0
520.0,493.0,507.0,494.0,501.0
528.0,501.0,524.0,508.0,496.0
534.0,512.0,543.0,524.0,492.0
538.0,523.0,561.0,542.0,490.0
533.0,523.0,566.0,550.0,496.0
523.0,527.0,557.0,549.0,505.0
522.0,527.0,555.0,552.0,513.0
507.0,517.0,535.0,543.0,522.0
496.0,512.0,514.0,530.0,532.0
493.0,506.0,498.0,517.0,533.0
492.0,504.0,486.0,507.0,531.0
490.0,498.0,478.0,496.0,527.0
497.0,492.0,472.0,489.0,520.0
503.0,491.0,473.0,483.0,513.0
506.0,489.0,477.0,480.0,514.0
508.0,487.0,482.0,477.0,512.0
515.0,489.0,495.0,485.0,508.0
522.0,496.0,512.0,496.0,500.0
528.0,505.0,530.0,512.0,497.0
535.0,514.0,548.0,529.0,490.0
539.0,524.0,561.0,544.0,491.0
535.0,526.0,566.0,554.0,498.0
525.0,524.0,556.0,550.0,508.0
523.0,527.0,554.0,552.0,514.0
504.0,517.0,530.0,538.0,528.0
497.0,510.0,511.0,526.0,533.0
491.0,509.0,492.0,514.0,536.0
492.0,499.0,480.0,501.0,529.0
496.0,494.0,471.0,488.0,526.0
502.0,492.0,471.0,485.0,517.0
500.0,487.0,472.0,479.0,516.0
506.0,488.0,478.0,475.0,512.0
511.0,489.0,486.0,480.0,511.0
515.0,490.0,499.0,489.0,499.0
525.0,498.0,517.0,502.0,496.0
533.0,509.0,537.0,520.0,491.0
536.0,518.0,554.0,536.0,485.0
539.0,524.0,563.0,548.0,490.0
532.0,527.0,563.0,550.0,503.0
524.0,526.0,557.0,552.0,512.0
517.0,525.0,548.0,549.0,518.0
503.0,514.0,521.0,532.0,530.0
492.0,507.0,502.0,521.0,536.0
490.0,503.0,489.0,509.0,529.0
494.0,500.0,479.0,499.0,529.0
495.0,494.0,473.0,490.0,525.0
500.0,499.0,473.0,485.0,521.0
500.0,486.0,472.0,476.0,522.0
504.0,487.0,480.0,477.0,516.0
511.0,487.0,490.0,481.0,509.0
518.0,492.0,506.0,491.0,503.0
523.0,499.0,521.0,504.0,498.0
531.0,510.0,540.0,521.0,493.0
537.0,520.0,558.0,543.0,489.0
535.0,527.0,566.0,550.0,494.0
526.0,525.0,560.0,550.0,504.0
527.0,527.0,555.0,552.0,508.0
508.0,519.0,538.0,543.0,518.0
496.0,513.0,517.0,525.0,528.0
493.0,508.0,498.0,520.0,533.0
492.0,501.0,485.0,506.0,532.0
494.0,497.0,475.0,495.0,523.0
497.0,493.0,471.0,487.0,520.0
502.0,491.0,472.0,485.0,516.0
505.0,488.0,476.0,478.0,513.0
508.0,490.0,481.0,479.0,512.0
513.0,488.0,492.0,484.0,502.0
524.0,496.0,513.0,497.0,498.0
530.0,501.0,527.0,509.0,492.0
540.0,513.0,550.0,528.0,491.0
538.0,523.0,560.0,542.0,489.0
534.0,528.0,565.0,553.0,492.0
522.0,526.0,558.0,553.0,508.0
519.0,527.0,552.0,548.0,511.0
506.0,517.0,533.0,536.0,526.0
494.0,508.0,509.0,523.0,531.0
492.0,507.0,494.0,512.0,532.0
493.0,501.0,483.0,502.0,531.0
495.0,496.0,473.0,494.0,526.0
498.0,492.0,473.0,486.0,520.0
499.0,488.0,472.0,478.0,519.0
505.0,487.0,477.0,477.0,515.0
511.0,489.0,486.0,479.0,509.0
516.0,492.0,503.0,490.0,502.0
522.0,499.0,516.0,500.0,497.0
531.0,509.0,537.0,517.0,493.0
536.0,518.0,554.0,533.0,490.0
538.0,524.0,563.0,546.0,492.0
531.0,527.0,563.0,552.0,505.0
523.0,527.0,555.0,550.0,511.0
522.0,531.0,550.0,550.0,516.0
501.0,519.0,523.0,534.0,531.0
494.0,507.0,501.0,519.0,531.0
492.0,505.0,488.0,508.0,530.0
495.0,502.0,479.0,499.0,527.0
497.0,495.0,472.0,488.0,524.0
502.0,490.0,473.0,488.0,517.0
504.0,491.0,471.0,478.0,516.0
506.0,487.0,480.0,475.0,510.0
510.0,488.0,487.0,479.0,505.0
522.0,493.0,505.0,491.0,500.0
527.0,500.0,521.0,506.0,500.0
534.0,511.0,540.0,522.0,493.0
538.0,520.0,556.0,537.0,487.0
537.0,525.0,564.0,549.0,493.0
534.0,527.0,558.0,550.0,505.0
522.0,528.0,555.0,552.0,512.0
512.0,523.0,540.0,543.0,520.0
502.0,516.0,518.0,531.0,531.0
494.0,509.0,499.0,518.0,537.0
486.0,503.0,483.0,505.0,532.0
492.0,498.0,475.0,494.0,528.0
494.0,494.0,471.0,486.0,523.0
499.0,493.0,470.0,481.0,519.0
508.0,488.0,475.0,476.0,514.0
508.0,489.0,481.0,479.0,510.0
516.0,489.0,493.0,484.0,508.0
522.0,496.0,511.0,497.0,500.0
529.0,504.0,526.0,510.0,495.0
538.0,515.0,548.0,530.0,489.0
540.0,523.0,562.0,545.0,492.0
534.0,528.0,563.0,553.0,494.0
522.0,526.0,556.0,549.0,511.0
514.0,528.0,551.0,549.0,512.0
502.0,517.0,530.0,538.0,530.0
491.0,509.0,507.0,524.0,535.0
487.0,506.0,489.0,513.0,533.0
490.0,503.0,482.0,503.0,529.0
494.0,497.0,474.0,493.0,527.0
501.0,495.0,473.0,487.0,521.0
501.0,489.0,474.0,482.0,517.0
507.0,487.0,476.0,479.0,515.0
507.0,486.0,482.0,482.0,508.0
516.0,492.0,500.0,488.0,504.0
522.0,498.0,516.0,499.0,499.0
536.0,509.0,535.0,515.0,493.0
537.0,517.0,551.0,534.0,489.0
537.0,524.0,562.0,546.0,493.0
533.0,528.0,565.0,553.0,501.0
521.0,525.0,554.0,551.0,509.0
518.0,527.0,550.0,551.0,514.0
500.0,517.0,525.0,535.0,530.0
495.0,509.0,504.0,521.0,535.0
494.0,502.0,488.0,510.0,531.0
493.0,498.0,479.0,501.0,523.0
493.0,494.0,472.0,492.0,524.0
500.0,494.0,475.0,486.0,521.0
501.0,488.0,472.0,476.0,522.0
504.0,487.0,479.0,478.0,515.0
508.0,488.0,488.0,479.0,511.0
522.0,495.0,505.0,491.0,504.0
528.0,501.0,521.0,504.0,498.0
531.0,510.0,539.0,522.0,489.0
537.0,522.0,557.0,539.0,487.0
539.0,528.0,567.0,550.0,492.0
530.0,527.0,562.0,552.0,503.0
520.0,527.0,553.0,551.0,510.0
512.0,523.0,540.0,544.0,523.0
500.0,515.0,518.0,532.0,531.0
493.0,509.0,499.0,518.0,537.0
490.0,501.0,483.0,503.0,532.0
493.0,496.0,476.0,494.0,526.0
496.0,492.0,472.0,487.0,524.0
500.0,491.0,472.0,481.0,518.0
502.0,487.0,475.0,477.0,515.0
508.0,489.0,482.0,478.0,512.0
513.0,488.0,492.0,481.0,504.0
521.0,496.0,515.0,495.0,498.0
532.0,503.0,529.0,510.0,495.0
533.0,515.0,548.0,526.0,492.0
536.0,522.0,559.0,540.0,490.0
535.0,528.0,565.0,552.0,495.0
526.0,526.0,561.0,550.0,505.0
522.0,528.0,553.0,552.0,508.0
505.0,517.0,531.0,539.0,527.0
497.0,509.0,510.0,523.0,533.0
492.0,511.0,494.0,514.0,534.0
490.0,506.0,481.0,502.0,533.0
493.0,496.0,472.0,491.0,527.0
496.0,491.0,471.0,485.0,519.0
499.0,488.0,472.0,477.0,518.0
505.0,488.0,476.0,476.0,513.0
511.0,488.0,485.0,478.0,506.0
513.0,489.0,496.0,485.0,499.0
522.0,499.0,516.0,499.0,501.0
530.0,507.0,533.0,515.0,492.0
539.0,521.0,552.0,534.0,490.0
540.0,525.0,561.0,544.0,490.0
532.0,528.0,564.0,552.0,502.0
522.0,525.0,556.0,551.0,513.0
518.0,526.0,550.0,551.0,514.0
500.0,516.0,525.0,534.0,533.0
492.0,510.0,505.0,521.0,541.0
490.0,505.0,490.0,509.0,538.0
493.0,501.0,479.0,500.0,532.0
495.0,496.0,473.0,491.0,528.0
503.0,493.0,474.0,487.0,518.0
505.0,488.0,474.0,480.0,513.0
510.0,488.0,478.0,477.0,509.0
514.0,487.0,487.0,479.0,502.0
520.0,493.0,503.0,490.0,500.0
522.0,500.0,519.0,503.0,499.0
526.0,510.0,537.0,519.0,489.0
539.0,522.0,557.0,539.0,487.0
536.0,526.0,566.0,548.0,498.0
528.0,526.0,561.0,548.0,507.0
523.0,529.0,556.0,553.0,517.0
513.0,523.0,542.0,546.0,525.0
498.0,515.0,517.0,531.0,536.0
494.0,509.0,500.0,519.0,534.0
494.0,507.0,485.0,506.0,523.0
498.0,498.0,474.0,495.0,520.0
498.0,493.0,473.0,487.0,517.0
502.0,492.0,473.0,482.0,517.0
502.0,487.0,477.0,476.0,515.0
506.0,484.0,479.0,476.0,507.0
516.0,489.0,496.0,485.0,506.0
523.0,495.0,509.0,493.0,498.0
530.0,505.0,529.0,511.0,495.0
537.0,514.0,546.0,527.0,492.0
540.0,520.0,559.0,542.0,493.0
539.0,527.0,562.0,551.0,493.0
526.0,525.0,557.0,551.0,505.0
522.0,527.0,553.0,553.0,509.0
505.0,519.0,534.0,539.0,527.0
499.0,511.0,510.0,527.0,529.0
501.0,506.0,497.0,518.0,528.0
490.0,500.0,482.0,504.0,531.0
485.0,493.0,471.0,489.0,529.0
494.0,490.0,471.0,484.0,522.0
499.0,487.0,470.0,478.0,518.0
503.0,487.0,476.0,477.0,511.0
505.0,487.0,484.0,479.0,508.0
511.0,490.0,498.0,489.0,506.0
522.0,497.0,517.0,502.0,500.0
532.0,508.0,533.0,517.0,496.0
537.0,516.0,551.0,533.0,490.0
538.0,523.0,561.0,546.0,493.0
534.0,529.0,563.0,553.0,499.0
522.0,525.0,555.0,551.0,507.0
519.0,528.0,553.0,551.0,514.0
502.0,517.0,526.0,535.0,529.0
493.0,510.0,504.0,521.0,534.0
492.0,506.0,491.0,512.0,534.0
492.0,500.0,480.0,501.0,528.0
492.0,493.0,471.0,490.0,524.0
499.0,493.0,472.0,486.0,516.0
497.0,488.0,473.0,477.0,514.0
506.0,488.0,479.0,478.0,510.0
513.0,489.0,489.0,482.0,506.0
517.0,494.0,502.0,490.0,498.0
522.0,497.0,520.0,504.0,497.0
533.0,511.0,541.0,520.0,493.0
535.0,518.0,553.0,536.0,492.0
537.0,526.0,563.0,549.0,495.0
529.0,526.0,560.0,551.0,503.0
522.0,528.0,556.0,552.0,514.0
514.0,524.0,541.0,546.0,520.0
501.0,515.0,519.0,532.0,531.0
496.0,512.0,502.0,521.0,535.0
496.0,503.0,486.0,507.0,530.0
492.0,503.0,476.0,497.0,528.0
497.0,493.0,472.0,488.0,524.0
501.0,491.0,476.0,483.0,518.0
502.0,487.0,474.0,480.0,516.0
504.0,487.0,480.0,479.0,507.0
513.0,489.0,493.0,483.0,504.0
520.0,494.0,508.0,494.0,499.0
527.0,503.0,525.0,509.0,495.0
533.0,512.0,544.0,524.0,490.0
541.0,523.0,559.0,542.0,489.0
540.0,529.0,566.0,556.0,492.0
525.0,525.0,558.0,551.0,506.0
520.0,526.0,552.0,551.0,510.0
504.0,517.0,531.0,540.0,524.0
496.0,511.0,512.0,527.0,534.0
497.0,509.0,500.0,516.0,534.0
492.0,503.0,484.0,503.0,530.0
498.0,497.0,472.0,492.0,524.0
499.0,495.0,473.0,487.0,518.0
501.0,490.0,471.0,479.0,516.0
506.0,488.0,477.0,476.0,514.0
508.0,488.0,488.0,478.0,510.0
514.0,492.0,495.0,485.0,503.0
523.0,498.0,516.0,499.0,501.0
529.0,505.0,532.0,514.0,495.0
535.0,517.0,553.0,531.0,494.0
534.0,521.0,561.0,544.0,494.0
534.0,528.0,564.0,554.0,495.0
526.0,527.0,556.0,550.0,507.0
522.0,528.0,551.0,550.0,511.0
504.0,517.0,527.0,536.0,527.0
498.0,510.0,505.0,527.0,533.0
497.0,506.0,492.0,516.0,530.0
497.0,500.0,480.0,502.0,528.0
494.0,494.0,472.0,489.0,524.0
499.0,491.0,473.0,485.0,518.0
505.0,487.0,474.0,477.0,517.0
507.0,487.0,478.0,477.0,512.0
511.0,486.0,488.0,482.0,508.0
517.0,492.0,502.0,494.0,502.0
525.0,503.0,519.0,504.0,498.0
530.0,510.0,538.0,521.0,498.0
537.0,519.0,555.0,536.0,494.0
535.0,526.0,565.0,549.0,497.0
528.0,526.0,562.0,550.0,500.0
521.0,528.0,555.0,554.0,510.0
514.0,524.0,545.0,548.0,521.0
501.0,514.0,521.0,534.0,532.0
498.0,510.0,502.0,521.0,536.0
491.0,501.0,485.0,505.0,535.0
497.0,498.0,477.0,497.0,526.0
500.0,494.0,473.0,488.0,521.0
501.0,490.0,479.0,483.0,512.0
500.0,485.0,473.0,479.0,512.0
504.0,486.0,480.0,479.0,509.0
513.0,488.0,493.0,482.0,505.0
531.0,494.0,511.0,496.0,496.0
525.0,499.0,524.0,509.0,495.0
531.0,511.0,543.0,526.0,492.0
541.0,524.0,561.0,543.0,490.0
536.0,529.0,565.0,553.0,496.0
526.0,526.0,557.0,550.0,503.0
522.0,527.0,554.0,551.0,512.0
505.0,518.0,534.0,539.0,524.0
494.0,511.0,512.0,525.0,532.0
492.0,507.0,497.0,517.0,535.0
490.0,500.0,482.0,503.0,528.0
494.0,498.0,475.0,494.0,525.0
499.0,493.0,473.0,489.0,523.0
502.0,488.0,472.0,480.0,519.0
506.0,487.0,482.0,480.0,513.0
511.0,485.0,482.0,476.0,508.0
518.0,491.0,498.0,487.0,506.0
522.0,496.0,512.0,496.0,503.0
533.0,507.0,533.0,515.0,497.0
537.0,516.0,550.0,531.0,494.0
537.0,525.0,561.0,545.0,502.0
533.0,526.0,564.0,552.0,498.0
526.0,525.0,554.0,550.0,509.0
518.0,525.0,551.0,552.0,513.0
507.0,516.0,528.0,537.0,525.0
493.0,509.0,504.0,522.0,529.0
493.0,506.0,492.0,513.0,531.0
494.0,499.0,480.0,501.0,526.0
494.0,494.0,472.0,489.0,524.0
500.0,493.0,473.0,487.0,516.0
503.0,488.0,473.0,478.0,516.0
510.0,488.0,479.0,479.0,512.0
513.0,488.0,492.0,482.0,507.0
517.0,491.0,502.0,489.0,502.0
523.0,497.0,517.0,501.0,497.0
533.0,508.0,537.0,519.0,491.0
539.0,520.0,554.0,542.0,489.0
537.0,525.0,561.0,546.0,492.0
529.0,526.0,561.0,552.0,502.0
523.0,529.0,554.0,556.0,510.0
516.0,523.0,546.0,547.0,519.0
503.0,515.0,522.0,533.0,529.0
491.0,508.0,503.0,523.0,535.0
491.0,503.0,487.0,508.0,533.0
495.0,499.0,479.0,498.0,528.0
496.0,494.0,472.0,489.0,528.0
499.0,490.0,472.0,481.0,517.0
500.0,486.0,472.0,476.0,515.0
509.0,487.0,481.0,482.0,511.0
512.0,487.0,491.0,482.0,506.0
521.0,495.0,509.0,497.0,501.0
530.0,500.0,523.0,505.0,495.0
534.0,512.0,543.0,526.0,492.0
542.0,520.0,560.0,542.0,492.0
536.0,527.0,567.0,550.0,498.0
527.0,526.0,560.0,551.0,505.0
522.0,527.0,555.0,553.0,509.0
510.0,521.0,536.0,542.0,527.0
501.0,513.0,515.0,531.0,535.0
493.0,507.0,497.0,516.0,533.0
489.0,502.0,485.0,503.0,532.0
494.0,496.0,477.0,492.0,524.0
499.0,494.0,472.0,487.0,520.0
502.0,489.0,473.0,485.0,516.0
502.0,484.0,474.0,476.0,512.0
507.0,486.0,481.0,476.0,509.0
517.0,489.0,494.0,485.0,504.0
526.0,495.0,512.0,497.0,496.0
529.0,509.0,531.0,515.0,495.0
539.0,522.0,550.0,533.0,491.0
535.0,523.0,560.0,543.0,493.0
532.0,531.0,565.0,549.0,502.0
521.0,524.0,556.0,549.0,510.0
519.0,527.0,553.0,552.0,513.0
505.0,518.0,529.0,541.0,530.0
492.0,510.0,507.0,522.0,537.0
489.0,504.0,489.0,510.0,535.0
492.0,501.0,481.0,500.0,533.0
495.0,496.0,473.0,491.0,531.0
498.0,496.0,475.0,485.0,525.0
499.0,486.0,470.0,476.0,519.0
504.0,486.0,477.0,477.0,514.0
511.0,488.0,487.0,479.0,510.0
517.0,491.0,500.0,490.0,499.0
525.0,498.0,518.0,501.0,498.0
531.0,506.0,535.0,517.0,492.0
538.0,517.0,555.0,535.0,492.0
537.0,524.0,564.0,548.0,494.0
532.0,527.0,564.0,553.0,504.0
522.0,525.0,556.0,551.0,511.0
516.0,523.0,553.0,550.0,517.0
504.0,516.0,525.0,532.0,525.0
493.0,508.0,503.0,520.0,531.0
491.0,502.0,487.0,507.0,534.0
491.0,497.0,476.0,495.0,528.0
495.0,493.0,471.0,487.0,526.0
503.0,492.0,474.0,484.0,518.0
503.0,484.0,472.0,482.0,516.0
504.0,486.0,478.0,476.0,511.0
513.0,489.0,491.0,482.0,508.0
522.0,492.0,506.0,496.0,500.0
526.0,502.0,524.0,507.0,498.0
535.0,512.0,543.0,525.0,494.0
536.0,520.0,558.0,538.0,490.0
533.0,527.0,566.0,552.0,497.0
528.0,526.0,561.0,553.0,507.0
521.0,525.0,554.0,550.0,511.0
511.0,521.0,536.0,541.0,527.0
496.0,513.0,517.0,529.0,533.0
492.0,506.0,497.0,516.0,532.0
491.0,502.0,483.0,504.0,529.0
494.0,496.0,473.0,495.0,526.0
497.0,492.0,471.0,487.0,523.0
499.0,490.0,472.0,480.0,521.0
503.0,488.0,475.0,477.0,517.0
509.0,489.0,483.0,480.0,510.0
515.0,490.0,495.0,485.0,502.0
523.0,500.0,512.0,496.0,496.0
531.0,503.0,531.0,512.0,491.0
539.0,514.0,549.0,531.0,489.0
537.0,523.0,564.0,544.0,496.0
532.0,527.0,566.0,554.0,499.0
522.0,527.0,556.0,551.0,509.0
517.0,526.0,551.0,550.0,513.0
506.0,516.0,533.0,536.0,527.0
491.0,511.0,506.0,522.0,533.0
494.0,505.0,492.0,512.0,531.0
496.0,504.0,481.0,504.0,531.0
492.0,494.0,471.0,491.0,526.0
500.0,493.0,470.0,485.0,516.0
501.0,488.0,471.0,479.0,515.0
507.0,487.0,477.0,477.0,512.0
512.0,489.0,490.0,481.0,508.0
519.0,493.0,501.0,488.0,501.0
524.0,498.0,518.0,502.0,500.0
532.0,509.0,536.0,521.0,495.0
537.0,521.0,553.0,536.0,490.0
540.0,526.0,564.0,550.0,495.0
533.0,527.0,563.0,555.0,500.0
523.0,526.0,555.0,552.0,508.0
515.0,525.0,549.0,549.0,519.0
502.0,517.0,524.0,535.0,530.0
496.0,509.0,503.0,521.0,533.0
492.0,505.0,488.0,508.0,531.0
493.0,501.0,481.0,500.0,528.0
496.0,495.0,472.0,490.0,525.0
502.0,493.0,474.0,488.0,519.0
503.0,487.0,472.0,479.0,514.0
508.0,487.0,478.0,478.0,510.0
512.0,489.0,490.0,481.0,510.0
519.0,493.0,505.0,493.0,503.0
525.0,506.0,520.0,505.0,500.0
534.0,511.0,541.0,527.0,494.0
537.0,519.0,558.0,540.0,490.0
534.0,525.0,564.0,549.0,493.0
529.0,526.0,560.0,552.0,505.0
521.0,527.0,556.0,556.0,511.0
513.0,521.0,538.0,542.0,523.0
499.0,515.0,517.0,533.0,533.0
493.0,509.0,499.0,521.0,534.0
494.0,501.0,484.0,503.0,528.0
494.0,497.0,475.0,496.0,526.0
497.0,493.0,470.0,487.0,518.0
501.0,490.0,471.0,483.0,517.0
503.0,487.0,474.0,478.0,515.0
508.0,488.0,481.0,478.0,511.0
515.0,489.0,495.0,485.0,508.0
522.0,496.0,511.0,496.0,502.0
534.0,505.0,530.0,512.0,494.0
533.0,514.0,547.0,529.0,490.0
537.0,522.0,560.0,544.0,492.0
537.0,529.0,567.0,554.0,499.0
523.0,525.0,557.0,550.0,514.0
519.0,527.0,553.0,552.0,515.0
505.0,516.0,528.0,537.0,527.0
494.0,511.0,509.0,523.0,534.0
494.0,507.0,494.0,515.0,530.0
493.0,500.0,479.0,501.0,525.0
494.0,496.0,469.0,491.0,522.0
501.0,493.0,471.0,487.0,516.0
502.0,488.0,470.0,479.0,516.0
505.0,488.0,475.0,479.0,511.0
509.0,491.0,484.0,480.0,506.0
521.0,490.0,499.0,489.0,503.0
526.0,496.0,515.0,501.0,498.0
534.0,509.0,537.0,520.0,491.0
536.0,518.0,553.0,538.0,486.0
536.0,524.0,563.0,547.0,492.0
535.0,532.0,563.0,553.0,500.0
522.0,526.0,555.0,552.0,512.0
517.0,526.0,546.0,549.0,514.0
505.0,514.0,522.0,533.0,526.0
493.0,509.0,503.0,521.0,532.0
493.0,505.0,489.0,511.0,534.0
492.0,500.0,476.0,499.0,528.0
493.0,495.0,469.0,486.0,526.0
497.0,492.0,470.0,483.0,519.0
500.0,485.0,470.0,476.0,519.0
504.0,486.0,476.0,476.0,511.0
511.0,488.0,488.0,480.0,505.0
520.0,495.0,507.0,492.0,502.0
524.0,500.0,520.0,503.0,497.0
532.0,508.0,540.0,523.0,493.0
538.0,520.0,558.0,540.0,491.0
538.0,529.0,565.0,550.0,496.0
529.0,526.0,563.0,554.0,505.0
517.0,525.0,556.0,554.0,510.0
508.0,521.0,541.0,545.0,525.0
502.0,514.0,518.0,528.0,531.0
497.0,511.0,499.0,519.0,535.0
491.0,502.0,483.0,505.0,530.0
492.0,496.0,473.0,493.0,526.0
496.0,491.0,470.0,486.0,520.0
499.0,489.0,469.0,480.0,515.0
502.0,485.0,472.0,477.0,514.0
507.0,486.0,479.0,477.0,509.0
514.0,488.0,493.0,484.0,505.0
521.0,495.0,511.0,496.0,501.0
529.0,503.0,530.0,509.0,496.0
537.0,514.0,548.0,530.0,490.0
535.0,523.0,560.0,545.0,493.0
534.0,528.0,566.0,553.0,497.0
524.0,525.0,555.0,549.0,506.0
522.0,527.0,555.0,557.0,511.0
504.0,517.0,532.0,538.0,526.0
492.0,510.0,509.0,525.0,533.0
491.0,505.0,494.0,513.0,532.0
492.0,502.0,482.0,503.0,531.0
496.0,497.0,474.0,493.0,525.0
500.0,494.0,473.0,488.0,519.0
504.0,490.0,472.0,480.0,517.0
506.0,488.0,476.0,479.0,511.0
511.0,490.0,486.0,482.0,507.0
518.0,492.0,498.0,489.0,500.0
522.0,502.0,515.0,500.0,501.0
531.0,511.0,535.0,518.0,498.0
533.0,517.0,552.0,532.0,494.0
536.0,525.0,563.0,546.0,495.0
532.0,529.0,566.0,553.0,501.0
521.0,525.0,556.0,549.0,512.0
518.0,527.0,551.0,550.0,515.0
500.0,516.0,525.0,536.0,530.0
492.0,509.0,503.0,522.0,539.0
490.0,504.0,488.0,509.0,532.0
496.0,502.0,475.0,497.0,527.0
493.0,494.0,471.0,489.0,528.0
499.0,493.0,472.0,485.0,519.0
502.0,487.0,471.0,479.0,517.0
507.0,487.0,477.0,478.0,513.0
510.0,486.0,484.0,479.0,506.0
517.0,497.0,504.0,490.0,504.0
523.0,503.0,523.0,504.0,499.0
533.0,511.0,540.0,523.0,495.0
537.0,519.0,558.0,539.0,491.0
535.0,527.0,566.0,551.0,497.0
525.0,525.0,560.0,550.0,505.0
522.0,528.0,557.0,552.0,513.0
508.0,525.0,539.0,548.0,526.0
499.0,515.0,519.0,531.0,534.0
491.0,507.0,497.0,518.0,535.0
491.0,501.0,484.0,506.0,531.0
493.0,498.0,474.0,495.0,528.0
496.0,491.0,469.0,486.0,524.0
501.0,490.0,469.0,481.0,518.0
502.0,485.0,470.0,476.0,518.0
511.0,486.0,477.0,477.0,511.0
514.0,488.0,492.0,483.0,507.0
524.0,496.0,511.0,496.0,500.0
529.0,504.0,528.0,511.0,496.0
537.0,515.0,548.0,529.0,493.0
538.0,522.0,561.0,542.0,495.0
533.0,526.0,567.0,553.0,497.0
524.0,525.0,558.0,550.0,509.0
521.0,526.0,555.0,553.0,513.0
505.0,518.0,532.0,539.0,525.0
496.0,512.0,511.0,526.0,532.0
493.0,507.0,494.0,513.0,539.0
492.0,501.0,482.0,503.0,535.0
494.0,496.0,474.0,492.0,529.0
499.0,494.0,474.0,487.0,522.0
500.0,490.0,474.0,480.0,519.0
505.0,487.0,476.0,480.0,513.0
508.0,487.0,483.0,479.0,507.0
515.0,491.0,498.0,487.0,501.0
525.0,499.0,516.0,500.0,500.0
534.0,511.0,535.0,518.0,494.0
538.0,516.0,552.0,534.0,490.0
538.0,524.0,564.0,547.0,497.0
534.0,529.0,567.0,554.0,500.0
521.0,525.0,558.0,552.0,510.0
516.0,526.0,551.0,550.0,512.0
505.0,516.0,530.0,534.0,532.0
492.0,508.0,504.0,522.0,535.0
489.0,503.0,490.0,508.0,531.0
494.0,501.0,479.0,501.0,527.0
495.0,494.0,471.0,490.0,523.0
500.0,493.0,471.0,486.0,515.0
502.0,487.0,470.0,477.0,517.0
505.0,487.0,477.0,477.0,513.0
514.0,489.0,489.0,482.0,508.0
520.0,491.0,502.0,490.0,499.0
524.0,500.0,521.0,505.0,499.0
532.0,510.0,540.0,522.0,495.0
534.0,519.0,557.0,542.0,488.0
535.0,526.0,565.0,551.0,495.0
529.0,527.0,564.0,553.0,505.0
520.0,527.0,556.0,553.0,509.0
510.0,519.0,541.0,548.0,523.0
498.0,514.0,519.0,533.0,531.0
494.0,506.0,499.0,519.0,530.0
490.0,503.0,485.0,507.0,531.0
493.0,500.0,477.0,497.0,531.0
496.0,495.0,471.0,488.0,525.0
501.0,493.0,472.0,486.0,521.0
508.0,488.0,474.0,476.0,517.0
508.0,488.0,479.0,478.0,510.0
515.0,490.0,493.0,484.0,506.0
521.0,499.0,511.0,496.0,501.0
528.0,505.0,528.0,511.0,496.0
537.0,510.0,544.0,528.0,487.0
540.0,522.0,562.0,545.0,487.0
536.0,530.0,568.0,554.0,495.0
525.0,528.0,559.0,554.0,505.0
518.0,527.0,555.0,552.0,511.0
504.0,516.0,529.0,536.0,523.0
494.0,511.0,511.0,524.0,530.0
492.0,508.0,498.0,514.0,531.0
490.0,501.0,482.0,503.0,524.0
493.0,496.0,473.0,494.0,524.0
498.0,495.0,473.0,489.0,524.0
503.0,494.0,472.0,481.0,520.0
503.0,489.0,474.0,477.0,519.0
507.0,489.0,480.0,477.0,510.0
517.0,491.0,499.0,490.0,506.0
524.0,499.0,515.0,500.0,502.0
533.0,511.0,533.0,516.0,500.0
534.0,516.0,553.0,531.0,497.0
533.0,522.0,561.0,544.0,493.0
530.0,528.0,565.0,553.0,500.0
522.0,527.0,556.0,551.0,509.0
520.0,526.0,551.0,550.0,513.0
501.0,515.0,526.0,534.0,529.0
495.0,510.0,505.0,526.0,534.0
495.0,506.0,491.0,515.0,531.0
489.0,500.0,479.0,501.0,526.0
492.0,494.0,470.0,489.0,523.0
497.0,496.0,471.0,486.0,516.0
498.0,487.0,471.0,478.0,511.0
506.0,487.0,478.0,481.0,507.0
511.0,488.0,491.0,485.0,502.0
518.0,493.0,504.0,491.0,498.0
526.0,500.0,521.0,503.0,498.0
537.0,509.0,542.0,520.0,496.0
538.0,519.0,557.0,538.0,495.0
538.0,525.0,565.0,550.0,498.0
531.0,527.0,564.0,552.0,508.0
525.0,524.0,555.0,551.0,511.0
513.0,522.0,544.0,545.0,524.0
500.0,514.0,521.0,531.0,534.0
492.0,507.0,498.0,516.0,537.0
491.0,501.0,484.0,505.0,532.0
492.0,499.0,476.0,496.0,531.0
494.0,492.0,470.0,490.0,522.0
501.0,491.0,472.0,483.0,517.0
500.0,484.0,471.0,475.0,515.0
506.0,487.0,480.0,477.0,510.0
514.0,489.0,493.0,484.0,507.0
519.0,491.0,509.0,494.0,500.0
528.0,504.0,527.0,510.0,498.0
534.0,512.0,545.0,527.0,492.0
539.0,522.0,562.0,543.0,492.0
535.0,528.0,568.0,553.0,496.0
525.0,525.0,562.0,550.0,511.0
520.0,526.0,556.0,551.0,510.0
510.0,517.0,536.0,538.0,532.0
496.0,515.0,512.0,526.0,537.0
494.0,506.0,495.0,515.0,534.0
494.0,504.0,479.0,503.0,528.0
494.0,495.0,472.0,491.0,523.0
497.0,491.0,469.0,485.0,517.0
501.0,488.0,471.0,480.0,516.0
503.0,486.0,475.0,477.0,513.0
509.0,487.0,483.0,479.0,508.0
516.0,492.0,498.0,487.0,504.0
521.0,495.0,513.0,497.0,498.0
529.0,507.0,530.0,515.0,492.0
537.0,515.0,553.0,532.0,491.0
537.0,522.0,564.0,546.0,493.0
534.0,528.0,567.0,554.0,500.0
522.0,525.0,557.0,550.0,510.0
519.0,527.0,555.0,551.0,515.0
503.0,518.0,529.0,536.0,529.0
494.0,510.0,511.0,522.0,535.0
495.0,506.0,491.0,511.0,530.0
492.0,501.0,480.0,500.0,529.0
495.0,497.0,472.0,491.0,526.0
501.0,496.0,474.0,488.0,519.0
504.0,492.0,471.0,479.0,517.0
507.0,488.0,478.0,478.0,511.0
512.0,489.0,488.0,478.0,504.0
521.0,495.0,505.0,493.0,500.0
525.0,499.0,520.0,503.0,496.0
534.0,511.0,539.0,521.0,495.0
539.0,519.0,557.0,537.0,488.0
538.0,525.0,565.0,549.0,495.0
529.0,527.0,564.0,552.0,508.0
518.0,524.0,555.0,550.0,510.0
516.0,525.0,546.0,548.0,521.0
498.0,516.0,522.0,533.0,533.0
492.0,513.0,503.0,517.0,536.0
490.0,504.0,484.0,506.0,531.0
491.0,500.0,476.0,494.0,528.0
497.0,498.0,470.0,486.0,524.0
500.0,491.0,473.0,483.0,516.0
502.0,487.0,473.0,478.0,518.0
507.0,488.0,480.0,478.0,513.0
512.0,491.0,490.0,481.0,506.0
526.0,496.0,510.0,498.0,502.0
527.0,502.0,525.0,508.0,497.0
537.0,516.0,546.0,526.0,494.0
538.0,521.0,560.0,541.0,494.0
535.0,526.0,567.0,552.0,495.0
526.0,525.0,559.0,552.0,505.0
523.0,528.0,556.0,552.0,512.0
505.0,517.0,533.0,538.0,526.0
499.0,515.0,512.0,525.0,532.0
492.0,507.0,496.0,515.0,535.0
491.0,503.0,482.0,503.0,534.0
496.0,498.0,473.0,495.0,529.0
498.0,494.0,472.0,486.0,522.0
503.0,490.0,472.0,485.0,520.0
507.0,489.0,480.0,480.0,513.0
509.0,488.0,481.0,476.0,511.0
515.0,490.0,496.0,485.0,508.0
528.0,499.0,515.0,499.0,503.0
531.0,507.0,534.0,516.0,493.0
536.0,521.0,551.0,532.0,486.0
540.0,524.0,563.0,544.0,488.0
538.0,530.0,567.0,553.0,493.0
524.0,525.0,556.0,553.0,506.0
518.0,528.0,553.0,550.0,510.0
502.0,517.0,529.0,541.0,528.0
492.0,510.0,507.0,523.0,536.0
493.0,505.0,490.0,510.0,532.0
494.0,502.0,481.0,501.0,528.0
497.0,497.0,473.0,491.0,522.0
502.0,495.0,474.0,487.0,512.0
502.0,489.0,472.0,483.0,510.0
505.0,492.0,475.0,479.0,513.0
513.0,486.0,485.0,479.0,505.0
521.0,492.0,501.0,490.0,501.0
526.0,496.0,517.0,502.0,503.0
531.0,508.0,537.0,518.0,498.0
536.0,518.0,555.0,536.0,492.0
536.0,527.0,566.0,549.0,496.0
532.0,529.0,565.0,553.0,501.0
523.0,526.0,556.0,552.0,509.0
515.0,524.0,546.0,547.0,520.0
496.0,516.0,521.0,532.0,533.0
491.0,511.0,502.0,520.0,534.0
492.0,508.0,489.0,509.0,533.0
492.0,499.0,477.0,499.0,532.0
498.0,497.0,473.0,488.0,527.0
500.0,494.0,474.0,486.0,518.0
503.0,488.0,472.0,479.0,513.0
512.0,487.0,480.0,477.0,509.0
515.0,492.0,490.0,481.0,507.0
522.0,494.0,508.0,496.0,507.0
526.0,502.0,524.0,507.0,498.0
532.0,510.0,543.0,525.0,493.0
538.0,522.0,561.0,543.0,491.0
537.0,529.0,566.0,554.0,493.0
527.0,527.0,561.0,552.0,505.0
518.0,526.0,553.0,551.0,510.0
507.0,519.0,534.0,541.0,528.0
498.0,513.0,514.0,528.0,534.0
494.0,508.0,500.0,516.0,533.0
493.0,501.0,482.0,507.0,532.0
495.0,497.0,476.0,495.0,524.0
493.0,493.0,470.0,487.0,524.0
498.0,490.0,470.0,482.0,519.0
500.0,487.0,474.0,477.0,516.0
508.0,488.0,483.0,479.0,510.0
515.0,491.0,495.0,484.0,502.0
527.0,497.0,514.0,499.0,497.0
538.0,508.0,533.0,520.0,492.0
538.0,516.0,554.0,531.0,487.0
539.0,523.0,562.0,546.0,491.0
539.0,529.0,567.0,558.0,497.0
525.0,524.0,556.0,549.0,512.0
523.0,528.0,554.0,551.0,515.0
500.0,518.0,529.0,536.0,529.0
492.0,511.0,507.0,523.0,536.0
490.0,509.0,493.0,513.0,537.0
494.0,500.0,482.0,500.0,530.0
498.0,496.0,473.0,492.0,527.0
505.0,496.0,475.0,488.0,523.0
506.0,492.0,473.0,479.0,521.0
511.0,486.0,478.0,480.0,511.0
511.0,486.0,484.0,480.0,503.0
519.0,494.0,504.0,491.0,502.0
524.0,499.0,518.0,502.0,500.0
533.0,509.0,537.0,521.0,496.0
536.0,518.0,554.0,536.0,490.0
536.0,526.0,566.0,549.0,489.0
531.0,528.0,564.0,554.0,498.0
519.0,529.0,557.0,556.0,508.0
514.0,524.0,547.0,548.0,517.0
499.0,515.0,522.0,532.0,531.0
496.0,509.0,502.0,521.0,533.0
503.0,507.0,488.0,511.0,533.0
497.0,500.0,477.0,499.0,525.0
494.0,497.0,473.0,489.0,523.0
495.0,491.0,473.0,480.0,522.0
497.0,483.0,469.0,474.0,518.0
503.0,489.0,477.0,476.0,510.0
512.0,488.0,490.0,481.0,511.0
520.0,497.0,510.0,492.0,505.0
524.0,502.0,524.0,506.0,498.0
534.0,511.0,543.0,526.0,493.0
537.0,521.0,559.0,540.0,493.0
536.0,527.0,566.0,553.0,492.0
527.0,526.0,561.0,549.0,505.0
521.0,526.0,556.0,552.0,513.0
507.0,519.0,536.0,540.0,526.0
496.0,512.0,514.0,528.0,534.0
494.0,509.0,500.0,517.0,534.0
490.0,505.0,482.0,503.0,534.0
491.0,496.0,473.0,493.0,532.0
495.0,492.0,473.0,485.0,524.0
501.0,489.0,471.0,481.0,517.0
503.0,488.0,472.0,476.0,515.0
507.0,486.0,481.0,477.0,515.0
516.0,489.0,497.0,485.0,509.0
523.0,496.0,512.0,496.0,500.0
530.0,505.0,533.0,513.0,493.0
538.0,515.0,549.0,529.0,489.0
540.0,522.0,562.0,547.0,492.0
534.0,531.0,567.0,553.0,498.0
525.0,524.0,556.0,547.0,508.0
521.0,527.0,556.0,550.0,513.0
503.0,516.0,529.0,533.0,529.0
495.0,509.0,509.0,524.0,534.0
493.0,505.0,492.0,511.0,533.0
495.0,502.0,484.0,502.0,528.0
496.0,496.0,477.0,490.0,526.0
503.0,493.0,472.0,489.0,518.0
499.0,486.0,470.0,477.0,514.0
507.0,485.0,475.0,478.0,508.0
513.0,489.0,488.0,481.0,508.0
517.0,490.0,500.0,484.0,504.0
522.0,498.0,518.0,501.0,502.0
529.0,506.0,535.0,516.0,496.0
537.0,519.0,556.0,536.0,494.0
534.0,522.0,563.0,546.0,497.0
531.0,527.0,564.0,551.0,503.0
525.0,526.0,557.0,550.0,516.0
516.0,525.0,547.0,548.0,520.0
500.0,519.0,523.0,533.0,533.0
494.0,509.0,503.0,520.0,537.0
491.0,502.0,487.0,507.0,534.0
492.0,498.0,476.0,498.0,527.0
493.0,493.0,470.0,488.0,522.0
500.0,492.0,471.0,483.0,515.0
502.0,488.0,472.0,474.0,515.0
506.0,487.0,478.0,477.0,511.0
513.0,489.0,490.0,483.0,510.0
521.0,495.0,507.0,493.0,500.0
526.0,501.0,524.0,510.0,499.0
532.0,512.0,542.0,524.0,494.0
537.0,521.0,558.0,537.0,489.0
535.0,527.0,567.0,551.0,492.0
526.0,526.0,562.0,551.0,505.0
520.0,528.0,561.0,551.0,512.0
507.0,520.0,538.0,541.0,524.0
494.0,510.0,516.0,527.0,534.0
497.0,509.0,499.0,521.0,536.0
492.0,503.0,485.0,504.0,532.0
493.0,497.0,474.0,493.0,527.0
496.0,493.0,470.0,485.0,522.0
504.0,491.0,473.0,482.0,514.0
501.0,485.0,473.0,476.0,512.0
509.0,487.0,482.0,477.0,507.0
514.0,489.0,496.0,484.0,506.0
521.0,495.0,512.0,495.0,504.0
528.0,511.0,531.0,514.0,495.0
534.0,515.0,548.0,530.0,490.0
537.0,523.0,563.0,544.0,493.0
537.0,529.0,567.0,556.0,494.0
524.0,526.0,558.0,552.0,507.0
516.0,526.0,557.0,549.0,511.0
505.0,518.0,529.0,537.0,529.0
497.0,511.0,510.0,526.0,532.0
493.0,506.0,492.0,513.0,531.0
495.0,502.0,482.0,502.0,529.0
497.0,497.0,474.0,493.0,526.0
503.0,496.0,475.0,489.0,519.0
502.0,489.0,473.0,480.0,520.0
506.0,488.0,477.0,476.0,514.0
516.0,488.0,487.0,478.0,507.0
521.0,492.0,501.0,489.0,501.0
521.0,501.0,515.0,500.0,495.0
530.0,509.0,535.0,519.0,491.0
540.0,520.0,556.0,538.0,489.0
539.0,524.0,564.0,551.0,493.0
532.0,526.0,564.0,551.0,501.0
521.0,528.0,557.0,551.0,509.0
518.0,527.0,551.0,551.0,517.0
504.0,517.0,525.0,536.0,530.0
493.0,509.0,504.0,520.0,536.0
492.0,507.0,486.0,509.0,531.0
493.0,499.0,476.0,499.0,525.0
493.0,494.0,472.0,489.0,523.0
503.0,494.0,474.0,484.0,515.0
504.0,488.0,471.0,476.0,518.0
505.0,487.0,479.0,477.0,513.0
511.0,488.0,488.0,480.0,509.0
520.0,495.0,506.0,492.0,502.0
523.0,503.0,522.0,505.0,501.0
535.0,517.0,540.0,524.0,494.0
538.0,522.0,558.0,540.0,485.0
537.0,528.0,566.0,552.0,492.0
529.0,527.0,561.0,553.0,504.0
521.0,527.0,557.0,551.0,516.0
509.0,524.0,537.0,541.0,527.0
499.0,513.0,521.0,530.0,532.0
492.0,508.0,497.0,515.0,533.0
490.0,502.0,483.0,505.0,530.0
491.0,498.0,474.0,494.0,529.0
496.0,494.0,471.0,487.0,522.0
502.0,495.0,472.0,483.0,517.0
504.0,486.0,474.0,477.0,515.0
511.0,489.0,483.0,481.0,509.0
513.0,488.0,496.0,489.0,510.0
521.0,496.0,512.0,497.0,501.0
528.0,505.0,530.0,511.0,501.0
536.0,515.0,548.0,530.0,494.0
538.0,522.0,564.0,543.0,494.0
532.0,526.0,567.0,554.0,496.0
522.0,524.0,557.0,551.0,507.0
518.0,526.0,553.0,554.0,512.0
501.0,516.0,530.0,539.0,526.0
493.0,510.0,509.0,526.0,533.0
491.0,506.0,492.0,514.0,531.0
491.0,501.0,480.0,502.0,530.0
503.0,495.0,474.0,490.0,526.0
505.0,494.0,472.0,490.0,520.0
503.0,488.0,474.0,481.0,517.0
506.0,486.0,476.0,478.0,513.0
512.0,487.0,487.0,485.0,507.0
517.0,495.0,499.0,489.0,502.0
524.0,497.0,515.0,501.0,499.0
533.0,508.0,537.0,518.0,497.0
538.0,517.0,554.0,538.0,493.0
535.0,524.0,563.0,546.0,493.0
532.0,528.0,565.0,554.0,500.0
521.0,524.0,555.0,548.0,510.0
517.0,526.0,550.0,550.0,514.0
501.0,516.0,524.0,534.0,529.0
495.0,510.0,505.0,522.0,533.0
493.0,503.0,487.0,508.0,531.0
493.0,500.0,478.0,499.0,529.0
494.0,494.0,471.0,489.0,526.0
498.0,492.0,472.0,484.0,519.0
499.0,486.0,472.0,477.0,517.0
504.0,487.0,478.0,478.0,510.0
516.0,490.0,490.0,482.0,507.0
522.0,495.0,506.0,494.0,499.0
525.0,500.0,521.0,508.0,496.0
534.0,509.0,539.0,522.0,492.0
539.0,521.0,559.0,539.0,491.0
535.0,527.0,567.0,553.0,496.0
532.0,530.0,563.0,554.0,506.0
520.0,527.0,559.0,552.0,509.0
509.0,521.0,539.0,545.0,523.0
499.0,514.0,519.0,530.0,532.0
496.0,507.0,499.0,518.0,531.0
494.0,502.0,484.0,505.0,532.0
495.0,498.0,474.0,496.0,529.0
496.0,492.0,471.0,487.0,523.0
499.0,490.0,471.0,483.0,518.0
500.0,484.0,472.0,476.0,512.0
505.0,487.0,481.0,477.0,504.0
512.0,493.0,493.0,483.0,503.0
519.0,497.0,513.0,497.0,498.0
528.0,503.0,529.0,512.0,492.0
539.0,515.0,548.0,531.0,491.0
543.0,522.0,564.0,544.0,492.0
535.0,527.0,567.0,558.0,493.0
521.0,524.0,558.0,550.0,504.0
521.0,528.0,555.0,553.0,511.0
504.0,517.0,531.0,537.0,526.0
494.0,511.0,508.0,524.0,533.0
493.0,507.0,494.0,514.0,533.0
491.0,502.0,481.0,501.0,528.0
496.0,497.0,473.0,493.0,524.0
501.0,495.0,473.0,488.0,517.0
502.0,490.0,472.0,480.0,517.0
504.0,488.0,476.0,477.0,517.0
510.0,491.0,484.0,480.0,509.0
515.0,491.0,497.0,487.0,501.0
522.0,497.0,517.0,502.0,500.0
530.0,510.0,536.0,519.0,494.0
539.0,517.0,553.0,536.0,490.0
536.0,525.0,566.0,546.0,494.0
533.0,528.0,566.0,554.0,498.0
521.0,523.0,560.0,550.0,511.0
516.0,525.0,552.0,548.0,514.0
502.0,516.0,525.0,537.0,528.0
493.0,508.0,503.0,521.0,534.0
497.0,504.0,490.0,512.0,529.0
500.0,501.0,480.0,504.0,525.0
498.0,495.0,474.0,489.0,525.0
502.0,495.0,474.0,486.0,520.0
503.0,490.0,474.0,480.0,517.0
505.0,490.0,479.0,478.0,516.0
512.0,491.0,488.0,481.0,511.0
519.0,494.0,505.0,489.0,498.0
523.0,501.0,522.0,506.0,500.0
535.0,511.0,542.0,524.0,492.0
535.0,520.0,557.0,537.0,491.0
534.0,526.0,563.0,547.0,492.0
527.0,526.0,561.0,553.0,500.0
520.0,525.0,555.0,551.0,510.0
509.0,522.0,540.0,543.0,525.0
499.0,514.0,520.0,531.0,533.0
497.0,509.0,500.0,524.0,532.0
492.0,504.0,486.0,507.0,533.0
493.0,498.0,475.0,496.0,526.0
497.0,494.0,469.0,487.0,525.0
502.0,493.0,472.0,483.0,521.0
503.0,487.0,475.0,474.0,518.0
507.0,488.0,480.0,477.0,513.0
515.0,490.0,494.0,484.0,507.0
522.0,496.0,511.0,496.0,497.0
527.0,504.0,527.0,509.0,492.0
538.0,514.0,545.0,532.0,491.0
535.0,519.0,560.0,543.0,491.0
534.0,527.0,565.0,557.0,495.0
526.0,527.0,557.0,548.0,506.0
520.0,529.0,554.0,552.0,511.0
502.0,515.0,530.0,537.0,525.0
494.0,509.0,510.0,526.0,533.0
499.0,506.0,495.0,512.0,532.0
495.0,502.0,481.0,502.0,532.0
494.0,496.0,474.0,492.0,529.0
496.0,493.0,471.0,485.0,523.0
501.0,488.0,473.0,480.0,524.0
501.0,485.0,476.0,478.0,519.0
508.0,487.0,485.0,480.0,511.0
516.0,490.0,497.0,491.0,507.0
523.0,496.0,513.0,498.0,495.0
531.0,505.0,534.0,517.0,492.0
536.0,516.0,553.0,533.0,489.0
537.0,524.0,562.0,543.0,491.0
530.0,527.0,565.0,552.0,497.0
521.0,524.0,556.0,550.0,511.0
518.0,526.0,553.0,552.0,516.0
501.0,516.0,527.0,535.0,531.0
492.0,510.0,504.0,521.0,534.0
493.0,505.0,491.0,512.0,532.0
497.0,501.0,479.0,500.0,527.0
498.0,495.0,471.0,490.0,523.0
501.0,492.0,472.0,485.0,515.0
502.0,487.0,470.0,480.0,511.0
506.0,485.0,476.0,476.0,507.0
512.0,488.0,487.0,482.0,507.0
521.0,494.0,505.0,491.0,498.0
527.0,500.0,521.0,505.0,497.0
536.0,511.0,539.0,521.0,490.0
539.0,522.0,559.0,540.0,491.0
536.0,526.0,565.0,549.0,499.0
528.0,524.0,561.0,551.0,504.0
520.0,524.0,554.0,551.0,512.0
513.0,521.0,544.0,543.0,525.0
498.0,514.0,521.0,531.0,533.0
494.0,508.0,504.0,517.0,532.0
492.0,502.0,485.0,506.0,532.0
494.0,498.0,475.0,495.0,529.0
497.0,494.0,472.0,486.0,525.0
502.0,492.0,471.0,484.0,520.0
502.0,487.0,473.0,477.0,516.0
507.0,489.0,481.0,479.0,510.0
517.0,491.0,492.0,484.0,506.0
524.0,496.0,511.0,496.0,499.0
532.0,504.0,525.0,509.0,493.0
535.0,515.0,545.0,529.0,491.0
535.0,521.0,560.0,543.0,489.0
534.0,526.0,566.0,552.0,494.0
528.0,525.0,558.0,549.0,506.0
520.0,527.0,555.0,552.0,513.0
502.0,517.0,531.0,538.0,532.0
494.0,511.0,512.0,526.0,537.0
493.0,506.0,494.0,518.0,534.0
493.0,502.0,482.0,504.0,527.0
495.0,497.0,473.0,493.0,526.0
499.0,495.0,471.0,487.0,517.0
500.0,491.0,472.0,481.0,516.0
502.0,485.0,476.0,476.0,512.0
507.0,486.0,483.0,478.0,511.0
515.0,495.0,498.0,487.0,504.0
523.0,496.0,516.0,501.0,504.0
527.0,506.0,532.0,515.0,496.0
534.0,518.0,553.0,533.0,494.0
533.0,522.0,563.0,545.0,494.0
533.0,524.0,564.0,553.0,498.0
526.0,524.0,557.0,552.0,509.0
517.0,528.0,553.0,553.0,517.0
504.0,519.0,528.0,536.0,533.0
503.0,513.0,504.0,523.0,537.0
495.0,504.0,489.0,509.0,533.0
496.0,502.0,480.0,502.0,530.0
496.0,496.0,472.0,491.0,527.0
497.0,492.0,472.0,485.0,522.0
497.0,486.0,472.0,479.0,517.0
504.0,486.0,477.0,478.0,513.0
511.0,488.0,488.0,480.0,511.0
518.0,493.0,505.0,491.0,502.0
525.0,501.0,521.0,505.0,498.0
534.0,510.0,540.0,523.0,493.0
542.0,521.0,556.0,540.0,496.0
544.0,527.0,564.0,554.0,492.0
529.0,526.0,564.0,553.0,503.0
519.0,525.0,554.0,549.0,508.0
513.0,522.0,543.0,544.0,521.0
498.0,517.0,518.0,529.0,529.0
492.0,509.0,501.0,519.0,533.0
489.0,502.0,483.0,504.0,532.0
492.0,497.0,475.0,492.0,527.0
496.0,493.0,473.0,485.0,523.0
500.0,495.0,472.0,484.0,517.0
503.0,488.0,477.0,477.0,508.0
509.0,488.0,481.0,478.0,507.0
514.0,488.0,491.0,482.0,506.0
519.0,500.0,510.0,496.0,504.0
525.0,506.0,525.0,509.0,503.0
535.0,514.0,546.0,527.0,497.0
542.0,522.0,561.0,545.0,497.0
538.0,527.0,566.0,552.0,500.0
526.0,526.0,561.0,550.0,509.0
520.0,528.0,556.0,552.0,516.0
502.0,518.0,533.0,540.0,526.0
495.0,511.0,513.0,525.0,530.0
493.0,506.0,495.0,514.0,530.0
489.0,506.0,480.0,503.0,527.0
495.0,498.0,476.0,494.0,527.0
495.0,495.0,473.0,488.0,526.0
502.0,492.0,473.0,482.0,514.0
506.0,487.0,474.0,477.0,515.0
512.0,490.0,485.0,479.0,517.0
516.0,494.0,498.0,485.0,512.0
526.0,498.0,518.0,503.0,503.0
531.0,505.0,533.0,516.0,490.0
538.0,517.0,553.0,532.0,489.0
533.0,523.0,563.0,547.0,497.0
533.0,532.0,567.0,559.0,493.0
527.0,525.0,556.0,550.0,503.0
523.0,527.0,556.0,551.0,507.0
502.0,517.0,527.0,537.0,526.0
495.0,510.0,506.0,523.0,536.0
491.0,506.0,490.0,509.0,540.0
488.0,501.0,478.0,499.0,536.0
495.0,498.0,471.0,492.0,527.0
503.0,496.0,473.0,487.0,516.0
508.0,491.0,472.0,479.0,514.0
509.0,490.0,478.0,479.0,521.0
511.0,491.0,489.0,482.0,522.0
514.0,497.0,502.0,489.0,512.0
523.0,502.0,523.0,508.0,509.0
529.0,509.0,541.0,527.0,495.0
533.0,519.0,556.0,537.0,482.0
537.0,525.0,564.0,545.0,483.0
529.0,526.0,562.0,549.0,500.0
524.0,527.0,554.0,548.0,511.0
518.0,524.0,544.0,546.0,516.0
503.0,515.0,521.0,532.0,529.0
497.0,509.0,504.0,517.0,534.0
489.0,504.0,485.0,506.0,534.0
493.0,498.0,475.0,496.0,526.0
493.0,493.0,470.0,487.0,524.0
490.0,492.0,473.0,486.0,516.0
492.0,487.0,476.0,477.0,530.0
495.0,492.0,482.0,477.0,523.0
493.0,493.0,494.0,483.0,520.0
501.0,497.0,511.0,495.0,522.0
510.0,505.0,528.0,509.0,522.0
536.0,515.0,544.0,526.0,506.0
555.0,525.0,564.0,542.0,484.0
555.0,532.0,569.0,556.0,461.0
552.0,527.0,560.0,552.0,465.0
546.0,527.0,554.0,550.0,482.0
512.0,514.0,534.0,538.0,524.0
498.0,509.0,510.0,525.0,545.0
498.0,506.0,495.0,518.0,531.0
489.0,502.0,482.0,507.0,520.0
494.0,501.0,473.0,496.0,520.0
497.0,493.0,471.0,492.0,514.0
502.0,490.0,475.0,484.0,504.0
503.0,486.0,474.0,477.0,499.0
511.0,487.0,483.0,480.0,499.0
517.0,489.0,500.0,487.0,508.0
521.0,499.0,516.0,501.0,515.0
537.0,509.0,536.0,517.0,503.0
544.0,518.0,553.0,532.0,495.0
545.0,525.0,565.0,548.0,498.0
543.0,529.0,568.0,554.0,509.0
530.0,526.0,559.0,551.0,529.0
522.0,528.0,558.0,553.0,536.0
501.0,518.0,537.0,539.0,528.0
494.0,511.0,514.0,527.0,514.0
494.0,505.0,495.0,513.0,493.0
497.0,499.0,480.0,507.0,484.0
491.0,491.0,466.0,494.0,490.0
493.0,492.0,466.0,485.0,534.0
499.0,489.0,466.0,479.0,543.0
505.0,487.0,476.0,478.0,548.0
518.0,491.0,487.0,483.0,537.0
528.0,497.0,502.0,493.0,516.0
532.0,505.0,528.0,512.0,496.0
541.0,515.0,543.0,526.0,469.0
543.0,521.0,559.0,542.0,454.0
533.0,525.0,565.0,551.0,473.0
518.0,522.0,562.0,552.0,483.0
505.0,520.0,554.0,549.0,517.0
504.0,521.0,549.0,545.0,543.0
504.0,517.0,525.0,539.0,558.0
506.0,512.0,503.0,522.0,565.0
502.0,506.0,488.0,512.0,556.0
500.0,508.0,480.0,504.0,564.0
502.0,497.0,471.0,494.0,541.0
503.0,497.0,471.0,488.0,493.0
502.0,485.0,465.0,477.0,503.0
497.0,483.0,473.0,475.0,549.0
504.0,486.0,489.0,482.0,523.0
517.0,496.0,507.0,495.0,490.0
521.0,503.0,523.0,507.0,501.0
528.0,513.0,545.0,522.0,510.0
511.0,519.0,560.0,540.0,499.0
518.0,526.0,569.0,554.0,504.0
516.0,523.0,563.0,553.0,514.0
515.0,526.0,556.0,548.0,503.0
520.0,515.0,536.0,541.0,509.0
512.0,510.0,510.0,522.0,522.0
530.0,509.0,497.0,517.0,513.0
530.0,504.0,480.0,506.0,503.0
526.0,499.0,470.0,495.0,501.0
498.0,494.0,468.0,487.0,515.0
485.0,489.0,470.0,482.0,512.0
471.0,485.0,474.0,482.0,537.0
485.0,490.0,484.0,488.0,521.0
471.0,484.0,494.0,492.0,485.0
504.0,493.0,510.0,501.0,461.0
529.0,500.0,529.0,514.0,485.0
523.0,509.0,547.0,527.0,466.0
521.0,517.0,563.0,546.0,438.0
519.0,528.0,573.0,558.0,484.0
509.0,530.0,570.0,553.0,607.0
498.0,532.0,569.0,566.0,539.0
450.0,512.0,533.0,538.0,584.0
439.0,508.0,510.0,518.0,656.0
454.0,501.0,488.0,506.0,624.0
486.0,495.0,474.0,496.0,545.0
492.0,495.0,467.0,496.0,519.0
539.0,499.0,469.0,498.0,493.0
556.0,487.0,465.0,487.0,507.0
505.0,480.0,462.0,482.0,510.0
522.0,489.0,481.0,496.0,409.0
556.0,491.0,494.0,486.0,376.0
588.0,501.0,515.0,488.0,481.0
587.0,516.0,535.0,514.0,489.0
582.0,520.0,556.0,525.0,464.0
558.0,527.0,569.0,539.0,486.0
533.0,525.0,571.0,544.0,531.0
534.0,522.0,569.0,551.0,500.0
512.0,522.0,561.0,550.0,512.0
483.0,519.0,539.0,535.0,581.0
467.0,512.0,513.0,520.0,651.0
439.0,506.0,492.0,511.0,687.0
393.0,497.0,474.0,496.0,639.0
394.0,495.0,466.0,504.0,553.0
421.0,491.0,460.0,494.0,468.0
422.0,474.0,450.0,484.0,423.0
423.0,468.0,449.0,470.0,436.0
451.0,475.0,465.0,474.0,435.0
558.0,488.0,490.0,480.0,416.0
651.0,505.0,514.0,497.0,431.0
601.0,512.0,543.0,522.0,474.0
584.0,524.0,566.0,543.0,461.0
584.0,526.0,577.0,544.0,500.0
554.0,529.0,582.0,554.0,557.0
567.0,537.0,585.0,560.0,562.0
530.0,524.0,558.0,557.0,549.0
527.0,516.0,532.0,559.0,497.0
552.0,509.0,505.0,549.0,386.0
562.0,493.0,472.0,515.0,379.0
536.0,494.0,459.0,486.0,542.0
500.0,487.0,452.0,460.0,567.0
493.0,489.0,455.0,459.0,521.0
487.0,475.0,445.0,462.0,472.0
464.0,472.0,452.0,472.0,495.0
482.0,486.0,480.0,483.0,600.0
490.0,504.0,511.0,500.0,589.0
515.0,512.0,534.0,509.0,574.0
525.0,515.0,552.0,527.0,573.0
557.0,521.0,572.0,555.0,540.0
601.0,526.0,576.0,572.0,476.0
580.0,517.0,564.0,559.0,461.0
539.0,513.0,558.0,557.0,474.0
492.0,498.0,528.0,534.0,532.0
472.0,511.0,523.0,531.0,590.0
455.0,516.0,507.0,514.0,563.0
525.0,521.0,488.0,522.0,523.0
523.0,510.0,469.0,497.0,529.0
492.0,496.0,455.0,479.0,470.0
538.0,487.0,449.0,467.0,517.0
466.0,479.0,453.0,452.0,484.0
458.0,492.0,476.0,467.0,542.0
455.0,484.0,489.0,481.0,628.0
422.0,480.0,499.0,488.0,605.0
466.0,508.0,543.0,536.0,435.0
504.0,525.0,581.0,589.0,357.0
515.0,519.0,572.0,567.0,382.0
