CH1,CH2,CH3,CH4,CH5
506.0,506.0,488.0,490.0,519.0
504.0,502.0,490.0,490.0,516.0
507.0,500.0,493.0,486.0,516.0
517.0,502.0,506.0,494.0,508.0
524.0,508.0,519.0,504.0,504.0
529.0,512.0,533.0,516.0,502.0
537.0,514.0,544.0,530.0,489.0
539.0,513.0,554.0,539.0,493.0
532.0,515.0,550.0,543.0,499.0
523.0,511.0,542.0,539.0,507.0
517.0,507.0,534.0,536.0,515.0
504.0,501.0,516.0,523.0,531.0
498.0,499.0,503.0,515.0,535.0
493.0,500.0,492.0,506.0,532.0
496.0,504.0,488.0,506.0,533.0
494.0,502.0,484.0,497.0,530.0
503.0,504.0,485.0,494.0,520.0
505.0,509.0,491.0,494.0,517.0
504.0,503.0,491.0,491.0,520.0
508.0,502.0,499.0,493.0,513.0
516.0,504.0,508.0,500.0,505.0
524.0,508.0,522.0,510.0,504.0
532.0,512.0,536.0,522.0,497.0
537.0,514.0,546.0,535.0,489.0
537.0,515.0,551.0,541.0,493.0
532.0,514.0,549.0,540.0,503.0
523.0,511.0,541.0,537.0,512.0
516.0,505.0,529.0,534.0,518.0
497.0,500.0,510.0,517.0,531.0
488.0,500.0,497.0,508.0,535.0
491.0,502.0,490.0,505.0,534.0
496.0,504.0,486.0,503.0,530.0
500.0,504.0,486.0,495.0,525.0
500.0,504.0,486.0,501.0,519.0
505.0,509.0,490.0,496.0,516.0
508.0,504.0,493.0,496.0,518.0
514.0,504.0,503.0,498.0,508.0
522.0,506.0,516.0,505.0,503.0
526.0,508.0,526.0,514.0,499.0
531.0,511.0,539.0,522.0,492.0
539.0,515.0,551.0,536.0,492.0
541.0,515.0,550.0,538.0,491.0
531.0,516.0,547.0,538.0,503.0
521.0,510.0,538.0,534.0,513.0
509.0,501.0,520.0,522.0,528.0
497.0,500.0,506.0,514.0,532.0
494.0,502.0,496.0,510.0,533.0
496.0,502.0,489.0,508.0,532.0
494.0,507.0,482.0,501.0,526.0
498.0,503.0,484.0,499.0,520.0
502.0,505.0,488.0,498.0,515.0
511.0,504.0,492.0,500.0,516.0
505.0,500.0,494.0,493.0,516.0
515.0,504.0,506.0,501.0,510.0
520.0,505.0,519.0,504.0,503.0
526.0,510.0,532.0,518.0,498.0
535.0,514.0,543.0,526.0,492.0
535.0,515.0,551.0,538.0,494.0
533.0,514.0,551.0,538.0,497.0
529.0,512.0,544.0,535.0,506.0
520.0,509.0,536.0,532.0,514.0
502.0,498.0,515.0,519.0,525.0
493.0,498.0,502.0,512.0,531.0
486.0,501.0,496.0,508.0,531.0
487.0,503.0,487.0,503.0,529.0
488.0,503.0,484.0,499.0,528.0
489.0,506.0,486.0,499.0,521.0
509.0,504.0,489.0,499.0,511.0
518.0,505.0,493.0,500.0,513.0
524.0,504.0,500.0,497.0,507.0
531.0,505.0,512.0,501.0,507.0
522.0,506.0,520.0,507.0,501.0
530.0,512.0,535.0,520.0,497.0
533.0,513.0,546.0,531.0,494.0
531.0,515.0,549.0,538.0,499.0
534.0,516.0,548.0,536.0,501.0
530.0,511.0,542.0,532.0,507.0
516.0,505.0,530.0,527.0,519.0
505.0,501.0,514.0,518.0,530.0
493.0,500.0,497.0,509.0,535.0
495.0,503.0,490.0,506.0,534.0
495.0,503.0,487.0,503.0,530.0
495.0,504.0,484.0,498.0,531.0
500.0,506.0,488.0,499.0,520.0
505.0,505.0,491.0,497.0,518.0
505.0,503.0,490.0,492.0,515.0
513.0,504.0,504.0,500.0,512.0
518.0,506.0,515.0,506.0,505.0
534.0,509.0,526.0,515.0,500.0
540.0,514.0,541.0,526.0,495.0
539.0,515.0,552.0,532.0,490.0
538.0,516.0,556.0,539.0,494.0
529.0,513.0,547.0,535.0,503.0
518.0,509.0,537.0,531.0,509.0
508.0,502.0,521.0,522.0,524.0
499.0,500.0,507.0,518.0,531.0
492.0,499.0,494.0,507.0,532.0
489.0,502.0,488.0,504.0,532.0
491.0,504.0,486.0,500.0,530.0
495.0,504.0,484.0,498.0,525.0
507.0,510.0,490.0,498.0,516.0
506.0,504.0,492.0,497.0,515.0
503.0,504.0,494.0,494.0,515.0
516.0,508.0,505.0,500.0,508.0
526.0,507.0,520.0,505.0,500.0
533.0,511.0,532.0,519.0,491.0
541.0,514.0,545.0,529.0,493.0
535.0,513.0,550.0,533.0,491.0
536.0,516.0,554.0,536.0,498.0
527.0,511.0,543.0,532.0,505.0
519.0,508.0,535.0,528.0,514.0
499.0,500.0,514.0,518.0,527.0
495.0,500.0,502.0,511.0,532.0
497.0,501.0,498.0,507.0,530.0
491.0,504.0,487.0,502.0,528.0
497.0,509.0,483.0,499.0,527.0
499.0,506.0,490.0,499.0,522.0
505.0,507.0,490.0,499.0,516.0
507.0,504.0,493.0,498.0,516.0
506.0,502.0,497.0,500.0,518.0
516.0,504.0,510.0,502.0,507.0
524.0,508.0,522.0,510.0,504.0
533.0,514.0,536.0,523.0,497.0
537.0,515.0,548.0,532.0,491.0
536.0,513.0,551.0,538.0,493.0
529.0,514.0,551.0,535.0,500.0
517.0,510.0,541.0,532.0,508.0
508.0,506.0,532.0,526.0,518.0
494.0,500.0,511.0,514.0,530.0
494.0,500.0,497.0,507.0,536.0
491.0,501.0,492.0,503.0,535.0
496.0,504.0,485.0,502.0,529.0
500.0,502.0,481.0,496.0,525.0
502.0,506.0,487.0,501.0,520.0
501.0,505.0,492.0,500.0,516.0
504.0,502.0,493.0,497.0,516.0
510.0,506.0,500.0,498.0,508.0
519.0,502.0,514.0,506.0,505.0
525.0,507.0,525.0,513.0,500.0
538.0,511.0,536.0,522.0,491.0
543.0,515.0,550.0,533.0,491.0
534.0,514.0,550.0,536.0,494.0
524.0,512.0,550.0,533.0,505.0
521.0,509.0,538.0,531.0,513.0
509.0,501.0,524.0,520.0,525.0
497.0,501.0,507.0,518.0,530.0
493.0,500.0,495.0,508.0,531.0
493.0,503.0,488.0,505.0,533.0
498.0,506.0,483.0,501.0,524.0
500.0,504.0,485.0,500.0,524.0
499.0,504.0,487.0,497.0,519.0
502.0,503.0,491.0,495.0,518.0
505.0,502.0,493.0,495.0,517.0
513.0,504.0,507.0,500.0,510.0
518.0,509.0,518.0,508.0,504.0
525.0,510.0,535.0,518.0,496.0
537.0,514.0,545.0,529.0,493.0
537.0,514.0,551.0,535.0,498.0
534.0,512.0,551.0,542.0,499.0
525.0,510.0,543.0,537.0,506.0
516.0,508.0,535.0,533.0,514.0
503.0,500.0,515.0,523.0,521.0
497.0,502.0,503.0,516.0,530.0
494.0,500.0,494.0,508.0,526.0
487.0,502.0,485.0,502.0,530.0
496.0,504.0,486.0,497.0,530.0
502.0,506.0,486.0,501.0,523.0
508.0,507.0,489.0,496.0,518.0
505.0,503.0,490.0,491.0,515.0
512.0,504.0,499.0,494.0,514.0
517.0,504.0,510.0,501.0,506.0
522.0,506.0,522.0,509.0,501.0
529.0,513.0,533.0,520.0,493.0
536.0,513.0,551.0,534.0,491.0
533.0,513.0,550.0,539.0,494.0
529.0,514.0,550.0,543.0,498.0
523.0,512.0,542.0,539.0,510.0
513.0,505.0,530.0,533.0,518.0
496.0,499.0,512.0,522.0,528.0
491.0,498.0,498.0,513.0,534.0
489.0,499.0,488.0,508.0,533.0
493.0,503.0,485.0,500.0,525.0
498.0,504.0,486.0,497.0,525.0
498.0,506.0,488.0,494.0,517.0
512.0,505.0,490.0,491.0,512.0
517.0,503.0,492.0,491.0,519.0
517.0,506.0,502.0,490.0,510.0
525.0,506.0,515.0,500.0,502.0
527.0,507.0,525.0,509.0,499.0
533.0,511.0,537.0,524.0,492.0
540.0,517.0,548.0,543.0,489.0
533.0,514.0,552.0,545.0,492.0
524.0,511.0,545.0,546.0,500.0
516.0,506.0,537.0,544.0,507.0
504.0,501.0,522.0,536.0,518.0
491.0,502.0,509.0,526.0,533.0
485.0,501.0,497.0,515.0,534.0
484.0,500.0,486.0,504.0,535.0
497.0,503.0,487.0,497.0,530.0
502.0,507.0,482.0,489.0,525.0
505.0,504.0,488.0,485.0,517.0
511.0,506.0,492.0,483.0,520.0
511.0,500.0,492.0,478.0,514.0
529.0,504.0,507.0,489.0,505.0
527.0,505.0,518.0,499.0,498.0
527.0,510.0,532.0,516.0,496.0
538.0,512.0,544.0,530.0,491.0
540.0,514.0,551.0,541.0,493.0
538.0,514.0,552.0,551.0,496.0
530.0,512.0,545.0,550.0,505.0
515.0,508.0,536.0,546.0,515.0
501.0,501.0,517.0,534.0,530.0
491.0,498.0,501.0,524.0,533.0
492.0,502.0,494.0,513.0,531.0
492.0,502.0,487.0,504.0,530.0
492.0,502.0,483.0,492.0,525.0
500.0,505.0,487.0,489.0,521.0
505.0,503.0,488.0,485.0,516.0
512.0,503.0,492.0,482.0,514.0
509.0,504.0,496.0,481.0,510.0
509.0,502.0,510.0,491.0,508.0
523.0,505.0,521.0,503.0,500.0
528.0,509.0,535.0,518.0,497.0
526.0,513.0,546.0,532.0,495.0
527.0,515.0,552.0,545.0,500.0
521.0,513.0,550.0,550.0,502.0
508.0,507.0,543.0,547.0,508.0
496.0,506.0,528.0,541.0,515.0
478.0,496.0,512.0,528.0,525.0
476.0,496.0,496.0,515.0,530.0
486.0,501.0,490.0,509.0,530.0
489.0,500.0,483.0,498.0,529.0
487.0,502.0,478.0,487.0,530.0
524.0,509.0,488.0,486.0,519.0
536.0,508.0,491.0,485.0,514.0
536.0,505.0,492.0,482.0,512.0
532.0,505.0,503.0,486.0,510.0
532.0,503.0,514.0,494.0,500.0
537.0,507.0,525.0,506.0,495.0
541.0,511.0,538.0,522.0,492.0
547.0,515.0,551.0,538.0,487.0
544.0,515.0,554.0,549.0,491.0
536.0,511.0,548.0,551.0,497.0
528.0,511.0,545.0,548.0,508.0
518.0,502.0,523.0,535.0,524.0
503.0,500.0,510.0,528.0,531.0
497.0,500.0,495.0,515.0,531.0
496.0,501.0,488.0,506.0,531.0
500.0,504.0,485.0,501.0,527.0
503.0,505.0,485.0,491.0,521.0
501.0,503.0,486.0,486.0,516.0
503.0,502.0,488.0,484.0,514.0
506.0,500.0,492.0,478.0,514.0
515.0,502.0,505.0,487.0,507.0
521.0,506.0,518.0,499.0,501.0
525.0,509.0,532.0,513.0,497.0
529.0,510.0,542.0,528.0,491.0
532.0,513.0,551.0,543.0,491.0
528.0,513.0,554.0,548.0,491.0
520.0,511.0,546.0,551.0,505.0
514.0,508.0,537.0,546.0,515.0
512.0,503.0,518.0,536.0,525.0
494.0,502.0,502.0,521.0,538.0
490.0,500.0,491.0,515.0,533.0
491.0,503.0,486.0,504.0,529.0
495.0,504.0,483.0,494.0,530.0
495.0,504.0,487.0,490.0,524.0
498.0,504.0,488.0,485.0,517.0
504.0,503.0,491.0,482.0,514.0
506.0,502.0,497.0,483.0,514.0
516.0,502.0,508.0,489.0,510.0
522.0,505.0,519.0,500.0,505.0
533.0,509.0,535.0,518.0,495.0
541.0,515.0,549.0,534.0,490.0
541.0,514.0,552.0,549.0,493.0
539.0,515.0,551.0,551.0,492.0
528.0,514.0,545.0,549.0,502.0
518.0,511.0,532.0,543.0,507.0
505.0,501.0,513.0,531.0,519.0
498.0,501.0,499.0,519.0,526.0
496.0,502.0,489.0,509.0,529.0
492.0,504.0,484.0,502.0,533.0
491.0,504.0,482.0,493.0,523.0
498.0,506.0,487.0,490.0,520.0
501.0,504.0,488.0,482.0,530.0
502.0,500.0,489.0,477.0,524.0
509.0,503.0,501.0,484.0,517.0
512.0,505.0,513.0,494.0,511.0
517.0,508.0,524.0,506.0,506.0
529.0,513.0,539.0,522.0,499.0
527.0,515.0,550.0,536.0,494.0
530.0,515.0,555.0,547.0,497.0
525.0,512.0,548.0,549.0,500.0
520.0,509.0,542.0,547.0,512.0
513.0,502.0,523.0,535.0,523.0
503.0,500.0,509.0,530.0,529.0
495.0,500.0,497.0,516.0,519.0
495.0,505.0,488.0,510.0,516.0
492.0,501.0,482.0,496.0,537.0
496.0,503.0,481.0,488.0,535.0
503.0,506.0,487.0,485.0,519.0
500.0,502.0,487.0,483.0,527.0
494.0,500.0,489.0,479.0,516.0
516.0,504.0,504.0,487.0,510.0
522.0,505.0,517.0,497.0,507.0
528.0,510.0,530.0,511.0,501.0
528.0,514.0,544.0,527.0,494.0
536.0,515.0,556.0,541.0,494.0
540.0,515.0,554.0,549.0,495.0
535.0,516.0,546.0,549.0,503.0
519.0,509.0,538.0,544.0,514.0
504.0,502.0,519.0,532.0,525.0
494.0,500.0,503.0,521.0,528.0
488.0,502.0,494.0,513.0,529.0
492.0,504.0,486.0,505.0,533.0
496.0,507.0,480.0,494.0,529.0
499.0,504.0,484.0,489.0,523.0
505.0,505.0,487.0,486.0,514.0
514.0,504.0,493.0,485.0,511.0
508.0,500.0,495.0,481.0,512.0
517.0,503.0,507.0,489.0,504.0
527.0,506.0,522.0,500.0,496.0
536.0,512.0,536.0,518.0,486.0
540.0,515.0,549.0,534.0,485.0
536.0,514.0,552.0,542.0,486.0
534.0,515.0,555.0,549.0,495.0
523.0,516.0,545.0,549.0,517.0
516.0,508.0,537.0,542.0,521.0
504.0,502.0,515.0,534.0,530.0
494.0,500.0,499.0,518.0,530.0
495.0,502.0,491.0,511.0,531.0
493.0,504.0,487.0,499.0,530.0
496.0,502.0,478.0,489.0,526.0
501.0,505.0,483.0,488.0,520.0
505.0,504.0,486.0,483.0,520.0
504.0,498.0,486.0,478.0,515.0
512.0,502.0,499.0,483.0,511.0
517.0,505.0,513.0,492.0,502.0
525.0,508.0,525.0,506.0,501.0
534.0,513.0,540.0,522.0,495.0
536.0,515.0,553.0,535.0,490.0
534.0,515.0,557.0,546.0,494.0
525.0,513.0,552.0,549.0,498.0
519.0,510.0,544.0,545.0,512.0
507.0,501.0,525.0,535.0,521.0
494.0,500.0,511.0,524.0,533.0
491.0,502.0,498.0,514.0,539.0
490.0,500.0,486.0,508.0,536.0
495.0,502.0,480.0,494.0,528.0
497.0,502.0,478.0,490.0,524.0
502.0,504.0,483.0,485.0,522.0
505.0,502.0,486.0,482.0,519.0
505.0,498.0,486.0,476.0,515.0
515.0,502.0,502.0,485.0,509.0
520.0,503.0,514.0,493.0,504.0
531.0,508.0,530.0,508.0,496.0
529.0,509.0,541.0,522.0,492.0
532.0,509.0,552.0,534.0,483.0
544.0,512.0,558.0,542.0,478.0
532.0,509.0,554.0,545.0,491.0
521.0,507.0,544.0,544.0,501.0
509.0,502.0,525.0,533.0,513.0
501.0,505.0,508.0,526.0,524.0
495.0,503.0,494.0,515.0,527.0
492.0,506.0,484.0,507.0,536.0
497.0,507.0,480.0,501.0,529.0
495.0,508.0,478.0,494.0,528.0
501.0,509.0,483.0,492.0,522.0
505.0,505.0,486.0,487.0,519.0
507.0,504.0,491.0,486.0,515.0
512.0,504.0,507.0,490.0,511.0
524.0,505.0,516.0,498.0,502.0
534.0,508.0,532.0,513.0,491.0
541.0,509.0,546.0,526.0,488.0
540.0,509.0,554.0,536.0,487.0
536.0,512.0,557.0,545.0,499.0
526.0,508.0,550.0,542.0,506.0
520.0,505.0,541.0,542.0,512.0
501.0,498.0,519.0,529.0,528.0
487.0,497.0,504.0,518.0,534.0
487.0,503.0,491.0,513.0,533.0
488.0,506.0,484.0,507.0,531.0
487.0,505.0,478.0,497.0,530.0
494.0,507.0,479.0,493.0,525.0
504.0,508.0,484.0,491.0,520.0
504.0,505.0,486.0,487.0,519.0
518.0,503.0,495.0,487.0,507.0
519.0,504.0,509.0,492.0,503.0
525.0,504.0,520.0,502.0,501.0
533.0,508.0,537.0,517.0,495.0
538.0,511.0,550.0,529.0,490.0
539.0,511.0,557.0,540.0,493.0
528.0,507.0,553.0,543.0,495.0
517.0,505.0,549.0,542.0,506.0
507.0,504.0,535.0,538.0,518.0
492.0,501.0,514.0,529.0,527.0
487.0,501.0,497.0,517.0,532.0
490.0,505.0,484.0,509.0,535.0
498.0,507.0,482.0,501.0,532.0
502.0,509.0,478.0,493.0,528.0
509.0,510.0,481.0,493.0,523.0
513.0,511.0,485.0,489.0,520.0
518.0,505.0,488.0,486.0,513.0
514.0,503.0,498.0,488.0,509.0
519.0,505.0,515.0,500.0,506.0
531.0,512.0,524.0,506.0,496.0
537.0,510.0,540.0,521.0,491.0
540.0,511.0,552.0,534.0,488.0
539.0,512.0,557.0,543.0,492.0
530.0,508.0,550.0,543.0,499.0
521.0,507.0,547.0,543.0,509.0
502.0,501.0,528.0,534.0,524.0
495.0,501.0,507.0,523.0,531.0
491.0,508.0,493.0,516.0,530.0
487.0,506.0,483.0,507.0,532.0
490.0,507.0,478.0,499.0,528.0
491.0,507.0,475.0,493.0,524.0
505.0,509.0,481.0,490.0,520.0
510.0,508.0,485.0,486.0,520.0
510.0,503.0,489.0,483.0,518.0
513.0,504.0,502.0,490.0,514.0
520.0,508.0,516.0,498.0,506.0
534.0,508.0,532.0,513.0,500.0
539.0,511.0,546.0,526.0,493.0
533.0,509.0,553.0,536.0,492.0
531.0,511.0,556.0,544.0,490.0
533.0,508.0,548.0,544.0,502.0
521.0,507.0,542.0,544.0,510.0
499.0,504.0,518.0,531.0,530.0
487.0,505.0,500.0,521.0,539.0
483.0,503.0,493.0,512.0,537.0
488.0,506.0,482.0,507.0,535.0
490.0,508.0,478.0,499.0,535.0
499.0,509.0,480.0,493.0,527.0
512.0,508.0,483.0,490.0,521.0
516.0,506.0,486.0,487.0,517.0
513.0,503.0,493.0,486.0,507.0
518.0,504.0,507.0,494.0,508.0
524.0,503.0,520.0,500.0,501.0
532.0,507.0,535.0,514.0,486.0
541.0,512.0,551.0,532.0,485.0
536.0,513.0,553.0,537.0,491.0
535.0,510.0,554.0,545.0,495.0
526.0,507.0,547.0,546.0,505.0
516.0,506.0,535.0,539.0,516.0
501.0,501.0,513.0,529.0,529.0
494.0,501.0,497.0,518.0,536.0
491.0,503.0,485.0,507.0,533.0
491.0,508.0,478.0,501.0,527.0
493.0,505.0,474.0,493.0,530.0
500.0,508.0,480.0,492.0,523.0
501.0,506.0,484.0,488.0,519.0
503.0,505.0,489.0,486.0,517.0
509.0,502.0,497.0,488.0,510.0
522.0,506.0,514.0,498.0,506.0
533.0,507.0,529.0,507.0,500.0
544.0,509.0,541.0,522.0,491.0
548.0,510.0,552.0,536.0,493.0
537.0,514.0,556.0,542.0,492.0
529.0,509.0,551.0,545.0,501.0
520.0,506.0,540.0,542.0,507.0
503.0,501.0,524.0,533.0,522.0
492.0,501.0,508.0,522.0,528.0
496.0,505.0,495.0,517.0,532.0
494.0,506.0,485.0,507.0,531.0
495.0,509.0,479.0,499.0,528.0
497.0,509.0,479.0,495.0,525.0
502.0,510.0,486.0,494.0,520.0
504.0,504.0,484.0,486.0,518.0
510.0,501.0,489.0,483.0,512.0
516.0,504.0,503.0,492.0,507.0
519.0,502.0,515.0,499.0,500.0
528.0,505.0,532.0,513.0,494.0
535.0,509.0,547.0,526.0,491.0
537.0,510.0,553.0,536.0,487.0
535.0,512.0,556.0,545.0,490.0
532.0,507.0,548.0,544.0,501.0
519.0,507.0,546.0,541.0,511.0
500.0,501.0,524.0,531.0,528.0
489.0,502.0,501.0,521.0,544.0
486.0,504.0,491.0,514.0,540.0
494.0,509.0,485.0,506.0,534.0
494.0,507.0,481.0,496.0,534.0
507.0,508.0,483.0,492.0,528.0
504.0,507.0,483.0,490.0,520.0
501.0,507.0,484.0,484.0,517.0
507.0,502.0,495.0,486.0,511.0
511.0,501.0,507.0,494.0,506.0
517.0,502.0,520.0,503.0,502.0
538.0,506.0,535.0,516.0,492.0
548.0,509.0,549.0,530.0,485.0
543.0,509.0,553.0,538.0,492.0
535.0,510.0,556.0,544.0,497.0
525.0,505.0,545.0,541.0,502.0
513.0,503.0,533.0,537.0,513.0
495.0,500.0,513.0,528.0,525.0
489.0,502.0,498.0,518.0,531.0
489.0,505.0,487.0,511.0,537.0
498.0,509.0,481.0,504.0,538.0
497.0,508.0,478.0,495.0,534.0
501.0,508.0,482.0,493.0,528.0
512.0,506.0,484.0,487.0,524.0
511.0,504.0,485.0,485.0,521.0
523.0,503.0,498.0,487.0,516.0
522.0,502.0,512.0,496.0,504.0
530.0,505.0,529.0,507.0,500.0
535.0,508.0,541.0,522.0,490.0
539.0,510.0,554.0,536.0,488.0
534.0,509.0,557.0,544.0,486.0
528.0,508.0,552.0,544.0,496.0
520.0,509.0,542.0,542.0,505.0
503.0,500.0,526.0,532.0,523.0
494.0,499.0,506.0,523.0,534.0
490.0,503.0,494.0,516.0,540.0
491.0,507.0,484.0,509.0,537.0
491.0,506.0,479.0,501.0,530.0
491.0,504.0,477.0,493.0,522.0
495.0,505.0,479.0,488.0,521.0
495.0,502.0,482.0,485.0,522.0
506.0,503.0,491.0,485.0,518.0
518.0,502.0,505.0,492.0,508.0
527.0,506.0,518.0,502.0,506.0
542.0,511.0,534.0,515.0,499.0
539.0,510.0,547.0,527.0,493.0
542.0,512.0,553.0,540.0,489.0
540.0,510.0,553.0,543.0,487.0
527.0,509.0,549.0,544.0,500.0
518.0,507.0,541.0,543.0,512.0
499.0,500.0,519.0,529.0,529.0
491.0,499.0,500.0,520.0,537.0
485.0,504.0,490.0,513.0,540.0
484.0,507.0,484.0,506.0,538.0
491.0,508.0,482.0,498.0,527.0
502.0,511.0,481.0,495.0,522.0
508.0,506.0,483.0,489.0,516.0
504.0,504.0,484.0,483.0,511.0
516.0,505.0,495.0,486.0,508.0
528.0,505.0,509.0,494.0,504.0
531.0,506.0,526.0,502.0,499.0
537.0,510.0,537.0,517.0,494.0
540.0,511.0,553.0,529.0,491.0
537.0,507.0,553.0,538.0,488.0
535.0,510.0,554.0,544.0,493.0
529.0,508.0,547.0,541.0,503.0
518.0,505.0,535.0,538.0,513.0
501.0,501.0,515.0,528.0,526.0
496.0,502.0,497.0,519.0,531.0
491.0,504.0,483.0,508.0,531.0
489.0,507.0,478.0,501.0,530.0
490.0,506.0,476.0,494.0,527.0
498.0,508.0,482.0,493.0,524.0
501.0,505.0,484.0,487.0,524.0
504.0,503.0,488.0,485.0,520.0
509.0,502.0,497.0,488.0,513.0
519.0,506.0,515.0,498.0,509.0
527.0,506.0,526.0,507.0,500.0
537.0,510.0,542.0,523.0,489.0
540.0,512.0,555.0,537.0,487.0
533.0,510.0,557.0,544.0,489.0
527.0,510.0,553.0,544.0,497.0
519.0,505.0,543.0,541.0,504.0
503.0,499.0,523.0,530.0,520.0
493.0,500.0,507.0,520.0,528.0
489.0,503.0,493.0,515.0,532.0
490.0,505.0,483.0,507.0,533.0
492.0,506.0,478.0,499.0,532.0
494.0,506.0,477.0,492.0,529.0
502.0,507.0,481.0,489.0,521.0
509.0,506.0,485.0,488.0,521.0
507.0,507.0,490.0,485.0,515.0
510.0,502.0,503.0,490.0,506.0
518.0,508.0,517.0,501.0,502.0
525.0,508.0,536.0,514.0,494.0
534.0,511.0,548.0,528.0,491.0
539.0,510.0,558.0,538.0,496.0
533.0,510.0,554.0,542.0,498.0
536.0,509.0,549.0,543.0,505.0
526.0,508.0,541.0,542.0,514.0
503.0,502.0,523.0,533.0,529.0
488.0,501.0,506.0,523.0,533.0
482.0,504.0,492.0,513.0,533.0
485.0,505.0,484.0,507.0,533.0
489.0,508.0,479.0,498.0,529.0
502.0,509.0,481.0,494.0,523.0
504.0,508.0,482.0,490.0,524.0
513.0,504.0,485.0,484.0,516.0
516.0,504.0,496.0,487.0,514.0
519.0,506.0,510.0,495.0,507.0
523.0,504.0,522.0,504.0,498.0
537.0,509.0,537.0,520.0,486.0
539.0,508.0,550.0,533.0,477.0
536.0,510.0,556.0,539.0,487.0
529.0,510.0,558.0,546.0,493.0
520.0,507.0,547.0,544.0,503.0
509.0,501.0,532.0,537.0,514.0
500.0,503.0,514.0,528.0,525.0
491.0,503.0,498.0,519.0,532.0
489.0,503.0,486.0,509.0,531.0
495.0,505.0,479.0,501.0,529.0
494.0,507.0,478.0,494.0,535.0
495.0,506.0,479.0,491.0,525.0
498.0,504.0,483.0,487.0,523.0
504.0,504.0,489.0,487.0,521.0
507.0,504.0,499.0,488.0,514.0
530.0,508.0,515.0,498.0,504.0
540.0,509.0,528.0,509.0,495.0
537.0,510.0,542.0,523.0,492.0
539.0,512.0,554.0,536.0,488.0
537.0,513.0,558.0,545.0,491.0
527.0,508.0,551.0,544.0,500.0
518.0,510.0,545.0,544.0,512.0
501.0,503.0,526.0,533.0,528.0
491.0,502.0,508.0,524.0,537.0
487.0,505.0,496.0,517.0,537.0
484.0,507.0,485.0,507.0,532.0
492.0,508.0,479.0,501.0,522.0
513.0,509.0,478.0,495.0,513.0
513.0,510.0,483.0,491.0,507.0
512.0,507.0,486.0,485.0,517.0
511.0,507.0,493.0,486.0,518.0
516.0,502.0,503.0,488.0,512.0
522.0,505.0,519.0,501.0,509.0
530.0,512.0,535.0,515.0,501.0
538.0,511.0,547.0,527.0,491.0
547.0,510.0,555.0,538.0,490.0
533.0,510.0,554.0,542.0,494.0
523.0,509.0,550.0,544.0,505.0
525.0,508.0,541.0,541.0,509.0
505.0,502.0,519.0,530.0,527.0
495.0,500.0,500.0,519.0,534.0
490.0,503.0,488.0,509.0,534.0
491.0,505.0,483.0,503.0,532.0
488.0,505.0,478.0,498.0,527.0
494.0,508.0,477.0,492.0,523.0
499.0,506.0,483.0,488.0,520.0
500.0,504.0,487.0,486.0,519.0
518.0,504.0,495.0,486.0,509.0
519.0,509.0,507.0,494.0,508.0
523.0,508.0,521.0,503.0,507.0
530.0,506.0,536.0,517.0,501.0
542.0,512.0,552.0,531.0,494.0
538.0,510.0,554.0,542.0,489.0
529.0,510.0,553.0,543.0,492.0
525.0,508.0,548.0,541.0,500.0
511.0,505.0,534.0,538.0,516.0
493.0,506.0,513.0,527.0,526.0
491.0,502.0,496.0,517.0,528.0
496.0,505.0,486.0,508.0,533.0
498.0,507.0,479.0,501.0,531.0
496.0,506.0,476.0,493.0,527.0
502.0,508.0,481.0,491.0,520.0
505.0,507.0,485.0,488.0,519.0
510.0,505.0,488.0,485.0,515.0
517.0,502.0,497.0,487.0,507.0
521.0,505.0,514.0,498.0,508.0
524.0,506.0,527.0,509.0,494.0
529.0,508.0,543.0,527.0,489.0
539.0,510.0,553.0,535.0,487.0
533.0,513.0,555.0,546.0,491.0
524.0,507.0,551.0,544.0,499.0
517.0,507.0,543.0,541.0,507.0
504.0,501.0,523.0,531.0,522.0
506.0,502.0,506.0,524.0,531.0
499.0,504.0,492.0,517.0,535.0
496.0,506.0,482.0,506.0,533.0
493.0,507.0,475.0,499.0,532.0
497.0,507.0,474.0,492.0,529.0
503.0,508.0,482.0,491.0,521.0
507.0,506.0,488.0,486.0,518.0
504.0,503.0,492.0,487.0,513.0
512.0,502.0,503.0,492.0,507.0
518.0,502.0,517.0,500.0,504.0
529.0,505.0,531.0,513.0,491.0
538.0,510.0,546.0,530.0,485.0
544.0,510.0,552.0,537.0,488.0
541.0,512.0,555.0,543.0,494.0
529.0,509.0,552.0,544.0,502.0
522.0,509.0,542.0,543.0,510.0
504.0,501.0,522.0,531.0,527.0
494.0,500.0,499.0,519.0,532.0
492.0,503.0,488.0,511.0,533.0
496.0,508.0,483.0,506.0,528.0
496.0,507.0,478.0,497.0,526.0
497.0,508.0,480.0,493.0,522.0
499.0,506.0,483.0,489.0,518.0
502.0,503.0,487.0,486.0,522.0
506.0,503.0,492.0,486.0,515.0
516.0,504.0,510.0,496.0,506.0
523.0,506.0,520.0,504.0,498.0
536.0,506.0,536.0,518.0,491.0
542.0,510.0,550.0,532.0,487.0
544.0,509.0,555.0,542.0,491.0
531.0,507.0,551.0,544.0,496.0
523.0,507.0,545.0,544.0,507.0
511.0,504.0,532.0,536.0,522.0
497.0,501.0,512.0,527.0,529.0
491.0,502.0,498.0,517.0,534.0
498.0,503.0,483.0,508.0,531.0
494.0,505.0,479.0,500.0,532.0
492.0,506.0,476.0,493.0,530.0
505.0,510.0,481.0,492.0,523.0
509.0,506.0,482.0,487.0,522.0
508.0,503.0,486.0,484.0,519.0
513.0,502.0,498.0,488.0,513.0
516.0,502.0,512.0,496.0,502.0
524.0,506.0,527.0,509.0,493.0
533.0,509.0,541.0,523.0,488.0
545.0,512.0,555.0,538.0,485.0
538.0,511.0,556.0,546.0,490.0
526.0,509.0,551.0,544.0,500.0
521.0,507.0,543.0,542.0,507.0
505.0,501.0,522.0,532.0,522.0
493.0,499.0,503.0,521.0,533.0
496.0,504.0,493.0,514.0,534.0
493.0,506.0,488.0,506.0,534.0
492.0,507.0,479.0,499.0,534.0
493.0,508.0,476.0,494.0,529.0
502.0,505.0,480.0,488.0,516.0
503.0,505.0,485.0,486.0,513.0
509.0,504.0,491.0,485.0,511.0
514.0,504.0,504.0,492.0,512.0
515.0,502.0,516.0,499.0,512.0
534.0,507.0,534.0,514.0,499.0
539.0,510.0,551.0,528.0,494.0
539.0,510.0,554.0,538.0,487.0
534.0,509.0,556.0,546.0,494.0
523.0,507.0,547.0,544.0,503.0
517.0,506.0,540.0,541.0,512.0
499.0,500.0,516.0,529.0,526.0
498.0,502.0,501.0,521.0,534.0
504.0,504.0,488.0,512.0,533.0
500.0,506.0,482.0,504.0,531.0
496.0,505.0,476.0,496.0,529.0
498.0,508.0,480.0,491.0,527.0
503.0,510.0,484.0,490.0,524.0
504.0,509.0,487.0,485.0,520.0
509.0,503.0,494.0,486.0,515.0
515.0,505.0,511.0,494.0,509.0
526.0,509.0,521.0,506.0,507.0
539.0,509.0,538.0,520.0,498.0
538.0,508.0,549.0,531.0,493.0
537.0,511.0,556.0,540.0,497.0
528.0,509.0,552.0,543.0,496.0
520.0,509.0,546.0,544.0,505.0
508.0,504.0,530.0,539.0,518.0
497.0,502.0,511.0,526.0,529.0
490.0,502.0,495.0,518.0,533.0
486.0,504.0,485.0,509.0,534.0
499.0,509.0,478.0,501.0,528.0
498.0,508.0,476.0,493.0,532.0
501.0,508.0,481.0,490.0,523.0
503.0,507.0,483.0,486.0,522.0
508.0,504.0,489.0,486.0,515.0
514.0,503.0,499.0,489.0,507.0
522.0,509.0,513.0,497.0,499.0
528.0,507.0,528.0,508.0,492.0
529.0,510.0,542.0,523.0,487.0
533.0,509.0,553.0,535.0,496.0
529.0,510.0,555.0,542.0,502.0
520.0,508.0,550.0,543.0,502.0
512.0,507.0,543.0,542.0,509.0
496.0,499.0,522.0,530.0,526.0
487.0,500.0,504.0,522.0,534.0
493.0,504.0,493.0,516.0,535.0
501.0,509.0,483.0,507.0,535.0
501.0,506.0,476.0,497.0,528.0
499.0,506.0,477.0,489.0,527.0
504.0,509.0,482.0,489.0,529.0
505.0,510.0,484.0,485.0,525.0
506.0,509.0,492.0,484.0,517.0
516.0,503.0,504.0,490.0,506.0
525.0,509.0,517.0,501.0,499.0
532.0,508.0,533.0,514.0,499.0
539.0,511.0,549.0,527.0,494.0
535.0,509.0,550.0,535.0,498.0
532.0,512.0,554.0,544.0,501.0
522.0,507.0,547.0,542.0,501.0
516.0,505.0,537.0,542.0,502.0
495.0,500.0,515.0,527.0,523.0
488.0,501.0,500.0,518.0,531.0
498.0,504.0,488.0,510.0,529.0
499.0,507.0,481.0,504.0,529.0
488.0,504.0,475.0,493.0,535.0
490.0,510.0,476.0,490.0,523.0
509.0,509.0,484.0,489.0,516.0
515.0,506.0,488.0,486.0,517.0
516.0,504.0,497.0,488.0,512.0
519.0,505.0,511.0,496.0,507.0
518.0,507.0,521.0,503.0,501.0
530.0,505.0,537.0,517.0,491.0
537.0,512.0,552.0,533.0,488.0
536.0,509.0,555.0,540.0,490.0
528.0,509.0,552.0,543.0,497.0
520.0,506.0,545.0,541.0,505.0
507.0,500.0,529.0,534.0,518.0
504.0,505.0,511.0,525.0,529.0
496.0,506.0,498.0,516.0,534.0
488.0,506.0,483.0,507.0,535.0
491.0,507.0,479.0,505.0,534.0
496.0,507.0,478.0,491.0,529.0
503.0,509.0,482.0,496.0,523.0
503.0,506.0,484.0,487.0,518.0
508.0,504.0,489.0,486.0,513.0
521.0,503.0,500.0,487.0,508.0
525.0,504.0,514.0,497.0,499.0
531.0,507.0,529.0,509.0,493.0
535.0,510.0,542.0,526.0,482.0
539.0,511.0,553.0,537.0,485.0
533.0,509.0,554.0,541.0,497.0
528.0,511.0,554.0,543.0,502.0
520.0,507.0,541.0,542.0,507.0
503.0,501.0,520.0,530.0,523.0
496.0,500.0,504.0,522.0,531.0
491.0,504.0,494.0,515.0,533.0
492.0,507.0,484.0,507.0,532.0
490.0,506.0,477.0,496.0,529.0
495.0,506.0,477.0,492.0,524.0
502.0,508.0,482.0,489.0,524.0
510.0,506.0,491.0,484.0,521.0
510.0,505.0,491.0,489.0,516.0
516.0,504.0,501.0,490.0,510.0
521.0,504.0,518.0,501.0,508.0
528.0,512.0,534.0,518.0,497.0
541.0,512.0,547.0,529.0,490.0
537.0,514.0,554.0,543.0,492.0
532.0,510.0,554.0,545.0,491.0
528.0,510.0,550.0,544.0,500.0
516.0,507.0,540.0,541.0,508.0
498.0,500.0,517.0,529.0,524.0
484.0,500.0,500.0,518.0,533.0
482.0,501.0,488.0,511.0,531.0
481.0,504.0,481.0,503.0,527.0
479.0,505.0,477.0,496.0,530.0
496.0,506.0,478.0,491.0,523.0
500.0,506.0,482.0,487.0,517.0
509.0,504.0,487.0,484.0,516.0
514.0,507.0,496.0,488.0,511.0
525.0,503.0,509.0,494.0,500.0
532.0,506.0,523.0,504.0,498.0
536.0,507.0,537.0,519.0,494.0
539.0,511.0,551.0,534.0,486.0
541.0,508.0,557.0,537.0,492.0
545.0,511.0,555.0,544.0,502.0
531.0,507.0,542.0,542.0,507.0
511.0,501.0,528.0,534.0,522.0
498.0,501.0,508.0,525.0,528.0
496.0,502.0,496.0,516.0,535.0
496.0,506.0,486.0,510.0,537.0
497.0,509.0,480.0,502.0,532.0
498.0,509.0,478.0,496.0,527.0
507.0,508.0,486.0,490.0,520.0
504.0,505.0,483.0,486.0,520.0
509.0,507.0,485.0,482.0,516.0
514.0,508.0,500.0,489.0,512.0
522.0,504.0,514.0,498.0,503.0
529.0,506.0,527.0,508.0,495.0
539.0,511.0,545.0,525.0,487.0
544.0,511.0,557.0,534.0,490.0
536.0,509.0,553.0,542.0,490.0
529.0,509.0,551.0,543.0,503.0
518.0,508.0,543.0,543.0,506.0
504.0,501.0,522.0,532.0,521.0
498.0,501.0,505.0,522.0,531.0
492.0,504.0,492.0,517.0,537.0
493.0,506.0,486.0,506.0,535.0
494.0,507.0,481.0,499.0,530.0
495.0,508.0,477.0,493.0,527.0
503.0,509.0,483.0,491.0,521.0
501.0,508.0,485.0,485.0,518.0
505.0,503.0,492.0,486.0,514.0
513.0,505.0,504.0,493.0,512.0
518.0,503.0,518.0,501.0,507.0
527.0,508.0,535.0,516.0,503.0
531.0,510.0,548.0,528.0,494.0
541.0,513.0,555.0,538.0,492.0
535.0,509.0,554.0,543.0,497.0
530.0,510.0,549.0,545.0,504.0
518.0,510.0,540.0,543.0,507.0
502.0,502.0,518.0,531.0,521.0
496.0,502.0,500.0,520.0,525.0
494.0,504.0,489.0,512.0,526.0
494.0,508.0,482.0,505.0,525.0
494.0,507.0,477.0,496.0,531.0
499.0,507.0,477.0,491.0,531.0
504.0,508.0,484.0,488.0,521.0
504.0,505.0,486.0,485.0,512.0
506.0,503.0,495.0,486.0,506.0
517.0,504.0,514.0,498.0,497.0
514.0,503.0,521.0,503.0,496.0
521.0,507.0,537.0,519.0,497.0
539.0,511.0,551.0,533.0,490.0
545.0,511.0,555.0,540.0,493.0
533.0,509.0,552.0,545.0,496.0
523.0,507.0,545.0,543.0,505.0
510.0,501.0,526.0,534.0,519.0
494.0,500.0,508.0,523.0,532.0
498.0,503.0,496.0,517.0,532.0
497.0,507.0,486.0,513.0,535.0
495.0,508.0,481.0,505.0,533.0
491.0,507.0,476.0,494.0,530.0
498.0,507.0,481.0,491.0,520.0
509.0,507.0,485.0,493.0,520.0
508.0,506.0,493.0,484.0,519.0
518.0,504.0,500.0,488.0,511.0
526.0,506.0,516.0,496.0,501.0
531.0,508.0,529.0,509.0,497.0
536.0,509.0,543.0,524.0,491.0
539.0,510.0,553.0,535.0,491.0
535.0,512.0,555.0,542.0,496.0
524.0,510.0,549.0,543.0,496.0
522.0,509.0,543.0,545.0,508.0
505.0,501.0,526.0,532.0,524.0
495.0,500.0,503.0,521.0,532.0
490.0,503.0,490.0,512.0,532.0
493.0,505.0,482.0,505.0,531.0
492.0,505.0,480.0,496.0,531.0
495.0,504.0,477.0,491.0,529.0
501.0,507.0,483.0,490.0,527.0
502.0,505.0,486.0,485.0,525.0
513.0,505.0,495.0,487.0,520.0
515.0,501.0,504.0,491.0,509.0
521.0,504.0,519.0,502.0,499.0
530.0,507.0,535.0,516.0,487.0
535.0,509.0,548.0,529.0,481.0
533.0,508.0,554.0,537.0,485.0
535.0,512.0,555.0,543.0,493.0
528.0,507.0,547.0,542.0,503.0
526.0,505.0,539.0,540.0,513.0
503.0,498.0,514.0,526.0,530.0
493.0,504.0,498.0,518.0,534.0
485.0,503.0,489.0,511.0,533.0
483.0,505.0,481.0,503.0,527.0
489.0,505.0,475.0,495.0,529.0
492.0,506.0,479.0,496.0,524.0
499.0,508.0,484.0,489.0,517.0
505.0,505.0,487.0,485.0,516.0
527.0,504.0,498.0,487.0,512.0
525.0,509.0,512.0,494.0,502.0
527.0,504.0,522.0,504.0,497.0
535.0,509.0,539.0,521.0,490.0
541.0,511.0,553.0,531.0,484.0
539.0,509.0,555.0,541.0,488.0
538.0,510.0,555.0,545.0,496.0
527.0,508.0,546.0,543.0,503.0
513.0,502.0,528.0,535.0,518.0
502.0,501.0,510.0,525.0,531.0
497.0,503.0,497.0,518.0,533.0
495.0,506.0,486.0,507.0,531.0
494.0,507.0,479.0,501.0,529.0
493.0,505.0,477.0,493.0,527.0
496.0,507.0,479.0,490.0,522.0
508.0,507.0,485.0,486.0,519.0
519.0,507.0,491.0,490.0,519.0
516.0,502.0,499.0,488.0,513.0
525.0,505.0,515.0,498.0,504.0
532.0,508.0,530.0,510.0,496.0
538.0,512.0,545.0,524.0,486.0
541.0,511.0,554.0,537.0,485.0
532.0,508.0,553.0,541.0,489.0
528.0,510.0,551.0,544.0,499.0
520.0,507.0,542.0,543.0,505.0
504.0,502.0,522.0,532.0,522.0
494.0,503.0,505.0,522.0,532.0
491.0,504.0,492.0,513.0,535.0
491.0,507.0,483.0,505.0,534.0
494.0,509.0,479.0,498.0,532.0
497.0,510.0,479.0,492.0,527.0
504.0,510.0,483.0,489.0,521.0
503.0,508.0,487.0,485.0,518.0
511.0,503.0,493.0,483.0,511.0
515.0,504.0,506.0,492.0,509.0
520.0,504.0,517.0,500.0,501.0
528.0,507.0,538.0,516.0,495.0
541.0,513.0,551.0,530.0,493.0
544.0,510.0,555.0,538.0,493.0
536.0,510.0,555.0,543.0,489.0
528.0,507.0,550.0,543.0,499.0
522.0,507.0,536.0,539.0,513.0
506.0,500.0,515.0,531.0,533.0
489.0,501.0,497.0,517.0,541.0
489.0,502.0,486.0,508.0,542.0
487.0,505.0,483.0,505.0,529.0
488.0,506.0,477.0,495.0,528.0
489.0,507.0,476.0,489.0,526.0
505.0,507.0,483.0,487.0,516.0
507.0,506.0,487.0,486.0,516.0
509.0,501.0,495.0,485.0,509.0
515.0,503.0,511.0,495.0,508.0
515.0,501.0,522.0,503.0,504.0
535.0,508.0,543.0,519.0,492.0
543.0,512.0,555.0,533.0,487.0
535.0,510.0,554.0,542.0,492.0
531.0,507.0,549.0,541.0,494.0
533.0,510.0,545.0,542.0,504.0
515.0,502.0,528.0,534.0,520.0
498.0,505.0,508.0,525.0,535.0
490.0,502.0,495.0,516.0,541.0
490.0,505.0,485.0,509.0,538.0
494.0,508.0,481.0,503.0,524.0
497.0,506.0,478.0,494.0,517.0
504.0,507.0,480.0,491.0,510.0
506.0,506.0,485.0,488.0,510.0
507.0,506.0,487.0,485.0,510.0
511.0,503.0,500.0,490.0,512.0
518.0,503.0,513.0,497.0,505.0
527.0,505.0,529.0,511.0,501.0
532.0,510.0,543.0,522.0,493.0
538.0,511.0,554.0,536.0,491.0
529.0,507.0,552.0,540.0,496.0
529.0,510.0,551.0,544.0,506.0
526.0,508.0,542.0,543.0,511.0
502.0,501.0,519.0,531.0,524.0
496.0,502.0,503.0,521.0,532.0
492.0,504.0,491.0,513.0,530.0
489.0,507.0,484.0,507.0,527.0
485.0,505.0,477.0,497.0,526.0
488.0,506.0,477.0,491.0,522.0
504.0,508.0,483.0,489.0,518.0
505.0,505.0,484.0,486.0,517.0
509.0,504.0,494.0,486.0,512.0
528.0,502.0,506.0,492.0,506.0
531.0,504.0,518.0,500.0,504.0
537.0,511.0,533.0,515.0,496.0
539.0,508.0,547.0,527.0,487.0
541.0,513.0,555.0,537.0,489.0
532.0,509.0,554.0,542.0,496.0
524.0,507.0,546.0,542.0,501.0
515.0,505.0,536.0,539.0,508.0
499.0,505.0,516.0,526.0,523.0
491.0,501.0,500.0,519.0,530.0
487.0,503.0,487.0,510.0,538.0
492.0,506.0,481.0,501.0,538.0
498.0,507.0,478.0,499.0,532.0
506.0,508.0,479.0,489.0,529.0
502.0,510.0,482.0,486.0,525.0
510.0,504.0,485.0,482.0,519.0
513.0,504.0,497.0,486.0,510.0
515.0,508.0,512.0,494.0,499.0
523.0,505.0,522.0,504.0,495.0
535.0,509.0,539.0,519.0,494.0
539.0,515.0,552.0,532.0,488.0
542.0,511.0,553.0,539.0,494.0
537.0,509.0,552.0,543.0,497.0
526.0,508.0,545.0,548.0,505.0
506.0,502.0,528.0,534.0,524.0
492.0,500.0,509.0,524.0,529.0
488.0,503.0,495.0,519.0,533.0
487.0,505.0,484.0,508.0,533.0
490.0,507.0,479.0,501.0,529.0
496.0,506.0,477.0,494.0,521.0
504.0,507.0,480.0,490.0,517.0
501.0,505.0,483.0,483.0,520.0
502.0,503.0,488.0,482.0,516.0
514.0,503.0,500.0,488.0,507.0
530.0,505.0,516.0,499.0,496.0
531.0,507.0,529.0,511.0,490.0
542.0,512.0,545.0,525.0,489.0
548.0,511.0,555.0,535.0,491.0
537.0,510.0,553.0,539.0,492.0
528.0,510.0,551.0,543.0,502.0
519.0,508.0,543.0,542.0,509.0
504.0,502.0,520.0,528.0,527.0
493.0,502.0,500.0,521.0,533.0
495.0,506.0,491.0,513.0,534.0
496.0,508.0,484.0,505.0,530.0
495.0,507.0,477.0,497.0,529.0
497.0,507.0,478.0,488.0,523.0
498.0,507.0,480.0,488.0,519.0
498.0,504.0,485.0,484.0,521.0
501.0,504.0,493.0,485.0,518.0
513.0,503.0,505.0,491.0,503.0
522.0,504.0,519.0,501.0,498.0
532.0,508.0,535.0,514.0,489.0
540.0,512.0,551.0,530.0,486.0
534.0,509.0,554.0,537.0,487.0
529.0,509.0,552.0,541.0,493.0
527.0,506.0,545.0,541.0,500.0
517.0,506.0,536.0,538.0,512.0
501.0,500.0,516.0,527.0,529.0
493.0,502.0,497.0,516.0,538.0
499.0,511.0,486.0,508.0,535.0
495.0,508.0,482.0,506.0,529.0
495.0,506.0,477.0,495.0,524.0
499.0,506.0,478.0,486.0,519.0
505.0,507.0,483.0,486.0,518.0
508.0,506.0,488.0,484.0,522.0
518.0,506.0,496.0,487.0,513.0
520.0,504.0,511.0,494.0,496.0
525.0,504.0,523.0,505.0,493.0
532.0,507.0,537.0,519.0,485.0
535.0,511.0,553.0,534.0,485.0
527.0,507.0,556.0,536.0,502.0
528.0,510.0,554.0,543.0,514.0
520.0,508.0,544.0,541.0,511.0
516.0,506.0,525.0,532.0,519.0
498.0,502.0,510.0,526.0,531.0
492.0,505.0,497.0,517.0,534.0
488.0,506.0,485.0,513.0,533.0
491.0,508.0,480.0,501.0,532.0
499.0,507.0,479.0,493.0,528.0
510.0,507.0,480.0,490.0,525.0
510.0,506.0,484.0,489.0,518.0
507.0,505.0,487.0,482.0,518.0
517.0,504.0,501.0,489.0,513.0
522.0,503.0,515.0,498.0,505.0
528.0,506.0,530.0,510.0,496.0
535.0,509.0,544.0,525.0,488.0
540.0,510.0,551.0,535.0,486.0
537.0,510.0,554.0,543.0,487.0
527.0,507.0,548.0,541.0,496.0
525.0,510.0,543.0,543.0,506.0
505.0,504.0,520.0,531.0,522.0
492.0,498.0,499.0,517.0,533.0
488.0,503.0,492.0,511.0,532.0
486.0,506.0,486.0,506.0,525.0
487.0,505.0,477.0,497.0,527.0
493.0,506.0,475.0,490.0,526.0
497.0,506.0,480.0,487.0,522.0
497.0,504.0,484.0,483.0,524.0
511.0,502.0,494.0,484.0,517.0
519.0,503.0,507.0,493.0,510.0
525.0,504.0,519.0,501.0,501.0
541.0,509.0,538.0,516.0,490.0
537.0,511.0,549.0,528.0,486.0
531.0,510.0,555.0,536.0,487.0
532.0,509.0,554.0,540.0,497.0
525.0,509.0,547.0,542.0,504.0
513.0,507.0,537.0,540.0,508.0
499.0,501.0,516.0,528.0,522.0
492.0,505.0,500.0,520.0,530.0
490.0,504.0,486.0,511.0,529.0
494.0,505.0,480.0,502.0,526.0
496.0,506.0,477.0,495.0,528.0
499.0,505.0,478.0,490.0,525.0
504.0,504.0,482.0,486.0,520.0
503.0,503.0,485.0,487.0,523.0
514.0,503.0,502.0,487.0,515.0
518.0,504.0,511.0,495.0,506.0
523.0,506.0,525.0,502.0,501.0
527.0,506.0,539.0,518.0,491.0
531.0,510.0,554.0,534.0,487.0
525.0,507.0,554.0,539.0,492.0
527.0,513.0,552.0,542.0,495.0
525.0,506.0,544.0,542.0,499.0
509.0,501.0,526.0,532.0,515.0
493.0,500.0,508.0,521.0,527.0
490.0,503.0,494.0,516.0,530.0
503.0,507.0,483.0,508.0,534.0
497.0,505.0,477.0,498.0,530.0
496.0,504.0,475.0,491.0,527.0
501.0,505.0,479.0,486.0,522.0
511.0,511.0,483.0,485.0,517.0
512.0,504.0,488.0,485.0,517.0
516.0,504.0,501.0,489.0,503.0
527.0,506.0,517.0,500.0,500.0
532.0,512.0,531.0,512.0,496.0
540.0,511.0,549.0,526.0,484.0
538.0,509.0,555.0,536.0,494.0
532.0,509.0,554.0,541.0,497.0
524.0,507.0,548.0,541.0,502.0
515.0,506.0,541.0,541.0,510.0
498.0,500.0,520.0,533.0,526.0
489.0,505.0,502.0,521.0,535.0
488.0,504.0,492.0,514.0,535.0
496.0,506.0,482.0,506.0,527.0
500.0,507.0,478.0,500.0,523.0
501.0,510.0,477.0,493.0,520.0
504.0,505.0,480.0,489.0,517.0
503.0,503.0,484.0,484.0,524.0
506.0,502.0,493.0,486.0,521.0
515.0,504.0,507.0,493.0,510.0
520.0,505.0,520.0,502.0,499.0
528.0,508.0,533.0,516.0,489.0
535.0,510.0,554.0,530.0,486.0
536.0,511.0,556.0,538.0,487.0
537.0,510.0,554.0,546.0,495.0
522.0,507.0,549.0,541.0,503.0
514.0,504.0,535.0,536.0,513.0
497.0,498.0,513.0,525.0,529.0
490.0,503.0,497.0,517.0,537.0
495.0,507.0,488.0,510.0,538.0
502.0,511.0,480.0,503.0,532.0
500.0,506.0,475.0,494.0,527.0
499.0,507.0,479.0,494.0,518.0
502.0,504.0,483.0,488.0,517.0
508.0,504.0,488.0,485.0,517.0
508.0,503.0,499.0,489.0,509.0
517.0,504.0,512.0,497.0,511.0
521.0,505.0,525.0,507.0,497.0
530.0,507.0,541.0,521.0,488.0
535.0,511.0,554.0,535.0,484.0
529.0,510.0,553.0,539.0,486.0
525.0,509.0,552.0,544.0,499.0
526.0,508.0,546.0,543.0,500.0
522.0,502.0,526.0,534.0,518.0
504.0,502.0,507.0,524.0,535.0
499.0,505.0,497.0,517.0,531.0
500.0,508.0,485.0,511.0,530.0
494.0,507.0,479.0,501.0,527.0
496.0,505.0,476.0,492.0,522.0
497.0,504.0,481.0,488.0,524.0
501.0,506.0,484.0,488.0,519.0
507.0,506.0,492.0,487.0,520.0
511.0,501.0,500.0,489.0,515.0
521.0,505.0,517.0,500.0,508.0
528.0,506.0,530.0,511.0,495.0
537.0,514.0,548.0,527.0,490.0
536.0,511.0,553.0,535.0,485.0
536.0,509.0,554.0,541.0,492.0
528.0,509.0,549.0,545.0,502.0
520.0,508.0,545.0,541.0,510.0
503.0,503.0,521.0,532.0,528.0
497.0,502.0,502.0,522.0,534.0
491.0,504.0,492.0,517.0,533.0
492.0,506.0,483.0,510.0,529.0
494.0,507.0,481.0,499.0,532.0
501.0,507.0,479.0,493.0,529.0
500.0,507.0,481.0,489.0,526.0
501.0,504.0,483.0,485.0,519.0
505.0,503.0,493.0,486.0,514.0
519.0,503.0,506.0,495.0,507.0
525.0,505.0,521.0,504.0,496.0
530.0,508.0,537.0,518.0,491.0
537.0,513.0,551.0,531.0,487.0
537.0,509.0,554.0,538.0,485.0
537.0,507.0,552.0,541.0,496.0
524.0,507.0,547.0,542.0,506.0
513.0,508.0,537.0,540.0,518.0
496.0,498.0,515.0,531.0,528.0
490.0,502.0,497.0,519.0,534.0
487.0,504.0,487.0,510.0,534.0
494.0,506.0,483.0,501.0,526.0
495.0,507.0,473.0,495.0,523.0
498.0,507.0,477.0,489.0,523.0
502.0,506.0,482.0,487.0,519.0
505.0,505.0,487.0,485.0,517.0
517.0,502.0,496.0,487.0,512.0
525.0,504.0,515.0,495.0,504.0
528.0,505.0,524.0,505.0,498.0
538.0,507.0,537.0,520.0,491.0
541.0,510.0,554.0,533.0,490.0
532.0,506.0,553.0,539.0,493.0
527.0,510.0,553.0,545.0,495.0
518.0,508.0,546.0,544.0,501.0
503.0,505.0,526.0,534.0,520.0
493.0,502.0,510.0,526.0,531.0
496.0,503.0,494.0,517.0,529.0
494.0,506.0,484.0,508.0,530.0
494.0,508.0,478.0,501.0,532.0
497.0,508.0,477.0,494.0,528.0
499.0,505.0,478.0,488.0,526.0
504.0,507.0,485.0,487.0,522.0
505.0,503.0,488.0,484.0,518.0
513.0,504.0,503.0,491.0,512.0
520.0,504.0,515.0,499.0,506.0
528.0,507.0,532.0,511.0,495.0
535.0,509.0,546.0,526.0,486.0
534.0,510.0,555.0,537.0,482.0
538.0,509.0,554.0,542.0,487.0
529.0,507.0,548.0,544.0,498.0
521.0,507.0,541.0,541.0,513.0
503.0,501.0,518.0,528.0,530.0
497.0,500.0,502.0,520.0,536.0
491.0,504.0,492.0,515.0,543.0
485.0,508.0,484.0,508.0,537.0
482.0,507.0,479.0,500.0,530.0
485.0,508.0,479.0,494.0,524.0
491.0,506.0,485.0,491.0,519.0
496.0,503.0,484.0,485.0,512.0
506.0,503.0,497.0,489.0,510.0
506.0,501.0,506.0,492.0,503.0
522.0,504.0,521.0,503.0,499.0
557.0,511.0,537.0,520.0,486.0
556.0,511.0,552.0,529.0,490.0
539.0,510.0,555.0,538.0,490.0
535.0,511.0,554.0,542.0,498.0
522.0,508.0,548.0,542.0,504.0
514.0,506.0,537.0,538.0,516.0
504.0,502.0,516.0,528.0,532.0
506.0,503.0,499.0,521.0,534.0
497.0,504.0,486.0,508.0,534.0
496.0,507.0,480.0,503.0,532.0
495.0,508.0,478.0,496.0,529.0
499.0,508.0,479.0,492.0,524.0
500.0,506.0,483.0,488.0,516.0
499.0,503.0,490.0,485.0,513.0
509.0,502.0,498.0,488.0,515.0
523.0,506.0,512.0,498.0,510.0
526.0,504.0,525.0,504.0,502.0
527.0,508.0,540.0,521.0,498.0
534.0,513.0,555.0,534.0,487.0
542.0,511.0,557.0,542.0,487.0
528.0,508.0,551.0,541.0,495.0
519.0,510.0,544.0,543.0,507.0
507.0,503.0,526.0,534.0,520.0
493.0,498.0,506.0,523.0,528.0
492.0,504.0,498.0,514.0,533.0
493.0,507.0,481.0,507.0,536.0
504.0,509.0,479.0,500.0,533.0
505.0,509.0,478.0,495.0,532.0
503.0,507.0,479.0,489.0,531.0
506.0,505.0,484.0,486.0,526.0
508.0,505.0,489.0,486.0,521.0
521.0,504.0,503.0,493.0,510.0
521.0,504.0,515.0,501.0,499.0
527.0,509.0,533.0,514.0,495.0
540.0,511.0,547.0,527.0,487.0
543.0,512.0,557.0,539.0,482.0
535.0,508.0,560.0,541.0,488.0
527.0,508.0,550.0,544.0,498.0
520.0,507.0,543.0,542.0,510.0
501.0,501.0,520.0,529.0,528.0
493.0,500.0,500.0,519.0,533.0
490.0,502.0,491.0,514.0,531.0
492.0,506.0,481.0,505.0,528.0
493.0,506.0,477.0,498.0,527.0
496.0,506.0,478.0,492.0,523.0
500.0,509.0,481.0,489.0,518.0
504.0,505.0,486.0,487.0,515.0
505.0,506.0,495.0,486.0,519.0
515.0,502.0,506.0,493.0,512.0
527.0,508.0,520.0,504.0,502.0
531.0,507.0,537.0,517.0,496.0
536.0,509.0,551.0,531.0,491.0
534.0,510.0,557.0,540.0,492.0
524.0,509.0,552.0,545.0,505.0
521.0,511.0,548.0,543.0,511.0
516.0,506.0,536.0,539.0,520.0
498.0,506.0,515.0,526.0,529.0
497.0,503.0,499.0,521.0,535.0
489.0,504.0,485.0,509.0,533.0
489.0,506.0,479.0,507.0,531.0
496.0,506.0,476.0,496.0,524.0
500.0,507.0,479.0,491.0,523.0
502.0,508.0,484.0,488.0,518.0
507.0,506.0,488.0,486.0,523.0
512.0,502.0,498.0,487.0,518.0
519.0,506.0,515.0,499.0,509.0
525.0,505.0,524.0,510.0,498.0
535.0,509.0,541.0,521.0,489.0
541.0,511.0,554.0,534.0,486.0
540.0,512.0,558.0,543.0,487.0
529.0,507.0,551.0,541.0,500.0
522.0,506.0,546.0,546.0,513.0
505.0,502.0,527.0,535.0,525.0
496.0,501.0,508.0,525.0,531.0
495.0,503.0,492.0,512.0,534.0
491.0,507.0,485.0,507.0,534.0
493.0,508.0,479.0,501.0,531.0
498.0,508.0,478.0,495.0,526.0
500.0,507.0,480.0,489.0,525.0
507.0,507.0,485.0,487.0,524.0
511.0,508.0,492.0,487.0,520.0
513.0,507.0,500.0,489.0,510.0
523.0,504.0,517.0,498.0,507.0
532.0,510.0,534.0,513.0,495.0
535.0,509.0,547.0,526.0,489.0
534.0,510.0,556.0,539.0,485.0
530.0,509.0,557.0,543.0,495.0
521.0,507.0,549.0,546.0,503.0
520.0,508.0,547.0,542.0,509.0
507.0,504.0,522.0,532.0,527.0
493.0,502.0,503.0,521.0,533.0
490.0,502.0,489.0,512.0,534.0
492.0,505.0,481.0,503.0,531.0
496.0,507.0,477.0,497.0,532.0
501.0,507.0,478.0,493.0,526.0
501.0,505.0,481.0,488.0,521.0
503.0,505.0,485.0,486.0,512.0
512.0,505.0,495.0,485.0,511.0
517.0,504.0,508.0,495.0,506.0
520.0,505.0,521.0,505.0,496.0
528.0,506.0,537.0,516.0,494.0
537.0,512.0,553.0,532.0,492.0
533.0,511.0,557.0,543.0,493.0
527.0,508.0,553.0,542.0,501.0
519.0,507.0,547.0,542.0,508.0
514.0,505.0,536.0,538.0,517.0
498.0,500.0,511.0,526.0,527.0
493.0,502.0,499.0,519.0,530.0
491.0,502.0,484.0,506.0,532.0
487.0,506.0,480.0,503.0,532.0
486.0,504.0,475.0,494.0,530.0
500.0,507.0,478.0,491.0,522.0
502.0,506.0,482.0,487.0,521.0
503.0,504.0,486.0,484.0,521.0
521.0,502.0,497.0,489.0,516.0
530.0,503.0,512.0,496.0,503.0
530.0,506.0,525.0,512.0,498.0
541.0,509.0,541.0,522.0,494.0
539.0,511.0,554.0,533.0,488.0
536.0,510.0,556.0,541.0,490.0
521.0,505.0,549.0,540.0,502.0
523.0,510.0,546.0,542.0,507.0
504.0,502.0,525.0,532.0,520.0
497.0,504.0,509.0,524.0,529.0
491.0,504.0,494.0,515.0,534.0
492.0,508.0,484.0,508.0,534.0
490.0,509.0,479.0,500.0,532.0
495.0,509.0,479.0,495.0,528.0
506.0,508.0,479.0,489.0,526.0
510.0,510.0,484.0,488.0,520.0
508.0,503.0,489.0,485.0,513.0
511.0,501.0,501.0,489.0,508.0
516.0,505.0,521.0,504.0,503.0
524.0,508.0,530.0,511.0,496.0
544.0,511.0,548.0,529.0,490.0
546.0,509.0,555.0,537.0,489.0
544.0,509.0,555.0,541.0,494.0
535.0,507.0,549.0,545.0,501.0
525.0,506.0,542.0,541.0,505.0
509.0,502.0,519.0,530.0,527.0
496.0,506.0,500.0,520.0,537.0
495.0,503.0,489.0,512.0,536.0
498.0,505.0,482.0,502.0,530.0
495.0,507.0,474.0,495.0,524.0
501.0,508.0,479.0,493.0,519.0
502.0,505.0,480.0,487.0,518.0
508.0,506.0,487.0,487.0,515.0
508.0,502.0,493.0,487.0,507.0
518.0,506.0,508.0,496.0,503.0
527.0,505.0,522.0,503.0,497.0
534.0,507.0,536.0,521.0,492.0
536.0,509.0,549.0,530.0,487.0
537.0,510.0,556.0,541.0,489.0
528.0,506.0,550.0,541.0,497.0
524.0,512.0,548.0,544.0,507.0
514.0,505.0,536.0,536.0,518.0
498.0,503.0,515.0,527.0,532.0
492.0,503.0,499.0,519.0,537.0
495.0,508.0,487.0,511.0,538.0
497.0,507.0,481.0,504.0,530.0
499.0,507.0,476.0,495.0,526.0
498.0,509.0,477.0,489.0,520.0
500.0,505.0,481.0,486.0,515.0
504.0,504.0,487.0,486.0,510.0
507.0,503.0,502.0,490.0,506.0
516.0,504.0,512.0,497.0,508.0
532.0,509.0,527.0,515.0,501.0
535.0,511.0,542.0,523.0,488.0
537.0,511.0,553.0,535.0,493.0
535.0,510.0,555.0,542.0,501.0
528.0,508.0,549.0,542.0,503.0
525.0,508.0,544.0,542.0,502.0
502.0,500.0,522.0,530.0,518.0
490.0,501.0,505.0,521.0,528.0
494.0,504.0,494.0,515.0,534.0
495.0,507.0,483.0,507.0,531.0
497.0,509.0,479.0,500.0,530.0
499.0,509.0,478.0,496.0,522.0
503.0,507.0,479.0,491.0,515.0
507.0,505.0,483.0,487.0,506.0
510.0,503.0,490.0,486.0,511.0
515.0,502.0,502.0,493.0,518.0
523.0,504.0,516.0,499.0,509.0
532.0,509.0,534.0,513.0,501.0
536.0,511.0,548.0,527.0,492.0
537.0,512.0,555.0,538.0,491.0
533.0,510.0,552.0,541.0,493.0
527.0,509.0,548.0,543.0,503.0
520.0,508.0,542.0,543.0,505.0
506.0,503.0,519.0,529.0,522.0
493.0,501.0,500.0,519.0,534.0
491.0,504.0,490.0,512.0,539.0
492.0,511.0,481.0,506.0,533.0
494.0,507.0,477.0,498.0,530.0
500.0,508.0,478.0,495.0,527.0
501.0,505.0,481.0,488.0,524.0
506.0,504.0,486.0,486.0,524.0
510.0,503.0,494.0,486.0,517.0
518.0,505.0,511.0,498.0,512.0
525.0,504.0,521.0,504.0,508.0
534.0,508.0,542.0,518.0,499.0
541.0,512.0,550.0,530.0,489.0
539.0,511.0,556.0,541.0,484.0
528.0,508.0,552.0,546.0,494.0
524.0,509.0,547.0,544.0,502.0
512.0,508.0,534.0,537.0,513.0
502.0,504.0,512.0,529.0,527.0
494.0,503.0,497.0,517.0,531.0
496.0,503.0,485.0,507.0,538.0
496.0,504.0,479.0,500.0,537.0
497.0,507.0,476.0,493.0,533.0
505.0,507.0,478.0,489.0,530.0
510.0,505.0,482.0,485.0,525.0
505.0,503.0,487.0,483.0,521.0
506.0,503.0,500.0,489.0,516.0
513.0,504.0,516.0,498.0,502.0
523.0,506.0,529.0,512.0,488.0
535.0,511.0,541.0,524.0,488.0
533.0,510.0,556.0,540.0,490.0
530.0,511.0,558.0,546.0,493.0
522.0,507.0,550.0,544.0,505.0
524.0,507.0,546.0,542.0,494.0
507.0,499.0,523.0,533.0,513.0
494.0,501.0,508.0,525.0,517.0
486.0,503.0,497.0,520.0,525.0
487.0,504.0,483.0,507.0,528.0
494.0,506.0,478.0,500.0,533.0
494.0,508.0,478.0,495.0,524.0
493.0,508.0,478.0,489.0,524.0
515.0,506.0,484.0,487.0,520.0
517.0,508.0,491.0,486.0,520.0
518.0,503.0,503.0,489.0,514.0
526.0,505.0,520.0,502.0,507.0
539.0,508.0,532.0,513.0,498.0
540.0,507.0,546.0,526.0,494.0
547.0,512.0,555.0,535.0,494.0
543.0,511.0,556.0,542.0,494.0
528.0,507.0,548.0,542.0,501.0
515.0,507.0,542.0,542.0,506.0
507.0,502.0,518.0,529.0,525.0
500.0,503.0,502.0,521.0,534.0
504.0,506.0,490.0,512.0,533.0
494.0,505.0,480.0,502.0,528.0
487.0,504.0,476.0,496.0,532.0
493.0,506.0,478.0,492.0,524.0
492.0,503.0,479.0,486.0,517.0
501.0,503.0,485.0,485.0,512.0
511.0,501.0,495.0,488.0,512.0
517.0,504.0,506.0,492.0,514.0
527.0,504.0,522.0,504.0,516.0
544.0,512.0,540.0,520.0,496.0
548.0,515.0,553.0,532.0,492.0
542.0,512.0,559.0,540.0,498.0
534.0,508.0,551.0,541.0,494.0
527.0,506.0,545.0,541.0,496.0
515.0,502.0,533.0,539.0,514.0
499.0,500.0,512.0,527.0,528.0
513.0,504.0,495.0,521.0,536.0
507.0,506.0,485.0,508.0,545.0
504.0,507.0,479.0,501.0,542.0
504.0,508.0,478.0,497.0,523.0
495.0,506.0,480.0,492.0,510.0
495.0,506.0,481.0,487.0,503.0
505.0,503.0,487.0,485.0,504.0
512.0,502.0,501.0,489.0,518.0
519.0,504.0,513.0,500.0,504.0
527.0,506.0,528.0,510.0,490.0
530.0,509.0,543.0,522.0,481.0
537.0,511.0,555.0,537.0,482.0
535.0,514.0,558.0,544.0,497.0
520.0,505.0,548.0,539.0,514.0
507.0,506.0,542.0,541.0,520.0
489.0,503.0,524.0,532.0,542.0
477.0,502.0,508.0,523.0,540.0
490.0,507.0,495.0,516.0,551.0
485.0,508.0,487.0,513.0,556.0
479.0,508.0,481.0,501.0,550.0
497.0,508.0,480.0,497.0,543.0
505.0,506.0,478.0,483.0,532.0
494.0,498.0,483.0,481.0,503.0
507.0,497.0,488.0,487.0,473.0
530.0,499.0,501.0,495.0,476.0
526.0,503.0,521.0,505.0,487.0
533.0,509.0,534.0,520.0,501.0
523.0,511.0,548.0,527.0,536.0
534.0,510.0,554.0,536.0,512.0
522.0,510.0,554.0,538.0,510.0
519.0,511.0,548.0,540.0,505.0
550.0,516.0,547.0,545.0,517.0
526.0,509.0,523.0,533.0,549.0
506.0,507.0,507.0,525.0,553.0
500.0,508.0,494.0,515.0,530.0
484.0,507.0,485.0,509.0,513.0
487.0,507.0,479.0,499.0,498.0
491.0,507.0,479.0,495.0,475.0
496.0,501.0,475.0,483.0,479.0
506.0,502.0,482.0,484.0,494.0
520.0,501.0,491.0,486.0,514.0
545.0,501.0,505.0,494.0,493.0
547.0,502.0,518.0,501.0,488.0
540.0,507.0,534.0,517.0,483.0
551.0,512.0,550.0,537.0,487.0
543.0,512.0,557.0,543.0,483.0
538.0,509.0,552.0,543.0,486.0
533.0,509.0,548.0,544.0,495.0
528.0,506.0,535.0,538.0,507.0
515.0,504.0,512.0,530.0,520.0
493.0,503.0,498.0,522.0,554.0
498.0,510.0,490.0,513.0,572.0
500.0,511.0,483.0,504.0,553.0
499.0,510.0,481.0,499.0,541.0
490.0,507.0,481.0,492.0,523.0
484.0,499.0,478.0,487.0,466.0
492.0,502.0,487.0,488.0,503.0
504.0,503.0,498.0,484.0,536.0
520.0,505.0,514.0,496.0,495.0
532.0,507.0,529.0,511.0,478.0
538.0,511.0,542.0,523.0,502.0
540.0,512.0,556.0,538.0,494.0
537.0,512.0,555.0,547.0,491.0
525.0,509.0,549.0,548.0,491.0
522.0,508.0,544.0,548.0,514.0
501.0,501.0,523.0,537.0,551.0
493.0,504.0,506.0,526.0,562.0
492.0,504.0,491.0,515.0,548.0
499.0,503.0,479.0,507.0,486.0
505.0,506.0,475.0,502.0,492.0
504.0,504.0,474.0,499.0,516.0
494.0,503.0,472.0,488.0,500.0
499.0,502.0,480.0,488.0,489.0
509.0,505.0,489.0,490.0,480.0
517.0,505.0,501.0,496.0,473.0
532.0,508.0,515.0,507.0,468.0
545.0,511.0,530.0,520.0,489.0
547.0,511.0,544.0,536.0,487.0
543.0,507.0,548.0,540.0,490.0
530.0,510.0,556.0,546.0,516.0
520.0,509.0,552.0,543.0,533.0
519.0,513.0,548.0,546.0,533.0
498.0,504.0,520.0,530.0,556.0
496.0,504.0,501.0,521.0,562.0
501.0,508.0,492.0,512.0,551.0
496.0,514.0,487.0,502.0,574.0
485.0,512.0,482.0,496.0,544.0
478.0,510.0,481.0,494.0,532.0
489.0,510.0,483.0,486.0,579.0
502.0,507.0,489.0,485.0,601.0
513.0,509.0,504.0,499.0,558.0
525.0,513.0,519.0,507.0,497.0
544.0,512.0,529.0,504.0,510.0
527.0,502.0,534.0,520.0,452.0
493.0,500.0,544.0,529.0,463.0
522.0,509.0,558.0,546.0,497.0
519.0,502.0,544.0,535.0,511.0
523.0,507.0,544.0,541.0,504.0
484.0,504.0,534.0,544.0,530.0
457.0,501.0,515.0,541.0,516.0
442.0,503.0,499.0,533.0,568.0
438.0,502.0,487.0,522.0,583.0
472.0,506.0,478.0,508.0,601.0
502.0,510.0,473.0,493.0,600.0
513.0,503.0,474.0,493.0,505.0
492.0,494.0,469.0,484.0,521.0
472.0,495.0,479.0,486.0,521.0
424.0,496.0,496.0,496.0,493.0
408.0,501.0,516.0,509.0,482.0
434.0,502.0,530.0,510.0,504.0
508.0,509.0,545.0,525.0,489.0
631.0,520.0,555.0,535.0,426.0
633.0,518.0,558.0,537.0,445.0
540.0,507.0,548.0,537.0,453.0
499.0,507.0,542.0,529.0,517.0
508.0,505.0,523.0,519.0,552.0
475.0,505.0,510.0,521.0,538.0
499.0,511.0,497.0,518.0,526.0
504.0,505.0,476.0,507.0,555.0
508.0,503.0,474.0,504.0,589.0
506.0,510.0,481.0,507.0,505.0
494.0,504.0,483.0,509.0,418.0
490.0,500.0,483.0,492.0,439.0
527.0,502.0,487.0,487.0,471.0
542.0,504.0,501.0,489.0,548.0
541.0,505.0,518.0,498.0,576.0
556.0,513.0,539.0,516.0,504.0
555.0,509.0,551.0,525.0,484.0
541.0,506.0,553.0,536.0,500.0
529.0,503.0,551.0,536.0,545.0
508.0,499.0,544.0,534.0,601.0
473.0,506.0,546.0,549.0,555.0
473.0,502.0,526.0,552.0,488.0
441.0,492.0,499.0,539.0,476.0
426.0,491.0,482.0,529.0,463.0
501.0,506.0,478.0,516.0,477.0
522.0,513.0,481.0,504.0,526.0
540.0,507.0,474.0,488.0,566.0
527.0,501.0,470.0,474.0,517.0
551.0,503.0,480.0,485.0,448.0
566.0,513.0,498.0,496.0,440.0
574.0,511.0,513.0,495.0,471.0
566.0,516.0,526.0,506.0,483.0
582.0,517.0,541.0,515.0,518.0
586.0,512.0,545.0,511.0,576.0
500.0,501.0,555.0,519.0,567.0
488.0,508.0,560.0,543.0,575.0
536.0,509.0,553.0,549.0,536.0
499.0,487.0,527.0,532.0,478.0
440.0,485.0,506.0,528.0,434.0
461.0,494.0,495.0,519.0,506.0
469.0,496.0,478.0,507.0,497.0
487.0,498.0,469.0,506.0,431.0
489.0,505.0,472.0,507.0,456.0
543.0,522.0,488.0,517.0,468.0
528.0,517.0,486.0,492.0,566.0
521.0,511.0,491.0,492.0,595.0
550.0,504.0,493.0,480.0,592.0
536.0,498.0,504.0,488.0,564.0
548.0,502.0,524.0,509.0,546.0
470.0,498.0,544.0,532.0,559.0
422.0,497.0,554.0,540.0,467.0
419.0,508.0,567.0,555.0,544.0
449.0,509.0,561.0,555.0,633.0
446.0,501.0,546.0,548.0,606.0
449.0,489.0,520.0,546.0,538.0
536.0,482.0,486.0,501.0,464.0
538.0,498.0,484.0,481.0,478.0
523.0,511.0,486.0,510.0,419.0
475.0,507.0,476.0,499.0,456.0
482.0,512.0,476.0,492.0,491.0
483.0,512.0,479.0,499.0,543.0
481.0,507.0,481.0,495.0,552.0
486.0,499.0,482.0,485.0,527.0
498.0,480.0,478.0,465.0,551.0
540.0,498.0,509.0,487.0,504.0
619.0,516.0,542.0,515.0,544.0
629.0,518.0,562.0,532.0,548.0
566.0,518.0,571.0,545.0,581.0
492.0,508.0,565.0,535.0,575.0
468.0,505.0,566.0,551.0,449.0
457.0,501.0,557.0,555.0,397.0
364.0,481.0,520.0,527.0,424.0
349.0,481.0,484.0,493.0,479.0
352.0,498.0,485.0,512.0,569.0
285.0,490.0,473.0,509.0,577.0
286.0,490.0,470.0,519.0,542.0
358.0,484.0,458.0,487.0,642.0
579.0,496.0,458.0,483.0,500.0
517.0,483.0,456.0,457.0,464.0
425.0,480.0,473.0,457.0,489.0
412.0,489.0,498.0,481.0,514.0
380.0,492.0,523.0,505.0,540.0
371.0,504.0,550.0,541.0,493.0
501.0,528.0,575.0,540.0,432.0
570.0,532.0,582.0,531.0,468.0
540.0,518.0,571.0,511.0,480.0
629.0,528.0,570.0,508.0,614.0
598.0,516.0,556.0,515.0,596.0
645.0,508.0,525.0,526.0,586.0
527.0,484.0,491.0,517.0,600.0
403.0,480.0,477.0,507.0,536.0
354.0,481.0,461.0,503.0,420.0
236.0,473.0,452.0,501.0,497.0
92.0,473.0,453.0,498.0,730.0
86.0,477.0,456.0,510.0,730.0
149.0,471.0,453.0,502.0,435.0
267.0,482.0,475.0,498.0,376.0
583.0,499.0,501.0,474.0,506.0
716.0,530.0,541.0,509.0,368.0
801.0,528.0,561.0,530.0,260.0
798.0,522.0,568.0,492.0,406.0
696.0,516.0,571.0,512.0,528.0
625.0,516.0,576.0,537.0,461.0
598.0,526.0,581.0,551.0,462.0
543.0,520.0,557.0,545.0,506.0
476.0,512.0,527.0,519.0,582.0
446.0,508.0,501.0,499.0,602.0
395.0,491.0,471.0,482.0,662.0
475.0,491.0,458.0,491.0,586.0
562.0,495.0,455.0,491.0,533.0
615.0,487.0,451.0,491.0,503.0
555.0,489.0,462.0,481.0,607.0
547.0,495.0,478.0,493.0,578.0
430.0,491.0,501.0,516.0,550.0
398.0,516.0,540.0,520.0,619.0
369.0,520.0,567.0,544.0,615.0
370.0,484.0,543.0,525.0,435.0
614.0,504.0,551.0,529.0,267.0
834.0,543.0,579.0,563.0,261.0
747.0,519.0,552.0,530.0,405.0
649.0,514.0,544.0,520.0,480.0
589.0,523.0,543.0,528.0,447.0
605.0,520.0,511.0,503.0,569.0
609.0,503.0,482.0,492.0,601.0
626.0,498.0,468.0,492.0,497.0
571.0,495.0,467.0,491.0,529.0
567.0,499.0,468.0,491.0,519.0
514.0,489.0,463.0,485.0,578.0
509.0,485.0,470.0,494.0,522.0
577.0,493.0,480.0,480.0,514.0
626.0,508.0,509.0,503.0,426.0
565.0,515.0,532.0,518.0,498.0
472.0,519.0,557.0,546.0,518.0
367.0,519.0,572.0,544.0,535.0
457.0,534.0,579.0,541.0,601.0
489.0,527.0,573.0,539.0,579.0
467.0,498.0,541.0,532.0,441.0
459.0,487.0,515.0,525.0,555.0
443.0,489.0,505.0,530.0,722.0
460.0,498.0,488.0,517.0,546.0
459.0,487.0,474.0,491.0,409.0
664.0,520.0,487.0,529.0,310.0
635.0,516.0,481.0,531.0,474.0
484.0,486.0,464.0,491.0,606.0
458.0,487.0,468.0,466.0,517.0
496.0,496.0,484.0,490.0,507.0
495.0,495.0,496.0,481.0,517.0
432.0,500.0,516.0,496.0,476.0
439.0,498.0,526.0,497.0,471.0
449.0,494.0,535.0,518.0,542.0
494.0,512.0,557.0,522.0,626.0
494.0,524.0,567.0,544.0,597.0
410.0,492.0,542.0,548.0,574.0
498.0,503.0,536.0,537.0,419.0
604.0,521.0,535.0,553.0,292.0
469.0,511.0,510.0,512.0,488.0
367.0,501.0,487.0,495.0,585.0
378.0,497.0,479.0,497.0,523.0
422.0,491.0,470.0,486.0,525.0
566.0,494.0,474.0,492.0,430.0
611.0,501.0,475.0,482.0,593.0
619.0,517.0,496.0,514.0,486.0
580.0,507.0,503.0,517.0,528.0
439.0,488.0,504.0,496.0,525.0
372.0,492.0,517.0,504.0,553.0
474.0,511.0,540.0,518.0,471.0
477.0,529.0,562.0,538.0,523.0
596.0,525.0,562.0,555.0,431.0
554.0,505.0,549.0,535.0,425.0
499.0,511.0,541.0,511.0,527.0
543.0,517.0,538.0,512.0,682.0
428.0,503.0,525.0,548.0,673.0
374.0,473.0,487.0,536.0,576.0
383.0,465.0,469.0,517.0,368.0
602.0,537.0,500.0,544.0,225.0
639.0,547.0,506.0,511.0,524.0
602.0,510.0,478.0,466.0,718.0
476.0,475.0,462.0,467.0,560.0
436.0,486.0,481.0,473.0,497.0
490.0,507.0,512.0,507.0,490.0
468.0,508.0,519.0,498.0,481.0
465.0,509.0,522.0,498.0,454.0
553.0,522.0,542.0,514.0,466.0
570.0,516.0,545.0,522.0,464.0
512.0,502.0,539.0,525.0,449.0
457.0,491.0,533.0,549.0,432.0
520.0,497.0,544.0,586.0,381.0
602.0,511.0,537.0,564.0,538.0
548.0,511.0,513.0,525.0,639.0
627.0,530.0,506.0,516.0,635.0
520.0,503.0,484.0,501.0,513.0
611.0,510.0,486.0,513.0,551.0
592.0,516.0,490.0,513.0,576.0
607.0,518.0,492.0,505.0,578.0
650.0,501.0,477.0,473.0,473.0
561.0,502.0,486.0,459.0,648.0
391.0,488.0,495.0,490.0,570.0
331.0,482.0,512.0,502.0,499.0
434.0,500.0,525.0,511.0,540.0
634.0,532.0,552.0,541.0,456.0
702.0,538.0,559.0,540.0,507.0
548.0,508.0,538.0,521.0,399.0
503.0,508.0,541.0,541.0,396.0
508.0,512.0,535.0,535.0,495.0
505.0,502.0,514.0,519.0,578.0
488.0,499.0,506.0,540.0,648.0
437.0,501.0,496.0,536.0,553.0
353.0,499.0,487.0,548.0,394.0
356.0,495.0,481.0,517.0,403.0
481.0,494.0,471.0,487.0,478.0
528.0,489.0,463.0,457.0,516.0
705.0,525.0,487.0,475.0,538.0
648.0,512.0,491.0,487.0,578.0
623.0,506.0,503.0,505.0,494.0
436.0,478.0,494.0,502.0,504.0
292.0,473.0,514.0,482.0,553.0
416.0,511.0,549.0,524.0,577.0
448.0,514.0,551.0,553.0,576.0
565.0,518.0,548.0,566.0,473.0
610.0,523.0,538.0,516.0,443.0
595.0,518.0,536.0,520.0,499.0
448.0,500.0,517.0,522.0,596.0
536.0,494.0,499.0,521.0,493.0
636.0,511.0,488.0,509.0,484.0
552.0,517.0,488.0,509.0,495.0
497.0,515.0,492.0,514.0,493.0
478.0,522.0,500.0,511.0,520.0
527.0,504.0,484.0,488.0,570.0
625.0,508.0,491.0,507.0,502.0
691.0,516.0,502.0,503.0,406.0
586.0,511.0,510.0,500.0,397.0
500.0,497.0,514.0,491.0,529.0
489.0,504.0,534.0,522.0,594.0
451.0,495.0,538.0,523.0,624.0
536.0,517.0,562.0,571.0,375.0
515.0,517.0,554.0,561.0,379.0
597.0,515.0,539.0,527.0,522.0
650.0,514.0,520.0,531.0,488.0
529.0,489.0,497.0,520.0,611.0
326.0,479.0,485.0,506.0,552.0
381.0,507.0,492.0,513.0,590.0
517.0,518.0,495.0,523.0,614.0
536.0,504.0,478.0,497.0,532.0
472.0,497.0,482.0,511.0,378.0
432.0,490.0,481.0,498.0,472.0
483.0,495.0,486.0,487.0,607.0
462.0,497.0,496.0,488.0,549.0
437.0,504.0,517.0,501.0,418.0
381.0,526.0,549.0,520.0,483.0
355.0,505.0,540.0,518.0,524.0
592.0,513.0,547.0,553.0,450.0
561.0,509.0,542.0,559.0,423.0
445.0,488.0,531.0,536.0,477.0
711.0,527.0,537.0,519.0,560.0
769.0,525.0,521.0,521.0,534.0
576.0,503.0,498.0,521.0,517.0
483.0,492.0,483.0,507.0,549.0
501.0,499.0,480.0,510.0,570.0
602.0,510.0,480.0,494.0,613.0
541.0,507.0,482.0,500.0,518.0
518.0,504.0,479.0,505.0,524.0
558.0,516.0,495.0,492.0,521.0
527.0,514.0,502.0,498.0,490.0
543.0,513.0,507.0,472.0,487.0
574.0,512.0,523.0,496.0,496.0
553.0,508.0,533.0,511.0,501.0
520.0,509.0,546.0,525.0,469.0
496.0,506.0,545.0,537.0,459.0
491.0,505.0,539.0,542.0,476.0
498.0,502.0,536.0,540.0,509.0
524.0,509.0,535.0,542.0,586.0
460.0,497.0,510.0,528.0,575.0
511.0,501.0,492.0,508.0,556.0
536.0,502.0,491.0,519.0,438.0
562.0,514.0,488.0,515.0,438.0
587.0,513.0,481.0,496.0,471.0
556.0,510.0,484.0,499.0,479.0
503.0,496.0,482.0,491.0,511.0
529.0,505.0,491.0,497.0,465.0
479.0,503.0,501.0,487.0,563.0
460.0,502.0,515.0,509.0,579.0
495.0,499.0,520.0,517.0,554.0
570.0,504.0,529.0,513.0,574.0
474.0,505.0,543.0,531.0,522.0
403.0,495.0,542.0,547.0,500.0
367.0,486.0,527.0,548.0,498.0
443.0,505.0,530.0,541.0,532.0
507.0,520.0,529.0,552.0,482.0
440.0,495.0,500.0,513.0,522.0
298.0,491.0,495.0,516.0,510.0
315.0,494.0,490.0,513.0,565.0
553.0,517.0,486.0,503.0,468.0
714.0,522.0,479.0,497.0,455.0
633.0,518.0,481.0,481.0,499.0
598.0,503.0,481.0,481.0,518.0
557.0,496.0,485.0,492.0,501.0
559.0,496.0,497.0,511.0,496.0
529.0,501.0,518.0,528.0,469.0
580.0,513.0,530.0,506.0,538.0
547.0,513.0,538.0,509.0,510.0
517.0,514.0,553.0,537.0,480.0
430.0,510.0,551.0,542.0,536.0
430.0,499.0,534.0,528.0,574.0
524.0,513.0,538.0,539.0,524.0
588.0,508.0,512.0,526.0,492.0
616.0,517.0,508.0,519.0,570.0
559.0,504.0,489.0,510.0,612.0
497.0,498.0,481.0,503.0,618.0
524.0,506.0,481.0,513.0,463.0
587.0,516.0,480.0,498.0,441.0
560.0,502.0,477.0,479.0,505.0
496.0,501.0,491.0,511.0,505.0
472.0,503.0,500.0,505.0,553.0
479.0,514.0,511.0,492.0,536.0
486.0,510.0,524.0,497.0,561.0
558.0,514.0,535.0,515.0,498.0
603.0,524.0,549.0,533.0,423.0
652.0,527.0,555.0,548.0,425.0
608.0,518.0,552.0,552.0,382.0
485.0,497.0,529.0,528.0,583.0
422.0,503.0,532.0,543.0,533.0
451.0,494.0,512.0,529.0,553.0
487.0,495.0,497.0,525.0,519.0
472.0,503.0,491.0,516.0,486.0
461.0,492.0,475.0,504.0,456.0
474.0,497.0,474.0,490.0,518.0
500.0,505.0,482.0,482.0,595.0
521.0,517.0,495.0,495.0,639.0
440.0,509.0,497.0,503.0,630.0
473.0,497.0,492.0,489.0,520.0
355.0,488.0,510.0,502.0,454.0
411.0,492.0,519.0,502.0,451.0
523.0,509.0,535.0,522.0,447.0
517.0,512.0,549.0,545.0,484.0
599.0,519.0,553.0,558.0,460.0
586.0,518.0,542.0,545.0,503.0
521.0,508.0,534.0,531.0,540.0
476.0,505.0,522.0,531.0,509.0
503.0,502.0,509.0,529.0,567.0
475.0,502.0,500.0,515.0,572.0
444.0,507.0,493.0,516.0,509.0
574.0,504.0,477.0,491.0,547.0
580.0,499.0,472.0,506.0,485.0
567.0,500.0,479.0,514.0,414.0
577.0,505.0,488.0,499.0,404.0
631.0,510.0,496.0,483.0,431.0
561.0,499.0,495.0,469.0,560.0
518.0,500.0,510.0,486.0,553.0
559.0,510.0,527.0,505.0,525.0
569.0,522.0,546.0,529.0,492.0
559.0,517.0,554.0,538.0,533.0
532.0,515.0,555.0,554.0,508.0
480.0,506.0,543.0,549.0,517.0
539.0,521.0,541.0,545.0,493.0
569.0,512.0,523.0,534.0,525.0
536.0,494.0,497.0,521.0,591.0
422.0,504.0,492.0,509.0,571.0
439.0,496.0,483.0,502.0,501.0
470.0,484.0,472.0,497.0,542.0
481.0,504.0,482.0,500.0,571.0
525.0,515.0,487.0,490.0,479.0
526.0,503.0,487.0,486.0,492.0
532.0,505.0,499.0,497.0,478.0
538.0,508.0,512.0,498.0,538.0
550.0,507.0,518.0,502.0,482.0
550.0,509.0,535.0,515.0,464.0
563.0,512.0,540.0,527.0,485.0
534.0,514.0,552.0,538.0,534.0
523.0,513.0,552.0,548.0,519.0
476.0,500.0,535.0,549.0,490.0
435.0,500.0,531.0,551.0,522.0
389.0,498.0,514.0,536.0,536.0
478.0,507.0,506.0,532.0,491.0
567.0,510.0,491.0,510.0,565.0
516.0,510.0,484.0,505.0,569.0
487.0,505.0,481.0,491.0,552.0
496.0,506.0,478.0,493.0,516.0
495.0,497.0,483.0,492.0,517.0
492.0,500.0,492.0,487.0,559.0
488.0,496.0,496.0,484.0,567.0
503.0,490.0,506.0,505.0,505.0
549.0,504.0,524.0,507.0,437.0
561.0,509.0,539.0,522.0,505.0
559.0,521.0,558.0,554.0,494.0
557.0,520.0,553.0,540.0,489.0
613.0,522.0,546.0,535.0,412.0
588.0,512.0,539.0,549.0,489.0
474.0,505.0,525.0,548.0,478.0
450.0,496.0,505.0,525.0,560.0
410.0,500.0,488.0,492.0,665.0
511.0,506.0,483.0,504.0,616.0
460.0,506.0,487.0,516.0,554.0
415.0,491.0,477.0,491.0,561.0
446.0,508.0,488.0,495.0,400.0
568.0,508.0,486.0,480.0,486.0
495.0,492.0,483.0,470.0,526.0
471.0,490.0,491.0,480.0,502.0
518.0,507.0,514.0,501.0,449.0
568.0,517.0,533.0,527.0,407.0
587.0,511.0,544.0,534.0,472.0
604.0,522.0,556.0,547.0,525.0
565.0,529.0,561.0,552.0,533.0
529.0,525.0,556.0,578.0,456.0
515.0,507.0,542.0,569.0,457.0
513.0,497.0,513.0,529.0,565.0
487.0,502.0,502.0,501.0,502.0
493.0,504.0,492.0,513.0,468.0
504.0,493.0,478.0,498.0,560.0
511.0,497.0,474.0,485.0,575.0
522.0,504.0,481.0,497.0,507.0
537.0,503.0,479.0,489.0,506.0
525.0,498.0,480.0,466.0,592.0
499.0,498.0,490.0,468.0,609.0
475.0,508.0,513.0,503.0,487.0
483.0,498.0,517.0,509.0,480.0
515.0,514.0,536.0,519.0,483.0
558.0,519.0,550.0,524.0,482.0
551.0,517.0,552.0,543.0,503.0
568.0,523.0,557.0,553.0,511.0
557.0,523.0,550.0,554.0,494.0
579.0,512.0,539.0,547.0,476.0
497.0,490.0,507.0,526.0,499.0
415.0,488.0,494.0,513.0,539.0
446.0,500.0,486.0,505.0,570.0
531.0,503.0,479.0,496.0,558.0
521.0,490.0,473.0,496.0,546.0
472.0,491.0,474.0,493.0,466.0
481.0,495.0,481.0,489.0,479.0
554.0,514.0,494.0,487.0,538.0
610.0,523.0,510.0,505.0,543.0
536.0,508.0,519.0,513.0,496.0
500.0,500.0,521.0,502.0,558.0
491.0,506.0,542.0,519.0,527.0
469.0,503.0,544.0,536.0,435.0
467.0,503.0,545.0,528.0,485.0
539.0,515.0,547.0,543.0,472.0
569.0,518.0,544.0,547.0,482.0
432.0,501.0,528.0,539.0,508.0
413.0,502.0,517.0,529.0,525.0
506.0,515.0,511.0,530.0,524.0
586.0,509.0,488.0,511.0,571.0
556.0,508.0,480.0,501.0,569.0
554.0,518.0,489.0,506.0,528.0
534.0,510.0,486.0,503.0,513.0
448.0,486.0,475.0,482.0,529.0
432.0,480.0,479.0,470.0,524.0
492.0,503.0,500.0,485.0,428.0
534.0,507.0,518.0,510.0,458.0
554.0,521.0,536.0,527.0,499.0
543.0,513.0,543.0,523.0,537.0
523.0,513.0,552.0,528.0,523.0
471.0,518.0,558.0,553.0,450.0
445.0,513.0,549.0,549.0,461.0
523.0,517.0,541.0,543.0,501.0
600.0,508.0,520.0,531.0,504.0
607.0,494.0,492.0,514.0,539.0
525.0,505.0,491.0,511.0,526.0
466.0,496.0,480.0,500.0,578.0
411.0,490.0,471.0,486.0,618.0
488.0,505.0,487.0,500.0,522.0
540.0,510.0,494.0,492.0,520.0
549.0,506.0,493.0,487.0,473.0
534.0,499.0,497.0,499.0,478.0
545.0,511.0,507.0,487.0,539.0
558.0,512.0,524.0,500.0,542.0
559.0,517.0,537.0,513.0,527.0
552.0,521.0,552.0,533.0,512.0
502.0,510.0,554.0,549.0,524.0
553.0,513.0,549.0,569.0,444.0
560.0,505.0,538.0,555.0,477.0
518.0,500.0,530.0,556.0,531.0
413.0,496.0,511.0,503.0,509.0
407.0,494.0,493.0,512.0,514.0
404.0,492.0,482.0,516.0,539.0
484.0,507.0,493.0,526.0,506.0
528.0,508.0,485.0,497.0,558.0
515.0,496.0,479.0,478.0,550.0
563.0,505.0,484.0,471.0,486.0
562.0,508.0,494.0,481.0,518.0
551.0,508.0,505.0,485.0,534.0
559.0,506.0,516.0,504.0,496.0
524.0,502.0,523.0,503.0,545.0
549.0,515.0,540.0,523.0,487.0
547.0,512.0,547.0,534.0,436.0
545.0,516.0,553.0,548.0,502.0
524.0,514.0,546.0,549.0,523.0
495.0,502.0,536.0,541.0,488.0
486.0,500.0,520.0,531.0,509.0
493.0,507.0,510.0,526.0,522.0
517.0,511.0,499.0,520.0,500.0
466.0,506.0,494.0,521.0,479.0
419.0,496.0,485.0,513.0,552.0
420.0,501.0,486.0,496.0,601.0
564.0,518.0,494.0,486.0,542.0
517.0,495.0,481.0,484.0,545.0
541.0,494.0,486.0,475.0,542.0
448.0,492.0,500.0,495.0,476.0
511.0,503.0,515.0,491.0,495.0
629.0,523.0,538.0,522.0,438.0
624.0,521.0,543.0,522.0,483.0
552.0,517.0,551.0,532.0,493.0
512.0,515.0,555.0,552.0,477.0
535.0,516.0,551.0,548.0,494.0
538.0,510.0,535.0,541.0,496.0
542.0,502.0,513.0,526.0,500.0
535.0,504.0,498.0,521.0,524.0
493.0,499.0,490.0,512.0,565.0
466.0,502.0,484.0,507.0,533.0
495.0,507.0,480.0,501.0,505.0
499.0,509.0,487.0,499.0,529.0
488.0,513.0,490.0,490.0,552.0
421.0,498.0,493.0,486.0,563.0
432.0,490.0,491.0,482.0,544.0
496.0,495.0,503.0,490.0,528.0
559.0,512.0,521.0,506.0,500.0
577.0,515.0,534.0,517.0,472.0
604.0,525.0,552.0,535.0,480.0
571.0,518.0,553.0,541.0,527.0
540.0,509.0,552.0,554.0,489.0
497.0,503.0,540.0,555.0,496.0
441.0,497.0,530.0,562.0,479.0
354.0,484.0,507.0,546.0,496.0
441.0,503.0,497.0,512.0,583.0
562.0,521.0,493.0,496.0,532.0
587.0,519.0,489.0,493.0,513.0
551.0,504.0,483.0,492.0,512.0
504.0,497.0,480.0,490.0,518.0
521.0,496.0,482.0,485.0,547.0
533.0,500.0,487.0,478.0,526.0
533.0,504.0,501.0,484.0,541.0
522.0,498.0,508.0,494.0,483.0
553.0,511.0,526.0,505.0,476.0
559.0,516.0,540.0,522.0,463.0
549.0,515.0,555.0,539.0,487.0
565.0,522.0,558.0,548.0,512.0
528.0,518.0,552.0,552.0,526.0
529.0,512.0,537.0,543.0,448.0
524.0,499.0,516.0,528.0,460.0
477.0,497.0,507.0,536.0,574.0
452.0,501.0,499.0,530.0,525.0
465.0,499.0,486.0,513.0,507.0
525.0,504.0,478.0,495.0,508.0
533.0,500.0,478.0,488.0,531.0
487.0,497.0,481.0,482.0,543.0
515.0,507.0,486.0,485.0,505.0
587.0,509.0,496.0,484.0,547.0
557.0,501.0,504.0,488.0,516.0
494.0,498.0,517.0,497.0,527.0
483.0,513.0,534.0,518.0,498.0
497.0,516.0,545.0,531.0,510.0
507.0,512.0,551.0,545.0,477.0
555.0,520.0,550.0,539.0,445.0
546.0,514.0,541.0,538.0,486.0
539.0,510.0,535.0,549.0,470.0
504.0,500.0,513.0,536.0,499.0
475.0,496.0,496.0,519.0,576.0
484.0,502.0,490.0,515.0,536.0
485.0,507.0,488.0,514.0,533.0
491.0,508.0,485.0,502.0,525.0
505.0,509.0,490.0,501.0,517.0
512.0,514.0,496.0,494.0,534.0
510.0,508.0,492.0,490.0,521.0
472.0,499.0,498.0,500.0,523.0
519.0,496.0,500.0,481.0,529.0
529.0,501.0,514.0,500.0,522.0
555.0,512.0,534.0,514.0,498.0
550.0,514.0,548.0,531.0,489.0
546.0,514.0,551.0,543.0,469.0
549.0,511.0,547.0,537.0,510.0
535.0,507.0,537.0,543.0,492.0
507.0,504.0,529.0,544.0,525.0
496.0,500.0,511.0,526.0,545.0
475.0,501.0,500.0,519.0,557.0
511.0,506.0,495.0,514.0,527.0
477.0,506.0,488.0,508.0,516.0
482.0,499.0,479.0,497.0,525.0
504.0,504.0,483.0,498.0,540.0
513.0,498.0,483.0,495.0,483.0
522.0,502.0,492.0,484.0,498.0
534.0,504.0,504.0,484.0,542.0
514.0,506.0,513.0,493.0,563.0
525.0,513.0,529.0,503.0,553.0
514.0,514.0,542.0,523.0,521.0
503.0,513.0,549.0,532.0,422.0
532.0,515.0,551.0,541.0,444.0
528.0,508.0,545.0,546.0,478.0
543.0,506.0,535.0,543.0,479.0
543.0,504.0,522.0,538.0,519.0
523.0,509.0,514.0,527.0,549.0
528.0,513.0,505.0,523.0,550.0
487.0,503.0,491.0,509.0,510.0
492.0,498.0,482.0,494.0,560.0
491.0,501.0,481.0,495.0,494.0
527.0,506.0,485.0,493.0,478.0
502.0,497.0,482.0,482.0,512.0
525.0,501.0,492.0,486.0,493.0
516.0,499.0,504.0,489.0,513.0
524.0,506.0,517.0,498.0,528.0
538.0,511.0,533.0,517.0,504.0
544.0,516.0,547.0,531.0,481.0
550.0,516.0,554.0,544.0,463.0
529.0,517.0,553.0,551.0,469.0
535.0,514.0,545.0,549.0,482.0
531.0,509.0,536.0,540.0,522.0
541.0,501.0,516.0,532.0,523.0
510.0,497.0,500.0,525.0,521.0
477.0,495.0,488.0,512.0,566.0
470.0,499.0,485.0,503.0,592.0
483.0,501.0,478.0,491.0,564.0
501.0,506.0,488.0,503.0,491.0
503.0,506.0,492.0,494.0,516.0
505.0,503.0,492.0,489.0,536.0
498.0,503.0,497.0,488.0,513.0
503.0,508.0,517.0,499.0,542.0
501.0,504.0,525.0,498.0,503.0
545.0,511.0,535.0,514.0,491.0
543.0,512.0,547.0,533.0,490.0
526.0,512.0,552.0,546.0,480.0
526.0,518.0,554.0,554.0,475.0
513.0,509.0,542.0,550.0,487.0
535.0,507.0,531.0,535.0,490.0
539.0,501.0,509.0,524.0,535.0
491.0,497.0,494.0,514.0,545.0
485.0,497.0,485.0,509.0,538.0
487.0,503.0,485.0,503.0,526.0
488.0,501.0,482.0,498.0,534.0
520.0,507.0,486.0,492.0,512.0
509.0,503.0,487.0,487.0,514.0
496.0,496.0,487.0,479.0,520.0
505.0,501.0,502.0,489.0,511.0
531.0,506.0,516.0,503.0,502.0
539.0,508.0,527.0,509.0,490.0
556.0,512.0,540.0,526.0,484.0
551.0,514.0,551.0,537.0,485.0
554.0,517.0,554.0,549.0,484.0
542.0,512.0,547.0,549.0,493.0
523.0,508.0,535.0,540.0,512.0
504.0,498.0,521.0,533.0,531.0
499.0,498.0,505.0,525.0,536.0
495.0,500.0,495.0,519.0,528.0
484.0,498.0,483.0,508.0,534.0
493.0,504.0,482.0,499.0,529.0
502.0,506.0,483.0,491.0,534.0
520.0,509.0,488.0,494.0,532.0
510.0,502.0,490.0,479.0,534.0
502.0,500.0,495.0,483.0,531.0
499.0,502.0,506.0,493.0,498.0
523.0,504.0,519.0,503.0,491.0
526.0,510.0,534.0,517.0,489.0
537.0,515.0,545.0,529.0,486.0
561.0,517.0,553.0,541.0,477.0
557.0,516.0,555.0,547.0,498.0
538.0,506.0,542.0,544.0,508.0
518.0,506.0,536.0,546.0,507.0
496.0,498.0,513.0,531.0,521.0
492.0,499.0,500.0,522.0,531.0
492.0,501.0,493.0,513.0,520.0
485.0,499.0,486.0,505.0,518.0
487.0,500.0,486.0,497.0,545.0
502.0,506.0,486.0,494.0,535.0
509.0,504.0,488.0,490.0,523.0
507.0,498.0,486.0,483.0,521.0
511.0,502.0,499.0,484.0,516.0
518.0,505.0,512.0,496.0,507.0
525.0,505.0,521.0,504.0,501.0
533.0,512.0,538.0,524.0,492.0
543.0,515.0,547.0,534.0,488.0
550.0,517.0,554.0,546.0,484.0
539.0,514.0,552.0,551.0,495.0
522.0,508.0,540.0,542.0,504.0
515.0,505.0,530.0,538.0,514.0
494.0,500.0,510.0,527.0,528.0
479.0,499.0,497.0,519.0,534.0
471.0,500.0,488.0,512.0,535.0
481.0,502.0,483.0,503.0,535.0
493.0,503.0,481.0,496.0,533.0
511.0,507.0,487.0,495.0,524.0
500.0,503.0,489.0,487.0,525.0
508.0,501.0,491.0,484.0,523.0
530.0,504.0,503.0,490.0,509.0
529.0,506.0,519.0,503.0,505.0
537.0,508.0,529.0,509.0,500.0
541.0,514.0,542.0,525.0,488.0
546.0,520.0,553.0,539.0,490.0
556.0,517.0,556.0,548.0,490.0
538.0,515.0,546.0,553.0,491.0
527.0,506.0,536.0,543.0,513.0
512.0,500.0,520.0,537.0,531.0
493.0,499.0,505.0,524.0,540.0
490.0,499.0,493.0,516.0,520.0
497.0,504.0,487.0,508.0,529.0
495.0,504.0,482.0,499.0,538.0
501.0,504.0,485.0,500.0,527.0
503.0,504.0,485.0,492.0,517.0
505.0,499.0,487.0,485.0,523.0
512.0,502.0,495.0,487.0,513.0
523.0,505.0,507.0,494.0,506.0
525.0,504.0,519.0,502.0,498.0
538.0,510.0,532.0,516.0,491.0
545.0,514.0,547.0,531.0,484.0
546.0,515.0,554.0,543.0,486.0
542.0,515.0,553.0,550.0,489.0
528.0,510.0,544.0,547.0,503.0
520.0,507.0,536.0,544.0,510.0
505.0,501.0,517.0,533.0,532.0
493.0,500.0,501.0,523.0,543.0
494.0,502.0,492.0,517.0,528.0
496.0,503.0,485.0,509.0,520.0
495.0,504.0,483.0,499.0,536.0
499.0,506.0,486.0,496.0,547.0
506.0,506.0,488.0,491.0,534.0
508.0,502.0,491.0,490.0,504.0
515.0,504.0,497.0,492.0,498.0
527.0,508.0,512.0,500.0,502.0
528.0,507.0,521.0,508.0,495.0
538.0,512.0,538.0,526.0,487.0
545.0,516.0,551.0,538.0,479.0
542.0,514.0,554.0,547.0,485.0
538.0,514.0,552.0,553.0,492.0
527.0,508.0,541.0,550.0,499.0
520.0,503.0,529.0,543.0,512.0
504.0,499.0,511.0,532.0,526.0
489.0,500.0,496.0,522.0,534.0
494.0,502.0,489.0,517.0,528.0
497.0,503.0,484.0,512.0,528.0
497.0,504.0,481.0,499.0,522.0
500.0,506.0,487.0,498.0,518.0
506.0,505.0,489.0,493.0,521.0
508.0,498.0,491.0,488.0,527.0
518.0,503.0,503.0,494.0,510.0
532.0,508.0,518.0,506.0,501.0
536.0,509.0,529.0,518.0,495.0
540.0,513.0,542.0,532.0,487.0
542.0,515.0,553.0,551.0,487.0
539.0,516.0,557.0,553.0,489.0
533.0,512.0,548.0,551.0,490.0
530.0,509.0,539.0,553.0,501.0
518.0,502.0,522.0,545.0,515.0
501.0,499.0,507.0,530.0,527.0
491.0,499.0,493.0,523.0,529.0
492.0,503.0,487.0,519.0,524.0
490.0,504.0,482.0,508.0,528.0
494.0,506.0,485.0,502.0,530.0
498.0,507.0,489.0,501.0,523.0
505.0,502.0,488.0,490.0,520.0
522.0,504.0,496.0,492.0,516.0
523.0,504.0,508.0,505.0,511.0
530.0,506.0,519.0,509.0,499.0
540.0,510.0,535.0,525.0,492.0
543.0,514.0,544.0,539.0,482.0
544.0,514.0,550.0,551.0,484.0
542.0,514.0,552.0,558.0,487.0
534.0,509.0,544.0,556.0,502.0
525.0,508.0,534.0,558.0,510.0
506.0,502.0,515.0,546.0,525.0
497.0,501.0,500.0,532.0,531.0
495.0,503.0,492.0,527.0,533.0
496.0,505.0,487.0,517.0,533.0
496.0,507.0,483.0,507.0,530.0
505.0,509.0,488.0,505.0,523.0
507.0,504.0,489.0,500.0,513.0
511.0,503.0,491.0,495.0,516.0
519.0,504.0,505.0,497.0,511.0
525.0,505.0,513.0,505.0,502.0
533.0,510.0,524.0,517.0,497.0
539.0,512.0,536.0,531.0,489.0
545.0,515.0,549.0,546.0,485.0
543.0,519.0,552.0,556.0,486.0
536.0,513.0,547.0,557.0,491.0
527.0,507.0,539.0,557.0,503.0
519.0,504.0,527.0,552.0,513.0
507.0,501.0,510.0,539.0,524.0
495.0,500.0,495.0,534.0,528.0
495.0,503.0,488.0,521.0,530.0
498.0,506.0,484.0,514.0,529.0
498.0,504.0,482.0,507.0,525.0
506.0,508.0,489.0,507.0,519.0
510.0,505.0,490.0,497.0,518.0
510.0,502.0,492.0,495.0,523.0
516.0,503.0,503.0,503.0,513.0
527.0,507.0,516.0,510.0,504.0
534.0,510.0,528.0,527.0,489.0
542.0,513.0,539.0,536.0,480.0
544.0,514.0,549.0,555.0,481.0
541.0,514.0,551.0,557.0,488.0
535.0,512.0,545.0,559.0,497.0
522.0,506.0,534.0,555.0,505.0
506.0,500.0,515.0,545.0,518.0
497.0,501.0,502.0,535.0,527.0
495.0,501.0,493.0,527.0,532.0
495.0,504.0,486.0,519.0,530.0
498.0,506.0,484.0,515.0,531.0
501.0,506.0,486.0,511.0,525.0
506.0,507.0,488.0,505.0,516.0
509.0,503.0,489.0,500.0,518.0
512.0,504.0,496.0,499.0,510.0
525.0,509.0,508.0,507.0,507.0
530.0,507.0,520.0,518.0,503.0
539.0,514.0,534.0,531.0,492.0
543.0,513.0,545.0,545.0,486.0
546.0,513.0,548.0,554.0,483.0
544.0,513.0,547.0,559.0,487.0
530.0,509.0,540.0,558.0,499.0
521.0,508.0,530.0,553.0,509.0
506.0,499.0,512.0,544.0,522.0
499.0,499.0,498.0,534.0,530.0
497.0,501.0,489.0,525.0,527.0
500.0,507.0,487.0,521.0,525.0
501.0,508.0,485.0,511.0,525.0
499.0,509.0,485.0,508.0,520.0
506.0,508.0,489.0,502.0,518.0
508.0,504.0,492.0,496.0,519.0
516.0,505.0,501.0,500.0,508.0
523.0,508.0,514.0,511.0,504.0
529.0,508.0,524.0,522.0,499.0
536.0,512.0,536.0,535.0,492.0
547.0,515.0,551.0,551.0,483.0
544.0,513.0,551.0,560.0,484.0
539.0,514.0,549.0,566.0,492.0
523.0,507.0,537.0,555.0,505.0
514.0,503.0,524.0,552.0,520.0
499.0,500.0,507.0,541.0,527.0
498.0,504.0,494.0,531.0,528.0
493.0,505.0,488.0,520.0,532.0
494.0,506.0,483.0,513.0,529.0
497.0,507.0,483.0,507.0,527.0
505.0,510.0,489.0,505.0,520.0
508.0,506.0,491.0,501.0,514.0
511.0,504.0,493.0,497.0,512.0
514.0,506.0,508.0,504.0,509.0
526.0,509.0,517.0,512.0,500.0
532.0,510.0,528.0,524.0,495.0
540.0,514.0,542.0,538.0,489.0
542.0,512.0,547.0,550.0,486.0
538.0,515.0,549.0,559.0,489.0
533.0,510.0,543.0,560.0,498.0
522.0,505.0,533.0,556.0,507.0
504.0,503.0,515.0,546.0,526.0
500.0,500.0,502.0,540.0,526.0
496.0,502.0,493.0,528.0,524.0
499.0,506.0,487.0,523.0,521.0
502.0,507.0,484.0,513.0,522.0
501.0,513.0,489.0,507.0,521.0
498.0,513.0,490.0,497.0,524.0
499.0,505.0,489.0,490.0,525.0
505.0,505.0,497.0,493.0,517.0
519.0,507.0,510.0,502.0,509.0
524.0,509.0,521.0,513.0,505.0
533.0,512.0,533.0,525.0,496.0
539.0,515.0,545.0,541.0,489.0
546.0,515.0,549.0,554.0,487.0
536.0,518.0,548.0,562.0,493.0
524.0,509.0,539.0,557.0,501.0
512.0,505.0,530.0,552.0,509.0
496.0,501.0,512.0,542.0,522.0
485.0,501.0,498.0,528.0,533.0
488.0,505.0,491.0,521.0,534.0
494.0,508.0,488.0,513.0,533.0
506.0,509.0,483.0,504.0,529.0
524.0,515.0,488.0,503.0,519.0
519.0,511.0,492.0,497.0,515.0
515.0,506.0,492.0,491.0,515.0
522.0,509.0,501.0,495.0,509.0
524.0,507.0,512.0,504.0,500.0
529.0,510.0,525.0,519.0,498.0
534.0,512.0,535.0,530.0,494.0
540.0,515.0,547.0,542.0,492.0
537.0,515.0,547.0,554.0,493.0
532.0,513.0,546.0,558.0,496.0
523.0,506.0,533.0,554.0,503.0
517.0,503.0,522.0,545.0,514.0
501.0,502.0,506.0,536.0,526.0
495.0,505.0,496.0,525.0,532.0
484.0,505.0,489.0,517.0,532.0
488.0,507.0,487.0,510.0,530.0
491.0,509.0,486.0,501.0,527.0
493.0,509.0,487.0,496.0,524.0
503.0,508.0,491.0,493.0,519.0
522.0,507.0,494.0,490.0,514.0
530.0,507.0,504.0,496.0,507.0
532.0,510.0,518.0,508.0,509.0
536.0,513.0,530.0,521.0,495.0
542.0,517.0,540.0,535.0,484.0
544.0,517.0,548.0,548.0,486.0
539.0,516.0,548.0,560.0,489.0
532.0,512.0,540.0,554.0,499.0
522.0,507.0,531.0,550.0,509.0
510.0,502.0,516.0,540.0,522.0
500.0,501.0,501.0,530.0,530.0
493.0,504.0,491.0,520.0,531.0
493.0,507.0,487.0,513.0,529.0
496.0,507.0,484.0,503.0,528.0
500.0,510.0,487.0,498.0,523.0
499.0,508.0,489.0,491.0,519.0
503.0,507.0,492.0,490.0,520.0
508.0,504.0,496.0,488.0,513.0
520.0,507.0,509.0,499.0,508.0
523.0,507.0,517.0,507.0,501.0
530.0,512.0,531.0,522.0,493.0
537.0,515.0,544.0,539.0,491.0
535.0,514.0,545.0,547.0,488.0
535.0,514.0,546.0,555.0,493.0
526.0,508.0,537.0,553.0,502.0
517.0,506.0,528.0,550.0,513.0
502.0,500.0,513.0,536.0,523.0
495.0,502.0,496.0,525.0,531.0
498.0,506.0,492.0,518.0,531.0
498.0,506.0,486.0,510.0,529.0
497.0,507.0,481.0,499.0,523.0
505.0,513.0,489.0,499.0,516.0
510.0,513.0,493.0,493.0,518.0
502.0,506.0,491.0,485.0,524.0
509.0,510.0,499.0,488.0,518.0
519.0,509.0,514.0,501.0,515.0
524.0,509.0,524.0,512.0,509.0
533.0,512.0,537.0,530.0,500.0
542.0,515.0,546.0,543.0,488.0
536.0,513.0,548.0,554.0,486.0
537.0,511.0,542.0,556.0,486.0
526.0,504.0,532.0,550.0,494.0
512.0,498.0,519.0,544.0,510.0
501.0,502.0,506.0,535.0,526.0
492.0,504.0,492.0,521.0,533.0
490.0,504.0,484.0,512.0,530.0
495.0,508.0,484.0,504.0,528.0
499.0,509.0,485.0,499.0,523.0
502.0,507.0,488.0,494.0,518.0
503.0,508.0,491.0,491.0,520.0
506.0,505.0,494.0,488.0,521.0
515.0,506.0,505.0,494.0,510.0
529.0,513.0,517.0,506.0,508.0
530.0,510.0,527.0,515.0,507.0
533.0,512.0,538.0,532.0,496.0
537.0,513.0,546.0,546.0,487.0
537.0,514.0,548.0,556.0,488.0
531.0,509.0,539.0,555.0,495.0
526.0,505.0,533.0,551.0,502.0
508.0,499.0,513.0,540.0,515.0
494.0,499.0,499.0,526.0,531.0
496.0,503.0,492.0,519.0,533.0
499.0,505.0,488.0,514.0,529.0
495.0,502.0,484.0,500.0,525.0
499.0,509.0,486.0,494.0,524.0
507.0,509.0,490.0,493.0,522.0
505.0,505.0,491.0,486.0,517.0
509.0,508.0,496.0,485.0,518.0
519.0,506.0,512.0,498.0,507.0
524.0,509.0,517.0,504.0,501.0
532.0,511.0,532.0,521.0,494.0
539.0,513.0,544.0,537.0,490.0
541.0,514.0,545.0,547.0,491.0
532.0,510.0,544.0,552.0,497.0
524.0,507.0,538.0,554.0,505.0
515.0,503.0,527.0,546.0,513.0
502.0,499.0,509.0,534.0,526.0
496.0,502.0,497.0,523.0,533.0
492.0,499.0,487.0,512.0,535.0
493.0,507.0,485.0,502.0,530.0
501.0,507.0,483.0,494.0,528.0
501.0,508.0,491.0,492.0,519.0
505.0,509.0,492.0,488.0,519.0
504.0,503.0,493.0,482.0,517.0
513.0,506.0,502.0,488.0,513.0
519.0,511.0,514.0,498.0,505.0
525.0,507.0,522.0,507.0,500.0
533.0,510.0,535.0,523.0,492.0
540.0,513.0,547.0,540.0,489.0
535.0,511.0,549.0,547.0,489.0
531.0,511.0,545.0,552.0,499.0
526.0,507.0,537.0,547.0,506.0
511.0,501.0,522.0,540.0,520.0
498.0,498.0,504.0,528.0,530.0
492.0,500.0,494.0,516.0,532.0
495.0,503.0,488.0,508.0,534.0
494.0,506.0,487.0,498.0,533.0
499.0,506.0,484.0,491.0,529.0
501.0,507.0,488.0,487.0,523.0
503.0,506.0,493.0,484.0,522.0
508.0,504.0,495.0,482.0,521.0
517.0,503.0,504.0,487.0,511.0
526.0,507.0,518.0,499.0,501.0
531.0,510.0,530.0,513.0,496.0
535.0,513.0,540.0,528.0,491.0
540.0,512.0,547.0,541.0,493.0
539.0,513.0,546.0,548.0,492.0
530.0,512.0,541.0,554.0,502.0
522.0,505.0,536.0,545.0,508.0
506.0,497.0,516.0,535.0,520.0
500.0,500.0,500.0,522.0,530.0
497.0,502.0,493.0,513.0,531.0
495.0,502.0,486.0,502.0,530.0
500.0,505.0,484.0,494.0,529.0
501.0,508.0,488.0,493.0,527.0
501.0,509.0,489.0,486.0,526.0
499.0,502.0,490.0,479.0,522.0
498.0,500.0,500.0,484.0,519.0
505.0,504.0,511.0,492.0,511.0
511.0,504.0,521.0,502.0,506.0
517.0,510.0,534.0,516.0,503.0
539.0,512.0,544.0,530.0,494.0
547.0,514.0,550.0,544.0,488.0
545.0,514.0,553.0,552.0,485.0
526.0,509.0,541.0,548.0,497.0
509.0,503.0,530.0,541.0,509.0
493.0,500.0,512.0,530.0,528.0
490.0,502.0,499.0,519.0,536.0
492.0,503.0,491.0,512.0,537.0
499.0,507.0,486.0,499.0,527.0
502.0,509.0,486.0,492.0,527.0
516.0,511.0,490.0,488.0,521.0
520.0,509.0,494.0,485.0,517.0
515.0,505.0,496.0,480.0,514.0
517.0,506.0,503.0,483.0,510.0
526.0,509.0,517.0,495.0,512.0
527.0,511.0,525.0,504.0,510.0
538.0,513.0,538.0,522.0,496.0
540.0,512.0,549.0,537.0,486.0
535.0,515.0,552.0,547.0,494.0
527.0,512.0,545.0,548.0,489.0
514.0,504.0,535.0,541.0,501.0
498.0,501.0,521.0,531.0,521.0
494.0,501.0,507.0,524.0,531.0
501.0,502.0,496.0,513.0,532.0
501.0,505.0,489.0,503.0,534.0
511.0,508.0,488.0,496.0,531.0
507.0,506.0,486.0,487.0,526.0
508.0,508.0,490.0,485.0,519.0
508.0,507.0,495.0,482.0,518.0
505.0,502.0,494.0,481.0,515.0
514.0,505.0,508.0,486.0,510.0
519.0,506.0,519.0,496.0,504.0
528.0,510.0,530.0,509.0,500.0
538.0,512.0,542.0,525.0,490.0
539.0,514.0,549.0,538.0,490.0
538.0,513.0,550.0,548.0,491.0
531.0,510.0,543.0,546.0,502.0
527.0,506.0,536.0,542.0,508.0
511.0,499.0,520.0,533.0,520.0
495.0,503.0,500.0,518.0,530.0
494.0,500.0,493.0,514.0,535.0
494.0,504.0,487.0,500.0,532.0
492.0,504.0,485.0,492.0,530.0
498.0,507.0,488.0,487.0,524.0
505.0,509.0,493.0,485.0,519.0
508.0,504.0,493.0,478.0,516.0
512.0,505.0,501.0,482.0,521.0
516.0,503.0,510.0,488.0,513.0
527.0,507.0,523.0,501.0,505.0
533.0,510.0,535.0,517.0,495.0
538.0,512.0,545.0,531.0,486.0
536.0,512.0,551.0,543.0,487.0
533.0,512.0,546.0,548.0,485.0
523.0,506.0,538.0,545.0,502.0
512.0,501.0,527.0,537.0,513.0
502.0,500.0,511.0,528.0,526.0
494.0,500.0,498.0,518.0,536.0
492.0,502.0,490.0,506.0,533.0
494.0,506.0,487.0,499.0,531.0
495.0,507.0,485.0,492.0,529.0
500.0,510.0,489.0,487.0,525.0
504.0,507.0,492.0,483.0,521.0
505.0,504.0,493.0,478.0,521.0
512.0,507.0,504.0,484.0,516.0
521.0,505.0,517.0,493.0,504.0
528.0,508.0,526.0,506.0,498.0
531.0,511.0,537.0,522.0,490.0
537.0,513.0,548.0,536.0,491.0
536.0,512.0,549.0,544.0,492.0
530.0,509.0,545.0,551.0,498.0
522.0,508.0,538.0,547.0,507.0
508.0,501.0,521.0,538.0,521.0
498.0,498.0,505.0,525.0,528.0
496.0,501.0,495.0,513.0,536.0
497.0,504.0,489.0,505.0,535.0
495.0,507.0,487.0,497.0,534.0
498.0,507.0,486.0,489.0,532.0
502.0,512.0,490.0,486.0,524.0
504.0,505.0,492.0,481.0,521.0
503.0,501.0,496.0,476.0,519.0
515.0,505.0,507.0,487.0,515.0
524.0,505.0,518.0,498.0,504.0
529.0,513.0,528.0,511.0,494.0
539.0,512.0,543.0,527.0,495.0
539.0,513.0,549.0,540.0,487.0
537.0,514.0,551.0,549.0,493.0
527.0,509.0,542.0,548.0,501.0
519.0,504.0,533.0,544.0,510.0
503.0,500.0,516.0,538.0,524.0
494.0,499.0,500.0,520.0,534.0
495.0,503.0,493.0,512.0,536.0
496.0,505.0,487.0,502.0,533.0
492.0,506.0,483.0,496.0,531.0
495.0,507.0,487.0,490.0,526.0
501.0,506.0,490.0,485.0,522.0
503.0,504.0,494.0,481.0,521.0
507.0,504.0,499.0,482.0,515.0
517.0,506.0,516.0,491.0,510.0
520.0,506.0,521.0,500.0,505.0
536.0,511.0,534.0,517.0,495.0
543.0,514.0,546.0,532.0,489.0
538.0,510.0,547.0,541.0,490.0
538.0,512.0,549.0,547.0,494.0
525.0,507.0,539.0,548.0,502.0
516.0,505.0,529.0,542.0,513.0
503.0,501.0,511.0,530.0,529.0
493.0,497.0,495.0,517.0,533.0
494.0,500.0,489.0,509.0,533.0
496.0,506.0,489.0,503.0,529.0
494.0,507.0,487.0,495.0,525.0
500.0,510.0,490.0,487.0,520.0
507.0,509.0,494.0,486.0,519.0
501.0,504.0,494.0,479.0,527.0
509.0,505.0,503.0,482.0,515.0
525.0,507.0,514.0,494.0,509.0
527.0,508.0,526.0,505.0,503.0
530.0,512.0,538.0,520.0,498.0
535.0,511.0,545.0,534.0,491.0
537.0,513.0,550.0,546.0,498.0
532.0,509.0,544.0,548.0,503.0
524.0,506.0,537.0,546.0,508.0
509.0,500.0,520.0,539.0,525.0
495.0,498.0,505.0,526.0,526.0
490.0,500.0,495.0,515.0,532.0
495.0,505.0,490.0,507.0,531.0
495.0,506.0,485.0,497.0,527.0
496.0,506.0,485.0,489.0,528.0
502.0,509.0,490.0,488.0,523.0
505.0,505.0,492.0,482.0,518.0
501.0,498.0,494.0,478.0,516.0
510.0,506.0,505.0,486.0,509.0
526.0,506.0,518.0,495.0,501.0
533.0,509.0,531.0,514.0,493.0
533.0,512.0,543.0,528.0,490.0
534.0,512.0,548.0,540.0,487.0
532.0,511.0,548.0,547.0,487.0
517.0,510.0,541.0,547.0,498.0
506.0,502.0,531.0,543.0,510.0
507.0,501.0,516.0,533.0,525.0
495.0,500.0,501.0,522.0,534.0
486.0,503.0,492.0,511.0,537.0
490.0,510.0,487.0,502.0,536.0
493.0,505.0,484.0,491.0,534.0
508.0,509.0,487.0,489.0,528.0
512.0,506.0,490.0,486.0,525.0
508.0,506.0,494.0,482.0,522.0
516.0,506.0,500.0,487.0,521.0
522.0,507.0,511.0,495.0,518.0
522.0,505.0,521.0,501.0,509.0
533.0,511.0,536.0,518.0,498.0
539.0,512.0,543.0,532.0,480.0
534.0,512.0,548.0,546.0,481.0
531.0,511.0,546.0,550.0,483.0
517.0,507.0,539.0,548.0,496.0
507.0,503.0,529.0,543.0,508.0
490.0,498.0,513.0,531.0,522.0
485.0,496.0,493.0,515.0,530.0
510.0,505.0,490.0,509.0,534.0
512.0,504.0,485.0,498.0,529.0
506.0,506.0,485.0,490.0,528.0
507.0,509.0,491.0,489.0,521.0
507.0,507.0,491.0,483.0,518.0
506.0,504.0,492.0,479.0,518.0
514.0,509.0,502.0,484.0,510.0
521.0,504.0,513.0,495.0,500.0
532.0,508.0,527.0,505.0,496.0
534.0,514.0,536.0,524.0,490.0
539.0,513.0,547.0,538.0,486.0
541.0,513.0,548.0,547.0,488.0
536.0,513.0,542.0,549.0,499.0
523.0,507.0,535.0,547.0,506.0
508.0,500.0,519.0,538.0,522.0
501.0,498.0,505.0,524.0,528.0
493.0,500.0,494.0,515.0,533.0
493.0,503.0,488.0,505.0,535.0
493.0,505.0,484.0,496.0,532.0
494.0,504.0,483.0,489.0,528.0
500.0,504.0,489.0,486.0,521.0
503.0,505.0,492.0,482.0,519.0
505.0,503.0,495.0,480.0,520.0
511.0,501.0,505.0,486.0,510.0
523.0,507.0,519.0,499.0,504.0
534.0,510.0,531.0,513.0,495.0
536.0,513.0,542.0,529.0,493.0
536.0,511.0,547.0,540.0,490.0
536.0,511.0,549.0,547.0,489.0
527.0,508.0,541.0,547.0,504.0
518.0,509.0,531.0,545.0,509.0
501.0,498.0,515.0,534.0,521.0
492.0,499.0,500.0,520.0,533.0
491.0,502.0,491.0,511.0,535.0
491.0,509.0,486.0,502.0,534.0
495.0,507.0,486.0,494.0,531.0
498.0,507.0,488.0,490.0,524.0
504.0,506.0,491.0,484.0,517.0
504.0,506.0,494.0,482.0,518.0
509.0,505.0,500.0,482.0,518.0
518.0,503.0,508.0,490.0,505.0
524.0,505.0,521.0,503.0,501.0
530.0,512.0,536.0,520.0,498.0
534.0,514.0,545.0,533.0,492.0
534.0,512.0,548.0,544.0,496.0
528.0,511.0,546.0,547.0,495.0
520.0,506.0,537.0,546.0,505.0
511.0,504.0,524.0,541.0,514.0
505.0,500.0,509.0,529.0,526.0
496.0,501.0,499.0,520.0,532.0
492.0,502.0,491.0,508.0,531.0
493.0,505.0,485.0,499.0,531.0
496.0,506.0,484.0,491.0,529.0
504.0,512.0,486.0,488.0,524.0
507.0,509.0,492.0,484.0,524.0
504.0,501.0,491.0,478.0,520.0
508.0,504.0,503.0,484.0,517.0
520.0,507.0,520.0,498.0,508.0
529.0,506.0,529.0,506.0,499.0
529.0,511.0,535.0,521.0,490.0
537.0,513.0,549.0,539.0,490.0
534.0,512.0,548.0,546.0,497.0
529.0,511.0,544.0,551.0,504.0
522.0,507.0,537.0,547.0,506.0
509.0,504.0,520.0,537.0,516.0
497.0,499.0,506.0,527.0,529.0
489.0,502.0,492.0,514.0,527.0
491.0,503.0,487.0,503.0,532.0
496.0,506.0,484.0,494.0,530.0
497.0,507.0,485.0,489.0,530.0
507.0,508.0,490.0,487.0,525.0
505.0,506.0,493.0,483.0,519.0
505.0,504.0,496.0,481.0,520.0
516.0,503.0,507.0,488.0,510.0
524.0,508.0,520.0,499.0,505.0
528.0,508.0,529.0,512.0,497.0
535.0,512.0,541.0,529.0,491.0
537.0,512.0,547.0,541.0,489.0
536.0,510.0,548.0,554.0,492.0
526.0,511.0,540.0,549.0,500.0
516.0,505.0,533.0,545.0,514.0
502.0,498.0,514.0,532.0,526.0
494.0,498.0,499.0,520.0,532.0
495.0,503.0,492.0,511.0,535.0
495.0,503.0,486.0,502.0,532.0
493.0,503.0,483.0,491.0,531.0
497.0,508.0,488.0,489.0,523.0
505.0,510.0,490.0,486.0,523.0
505.0,504.0,495.0,482.0,516.0
509.0,505.0,501.0,483.0,515.0
519.0,504.0,514.0,491.0,505.0
524.0,506.0,522.0,504.0,502.0
530.0,512.0,533.0,519.0,497.0
534.0,516.0,544.0,533.0,491.0
537.0,510.0,547.0,543.0,493.0
534.0,511.0,546.0,548.0,499.0
524.0,507.0,539.0,546.0,508.0
514.0,502.0,527.0,541.0,516.0
502.0,496.0,509.0,528.0,524.0
497.0,503.0,496.0,517.0,531.0
497.0,502.0,489.0,511.0,534.0
497.0,503.0,485.0,498.0,529.0
495.0,503.0,482.0,488.0,527.0
504.0,508.0,489.0,487.0,521.0
508.0,508.0,494.0,485.0,517.0
508.0,504.0,495.0,480.0,518.0
508.0,504.0,503.0,484.0,519.0
513.0,504.0,515.0,494.0,509.0
528.0,508.0,526.0,507.0,497.0
526.0,511.0,536.0,522.0,496.0
536.0,515.0,549.0,538.0,493.0
534.0,511.0,549.0,545.0,493.0
533.0,510.0,544.0,549.0,502.0
525.0,509.0,536.0,547.0,510.0
515.0,501.0,519.0,536.0,527.0
502.0,499.0,505.0,524.0,530.0
495.0,499.0,495.0,512.0,534.0
495.0,505.0,489.0,504.0,534.0
498.0,507.0,487.0,497.0,529.0
502.0,507.0,487.0,489.0,525.0
506.0,509.0,488.0,486.0,519.0
508.0,508.0,494.0,483.0,520.0
507.0,503.0,496.0,479.0,518.0
516.0,505.0,507.0,486.0,510.0
524.0,505.0,520.0,500.0,504.0
532.0,507.0,530.0,513.0,492.0
537.0,511.0,542.0,531.0,490.0
538.0,511.0,547.0,539.0,490.0
541.0,514.0,549.0,548.0,495.0
526.0,507.0,540.0,547.0,502.0
518.0,506.0,531.0,544.0,510.0
501.0,500.0,514.0,532.0,526.0
492.0,500.0,500.0,522.0,532.0
488.0,502.0,496.0,512.0,533.0
488.0,503.0,486.0,503.0,530.0
489.0,503.0,484.0,494.0,526.0
492.0,504.0,484.0,493.0,521.0
504.0,508.0,492.0,488.0,516.0
513.0,507.0,495.0,481.0,520.0
523.0,507.0,500.0,481.0,514.0
521.0,510.0,511.0,491.0,507.0
525.0,507.0,527.0,507.0,498.0
531.0,511.0,536.0,521.0,492.0
533.0,511.0,543.0,535.0,493.0
535.0,510.0,545.0,539.0,497.0
524.0,507.0,544.0,547.0,501.0
523.0,506.0,536.0,547.0,505.0
513.0,503.0,525.0,541.0,514.0
500.0,500.0,508.0,529.0,529.0
497.0,500.0,497.0,518.0,536.0
501.0,503.0,486.0,509.0,534.0
500.0,505.0,485.0,501.0,533.0
503.0,508.0,486.0,490.0,528.0
502.0,508.0,489.0,488.0,525.0
506.0,507.0,492.0,486.0,517.0
512.0,504.0,498.0,483.0,515.0
509.0,501.0,501.0,487.0,509.0
515.0,505.0,515.0,499.0,516.0
525.0,507.0,524.0,502.0,502.0
534.0,511.0,541.0,521.0,491.0
533.0,512.0,547.0,535.0,489.0
528.0,516.0,547.0,547.0,494.0
523.0,510.0,543.0,549.0,498.0
515.0,507.0,535.0,547.0,507.0
502.0,498.0,518.0,536.0,520.0
510.0,499.0,506.0,526.0,529.0
505.0,502.0,494.0,515.0,531.0
498.0,504.0,488.0,505.0,533.0
498.0,507.0,486.0,498.0,530.0
502.0,506.0,486.0,494.0,522.0
504.0,507.0,488.0,490.0,516.0
504.0,506.0,495.0,489.0,509.0
502.0,501.0,494.0,479.0,512.0
517.0,505.0,505.0,485.0,506.0
529.0,508.0,521.0,500.0,503.0
530.0,513.0,530.0,515.0,505.0
533.0,512.0,542.0,531.0,503.0
537.0,512.0,550.0,535.0,494.0
535.0,513.0,549.0,548.0,500.0
525.0,508.0,541.0,547.0,510.0
518.0,505.0,532.0,544.0,512.0
503.0,500.0,513.0,531.0,522.0
495.0,498.0,499.0,520.0,533.0
494.0,503.0,493.0,513.0,536.0
493.0,504.0,487.0,502.0,537.0
495.0,505.0,483.0,495.0,529.0
500.0,508.0,487.0,490.0,525.0
503.0,506.0,491.0,484.0,521.0
505.0,506.0,494.0,482.0,520.0
509.0,505.0,503.0,485.0,517.0
518.0,505.0,512.0,492.0,507.0
525.0,507.0,523.0,504.0,503.0
533.0,510.0,535.0,519.0,498.0
539.0,511.0,542.0,533.0,488.0
535.0,510.0,547.0,543.0,495.0
528.0,507.0,543.0,547.0,496.0
522.0,506.0,539.0,550.0,506.0
514.0,504.0,530.0,544.0,516.0
499.0,499.0,510.0,530.0,527.0
491.0,500.0,496.0,518.0,534.0
496.0,507.0,490.0,508.0,533.0
497.0,505.0,490.0,501.0,531.0
498.0,505.0,484.0,492.0,531.0
502.0,509.0,489.0,488.0,521.0
507.0,508.0,493.0,486.0,521.0
506.0,504.0,494.0,481.0,525.0
512.0,504.0,504.0,487.0,514.0
519.0,507.0,521.0,500.0,507.0
526.0,507.0,525.0,508.0,500.0
529.0,510.0,537.0,524.0,493.0
535.0,517.0,548.0,539.0,493.0
535.0,509.0,547.0,550.0,486.0
529.0,508.0,544.0,551.0,498.0
517.0,508.0,537.0,548.0,510.0
504.0,500.0,519.0,536.0,529.0
502.0,500.0,504.0,525.0,533.0
497.0,502.0,494.0,516.0,536.0
495.0,504.0,491.0,506.0,535.0
493.0,505.0,484.0,499.0,528.0
497.0,507.0,485.0,491.0,523.0
506.0,509.0,493.0,489.0,518.0
504.0,505.0,491.0,486.0,515.0
507.0,504.0,496.0,482.0,518.0
516.0,504.0,507.0,488.0,509.0
527.0,508.0,520.0,502.0,505.0
530.0,510.0,530.0,515.0,498.0
536.0,514.0,543.0,529.0,491.0
536.0,512.0,547.0,540.0,490.0
533.0,515.0,548.0,549.0,493.0
525.0,507.0,540.0,547.0,504.0
515.0,505.0,532.0,544.0,509.0
502.0,499.0,513.0,532.0,522.0
494.0,500.0,500.0,521.0,532.0
494.0,501.0,491.0,512.0,532.0
498.0,506.0,487.0,504.0,528.0
500.0,506.0,484.0,494.0,532.0
507.0,507.0,487.0,490.0,523.0
504.0,506.0,489.0,484.0,519.0
505.0,505.0,494.0,488.0,521.0
506.0,505.0,500.0,485.0,516.0
516.0,507.0,513.0,492.0,507.0
524.0,506.0,521.0,503.0,502.0
531.0,509.0,533.0,518.0,492.0
541.0,513.0,546.0,538.0,486.0
537.0,514.0,549.0,552.0,487.0
534.0,515.0,547.0,553.0,487.0
525.0,507.0,537.0,549.0,500.0
512.0,502.0,526.0,540.0,519.0
493.0,496.0,506.0,522.0,534.0
488.0,498.0,493.0,513.0,539.0
490.0,502.0,487.0,504.0,534.0
493.0,507.0,488.0,499.0,529.0
494.0,506.0,484.0,491.0,531.0
496.0,506.0,487.0,487.0,522.0
498.0,505.0,491.0,484.0,518.0
502.0,502.0,495.0,482.0,518.0
519.0,504.0,504.0,486.0,507.0
527.0,504.0,518.0,498.0,501.0
529.0,506.0,524.0,507.0,497.0
533.0,510.0,537.0,523.0,491.0
548.0,514.0,549.0,538.0,484.0
544.0,509.0,549.0,547.0,487.0
535.0,507.0,544.0,551.0,493.0
523.0,507.0,537.0,547.0,506.0
508.0,501.0,520.0,535.0,523.0
493.0,497.0,502.0,522.0,531.0
492.0,501.0,494.0,512.0,534.0
493.0,505.0,488.0,504.0,534.0
494.0,504.0,484.0,495.0,530.0
497.0,503.0,485.0,488.0,525.0
504.0,507.0,490.0,485.0,522.0
511.0,505.0,493.0,486.0,518.0
506.0,504.0,496.0,482.0,513.0
512.0,504.0,508.0,488.0,508.0
520.0,505.0,519.0,500.0,505.0
527.0,505.0,530.0,513.0,493.0
534.0,509.0,539.0,527.0,493.0
538.0,513.0,549.0,540.0,493.0
533.0,514.0,549.0,548.0,493.0
527.0,508.0,542.0,548.0,503.0
519.0,506.0,536.0,544.0,509.0
503.0,498.0,513.0,530.0,525.0
490.0,499.0,499.0,520.0,536.0
489.0,503.0,492.0,510.0,535.0
487.0,506.0,489.0,503.0,533.0
487.0,506.0,485.0,494.0,532.0
493.0,505.0,488.0,493.0,523.0
495.0,505.0,490.0,484.0,516.0
499.0,504.0,493.0,482.0,518.0
503.0,504.0,501.0,483.0,518.0
529.0,506.0,511.0,491.0,505.0
536.0,508.0,522.0,503.0,500.0
535.0,509.0,533.0,517.0,492.0
540.0,513.0,547.0,535.0,489.0
540.0,514.0,548.0,542.0,490.0
532.0,512.0,547.0,550.0,495.0
524.0,507.0,538.0,547.0,503.0
520.0,503.0,527.0,541.0,514.0
504.0,502.0,509.0,530.0,528.0
494.0,498.0,496.0,515.0,533.0
495.0,502.0,489.0,507.0,533.0
498.0,505.0,486.0,500.0,532.0
496.0,503.0,482.0,490.0,528.0
502.0,507.0,488.0,487.0,522.0
506.0,507.0,492.0,484.0,521.0
504.0,503.0,495.0,477.0,518.0
507.0,504.0,504.0,485.0,517.0
515.0,506.0,516.0,496.0,502.0
521.0,507.0,526.0,507.0,495.0
528.0,510.0,539.0,525.0,490.0
541.0,513.0,549.0,540.0,489.0
538.0,514.0,549.0,548.0,491.0
529.0,509.0,543.0,548.0,499.0
521.0,510.0,539.0,546.0,505.0
505.0,498.0,517.0,533.0,519.0
494.0,503.0,501.0,524.0,529.0
494.0,501.0,493.0,513.0,533.0
488.0,502.0,486.0,504.0,533.0
484.0,505.0,484.0,493.0,529.0
485.0,504.0,482.0,490.0,527.0
490.0,506.0,489.0,486.0,523.0
491.0,504.0,491.0,481.0,522.0
497.0,503.0,497.0,482.0,522.0
508.0,506.0,506.0,486.0,511.0
536.0,506.0,520.0,500.0,501.0
543.0,511.0,533.0,515.0,491.0
539.0,512.0,543.0,533.0,493.0
541.0,513.0,549.0,538.0,489.0
541.0,515.0,549.0,551.0,489.0
531.0,507.0,538.0,546.0,499.0
527.0,505.0,532.0,545.0,507.0
509.0,499.0,512.0,531.0,521.0
502.0,503.0,498.0,522.0,531.0
496.0,501.0,489.0,510.0,531.0
494.0,503.0,485.0,500.0,531.0
496.0,504.0,483.0,493.0,531.0
506.0,507.0,493.0,488.0,524.0
509.0,507.0,495.0,487.0,520.0
505.0,503.0,494.0,480.0,518.0
511.0,505.0,502.0,485.0,514.0
519.0,502.0,512.0,493.0,503.0
528.0,508.0,524.0,505.0,500.0
531.0,511.0,534.0,519.0,499.0
538.0,512.0,545.0,534.0,490.0
537.0,511.0,548.0,545.0,485.0
533.0,510.0,546.0,549.0,490.0
523.0,506.0,538.0,548.0,499.0
511.0,501.0,525.0,540.0,511.0
500.0,502.0,508.0,529.0,527.0
498.0,501.0,495.0,518.0,533.0
490.0,502.0,486.0,506.0,531.0
492.0,505.0,485.0,498.0,529.0
498.0,506.0,484.0,492.0,529.0
503.0,509.0,491.0,488.0,522.0
507.0,510.0,490.0,483.0,518.0
509.0,505.0,496.0,485.0,515.0
513.0,503.0,503.0,487.0,510.0
523.0,509.0,519.0,501.0,503.0
525.0,507.0,530.0,511.0,496.0
529.0,508.0,536.0,524.0,490.0
538.0,513.0,548.0,538.0,490.0
534.0,511.0,547.0,545.0,491.0
530.0,510.0,543.0,547.0,501.0
521.0,506.0,536.0,546.0,511.0
507.0,497.0,517.0,535.0,525.0
496.0,498.0,504.0,525.0,530.0
489.0,504.0,493.0,515.0,532.0
490.0,504.0,487.0,505.0,530.0
495.0,506.0,486.0,497.0,530.0
489.0,507.0,485.0,489.0,528.0
502.0,509.0,491.0,487.0,523.0
511.0,504.0,493.0,482.0,520.0
506.0,501.0,493.0,480.0,519.0
517.0,505.0,509.0,490.0,511.0
522.0,508.0,520.0,500.0,504.0
529.0,511.0,533.0,515.0,499.0
532.0,512.0,543.0,530.0,491.0
534.0,513.0,550.0,544.0,492.0
531.0,512.0,548.0,549.0,494.0
529.0,509.0,541.0,548.0,505.0
517.0,506.0,533.0,544.0,512.0
500.0,500.0,514.0,532.0,529.0
497.0,498.0,496.0,517.0,532.0
492.0,501.0,487.0,509.0,533.0
494.0,504.0,487.0,502.0,530.0
497.0,506.0,484.0,494.0,528.0
499.0,507.0,487.0,490.0,523.0
501.0,506.0,491.0,485.0,520.0
501.0,504.0,494.0,483.0,518.0
510.0,503.0,501.0,484.0,512.0
517.0,502.0,511.0,494.0,505.0
520.0,505.0,522.0,504.0,504.0
535.0,511.0,535.0,518.0,493.0
541.0,513.0,545.0,533.0,486.0
542.0,515.0,549.0,545.0,490.0
533.0,510.0,547.0,548.0,494.0
520.0,507.0,536.0,545.0,506.0
511.0,502.0,526.0,540.0,516.0
501.0,500.0,509.0,528.0,529.0
492.0,498.0,494.0,515.0,532.0
491.0,502.0,488.0,506.0,533.0
493.0,506.0,485.0,499.0,533.0
493.0,505.0,483.0,490.0,531.0
500.0,506.0,488.0,488.0,523.0
502.0,505.0,491.0,483.0,518.0
506.0,505.0,495.0,484.0,517.0
511.0,503.0,503.0,485.0,512.0
520.0,505.0,516.0,497.0,504.0
527.0,510.0,526.0,511.0,499.0
537.0,511.0,541.0,525.0,492.0
540.0,517.0,548.0,540.0,489.0
535.0,511.0,550.0,545.0,490.0
527.0,512.0,545.0,547.0,502.0
518.0,507.0,537.0,549.0,506.0
504.0,500.0,517.0,535.0,523.0
491.0,502.0,507.0,522.0,531.0
489.0,499.0,492.0,512.0,531.0
489.0,502.0,486.0,503.0,530.0
491.0,505.0,484.0,495.0,530.0
498.0,506.0,485.0,489.0,528.0
501.0,505.0,488.0,485.0,520.0
503.0,505.0,492.0,482.0,519.0
506.0,505.0,496.0,482.0,520.0
515.0,503.0,507.0,489.0,509.0
523.0,503.0,519.0,499.0,504.0
529.0,508.0,531.0,513.0,497.0
535.0,510.0,543.0,530.0,490.0
536.0,511.0,548.0,541.0,489.0
534.0,510.0,548.0,553.0,495.0
524.0,507.0,545.0,546.0,504.0
514.0,505.0,533.0,545.0,510.0
495.0,502.0,513.0,531.0,525.0
492.0,499.0,498.0,519.0,531.0
495.0,502.0,493.0,513.0,532.0
498.0,503.0,485.0,500.0,529.0
493.0,504.0,483.0,491.0,531.0
498.0,507.0,486.0,489.0,518.0
503.0,506.0,491.0,485.0,517.0
504.0,504.0,495.0,482.0,517.0
508.0,508.0,500.0,484.0,513.0
519.0,505.0,514.0,490.0,504.0
523.0,506.0,522.0,504.0,503.0
531.0,510.0,537.0,519.0,494.0
539.0,512.0,546.0,534.0,488.0
536.0,512.0,549.0,543.0,487.0
530.0,511.0,548.0,550.0,496.0
518.0,506.0,539.0,547.0,505.0
506.0,501.0,526.0,539.0,518.0
493.0,499.0,508.0,527.0,529.0
486.0,498.0,496.0,516.0,534.0
490.0,501.0,489.0,506.0,532.0
489.0,509.0,485.0,498.0,531.0
498.0,505.0,484.0,490.0,529.0
513.0,507.0,489.0,487.0,521.0
512.0,506.0,491.0,485.0,515.0
511.0,505.0,497.0,482.0,516.0
520.0,505.0,505.0,485.0,505.0
523.0,505.0,517.0,496.0,503.0
532.0,508.0,531.0,509.0,496.0
538.0,510.0,539.0,524.0,490.0
542.0,515.0,548.0,539.0,489.0
535.0,512.0,550.0,547.0,491.0
531.0,508.0,546.0,549.0,499.0
526.0,507.0,537.0,546.0,504.0
511.0,502.0,516.0,535.0,523.0
497.0,497.0,502.0,521.0,532.0
491.0,500.0,493.0,512.0,535.0
488.0,501.0,486.0,501.0,536.0
493.0,506.0,486.0,497.0,530.0
495.0,509.0,487.0,492.0,529.0
498.0,506.0,490.0,486.0,522.0
498.0,504.0,492.0,481.0,520.0
502.0,502.0,497.0,483.0,517.0
513.0,504.0,507.0,488.0,510.0
519.0,507.0,519.0,499.0,504.0
531.0,508.0,535.0,513.0,493.0
542.0,511.0,547.0,530.0,491.0
541.0,512.0,550.0,541.0,488.0
537.0,512.0,551.0,551.0,492.0
524.0,507.0,541.0,547.0,500.0
518.0,506.0,534.0,546.0,506.0
511.0,500.0,514.0,532.0,524.0
493.0,497.0,498.0,520.0,539.0
486.0,500.0,489.0,509.0,536.0
489.0,502.0,485.0,500.0,531.0
489.0,502.0,483.0,494.0,532.0
492.0,503.0,485.0,491.0,530.0
501.0,505.0,490.0,484.0,522.0
519.0,506.0,499.0,478.0,514.0
523.0,505.0,501.0,481.0,514.0
523.0,505.0,512.0,492.0,506.0
529.0,507.0,525.0,505.0,501.0
539.0,510.0,539.0,522.0,489.0
537.0,510.0,546.0,535.0,485.0
535.0,512.0,549.0,544.0,492.0
531.0,509.0,545.0,547.0,497.0
522.0,505.0,538.0,545.0,506.0
508.0,502.0,525.0,538.0,516.0
494.0,497.0,508.0,525.0,530.0
498.0,501.0,497.0,524.0,531.0
495.0,501.0,487.0,504.0,529.0
494.0,504.0,484.0,500.0,533.0
492.0,505.0,483.0,487.0,532.0
500.0,507.0,489.0,486.0,524.0
502.0,506.0,494.0,484.0,523.0
504.0,503.0,495.0,481.0,518.0
515.0,504.0,508.0,488.0,513.0
523.0,505.0,517.0,497.0,502.0
527.0,507.0,528.0,509.0,499.0
532.0,508.0,538.0,522.0,491.0
546.0,513.0,546.0,538.0,489.0
534.0,510.0,549.0,547.0,493.0
523.0,508.0,543.0,546.0,502.0
516.0,507.0,537.0,546.0,507.0
500.0,499.0,519.0,535.0,522.0
492.0,498.0,508.0,525.0,531.0
485.0,501.0,493.0,513.0,534.0
497.0,504.0,485.0,504.0,531.0
500.0,505.0,485.0,495.0,530.0
499.0,508.0,486.0,490.0,527.0
502.0,509.0,496.0,489.0,524.0
504.0,509.0,493.0,482.0,516.0
515.0,507.0,500.0,485.0,510.0
518.0,505.0,510.0,491.0,506.0
521.0,505.0,520.0,500.0,504.0
536.0,510.0,534.0,513.0,496.0
535.0,512.0,542.0,528.0,489.0
539.0,513.0,548.0,540.0,490.0
535.0,512.0,548.0,548.0,494.0
526.0,510.0,542.0,548.0,504.0
519.0,506.0,534.0,545.0,508.0
504.0,502.0,514.0,531.0,527.0
494.0,500.0,498.0,520.0,533.0
492.0,503.0,491.0,510.0,529.0
493.0,506.0,489.0,502.0,530.0
495.0,506.0,484.0,493.0,533.0
503.0,512.0,489.0,491.0,525.0
500.0,506.0,489.0,484.0,518.0
502.0,504.0,493.0,482.0,517.0
508.0,505.0,502.0,485.0,515.0
518.0,507.0,513.0,494.0,504.0
529.0,508.0,527.0,505.0,499.0
532.0,510.0,540.0,520.0,494.0
538.0,513.0,546.0,535.0,490.0
541.0,512.0,553.0,546.0,490.0
532.0,512.0,550.0,547.0,495.0
520.0,513.0,540.0,548.0,511.0
513.0,506.0,529.0,541.0,522.0
497.0,500.0,509.0,526.0,533.0
486.0,502.0,494.0,515.0,536.0
493.0,503.0,489.0,507.0,533.0
499.0,508.0,487.0,501.0,526.0
499.0,505.0,484.0,495.0,518.0
503.0,507.0,487.0,487.0,509.0
506.0,507.0,494.0,485.0,516.0
509.0,508.0,495.0,483.0,519.0
509.0,503.0,501.0,486.0,510.0
526.0,508.0,518.0,498.0,499.0
530.0,509.0,534.0,510.0,492.0
536.0,512.0,540.0,525.0,488.0
538.0,511.0,548.0,538.0,486.0
537.0,512.0,550.0,547.0,490.0
529.0,510.0,543.0,551.0,500.0
523.0,508.0,538.0,546.0,507.0
510.0,503.0,519.0,536.0,523.0
497.0,498.0,503.0,523.0,529.0
494.0,500.0,493.0,515.0,533.0
492.0,503.0,488.0,504.0,530.0
496.0,507.0,485.0,495.0,531.0
498.0,507.0,489.0,489.0,526.0
504.0,507.0,490.0,487.0,517.0
504.0,505.0,494.0,483.0,519.0
507.0,505.0,503.0,483.0,516.0
514.0,503.0,509.0,489.0,508.0
521.0,505.0,520.0,500.0,500.0
529.0,508.0,534.0,516.0,494.0
535.0,511.0,544.0,534.0,488.0
535.0,511.0,550.0,542.0,487.0
532.0,511.0,549.0,549.0,494.0
520.0,507.0,541.0,548.0,502.0
519.0,505.0,534.0,547.0,506.0
505.0,500.0,515.0,534.0,523.0
487.0,499.0,498.0,522.0,531.0
494.0,502.0,492.0,513.0,530.0
489.0,505.0,487.0,501.0,533.0
487.0,509.0,482.0,491.0,531.0
496.0,509.0,488.0,489.0,525.0
513.0,506.0,490.0,485.0,517.0
514.0,504.0,492.0,480.0,518.0
522.0,505.0,501.0,482.0,515.0
523.0,505.0,515.0,497.0,506.0
529.0,506.0,523.0,503.0,500.0
540.0,509.0,535.0,518.0,493.0
545.0,514.0,549.0,536.0,489.0
543.0,512.0,549.0,546.0,492.0
537.0,510.0,547.0,548.0,496.0
529.0,506.0,536.0,546.0,501.0
517.0,501.0,523.0,538.0,513.0
501.0,500.0,512.0,530.0,524.0
493.0,501.0,495.0,518.0,532.0
494.0,502.0,487.0,508.0,524.0
491.0,507.0,486.0,501.0,530.0
493.0,506.0,483.0,488.0,534.0
502.0,509.0,489.0,488.0,527.0
505.0,508.0,492.0,483.0,522.0
504.0,506.0,494.0,481.0,518.0
507.0,504.0,507.0,488.0,513.0
515.0,506.0,518.0,498.0,505.0
521.0,511.0,528.0,511.0,501.0
528.0,510.0,541.0,526.0,494.0
530.0,510.0,548.0,540.0,487.0
536.0,513.0,551.0,548.0,492.0
539.0,510.0,542.0,546.0,497.0
528.0,507.0,536.0,548.0,507.0
506.0,499.0,517.0,532.0,523.0
494.0,499.0,503.0,519.0,531.0
496.0,502.0,497.0,512.0,532.0
497.0,505.0,488.0,505.0,532.0
496.0,505.0,485.0,494.0,532.0
504.0,505.0,485.0,489.0,524.0
505.0,506.0,489.0,486.0,518.0
507.0,505.0,494.0,481.0,517.0
513.0,507.0,499.0,484.0,512.0
518.0,504.0,512.0,493.0,507.0
520.0,503.0,519.0,503.0,501.0
527.0,510.0,533.0,515.0,494.0
535.0,512.0,546.0,530.0,491.0
534.0,511.0,549.0,540.0,490.0
531.0,512.0,550.0,550.0,495.0
522.0,508.0,540.0,546.0,503.0
513.0,504.0,532.0,548.0,508.0
499.0,499.0,511.0,532.0,523.0
499.0,499.0,498.0,520.0,530.0
497.0,503.0,492.0,512.0,532.0
495.0,504.0,487.0,504.0,530.0
494.0,504.0,484.0,494.0,531.0
499.0,505.0,488.0,489.0,521.0
501.0,506.0,490.0,484.0,518.0
504.0,505.0,495.0,484.0,518.0
509.0,503.0,501.0,484.0,514.0
518.0,506.0,515.0,496.0,506.0
516.0,505.0,524.0,505.0,498.0
524.0,508.0,536.0,520.0,496.0
530.0,509.0,546.0,535.0,492.0
529.0,511.0,549.0,546.0,495.0
527.0,508.0,544.0,546.0,497.0
529.0,511.0,538.0,548.0,505.0
524.0,506.0,524.0,541.0,516.0
503.0,497.0,506.0,526.0,526.0
495.0,500.0,496.0,516.0,530.0
494.0,502.0,489.0,507.0,530.0
493.0,505.0,486.0,497.0,529.0
498.0,504.0,486.0,492.0,526.0
501.0,506.0,487.0,487.0,519.0
507.0,505.0,491.0,485.0,515.0
510.0,504.0,496.0,486.0,511.0
512.0,501.0,505.0,487.0,508.0
520.0,505.0,517.0,497.0,505.0
526.0,506.0,526.0,508.0,496.0
536.0,509.0,542.0,525.0,490.0
540.0,514.0,547.0,538.0,487.0
536.0,513.0,556.0,544.0,496.0
527.0,507.0,543.0,546.0,504.0
518.0,511.0,535.0,546.0,511.0
503.0,499.0,517.0,533.0,524.0
491.0,495.0,500.0,521.0,528.0
490.0,500.0,492.0,517.0,531.0
489.0,503.0,487.0,504.0,531.0
488.0,504.0,484.0,494.0,531.0
489.0,504.0,483.0,489.0,527.0
506.0,507.0,490.0,488.0,520.0
514.0,506.0,493.0,483.0,522.0
514.0,503.0,497.0,482.0,516.0
517.0,500.0,508.0,489.0,508.0
523.0,507.0,523.0,501.0,502.0
532.0,510.0,535.0,516.0,493.0
536.0,512.0,544.0,531.0,484.0
538.0,512.0,550.0,542.0,490.0
535.0,510.0,547.0,547.0,490.0
529.0,513.0,542.0,548.0,503.0
518.0,508.0,534.0,543.0,513.0
502.0,503.0,510.0,530.0,529.0
491.0,497.0,496.0,516.0,530.0
491.0,502.0,491.0,508.0,532.0
495.0,506.0,487.0,501.0,531.0
495.0,505.0,485.0,494.0,529.0
495.0,507.0,488.0,490.0,523.0
502.0,505.0,490.0,484.0,520.0
502.0,509.0,494.0,482.0,517.0
509.0,509.0,506.0,484.0,512.0
518.0,505.0,513.0,493.0,506.0
525.0,505.0,522.0,505.0,503.0
530.0,511.0,538.0,520.0,498.0
536.0,515.0,546.0,535.0,490.0
534.0,511.0,550.0,545.0,492.0
528.0,511.0,547.0,550.0,496.0
522.0,507.0,539.0,547.0,502.0
508.0,500.0,524.0,539.0,516.0
492.0,498.0,506.0,526.0,531.0
496.0,500.0,495.0,516.0,532.0
494.0,504.0,487.0,507.0,535.0
497.0,505.0,485.0,499.0,534.0
494.0,504.0,482.0,489.0,532.0
503.0,511.0,486.0,487.0,523.0
504.0,507.0,491.0,483.0,521.0
509.0,507.0,497.0,483.0,518.0
513.0,505.0,503.0,486.0,509.0
523.0,507.0,518.0,499.0,502.0
529.0,507.0,528.0,512.0,496.0
533.0,514.0,539.0,530.0,491.0
537.0,513.0,549.0,539.0,489.0
534.0,513.0,552.0,546.0,493.0
525.0,508.0,543.0,547.0,501.0
521.0,506.0,535.0,545.0,505.0
503.0,501.0,518.0,535.0,523.0
489.0,500.0,501.0,523.0,535.0
493.0,502.0,490.0,511.0,531.0
500.0,505.0,488.0,506.0,529.0
499.0,506.0,484.0,499.0,532.0
500.0,505.0,483.0,487.0,530.0
501.0,506.0,487.0,484.0,523.0
505.0,506.0,493.0,482.0,521.0
512.0,506.0,499.0,483.0,517.0
517.0,505.0,510.0,493.0,505.0
525.0,508.0,522.0,502.0,502.0
529.0,511.0,537.0,519.0,496.0
534.0,512.0,546.0,534.0,485.0
535.0,513.0,552.0,544.0,491.0
525.0,510.0,548.0,546.0,500.0
516.0,507.0,540.0,545.0,507.0
520.0,507.0,533.0,544.0,511.0
500.0,501.0,512.0,529.0,530.0
496.0,499.0,496.0,517.0,532.0
499.0,503.0,491.0,509.0,534.0
490.0,505.0,489.0,501.0,532.0
492.0,504.0,484.0,498.0,529.0
502.0,507.0,487.0,489.0,522.0
505.0,508.0,492.0,486.0,520.0
514.0,505.0,493.0,482.0,516.0
525.0,506.0,503.0,485.0,512.0
525.0,511.0,513.0,495.0,505.0
528.0,508.0,525.0,505.0,499.0
539.0,511.0,536.0,524.0,493.0
544.0,514.0,552.0,537.0,492.0
537.0,511.0,549.0,545.0,497.0
530.0,510.0,545.0,547.0,502.0
522.0,507.0,538.0,546.0,509.0
513.0,499.0,525.0,536.0,519.0
504.0,500.0,509.0,526.0,529.0
499.0,500.0,495.0,516.0,532.0
498.0,504.0,488.0,507.0,530.0
499.0,507.0,485.0,500.0,530.0
501.0,505.0,485.0,488.0,531.0
503.0,508.0,488.0,485.0,521.0
505.0,507.0,493.0,484.0,522.0
508.0,504.0,495.0,483.0,517.0
515.0,504.0,505.0,488.0,513.0
522.0,506.0,517.0,497.0,506.0
534.0,510.0,531.0,510.0,495.0
536.0,512.0,540.0,526.0,488.0
540.0,513.0,547.0,540.0,489.0
534.0,513.0,550.0,546.0,493.0
528.0,510.0,544.0,553.0,501.0
521.0,508.0,539.0,546.0,508.0
506.0,499.0,515.0,534.0,521.0
495.0,500.0,502.0,523.0,532.0
494.0,502.0,494.0,515.0,532.0
493.0,505.0,486.0,504.0,529.0
496.0,507.0,483.0,496.0,528.0
498.0,507.0,485.0,491.0,527.0
501.0,506.0,489.0,485.0,526.0
504.0,504.0,492.0,481.0,520.0
509.0,507.0,500.0,485.0,516.0
514.0,503.0,506.0,489.0,510.0
514.0,505.0,522.0,505.0,505.0
527.0,510.0,532.0,516.0,493.0
537.0,513.0,546.0,530.0,491.0
541.0,512.0,548.0,541.0,491.0
538.0,512.0,548.0,550.0,496.0
526.0,508.0,540.0,547.0,504.0
518.0,506.0,532.0,545.0,510.0
502.0,503.0,512.0,532.0,527.0
498.0,498.0,498.0,516.0,530.0
494.0,503.0,491.0,510.0,532.0
494.0,504.0,485.0,501.0,530.0
499.0,505.0,482.0,493.0,529.0
502.0,505.0,486.0,491.0,522.0
500.0,505.0,489.0,487.0,516.0
499.0,506.0,493.0,481.0,522.0
512.0,506.0,502.0,484.0,513.0
520.0,507.0,514.0,494.0,505.0
525.0,509.0,526.0,507.0,501.0
531.0,511.0,537.0,527.0,492.0
539.0,514.0,546.0,536.0,490.0
534.0,512.0,548.0,543.0,497.0
528.0,511.0,548.0,550.0,497.0
521.0,508.0,538.0,547.0,506.0
513.0,503.0,524.0,539.0,520.0
499.0,500.0,510.0,527.0,530.0
490.0,503.0,492.0,514.0,529.0
493.0,508.0,489.0,506.0,529.0
490.0,505.0,488.0,498.0,532.0
494.0,503.0,483.0,492.0,527.0
499.0,503.0,487.0,485.0,527.0
502.0,506.0,491.0,483.0,523.0
504.0,505.0,496.0,483.0,518.0
512.0,504.0,506.0,488.0,514.0
518.0,505.0,518.0,499.0,502.0
527.0,508.0,530.0,513.0,497.0
533.0,516.0,541.0,527.0,491.0
537.0,510.0,547.0,539.0,489.0
539.0,512.0,549.0,548.0,491.0
526.0,508.0,543.0,548.0,502.0
519.0,506.0,534.0,546.0,508.0
507.0,498.0,515.0,531.0,522.0
495.0,498.0,500.0,522.0,532.0
496.0,501.0,495.0,515.0,533.0
492.0,503.0,483.0,504.0,530.0
493.0,505.0,483.0,495.0,529.0
498.0,507.0,484.0,490.0,527.0
501.0,506.0,489.0,487.0,526.0
502.0,503.0,491.0,482.0,517.0
508.0,505.0,498.0,484.0,513.0
514.0,506.0,508.0,491.0,507.0
524.0,507.0,521.0,501.0,503.0
533.0,511.0,534.0,517.0,495.0
538.0,513.0,544.0,532.0,486.0
538.0,511.0,549.0,543.0,491.0
533.0,511.0,547.0,548.0,494.0
523.0,508.0,541.0,547.0,503.0
515.0,507.0,533.0,548.0,514.0
498.0,500.0,512.0,529.0,529.0
493.0,500.0,502.0,517.0,534.0
488.0,500.0,489.0,508.0,534.0
491.0,504.0,484.0,499.0,532.0
492.0,505.0,483.0,491.0,531.0
494.0,510.0,486.0,488.0,527.0
500.0,507.0,490.0,484.0,520.0
508.0,505.0,495.0,481.0,515.0
514.0,506.0,503.0,486.0,514.0
518.0,506.0,514.0,493.0,508.0
533.0,508.0,528.0,504.0,500.0
539.0,509.0,537.0,521.0,492.0
540.0,513.0,548.0,540.0,488.0
535.0,511.0,548.0,544.0,493.0
528.0,510.0,545.0,548.0,502.0
521.0,508.0,539.0,548.0,505.0
507.0,501.0,524.0,540.0,520.0
490.0,498.0,509.0,525.0,533.0
491.0,501.0,499.0,514.0,532.0
485.0,501.0,486.0,504.0,536.0
490.0,505.0,483.0,496.0,532.0
499.0,506.0,484.0,490.0,530.0
510.0,510.0,490.0,489.0,525.0
506.0,506.0,492.0,483.0,521.0
504.0,504.0,495.0,481.0,517.0
511.0,504.0,504.0,487.0,516.0
530.0,506.0,517.0,497.0,499.0
532.0,508.0,528.0,514.0,494.0
539.0,509.0,544.0,527.0,484.0
540.0,513.0,548.0,541.0,485.0
538.0,517.0,548.0,546.0,495.0
535.0,508.0,543.0,548.0,500.0
527.0,509.0,538.0,549.0,503.0
507.0,501.0,517.0,535.0,521.0
491.0,497.0,499.0,521.0,532.0
485.0,500.0,491.0,510.0,532.0
483.0,502.0,485.0,501.0,533.0
487.0,505.0,484.0,492.0,530.0
486.0,508.0,484.0,487.0,526.0
493.0,508.0,491.0,488.0,521.0
509.0,507.0,494.0,484.0,520.0
526.0,507.0,500.0,483.0,512.0
537.0,510.0,509.0,490.0,503.0
541.0,504.0,520.0,499.0,497.0
535.0,508.0,533.0,516.0,497.0
541.0,513.0,544.0,532.0,491.0
540.0,511.0,549.0,542.0,494.0
536.0,511.0,547.0,548.0,496.0
526.0,506.0,538.0,545.0,503.0
519.0,506.0,531.0,545.0,509.0
504.0,499.0,511.0,530.0,522.0
497.0,499.0,498.0,523.0,531.0
493.0,503.0,491.0,509.0,534.0
494.0,505.0,485.0,501.0,531.0
494.0,503.0,482.0,490.0,528.0
500.0,506.0,484.0,488.0,526.0
505.0,512.0,489.0,486.0,520.0
511.0,505.0,494.0,485.0,514.0
516.0,504.0,502.0,489.0,505.0
517.0,506.0,516.0,500.0,507.0
522.0,507.0,523.0,504.0,506.0
530.0,509.0,535.0,520.0,496.0
535.0,511.0,547.0,538.0,490.0
532.0,510.0,548.0,544.0,494.0
530.0,508.0,545.0,546.0,501.0
521.0,509.0,538.0,548.0,509.0
507.0,500.0,521.0,539.0,525.0
497.0,499.0,505.0,526.0,530.0
499.0,501.0,495.0,517.0,531.0
493.0,503.0,488.0,510.0,534.0
492.0,506.0,486.0,500.0,533.0
499.0,505.0,484.0,491.0,529.0
502.0,505.0,488.0,488.0,528.0
500.0,505.0,490.0,483.0,517.0
504.0,505.0,496.0,483.0,511.0
512.0,502.0,505.0,488.0,510.0
518.0,505.0,517.0,498.0,503.0
524.0,508.0,530.0,513.0,497.0
531.0,511.0,544.0,528.0,490.0
544.0,517.0,549.0,546.0,486.0
541.0,514.0,548.0,546.0,491.0
525.0,511.0,544.0,548.0,501.0
519.0,507.0,538.0,546.0,506.0
504.0,500.0,516.0,535.0,522.0
494.0,497.0,500.0,522.0,531.0
492.0,502.0,492.0,514.0,531.0
495.0,505.0,487.0,502.0,531.0
495.0,506.0,484.0,495.0,530.0
496.0,507.0,485.0,490.0,528.0
502.0,507.0,489.0,486.0,521.0
503.0,501.0,492.0,482.0,517.0
509.0,505.0,500.0,485.0,514.0
514.0,503.0,508.0,489.0,507.0
527.0,506.0,523.0,504.0,502.0
533.0,514.0,535.0,519.0,496.0
537.0,513.0,545.0,533.0,490.0
535.0,510.0,548.0,542.0,493.0
533.0,512.0,548.0,548.0,499.0
525.0,509.0,540.0,547.0,505.0
518.0,507.0,532.0,545.0,511.0
502.0,500.0,511.0,531.0,524.0
492.0,498.0,496.0,518.0,531.0
489.0,500.0,487.0,509.0,529.0
491.0,504.0,485.0,501.0,530.0
497.0,506.0,485.0,493.0,528.0
497.0,506.0,485.0,488.0,526.0
499.0,506.0,493.0,483.0,521.0
506.0,503.0,492.0,479.0,515.0
511.0,503.0,503.0,486.0,513.0
519.0,505.0,514.0,494.0,504.0
528.0,510.0,525.0,508.0,499.0
534.0,512.0,538.0,523.0,493.0
535.0,513.0,546.0,535.0,486.0
535.0,513.0,550.0,545.0,493.0
530.0,509.0,543.0,546.0,498.0
520.0,507.0,541.0,545.0,509.0
509.0,500.0,523.0,537.0,518.0
493.0,498.0,506.0,525.0,527.0
490.0,500.0,495.0,516.0,532.0
494.0,503.0,490.0,507.0,532.0
493.0,507.0,486.0,499.0,531.0
503.0,505.0,487.0,491.0,526.0
505.0,506.0,487.0,484.0,522.0
504.0,505.0,491.0,482.0,517.0
511.0,505.0,497.0,482.0,517.0
515.0,502.0,504.0,485.0,510.0
525.0,506.0,519.0,500.0,504.0
533.0,508.0,532.0,515.0,496.0
539.0,515.0,541.0,528.0,493.0
536.0,510.0,548.0,539.0,490.0
531.0,507.0,547.0,546.0,494.0
529.0,510.0,543.0,548.0,501.0
519.0,507.0,536.0,546.0,507.0
501.0,503.0,515.0,531.0,523.0
499.0,497.0,499.0,520.0,530.0
502.0,500.0,492.0,512.0,529.0
496.0,505.0,488.0,505.0,532.0
493.0,504.0,484.0,496.0,531.0
495.0,510.0,483.0,488.0,527.0
500.0,507.0,488.0,485.0,520.0
505.0,505.0,493.0,483.0,518.0
509.0,506.0,504.0,486.0,518.0
515.0,505.0,511.0,491.0,509.0
521.0,505.0,522.0,502.0,505.0
528.0,509.0,536.0,521.0,494.0
541.0,512.0,545.0,532.0,489.0
535.0,511.0,549.0,542.0,493.0
539.0,510.0,547.0,548.0,490.0
527.0,511.0,540.0,548.0,506.0
519.0,506.0,536.0,543.0,513.0
501.0,498.0,509.0,527.0,525.0
493.0,500.0,497.0,517.0,531.0
491.0,501.0,491.0,510.0,533.0
490.0,504.0,487.0,503.0,532.0
493.0,504.0,483.0,492.0,529.0
496.0,504.0,484.0,484.0,525.0
499.0,505.0,492.0,484.0,520.0
509.0,506.0,496.0,483.0,519.0
511.0,503.0,502.0,485.0,513.0
518.0,504.0,514.0,494.0,507.0
529.0,506.0,525.0,510.0,504.0
545.0,511.0,539.0,523.0,496.0
550.0,512.0,546.0,536.0,489.0
541.0,513.0,550.0,545.0,493.0
532.0,509.0,542.0,548.0,494.0
526.0,506.0,539.0,553.0,502.0
512.0,501.0,521.0,539.0,522.0
496.0,497.0,504.0,523.0,529.0
490.0,500.0,494.0,515.0,531.0
492.0,504.0,487.0,509.0,532.0
492.0,505.0,487.0,499.0,524.0
490.0,504.0,484.0,491.0,525.0
494.0,505.0,487.0,485.0,522.0
509.0,506.0,492.0,483.0,517.0
513.0,505.0,497.0,483.0,518.0
515.0,503.0,504.0,486.0,514.0
524.0,506.0,518.0,498.0,505.0
530.0,509.0,530.0,515.0,498.0
534.0,512.0,542.0,526.0,490.0
536.0,512.0,550.0,541.0,490.0
532.0,509.0,546.0,545.0,495.0
521.0,509.0,543.0,548.0,505.0
517.0,509.0,536.0,549.0,510.0
505.0,502.0,516.0,533.0,525.0
495.0,500.0,502.0,522.0,534.0
499.0,502.0,492.0,512.0,533.0
499.0,504.0,488.0,501.0,530.0
501.0,505.0,484.0,496.0,529.0
501.0,505.0,485.0,489.0,527.0
505.0,507.0,493.0,486.0,523.0
505.0,506.0,494.0,483.0,521.0
510.0,505.0,500.0,487.0,518.0
517.0,504.0,510.0,492.0,505.0
524.0,506.0,522.0,506.0,503.0
530.0,512.0,534.0,519.0,496.0
538.0,510.0,544.0,531.0,490.0
540.0,511.0,549.0,543.0,491.0
530.0,510.0,553.0,547.0,498.0
524.0,508.0,540.0,547.0,504.0
517.0,506.0,531.0,543.0,515.0
501.0,498.0,511.0,530.0,526.0
493.0,498.0,497.0,518.0,532.0
493.0,501.0,489.0,510.0,536.0
494.0,506.0,486.0,501.0,533.0
495.0,507.0,485.0,493.0,530.0
500.0,507.0,487.0,490.0,526.0
503.0,508.0,490.0,485.0,524.0
505.0,505.0,496.0,483.0,518.0
510.0,502.0,502.0,485.0,518.0
518.0,505.0,514.0,495.0,505.0
524.0,506.0,526.0,506.0,504.0
534.0,511.0,536.0,522.0,494.0
536.0,510.0,548.0,537.0,489.0
532.0,510.0,549.0,545.0,493.0
530.0,509.0,545.0,548.0,502.0
522.0,506.0,539.0,551.0,507.0
508.0,500.0,522.0,536.0,522.0
496.0,498.0,506.0,525.0,527.0
493.0,502.0,495.0,515.0,531.0
494.0,503.0,487.0,507.0,535.0
494.0,504.0,484.0,498.0,529.0
492.0,504.0,484.0,490.0,527.0
497.0,507.0,489.0,488.0,524.0
506.0,507.0,497.0,489.0,518.0
512.0,505.0,497.0,484.0,515.0
515.0,503.0,506.0,488.0,511.0
521.0,504.0,521.0,497.0,506.0
532.0,508.0,531.0,514.0,495.0
543.0,513.0,544.0,531.0,490.0
539.0,511.0,549.0,542.0,490.0
536.0,511.0,550.0,546.0,497.0
528.0,508.0,543.0,546.0,501.0
518.0,504.0,533.0,544.0,508.0
499.0,499.0,516.0,532.0,526.0
493.0,499.0,501.0,522.0,533.0
491.0,501.0,492.0,513.0,535.0
493.0,503.0,486.0,503.0,531.0
492.0,504.0,482.0,492.0,530.0
500.0,505.0,485.0,489.0,527.0
503.0,506.0,491.0,487.0,522.0
504.0,504.0,493.0,483.0,517.0
511.0,506.0,502.0,488.0,516.0
511.0,506.0,510.0,491.0,508.0
521.0,506.0,523.0,503.0,507.0
531.0,510.0,540.0,517.0,499.0
539.0,513.0,547.0,534.0,489.0
538.0,511.0,549.0,549.0,489.0
534.0,511.0,549.0,549.0,493.0
518.0,506.0,540.0,548.0,501.0
518.0,506.0,532.0,545.0,510.0
499.0,498.0,509.0,527.0,524.0
495.0,500.0,497.0,519.0,533.0
488.0,500.0,490.0,509.0,532.0
494.0,504.0,489.0,499.0,528.0
499.0,506.0,485.0,493.0,526.0
503.0,506.0,487.0,488.0,524.0
503.0,505.0,490.0,484.0,518.0
506.0,505.0,495.0,484.0,517.0
511.0,503.0,502.0,485.0,511.0
519.0,506.0,516.0,500.0,505.0
523.0,506.0,526.0,508.0,498.0
533.0,510.0,539.0,523.0,492.0
537.0,513.0,549.0,543.0,487.0
538.0,511.0,550.0,546.0,493.0
532.0,509.0,545.0,548.0,500.0
524.0,507.0,538.0,548.0,506.0
509.0,499.0,521.0,537.0,522.0
496.0,498.0,505.0,525.0,533.0
495.0,501.0,496.0,516.0,536.0
495.0,503.0,489.0,506.0,532.0
489.0,505.0,485.0,498.0,526.0
491.0,505.0,484.0,490.0,527.0
498.0,507.0,490.0,488.0,523.0
504.0,506.0,495.0,487.0,521.0
507.0,505.0,497.0,483.0,516.0
518.0,507.0,509.0,489.0,507.0
533.0,505.0,519.0,498.0,498.0
538.0,509.0,535.0,516.0,495.0
537.0,510.0,543.0,529.0,489.0
536.0,509.0,548.0,541.0,490.0
537.0,511.0,548.0,547.0,492.0
526.0,509.0,543.0,546.0,499.0
516.0,507.0,535.0,545.0,508.0
507.0,501.0,516.0,532.0,527.0
501.0,501.0,498.0,521.0,530.0
497.0,503.0,494.0,514.0,533.0
492.0,506.0,488.0,506.0,531.0
492.0,505.0,484.0,493.0,532.0
495.0,504.0,485.0,487.0,530.0
501.0,505.0,489.0,483.0,524.0
508.0,505.0,493.0,482.0,519.0
516.0,503.0,504.0,484.0,513.0
520.0,504.0,512.0,492.0,505.0
527.0,505.0,523.0,503.0,501.0
534.0,511.0,536.0,519.0,495.0
534.0,512.0,545.0,531.0,492.0
539.0,512.0,550.0,543.0,496.0
532.0,509.0,547.0,548.0,496.0
524.0,508.0,540.0,547.0,505.0
515.0,505.0,531.0,547.0,513.0
500.0,501.0,510.0,529.0,524.0
495.0,500.0,497.0,519.0,532.0
496.0,501.0,488.0,508.0,534.0
494.0,503.0,487.0,499.0,528.0
491.0,504.0,482.0,492.0,527.0
496.0,506.0,487.0,485.0,523.0
509.0,507.0,492.0,486.0,519.0
505.0,507.0,493.0,483.0,512.0
511.0,507.0,505.0,487.0,509.0
517.0,507.0,516.0,495.0,509.0
521.0,507.0,525.0,504.0,502.0
530.0,510.0,538.0,523.0,495.0
534.0,510.0,547.0,537.0,492.0
536.0,512.0,549.0,544.0,494.0
526.0,508.0,544.0,547.0,496.0
519.0,506.0,537.0,545.0,503.0
508.0,500.0,520.0,536.0,517.0
502.0,500.0,506.0,526.0,529.0
495.0,500.0,494.0,515.0,530.0
495.0,503.0,488.0,507.0,530.0
498.0,508.0,485.0,498.0,529.0
495.0,505.0,484.0,489.0,531.0
499.0,505.0,487.0,486.0,524.0
503.0,504.0,496.0,483.0,518.0
508.0,504.0,497.0,483.0,516.0
516.0,508.0,508.0,490.0,512.0
522.0,505.0,519.0,499.0,503.0
529.0,509.0,531.0,514.0,496.0
532.0,512.0,544.0,529.0,494.0
534.0,509.0,545.0,539.0,490.0
526.0,510.0,547.0,546.0,499.0
518.0,508.0,542.0,547.0,504.0
511.0,508.0,533.0,545.0,510.0
495.0,498.0,514.0,530.0,525.0
498.0,502.0,500.0,520.0,531.0
496.0,500.0,490.0,510.0,530.0
497.0,505.0,488.0,503.0,529.0
498.0,505.0,486.0,494.0,528.0
499.0,504.0,484.0,488.0,524.0
505.0,505.0,488.0,484.0,519.0
516.0,507.0,493.0,484.0,517.0
518.0,506.0,501.0,485.0,514.0
531.0,507.0,512.0,493.0,503.0
534.0,508.0,522.0,504.0,499.0
534.0,512.0,536.0,518.0,497.0
542.0,512.0,543.0,533.0,484.0
542.0,513.0,551.0,545.0,487.0
534.0,510.0,546.0,549.0,492.0
526.0,508.0,540.0,549.0,503.0
512.0,505.0,530.0,542.0,521.0
499.0,504.0,511.0,531.0,529.0
489.0,499.0,496.0,516.0,533.0
484.0,504.0,490.0,508.0,532.0
495.0,508.0,486.0,504.0,530.0
498.0,507.0,485.0,493.0,526.0
499.0,504.0,485.0,485.0,521.0
507.0,507.0,487.0,480.0,521.0
514.0,506.0,494.0,483.0,516.0
514.0,507.0,501.0,485.0,507.0
523.0,507.0,516.0,496.0,504.0
526.0,507.0,525.0,506.0,501.0
530.0,511.0,539.0,523.0,496.0
538.0,513.0,548.0,538.0,492.0
534.0,510.0,553.0,543.0,503.0
527.0,509.0,544.0,547.0,509.0
518.0,507.0,537.0,546.0,512.0
502.0,501.0,520.0,537.0,524.0
498.0,500.0,505.0,526.0,532.0
495.0,505.0,494.0,515.0,532.0
494.0,502.0,489.0,504.0,528.0
484.0,504.0,484.0,496.0,526.0
489.0,505.0,482.0,490.0,522.0
