CH1,CH2,CH3,CH4,CH5
509.0,507.0,502.0,484.0,513.0
521.0,505.0,512.0,492.0,507.0
524.0,505.0,520.0,502.0,498.0
533.0,508.0,533.0,519.0,498.0
531.0,508.0,539.0,534.0,499.0
529.0,507.0,540.0,546.0,500.0
523.0,508.0,535.0,545.0,507.0
520.0,504.0,530.0,546.0,508.0
510.0,502.0,520.0,539.0,523.0
500.0,501.0,507.0,529.0,527.0
499.0,505.0,501.0,521.0,527.0
500.0,506.0,495.0,511.0,531.0
501.0,510.0,494.0,499.0,522.0
505.0,511.0,494.0,494.0,521.0
508.0,511.0,497.0,490.0,513.0
508.0,508.0,498.0,484.0,512.0
508.0,510.0,504.0,480.0,513.0
511.0,508.0,506.0,483.0,514.0
523.0,504.0,516.0,492.0,506.0
525.0,506.0,525.0,511.0,504.0
526.0,511.0,532.0,521.0,497.0
529.0,507.0,539.0,539.0,499.0
529.0,509.0,540.0,545.0,505.0
522.0,504.0,535.0,547.0,510.0
515.0,504.0,529.0,544.0,511.0
504.0,505.0,514.0,535.0,523.0
500.0,500.0,504.0,525.0,525.0
502.0,506.0,499.0,517.0,525.0
499.0,508.0,494.0,506.0,523.0
501.0,512.0,495.0,499.0,525.0
504.0,511.0,494.0,494.0,517.0
508.0,510.0,497.0,488.0,517.0
510.0,509.0,499.0,483.0,513.0
513.0,506.0,502.0,483.0,508.0
516.0,505.0,511.0,489.0,509.0
520.0,504.0,518.0,497.0,506.0
524.0,505.0,527.0,510.0,500.0
528.0,508.0,536.0,527.0,499.0
530.0,507.0,539.0,538.0,498.0
528.0,506.0,539.0,548.0,498.0
523.0,504.0,533.0,547.0,501.0
514.0,503.0,527.0,544.0,513.0
505.0,503.0,512.0,530.0,528.0
501.0,504.0,503.0,523.0,525.0
499.0,506.0,497.0,514.0,524.0
505.0,511.0,497.0,506.0,525.0
503.0,507.0,490.0,491.0,521.0
507.0,513.0,497.0,489.0,518.0
508.0,511.0,498.0,484.0,514.0
510.0,506.0,498.0,480.0,517.0
509.0,505.0,504.0,480.0,513.0
515.0,504.0,510.0,489.0,505.0
522.0,505.0,519.0,502.0,504.0
523.0,505.0,529.0,515.0,499.0
531.0,508.0,539.0,529.0,494.0
531.0,506.0,539.0,541.0,495.0
524.0,504.0,536.0,544.0,502.0
521.0,505.0,530.0,543.0,506.0
507.0,507.0,521.0,537.0,524.0
500.0,500.0,507.0,527.0,529.0
497.0,504.0,500.0,518.0,530.0
497.0,507.0,495.0,506.0,527.0
506.0,511.0,495.0,500.0,523.0
503.0,510.0,493.0,492.0,521.0
505.0,511.0,497.0,487.0,519.0
506.0,508.0,497.0,486.0,519.0
508.0,506.0,500.0,480.0,514.0
509.0,502.0,503.0,482.0,512.0
518.0,503.0,515.0,493.0,511.0
522.0,505.0,523.0,505.0,505.0
529.0,510.0,531.0,521.0,499.0
534.0,505.0,538.0,537.0,498.0
531.0,509.0,541.0,545.0,499.0
523.0,506.0,537.0,546.0,506.0
521.0,506.0,530.0,546.0,509.0
504.0,498.0,516.0,535.0,521.0
497.0,502.0,505.0,526.0,529.0
497.0,505.0,497.0,518.0,526.0
500.0,510.0,496.0,508.0,524.0
502.0,509.0,491.0,500.0,521.0
506.0,511.0,495.0,492.0,520.0
509.0,512.0,498.0,488.0,516.0
512.0,508.0,498.0,486.0,518.0
512.0,506.0,501.0,480.0,513.0
515.0,503.0,508.0,485.0,511.0
520.0,504.0,518.0,496.0,508.0
525.0,506.0,526.0,508.0,501.0
528.0,506.0,535.0,524.0,497.0
533.0,507.0,543.0,537.0,499.0
527.0,507.0,541.0,545.0,503.0
521.0,506.0,535.0,544.0,511.0
516.0,505.0,530.0,544.0,514.0
502.0,500.0,512.0,531.0,524.0
498.0,502.0,502.0,521.0,528.0
500.0,505.0,498.0,513.0,528.0
500.0,508.0,495.0,504.0,523.0
500.0,509.0,494.0,496.0,521.0
503.0,510.0,497.0,490.0,517.0
508.0,509.0,498.0,481.0,518.0
513.0,508.0,500.0,481.0,517.0
514.0,505.0,504.0,481.0,513.0
514.0,503.0,513.0,490.0,507.0
522.0,507.0,521.0,502.0,506.0
525.0,506.0,530.0,512.0,500.0
530.0,508.0,539.0,529.0,494.0
527.0,509.0,541.0,540.0,498.0
522.0,506.0,539.0,544.0,504.0
516.0,504.0,533.0,544.0,509.0
510.0,503.0,523.0,539.0,519.0
500.0,500.0,510.0,528.0,525.0
497.0,504.0,502.0,519.0,526.0
499.0,507.0,497.0,509.0,528.0
500.0,508.0,494.0,502.0,520.0
501.0,510.0,498.0,494.0,520.0
507.0,512.0,496.0,486.0,513.0
513.0,509.0,503.0,484.0,514.0
513.0,506.0,502.0,482.0,512.0
510.0,503.0,506.0,481.0,512.0
517.0,505.0,517.0,493.0,508.0
522.0,503.0,524.0,504.0,501.0
527.0,505.0,533.0,519.0,495.0
532.0,506.0,541.0,535.0,498.0
530.0,510.0,544.0,545.0,499.0
524.0,507.0,539.0,545.0,510.0
516.0,506.0,533.0,546.0,511.0
503.0,500.0,517.0,536.0,521.0
499.0,501.0,507.0,528.0,522.0
497.0,504.0,504.0,516.0,526.0
499.0,503.0,498.0,505.0,526.0
503.0,507.0,498.0,500.0,523.0
503.0,511.0,496.0,492.0,522.0
502.0,507.0,496.0,484.0,517.0
506.0,506.0,498.0,480.0,516.0
511.0,508.0,504.0,481.0,514.0
512.0,507.0,507.0,483.0,508.0
521.0,505.0,522.0,495.0,508.0
525.0,507.0,530.0,515.0,504.0
534.0,509.0,539.0,526.0,499.0
535.0,508.0,541.0,537.0,498.0
529.0,508.0,540.0,545.0,499.0
520.0,505.0,535.0,545.0,507.0
514.0,504.0,530.0,544.0,512.0
501.0,500.0,513.0,530.0,524.0
502.0,503.0,505.0,522.0,527.0
499.0,506.0,499.0,513.0,527.0
501.0,509.0,496.0,505.0,524.0
501.0,508.0,494.0,497.0,523.0
506.0,508.0,495.0,494.0,515.0
507.0,509.0,499.0,485.0,517.0
504.0,504.0,498.0,483.0,513.0
512.0,502.0,505.0,483.0,513.0
520.0,502.0,512.0,489.0,505.0
524.0,504.0,521.0,500.0,502.0
524.0,505.0,535.0,514.0,498.0
528.0,506.0,539.0,528.0,502.0
527.0,505.0,539.0,537.0,500.0
525.0,507.0,543.0,546.0,502.0
521.0,506.0,534.0,544.0,508.0
513.0,501.0,524.0,540.0,517.0
501.0,503.0,513.0,532.0,525.0
499.0,506.0,504.0,522.0,529.0
504.0,506.0,496.0,510.0,525.0
506.0,510.0,496.0,502.0,525.0
503.0,508.0,492.0,491.0,521.0
507.0,511.0,498.0,490.0,518.0
508.0,505.0,497.0,483.0,517.0
510.0,506.0,501.0,481.0,517.0
511.0,506.0,508.0,481.0,517.0
520.0,507.0,516.0,492.0,507.0
520.0,506.0,524.0,504.0,500.0
528.0,509.0,535.0,521.0,496.0
530.0,508.0,540.0,532.0,498.0
533.0,509.0,546.0,541.0,504.0
523.0,507.0,538.0,544.0,511.0
517.0,505.0,533.0,545.0,515.0
503.0,502.0,519.0,536.0,525.0
498.0,500.0,506.0,525.0,528.0
497.0,505.0,500.0,517.0,524.0
499.0,509.0,497.0,508.0,525.0
504.0,510.0,498.0,498.0,523.0
503.0,510.0,494.0,492.0,517.0
509.0,514.0,497.0,487.0,515.0
509.0,507.0,499.0,483.0,515.0
515.0,508.0,502.0,481.0,514.0
513.0,504.0,508.0,486.0,510.0
516.0,503.0,521.0,494.0,506.0
524.0,506.0,528.0,509.0,500.0
530.0,509.0,537.0,525.0,496.0
527.0,507.0,540.0,534.0,499.0
526.0,507.0,540.0,543.0,501.0
520.0,504.0,536.0,544.0,508.0
514.0,504.0,533.0,543.0,511.0
502.0,500.0,514.0,532.0,524.0
498.0,501.0,508.0,523.0,528.0
496.0,505.0,498.0,515.0,525.0
502.0,510.0,501.0,507.0,522.0
504.0,509.0,494.0,498.0,521.0
506.0,512.0,497.0,491.0,515.0
508.0,509.0,497.0,485.0,515.0
508.0,505.0,499.0,481.0,513.0
510.0,503.0,503.0,482.0,510.0
519.0,503.0,512.0,492.0,508.0
521.0,503.0,520.0,500.0,505.0
528.0,505.0,531.0,519.0,499.0
535.0,507.0,540.0,530.0,496.0
534.0,506.0,543.0,538.0,498.0
526.0,505.0,540.0,544.0,502.0
519.0,503.0,533.0,544.0,507.0
512.0,503.0,525.0,545.0,518.0
503.0,501.0,512.0,531.0,524.0
501.0,505.0,503.0,521.0,528.0
497.0,507.0,496.0,510.0,526.0
501.0,512.0,496.0,505.0,524.0
499.0,507.0,492.0,493.0,521.0
505.0,508.0,496.0,490.0,516.0
508.0,506.0,496.0,484.0,512.0
510.0,507.0,501.0,482.0,517.0
511.0,501.0,504.0,482.0,511.0
522.0,503.0,517.0,493.0,504.0
521.0,503.0,523.0,504.0,501.0
529.0,507.0,533.0,521.0,497.0
530.0,507.0,540.0,532.0,497.0
527.0,509.0,542.0,542.0,497.0
522.0,505.0,537.0,544.0,504.0
519.0,505.0,532.0,544.0,507.0
504.0,500.0,519.0,537.0,518.0
501.0,502.0,509.0,530.0,524.0
498.0,506.0,501.0,520.0,524.0
499.0,507.0,496.0,508.0,531.0
498.0,509.0,494.0,499.0,527.0
502.0,509.0,494.0,493.0,522.0
503.0,508.0,495.0,487.0,517.0
507.0,507.0,500.0,486.0,514.0
508.0,505.0,501.0,483.0,508.0
514.0,504.0,508.0,487.0,514.0
514.0,501.0,513.0,492.0,509.0
528.0,508.0,529.0,512.0,501.0
531.0,507.0,538.0,527.0,496.0
530.0,510.0,543.0,537.0,502.0
526.0,510.0,542.0,543.0,503.0
517.0,507.0,534.0,543.0,510.0
515.0,505.0,531.0,545.0,514.0
502.0,500.0,515.0,534.0,524.0
496.0,502.0,504.0,524.0,528.0
498.0,504.0,499.0,516.0,530.0
501.0,508.0,495.0,507.0,523.0
500.0,508.0,492.0,497.0,523.0
504.0,509.0,496.0,493.0,518.0
511.0,508.0,497.0,490.0,517.0
507.0,506.0,499.0,483.0,517.0
511.0,505.0,504.0,483.0,514.0
514.0,502.0,511.0,489.0,509.0
518.0,502.0,520.0,500.0,506.0
526.0,505.0,531.0,515.0,501.0
530.0,507.0,539.0,529.0,495.0
528.0,510.0,541.0,540.0,500.0
529.0,507.0,540.0,545.0,504.0
519.0,505.0,535.0,545.0,510.0
510.0,501.0,524.0,541.0,516.0
500.0,500.0,512.0,531.0,525.0
499.0,504.0,503.0,522.0,533.0
501.0,506.0,499.0,513.0,527.0
501.0,512.0,493.0,503.0,521.0
502.0,508.0,493.0,495.0,521.0
507.0,510.0,498.0,492.0,517.0
510.0,507.0,497.0,486.0,517.0
508.0,505.0,499.0,481.0,513.0
515.0,503.0,507.0,483.0,511.0
518.0,501.0,514.0,494.0,509.0
522.0,504.0,524.0,505.0,504.0
527.0,506.0,533.0,519.0,498.0
529.0,506.0,540.0,533.0,496.0
532.0,510.0,542.0,544.0,501.0
523.0,509.0,539.0,545.0,505.0
517.0,505.0,534.0,545.0,510.0
505.0,499.0,519.0,537.0,522.0
498.0,500.0,507.0,527.0,528.0
498.0,505.0,501.0,520.0,528.0
499.0,506.0,498.0,509.0,526.0
500.0,508.0,493.0,501.0,523.0
501.0,506.0,492.0,491.0,518.0
506.0,508.0,496.0,488.0,516.0
507.0,506.0,498.0,484.0,517.0
509.0,504.0,502.0,483.0,516.0
516.0,502.0,507.0,490.0,512.0
515.0,502.0,515.0,495.0,508.0
524.0,506.0,529.0,511.0,502.0
529.0,506.0,537.0,524.0,496.0
530.0,505.0,542.0,539.0,499.0
533.0,507.0,544.0,542.0,498.0
521.0,504.0,535.0,544.0,502.0
515.0,503.0,531.0,545.0,510.0
505.0,501.0,519.0,534.0,523.0
497.0,502.0,505.0,525.0,529.0
498.0,504.0,498.0,515.0,523.0
498.0,508.0,494.0,507.0,522.0
502.0,510.0,494.0,499.0,523.0
506.0,511.0,496.0,496.0,521.0
508.0,508.0,496.0,486.0,513.0
508.0,506.0,499.0,483.0,513.0
511.0,505.0,504.0,486.0,512.0
515.0,504.0,510.0,488.0,511.0
519.0,503.0,520.0,500.0,507.0
525.0,504.0,529.0,513.0,499.0
531.0,506.0,538.0,528.0,498.0
528.0,505.0,542.0,539.0,501.0
520.0,508.0,541.0,544.0,504.0
516.0,505.0,534.0,543.0,509.0
513.0,504.0,528.0,540.0,512.0
502.0,502.0,513.0,532.0,522.0
496.0,505.0,504.0,523.0,530.0
495.0,506.0,496.0,512.0,527.0
499.0,509.0,493.0,503.0,523.0
502.0,508.0,492.0,494.0,523.0
508.0,511.0,497.0,493.0,517.0
506.0,505.0,496.0,485.0,513.0
508.0,505.0,498.0,483.0,514.0
514.0,503.0,503.0,481.0,514.0
519.0,502.0,511.0,489.0,507.0
521.0,504.0,522.0,505.0,507.0
527.0,506.0,534.0,519.0,499.0
530.0,507.0,540.0,531.0,497.0
528.0,507.0,541.0,542.0,497.0
525.0,506.0,540.0,545.0,505.0
517.0,506.0,534.0,548.0,510.0
506.0,498.0,515.0,534.0,519.0
505.0,502.0,512.0,528.0,525.0
503.0,505.0,501.0,521.0,523.0
501.0,508.0,495.0,512.0,520.0
504.0,512.0,496.0,505.0,519.0
502.0,511.0,495.0,495.0,517.0
508.0,508.0,495.0,489.0,516.0
505.0,508.0,496.0,486.0,518.0
508.0,506.0,499.0,481.0,517.0
510.0,502.0,508.0,484.0,511.0
519.0,505.0,516.0,497.0,508.0
524.0,506.0,525.0,507.0,502.0
530.0,509.0,536.0,523.0,498.0
527.0,508.0,539.0,533.0,498.0
525.0,511.0,542.0,544.0,505.0
520.0,506.0,537.0,545.0,508.0
516.0,505.0,533.0,546.0,509.0
504.0,500.0,515.0,533.0,522.0
498.0,502.0,505.0,525.0,525.0
499.0,506.0,499.0,520.0,528.0
501.0,508.0,494.0,507.0,525.0
501.0,509.0,492.0,497.0,522.0
507.0,511.0,495.0,493.0,520.0
507.0,509.0,496.0,487.0,516.0
505.0,505.0,496.0,483.0,516.0
510.0,504.0,502.0,483.0,514.0
513.0,502.0,508.0,488.0,508.0
520.0,502.0,520.0,498.0,506.0
525.0,504.0,526.0,515.0,503.0
529.0,506.0,537.0,526.0,494.0
527.0,505.0,540.0,536.0,500.0
496.0,512.0,491.0,497.0,518.0
502.0,510.0,493.0,492.0,521.0
505.0,510.0,500.0,489.0,513.0
509.0,508.0,501.0,488.0,508.0
515.0,506.0,509.0,492.0,504.0
520.0,503.0,517.0,499.0,499.0
528.0,507.0,530.0,512.0,498.0
531.0,506.0,537.0,523.0,494.0
529.0,504.0,543.0,533.0,504.0
526.0,503.0,543.0,540.0,507.0
526.0,503.0,544.0,542.0,506.0
520.0,501.0,533.0,541.0,509.0
507.0,501.0,516.0,531.0,529.0
501.0,508.0,503.0,523.0,529.0
497.0,507.0,496.0,514.0,531.0
500.0,511.0,492.0,508.0,524.0
498.0,512.0,492.0,499.0,520.0
504.0,512.0,491.0,495.0,518.0
507.0,511.0,494.0,491.0,514.0
507.0,509.0,498.0,488.0,512.0
508.0,508.0,503.0,488.0,514.0
510.0,506.0,512.0,495.0,519.0
517.0,505.0,521.0,504.0,504.0
524.0,505.0,527.0,514.0,488.0
527.0,506.0,541.0,527.0,490.0
525.0,504.0,542.0,536.0,497.0
524.0,506.0,539.0,538.0,506.0
527.0,502.0,534.0,539.0,506.0
521.0,501.0,527.0,537.0,517.0
505.0,503.0,510.0,529.0,528.0
503.0,505.0,503.0,522.0,531.0
496.0,508.0,495.0,512.0,531.0
498.0,511.0,492.0,504.0,528.0
500.0,512.0,491.0,497.0,521.0
500.0,512.0,492.0,492.0,518.0
506.0,510.0,495.0,488.0,514.0
514.0,509.0,500.0,489.0,512.0
516.0,507.0,506.0,489.0,512.0
518.0,509.0,518.0,499.0,506.0
526.0,505.0,524.0,506.0,497.0
534.0,508.0,536.0,520.0,492.0
536.0,507.0,543.0,531.0,494.0
532.0,506.0,544.0,538.0,500.0
522.0,503.0,539.0,541.0,509.0
516.0,505.0,534.0,542.0,511.0
509.0,501.0,524.0,541.0,525.0
496.0,501.0,508.0,526.0,533.0
497.0,506.0,499.0,519.0,530.0
494.0,509.0,493.0,510.0,527.0
495.0,512.0,490.0,503.0,520.0
499.0,512.0,491.0,497.0,519.0
502.0,512.0,492.0,491.0,522.0
508.0,510.0,496.0,488.0,514.0
512.0,508.0,500.0,488.0,514.0
517.0,506.0,509.0,491.0,508.0
520.0,504.0,517.0,499.0,502.0
530.0,505.0,528.0,511.0,497.0
534.0,506.0,537.0,526.0,492.0
534.0,506.0,542.0,533.0,495.0
530.0,503.0,541.0,538.0,501.0
521.0,507.0,539.0,541.0,504.0
515.0,503.0,535.0,540.0,512.0
497.0,500.0,515.0,531.0,523.0
493.0,503.0,504.0,523.0,524.0
497.0,510.0,498.0,517.0,525.0
500.0,511.0,493.0,509.0,522.0
499.0,511.0,490.0,499.0,522.0
501.0,511.0,490.0,493.0,520.0
505.0,510.0,494.0,494.0,517.0
508.0,509.0,498.0,487.0,513.0
512.0,507.0,503.0,488.0,509.0
519.0,506.0,513.0,499.0,504.0
517.0,505.0,519.0,503.0,493.0
526.0,506.0,532.0,516.0,491.0
531.0,506.0,544.0,531.0,488.0
533.0,506.0,546.0,537.0,499.0
525.0,503.0,540.0,540.0,521.0
524.0,504.0,537.0,541.0,523.0
513.0,503.0,528.0,538.0,528.0
500.0,504.0,512.0,527.0,540.0
495.0,504.0,500.0,519.0,539.0
496.0,508.0,495.0,512.0,535.0
497.0,508.0,491.0,503.0,523.0
501.0,514.0,490.0,498.0,509.0
505.0,510.0,491.0,492.0,506.0
506.0,508.0,494.0,490.0,510.0
509.0,508.0,498.0,488.0,510.0
510.0,504.0,505.0,490.0,509.0
516.0,504.0,514.0,497.0,506.0
521.0,505.0,526.0,510.0,502.0
528.0,504.0,535.0,521.0,487.0
532.0,504.0,541.0,535.0,490.0
529.0,504.0,542.0,538.0,497.0
526.0,502.0,539.0,541.0,501.0
519.0,502.0,536.0,541.0,507.0
509.0,499.0,518.0,533.0,526.0
503.0,501.0,507.0,525.0,532.0
500.0,507.0,497.0,517.0,528.0
504.0,507.0,496.0,509.0,523.0
501.0,512.0,491.0,504.0,523.0
501.0,512.0,490.0,496.0,521.0
500.0,513.0,493.0,491.0,522.0
501.0,510.0,498.0,489.0,513.0
506.0,507.0,502.0,491.0,509.0
513.0,504.0,507.0,491.0,506.0
519.0,505.0,518.0,501.0,507.0
525.0,506.0,529.0,512.0,496.0
530.0,506.0,539.0,525.0,494.0
532.0,505.0,542.0,534.0,498.0
529.0,504.0,541.0,539.0,501.0
524.0,502.0,536.0,542.0,505.0
518.0,502.0,531.0,541.0,505.0
504.0,499.0,514.0,530.0,530.0
498.0,503.0,503.0,522.0,539.0
497.0,506.0,496.0,514.0,533.0
500.0,511.0,492.0,508.0,530.0
500.0,510.0,489.0,499.0,525.0
504.0,512.0,491.0,494.0,522.0
507.0,511.0,494.0,490.0,518.0
511.0,510.0,498.0,488.0,515.0
513.0,504.0,502.0,488.0,512.0
521.0,506.0,513.0,501.0,509.0
523.0,505.0,523.0,506.0,507.0
527.0,505.0,534.0,517.0,502.0
533.0,504.0,540.0,527.0,499.0
532.0,504.0,543.0,536.0,496.0
526.0,503.0,539.0,539.0,504.0
519.0,504.0,536.0,542.0,507.0
511.0,502.0,526.0,537.0,517.0
502.0,500.0,510.0,526.0,523.0
498.0,505.0,502.0,520.0,528.0
501.0,507.0,496.0,510.0,522.0
499.0,512.0,493.0,504.0,520.0
499.0,512.0,487.0,496.0,517.0
502.0,511.0,491.0,492.0,515.0
504.0,512.0,496.0,490.0,509.0
510.0,508.0,499.0,488.0,508.0
517.0,506.0,507.0,490.0,510.0
520.0,505.0,515.0,497.0,505.0
522.0,504.0,524.0,507.0,500.0
527.0,506.0,535.0,521.0,496.0
530.0,505.0,542.0,532.0,499.0
527.0,504.0,543.0,539.0,502.0
521.0,504.0,538.0,540.0,510.0
519.0,504.0,535.0,541.0,515.0
510.0,501.0,519.0,533.0,526.0
500.0,501.0,505.0,523.0,530.0
499.0,503.0,497.0,516.0,528.0
498.0,509.0,492.0,508.0,526.0
499.0,510.0,489.0,501.0,524.0
502.0,510.0,491.0,497.0,520.0
504.0,509.0,492.0,490.0,515.0
512.0,510.0,497.0,489.0,514.0
514.0,506.0,502.0,486.0,512.0
519.0,505.0,509.0,492.0,509.0
521.0,504.0,519.0,501.0,505.0
528.0,505.0,529.0,513.0,500.0
534.0,506.0,540.0,526.0,497.0
532.0,505.0,543.0,535.0,498.0
528.0,503.0,540.0,539.0,505.0
525.0,501.0,537.0,540.0,508.0
517.0,503.0,531.0,541.0,515.0
503.0,499.0,517.0,536.0,528.0
500.0,503.0,503.0,523.0,532.0
500.0,507.0,495.0,515.0,531.0
503.0,511.0,493.0,507.0,522.0
500.0,509.0,489.0,498.0,514.0
502.0,514.0,492.0,492.0,516.0
507.0,511.0,495.0,491.0,511.0
508.0,509.0,497.0,488.0,504.0
513.0,506.0,504.0,491.0,508.0
520.0,505.0,512.0,499.0,502.0
523.0,504.0,521.0,503.0,496.0
533.0,507.0,532.0,517.0,500.0
536.0,508.0,541.0,528.0,502.0
536.0,506.0,543.0,539.0,498.0
529.0,504.0,539.0,540.0,502.0
524.0,504.0,538.0,541.0,506.0
518.0,500.0,527.0,538.0,512.0
501.0,501.0,511.0,528.0,525.0
495.0,503.0,500.0,519.0,523.0
495.0,511.0,495.0,514.0,529.0
499.0,511.0,492.0,504.0,524.0
502.0,513.0,491.0,497.0,526.0
504.0,511.0,491.0,491.0,523.0
506.0,510.0,494.0,488.0,520.0
512.0,509.0,502.0,487.0,515.0
514.0,505.0,505.0,489.0,510.0
518.0,503.0,515.0,497.0,504.0
527.0,505.0,525.0,509.0,495.0
533.0,506.0,537.0,523.0,485.0
531.0,506.0,542.0,533.0,487.0
528.0,506.0,546.0,540.0,495.0
521.0,503.0,538.0,541.0,499.0
514.0,503.0,531.0,541.0,511.0
503.0,499.0,517.0,532.0,531.0
498.0,502.0,506.0,525.0,532.0
497.0,505.0,497.0,516.0,529.0
498.0,512.0,496.0,513.0,528.0
500.0,511.0,490.0,501.0,525.0
502.0,511.0,491.0,497.0,518.0
504.0,510.0,493.0,492.0,516.0
506.0,511.0,497.0,489.0,515.0
510.0,507.0,500.0,488.0,503.0
515.0,505.0,508.0,493.0,501.0
520.0,502.0,516.0,500.0,499.0
531.0,507.0,530.0,515.0,494.0
532.0,506.0,539.0,530.0,490.0
532.0,504.0,542.0,540.0,495.0
528.0,503.0,540.0,540.0,508.0
521.0,503.0,535.0,540.0,517.0
518.0,503.0,531.0,538.0,525.0
502.0,499.0,513.0,530.0,530.0
496.0,504.0,503.0,523.0,523.0
495.0,507.0,492.0,514.0,522.0
497.0,515.0,492.0,506.0,521.0
499.0,511.0,489.0,499.0,519.0
502.0,511.0,491.0,494.0,516.0
506.0,510.0,495.0,490.0,514.0
508.0,509.0,497.0,487.0,512.0
511.0,506.0,503.0,487.0,512.0
518.0,503.0,512.0,495.0,503.0
522.0,505.0,521.0,504.0,505.0
529.0,506.0,531.0,517.0,496.0
533.0,507.0,540.0,529.0,495.0
531.0,507.0,543.0,537.0,502.0
522.0,500.0,538.0,540.0,508.0
523.0,502.0,534.0,539.0,507.0
512.0,498.0,522.0,536.0,517.0
503.0,499.0,513.0,528.0,523.0
497.0,505.0,502.0,521.0,530.0
496.0,508.0,494.0,511.0,526.0
499.0,510.0,490.0,503.0,523.0
503.0,512.0,493.0,495.0,519.0
502.0,508.0,490.0,490.0,515.0
507.0,511.0,497.0,489.0,516.0
509.0,508.0,499.0,487.0,512.0
511.0,504.0,505.0,489.0,506.0
523.0,505.0,516.0,498.0,503.0
525.0,506.0,526.0,508.0,504.0
529.0,506.0,540.0,522.0,496.0
530.0,504.0,541.0,531.0,497.0
525.0,504.0,540.0,537.0,501.0
522.0,502.0,537.0,540.0,507.0
520.0,506.0,532.0,543.0,513.0
505.0,499.0,516.0,535.0,525.0
499.0,502.0,507.0,528.0,528.0
497.0,506.0,497.0,516.0,526.0
497.0,508.0,492.0,508.0,524.0
500.0,513.0,491.0,501.0,522.0
502.0,512.0,490.0,497.0,515.0
504.0,509.0,492.0,494.0,518.0
508.0,510.0,497.0,487.0,512.0
507.0,509.0,500.0,484.0,510.0
514.0,504.0,509.0,491.0,507.0
523.0,503.0,520.0,500.0,504.0
526.0,505.0,529.0,512.0,499.0
535.0,510.0,538.0,526.0,497.0
531.0,503.0,542.0,539.0,500.0
527.0,503.0,540.0,540.0,504.0
522.0,503.0,536.0,543.0,511.0
523.0,505.0,531.0,546.0,515.0
508.0,500.0,512.0,528.0,524.0
501.0,503.0,504.0,522.0,530.0
501.0,508.0,495.0,513.0,525.0
498.0,513.0,490.0,505.0,519.0
495.0,512.0,490.0,498.0,520.0
498.0,511.0,491.0,493.0,516.0
501.0,511.0,494.0,488.0,515.0
505.0,509.0,497.0,485.0,517.0
513.0,507.0,504.0,486.0,511.0
517.0,504.0,512.0,493.0,507.0
524.0,506.0,522.0,504.0,505.0
527.0,505.0,532.0,516.0,503.0
528.0,505.0,540.0,526.0,501.0
525.0,504.0,543.0,537.0,503.0
520.0,501.0,537.0,539.0,512.0
518.0,506.0,535.0,542.0,516.0
516.0,500.0,523.0,536.0,524.0
504.0,499.0,507.0,525.0,532.0
501.0,506.0,501.0,520.0,533.0
499.0,507.0,490.0,510.0,525.0
502.0,511.0,491.0,503.0,525.0
503.0,512.0,489.0,495.0,517.0
507.0,510.0,490.0,489.0,507.0
509.0,510.0,495.0,488.0,506.0
509.0,508.0,499.0,487.0,500.0
514.0,503.0,504.0,487.0,494.0
519.0,507.0,515.0,496.0,496.0
528.0,505.0,526.0,508.0,495.0
532.0,506.0,534.0,521.0,499.0
530.0,502.0,540.0,531.0,503.0
524.0,503.0,541.0,539.0,502.0
517.0,501.0,536.0,541.0,504.0
514.0,504.0,534.0,543.0,508.0
503.0,499.0,520.0,530.0,518.0
495.0,503.0,506.0,525.0,526.0
497.0,507.0,498.0,517.0,525.0
501.0,509.0,492.0,508.0,520.0
511.0,512.0,490.0,501.0,513.0
508.0,512.0,491.0,496.0,515.0
505.0,508.0,491.0,487.0,518.0
507.0,509.0,497.0,488.0,519.0
509.0,506.0,500.0,486.0,513.0
516.0,505.0,508.0,490.0,506.0
522.0,505.0,516.0,499.0,503.0
530.0,506.0,530.0,514.0,501.0
537.0,506.0,539.0,526.0,497.0
532.0,505.0,542.0,537.0,502.0
527.0,504.0,542.0,539.0,505.0
523.0,503.0,535.0,541.0,511.0
517.0,503.0,533.0,542.0,515.0
506.0,502.0,515.0,532.0,530.0
497.0,504.0,500.0,521.0,534.0
499.0,508.0,496.0,515.0,532.0
498.0,510.0,489.0,504.0,529.0
500.0,513.0,490.0,499.0,524.0
503.0,513.0,492.0,495.0,511.0
503.0,513.0,493.0,486.0,514.0
510.0,510.0,499.0,488.0,515.0
511.0,506.0,503.0,488.0,511.0
518.0,508.0,512.0,493.0,506.0
529.0,505.0,522.0,505.0,501.0
533.0,505.0,531.0,517.0,495.0
538.0,507.0,541.0,531.0,494.0
533.0,510.0,543.0,539.0,499.0
529.0,504.0,539.0,541.0,503.0
522.0,505.0,536.0,544.0,506.0
508.0,502.0,520.0,534.0,517.0
501.0,502.0,509.0,528.0,528.0
493.0,504.0,500.0,517.0,525.0
494.0,512.0,494.0,511.0,522.0
495.0,515.0,488.0,504.0,521.0
498.0,510.0,489.0,497.0,518.0
503.0,512.0,492.0,492.0,517.0
507.0,510.0,496.0,489.0,512.0
510.0,508.0,498.0,486.0,509.0
516.0,505.0,506.0,490.0,507.0
519.0,504.0,519.0,502.0,507.0
529.0,506.0,526.0,513.0,499.0
530.0,505.0,535.0,526.0,498.0
532.0,505.0,542.0,532.0,499.0
529.0,507.0,542.0,539.0,502.0
521.0,501.0,534.0,538.0,510.0
520.0,501.0,533.0,541.0,510.0
509.0,501.0,518.0,534.0,524.0
500.0,502.0,506.0,522.0,525.0
498.0,510.0,496.0,517.0,527.0
498.0,514.0,493.0,508.0,524.0
498.0,510.0,487.0,499.0,524.0
503.0,515.0,492.0,495.0,518.0
504.0,509.0,490.0,487.0,520.0
512.0,510.0,497.0,489.0,521.0
513.0,507.0,503.0,486.0,510.0
514.0,505.0,511.0,495.0,512.0
524.0,505.0,518.0,503.0,512.0
526.0,505.0,529.0,511.0,501.0
531.0,507.0,538.0,525.0,500.0
531.0,504.0,541.0,535.0,501.0
527.0,503.0,540.0,539.0,504.0
522.0,503.0,537.0,540.0,507.0
518.0,506.0,529.0,538.0,511.0
506.0,502.0,517.0,533.0,521.0
501.0,501.0,501.0,520.0,524.0
500.0,507.0,494.0,513.0,525.0
505.0,511.0,491.0,506.0,524.0
499.0,510.0,487.0,495.0,524.0
497.0,513.0,492.0,495.0,518.0
500.0,509.0,493.0,487.0,515.0
506.0,509.0,498.0,486.0,511.0
511.0,506.0,503.0,487.0,510.0
517.0,508.0,513.0,495.0,504.0
522.0,505.0,522.0,505.0,503.0
530.0,506.0,533.0,515.0,499.0
532.0,506.0,541.0,530.0,498.0
532.0,506.0,543.0,538.0,504.0
522.0,503.0,536.0,540.0,514.0
519.0,503.0,535.0,542.0,520.0
511.0,501.0,523.0,537.0,524.0
502.0,501.0,508.0,528.0,523.0
498.0,504.0,498.0,518.0,520.0
495.0,512.0,492.0,512.0,523.0
497.0,510.0,489.0,503.0,520.0
498.0,511.0,492.0,498.0,529.0
501.0,509.0,489.0,490.0,527.0
505.0,510.0,495.0,488.0,525.0
513.0,509.0,499.0,487.0,513.0
516.0,507.0,504.0,491.0,509.0
520.0,504.0,514.0,496.0,493.0
526.0,507.0,526.0,508.0,489.0
531.0,504.0,534.0,521.0,492.0
530.0,506.0,541.0,533.0,496.0
529.0,506.0,545.0,542.0,502.0
518.0,500.0,536.0,539.0,517.0
520.0,505.0,533.0,543.0,508.0
509.0,500.0,516.0,533.0,519.0
501.0,501.0,504.0,525.0,528.0
499.0,506.0,497.0,518.0,527.0
500.0,512.0,492.0,510.0,525.0
502.0,512.0,488.0,500.0,523.0
505.0,513.0,493.0,497.0,525.0
500.0,509.0,487.0,485.0,516.0
505.0,508.0,495.0,487.0,508.0
508.0,504.0,501.0,487.0,506.0
510.0,504.0,511.0,494.0,505.0
516.0,503.0,516.0,499.0,508.0
528.0,505.0,530.0,514.0,504.0
542.0,506.0,539.0,526.0,496.0
537.0,503.0,541.0,534.0,497.0
533.0,503.0,540.0,541.0,504.0
525.0,502.0,538.0,541.0,509.0
518.0,503.0,530.0,540.0,520.0
502.0,499.0,511.0,530.0,523.0
492.0,503.0,502.0,522.0,524.0
497.0,508.0,495.0,513.0,528.0
496.0,509.0,491.0,506.0,522.0
501.0,512.0,489.0,499.0,522.0
504.0,513.0,491.0,494.0,515.0
505.0,511.0,490.0,485.0,512.0
508.0,508.0,497.0,491.0,513.0
512.0,505.0,503.0,488.0,509.0
518.0,505.0,514.0,495.0,509.0
523.0,505.0,522.0,504.0,506.0
528.0,505.0,529.0,517.0,498.0
531.0,505.0,541.0,529.0,500.0
531.0,505.0,544.0,536.0,499.0
523.0,503.0,538.0,540.0,508.0
520.0,503.0,536.0,542.0,512.0
513.0,500.0,520.0,535.0,525.0
504.0,500.0,507.0,526.0,527.0
499.0,504.0,499.0,519.0,528.0
496.0,509.0,493.0,512.0,532.0
498.0,512.0,490.0,504.0,527.0
502.0,511.0,490.0,498.0,523.0
507.0,513.0,492.0,492.0,526.0
508.0,510.0,495.0,488.0,523.0
513.0,509.0,500.0,489.0,515.0
513.0,503.0,506.0,489.0,505.0
517.0,499.0,515.0,498.0,503.0
524.0,505.0,530.0,513.0,496.0
528.0,505.0,536.0,522.0,491.0
529.0,505.0,543.0,533.0,496.0
528.0,506.0,544.0,541.0,501.0
520.0,502.0,540.0,542.0,512.0
517.0,501.0,533.0,541.0,513.0
507.0,501.0,518.0,533.0,526.0
500.0,502.0,505.0,524.0,530.0
498.0,507.0,502.0,516.0,531.0
504.0,510.0,495.0,512.0,528.0
503.0,509.0,491.0,500.0,520.0
511.0,513.0,495.0,501.0,518.0
505.0,509.0,490.0,488.0,519.0
507.0,508.0,496.0,486.0,515.0
513.0,509.0,503.0,489.0,509.0
516.0,508.0,512.0,493.0,503.0
519.0,503.0,519.0,501.0,501.0
527.0,505.0,531.0,518.0,501.0
531.0,503.0,538.0,525.0,497.0
528.0,502.0,543.0,535.0,498.0
526.0,504.0,542.0,540.0,504.0
520.0,502.0,536.0,541.0,510.0
518.0,505.0,531.0,541.0,515.0
501.0,500.0,512.0,529.0,523.0
496.0,503.0,502.0,522.0,527.0
497.0,511.0,494.0,513.0,524.0
499.0,507.0,488.0,505.0,520.0
500.0,510.0,490.0,501.0,519.0
505.0,512.0,492.0,493.0,515.0
503.0,512.0,491.0,487.0,515.0
509.0,508.0,497.0,488.0,510.0
513.0,503.0,503.0,487.0,513.0
516.0,505.0,513.0,492.0,510.0
524.0,504.0,522.0,503.0,508.0
527.0,506.0,534.0,517.0,509.0
533.0,507.0,542.0,528.0,506.0
529.0,506.0,550.0,537.0,509.0
524.0,503.0,540.0,543.0,518.0
516.0,501.0,534.0,541.0,519.0
506.0,498.0,520.0,536.0,529.0
503.0,501.0,509.0,525.0,526.0
500.0,506.0,501.0,520.0,529.0
499.0,508.0,492.0,508.0,526.0
500.0,512.0,486.0,499.0,514.0
507.0,513.0,490.0,496.0,509.0
508.0,514.0,490.0,488.0,517.0
511.0,510.0,494.0,485.0,511.0
514.0,508.0,499.0,485.0,509.0
516.0,503.0,504.0,487.0,509.0
520.0,503.0,517.0,497.0,509.0
527.0,505.0,527.0,509.0,509.0
533.0,507.0,534.0,520.0,500.0
531.0,503.0,543.0,528.0,496.0
535.0,505.0,545.0,537.0,494.0
525.0,502.0,537.0,539.0,501.0
522.0,504.0,535.0,543.0,503.0
504.0,499.0,517.0,533.0,514.0
488.0,500.0,509.0,524.0,513.0
499.0,506.0,497.0,518.0,520.0
496.0,512.0,493.0,507.0,523.0
499.0,512.0,490.0,501.0,516.0
503.0,513.0,492.0,498.0,517.0
501.0,511.0,493.0,487.0,537.0
502.0,510.0,496.0,484.0,529.0
502.0,507.0,501.0,485.0,526.0
511.0,504.0,509.0,489.0,513.0
514.0,502.0,519.0,500.0,502.0
513.0,504.0,531.0,514.0,506.0
522.0,504.0,541.0,527.0,509.0
525.0,505.0,545.0,536.0,520.0
520.0,506.0,544.0,545.0,518.0
518.0,503.0,539.0,550.0,518.0
522.0,504.0,531.0,540.0,497.0
508.0,503.0,514.0,530.0,525.0
498.0,503.0,502.0,522.0,533.0
510.0,508.0,494.0,513.0,533.0
529.0,515.0,492.0,504.0,524.0
516.0,512.0,488.0,494.0,514.0
504.0,511.0,489.0,491.0,498.0
511.0,510.0,493.0,490.0,482.0
489.0,507.0,497.0,486.0,503.0
474.0,504.0,508.0,486.0,529.0
485.0,506.0,518.0,497.0,523.0
489.0,506.0,527.0,507.0,525.0
494.0,503.0,537.0,516.0,537.0
519.0,505.0,543.0,530.0,528.0
525.0,502.0,540.0,535.0,533.0
579.0,503.0,534.0,539.0,531.0
585.0,509.0,531.0,539.0,499.0
539.0,496.0,516.0,533.0,496.0
514.0,500.0,504.0,523.0,533.0
500.0,501.0,491.0,510.0,529.0
492.0,507.0,493.0,511.0,483.0
497.0,515.0,490.0,508.0,483.0
499.0,512.0,490.0,501.0,495.0
505.0,511.0,491.0,491.0,498.0
502.0,510.0,495.0,489.0,514.0
503.0,510.0,501.0,489.0,524.0
512.0,511.0,512.0,494.0,529.0
518.0,505.0,518.0,499.0,508.0
526.0,506.0,527.0,513.0,484.0
531.0,504.0,535.0,528.0,477.0
536.0,503.0,540.0,529.0,473.0
531.0,502.0,540.0,538.0,479.0
521.0,499.0,532.0,538.0,493.0
524.0,504.0,530.0,541.0,501.0
514.0,504.0,518.0,534.0,517.0
509.0,505.0,505.0,526.0,518.0
513.0,508.0,498.0,518.0,526.0
522.0,514.0,496.0,513.0,512.0
517.0,511.0,485.0,500.0,497.0
519.0,515.0,491.0,496.0,502.0
514.0,515.0,490.0,488.0,513.0
503.0,512.0,499.0,490.0,514.0
510.0,511.0,504.0,490.0,526.0
530.0,510.0,513.0,493.0,535.0
536.0,505.0,520.0,500.0,525.0
540.0,508.0,532.0,513.0,512.0
539.0,511.0,545.0,532.0,480.0
535.0,508.0,546.0,539.0,459.0
515.0,500.0,543.0,543.0,467.0
493.0,497.0,535.0,546.0,491.0
501.0,503.0,531.0,544.0,497.0
492.0,498.0,509.0,529.0,514.0
490.0,502.0,495.0,521.0,534.0
493.0,507.0,492.0,514.0,539.0
499.0,513.0,492.0,511.0,525.0
506.0,512.0,490.0,503.0,524.0
500.0,513.0,491.0,497.0,514.0
499.0,511.0,496.0,496.0,503.0
504.0,509.0,497.0,491.0,516.0
509.0,506.0,504.0,492.0,536.0
504.0,502.0,510.0,495.0,543.0
517.0,503.0,519.0,505.0,513.0
530.0,507.0,533.0,522.0,501.0
534.0,509.0,541.0,536.0,503.0
522.0,508.0,542.0,542.0,525.0
519.0,501.0,537.0,538.0,539.0
514.0,503.0,535.0,546.0,526.0
505.0,503.0,521.0,539.0,510.0
500.0,500.0,507.0,530.0,500.0
504.0,501.0,496.0,521.0,509.0
526.0,508.0,489.0,517.0,487.0
515.0,509.0,486.0,504.0,514.0
510.0,514.0,489.0,502.0,517.0
500.0,514.0,495.0,499.0,516.0
512.0,515.0,500.0,500.0,534.0
533.0,524.0,510.0,496.0,560.0
541.0,514.0,516.0,501.0,564.0
543.0,517.0,525.0,506.0,544.0
536.0,510.0,529.0,512.0,559.0
535.0,506.0,536.0,528.0,536.0
501.0,494.0,537.0,534.0,496.0
511.0,500.0,539.0,549.0,442.0
492.0,492.0,531.0,543.0,451.0
484.0,503.0,533.0,546.0,479.0
485.0,502.0,514.0,534.0,502.0
464.0,497.0,499.0,522.0,510.0
448.0,502.0,492.0,514.0,533.0
451.0,508.0,490.0,511.0,548.0
469.0,511.0,488.0,505.0,568.0
494.0,516.0,492.0,497.0,587.0
500.0,511.0,491.0,490.0,550.0
540.0,515.0,496.0,489.0,481.0
551.0,505.0,498.0,490.0,447.0
489.0,489.0,499.0,493.0,430.0
448.0,487.0,509.0,509.0,418.0
475.0,494.0,525.0,518.0,466.0
487.0,495.0,533.0,523.0,509.0
514.0,501.0,545.0,533.0,536.0
561.0,512.0,543.0,539.0,507.0
567.0,514.0,545.0,549.0,504.0
536.0,513.0,538.0,546.0,532.0
500.0,510.0,521.0,534.0,547.0
457.0,501.0,503.0,522.0,553.0
441.0,505.0,495.0,518.0,538.0
449.0,506.0,484.0,508.0,530.0
501.0,507.0,486.0,497.0,500.0
523.0,515.0,496.0,511.0,462.0
508.0,510.0,495.0,501.0,459.0
477.0,500.0,489.0,475.0,570.0
495.0,495.0,496.0,483.0,519.0
510.0,501.0,513.0,495.0,487.0
553.0,509.0,529.0,509.0,563.0
581.0,515.0,537.0,510.0,573.0
531.0,505.0,547.0,517.0,604.0
510.0,508.0,553.0,548.0,554.0
489.0,500.0,540.0,545.0,557.0
440.0,490.0,534.0,556.0,450.0
420.0,495.0,529.0,558.0,414.0
442.0,505.0,518.0,543.0,494.0
523.0,514.0,509.0,533.0,509.0
512.0,507.0,493.0,511.0,466.0
501.0,502.0,483.0,500.0,425.0
506.0,505.0,483.0,489.0,504.0
460.0,503.0,480.0,474.0,549.0
496.0,499.0,477.0,470.0,599.0
501.0,503.0,493.0,474.0,514.0
490.0,505.0,506.0,496.0,437.0
474.0,495.0,503.0,494.0,493.0
463.0,485.0,512.0,505.0,490.0
520.0,500.0,539.0,525.0,468.0
524.0,506.0,554.0,545.0,527.0
487.0,499.0,547.0,540.0,555.0
514.0,496.0,533.0,535.0,589.0
498.0,493.0,527.0,542.0,563.0
470.0,496.0,515.0,535.0,553.0
474.0,495.0,496.0,513.0,579.0
509.0,503.0,494.0,510.0,518.0
603.0,525.0,497.0,514.0,479.0
607.0,529.0,498.0,503.0,499.0
566.0,526.0,501.0,507.0,504.0
529.0,521.0,499.0,497.0,504.0
519.0,515.0,497.0,490.0,549.0
507.0,501.0,492.0,481.0,562.0
523.0,500.0,502.0,496.0,423.0
505.0,501.0,514.0,507.0,393.0
501.0,504.0,524.0,508.0,516.0
485.0,506.0,537.0,506.0,647.0
503.0,512.0,550.0,533.0,535.0
509.0,511.0,549.0,546.0,484.0
534.0,498.0,532.0,547.0,432.0
545.0,500.0,528.0,555.0,423.0
474.0,501.0,514.0,534.0,489.0
405.0,493.0,494.0,505.0,606.0
414.0,498.0,485.0,505.0,600.0
496.0,508.0,485.0,509.0,548.0
501.0,507.0,480.0,492.0,590.0
561.0,518.0,492.0,512.0,493.0
440.0,514.0,495.0,503.0,483.0
446.0,517.0,507.0,509.0,465.0
419.0,504.0,505.0,498.0,536.0
447.0,498.0,511.0,494.0,610.0
414.0,494.0,524.0,526.0,645.0
460.0,493.0,523.0,517.0,624.0
544.0,498.0,542.0,531.0,569.0
525.0,497.0,543.0,555.0,392.0
519.0,500.0,542.0,559.0,296.0
437.0,505.0,539.0,560.0,322.0
361.0,495.0,524.0,546.0,483.0
325.0,475.0,492.0,520.0,529.0
350.0,485.0,481.0,504.0,541.0
445.0,500.0,487.0,515.0,591.0
500.0,512.0,490.0,518.0,536.0
572.0,525.0,492.0,490.0,467.0
494.0,507.0,487.0,480.0,619.0
405.0,499.0,486.0,462.0,750.0
327.0,491.0,485.0,468.0,715.0
279.0,492.0,500.0,484.0,653.0
221.0,480.0,504.0,493.0,578.0
263.0,482.0,518.0,511.0,438.0
277.0,488.0,539.0,543.0,358.0
299.0,488.0,549.0,567.0,356.0
426.0,492.0,545.0,537.0,410.0
588.0,519.0,549.0,543.0,411.0
580.0,518.0,544.0,524.0,637.0
631.0,516.0,532.0,516.0,650.0
552.0,493.0,498.0,511.0,558.0
547.0,503.0,491.0,511.0,509.0
553.0,506.0,489.0,512.0,516.0
511.0,501.0,478.0,486.0,609.0
478.0,506.0,485.0,491.0,643.0
401.0,487.0,473.0,495.0,477.0
393.0,465.0,463.0,464.0,483.0
394.0,465.0,480.0,488.0,433.0
411.0,491.0,513.0,494.0,534.0
384.0,498.0,522.0,507.0,436.0
420.0,500.0,532.0,508.0,491.0
460.0,513.0,550.0,523.0,541.0
471.0,500.0,553.0,538.0,569.0
618.0,502.0,552.0,537.0,524.0
720.0,520.0,559.0,558.0,447.0
699.0,518.0,542.0,540.0,452.0
687.0,503.0,513.0,530.0,441.0
741.0,507.0,503.0,518.0,474.0
743.0,530.0,500.0,494.0,539.0
569.0,520.0,502.0,532.0,591.0
487.0,505.0,488.0,523.0,628.0
397.0,488.0,474.0,514.0,504.0
350.0,476.0,462.0,483.0,457.0
480.0,495.0,479.0,485.0,381.0
566.0,505.0,499.0,493.0,429.0
723.0,515.0,512.0,473.0,570.0
781.0,525.0,530.0,491.0,533.0
700.0,518.0,538.0,507.0,512.0
610.0,507.0,541.0,514.0,585.0
581.0,520.0,563.0,542.0,490.0
673.0,519.0,562.0,536.0,450.0
706.0,517.0,552.0,543.0,432.0
599.0,503.0,530.0,536.0,581.0
518.0,487.0,507.0,524.0,490.0
487.0,495.0,500.0,528.0,446.0
508.0,506.0,492.0,524.0,508.0
572.0,514.0,488.0,526.0,463.0
498.0,501.0,472.0,479.0,560.0
410.0,490.0,470.0,478.0,558.0
402.0,490.0,482.0,493.0,521.0
494.0,489.0,489.0,496.0,509.0
410.0,485.0,502.0,499.0,608.0
300.0,489.0,518.0,517.0,648.0
327.0,500.0,533.0,523.0,640.0
398.0,494.0,539.0,529.0,460.0
571.0,515.0,549.0,525.0,380.0
585.0,513.0,551.0,529.0,439.0
508.0,514.0,558.0,545.0,539.0
455.0,517.0,552.0,537.0,630.0
503.0,497.0,520.0,550.0,543.0
683.0,509.0,509.0,542.0,532.0
701.0,509.0,497.0,530.0,491.0
661.0,527.0,510.0,528.0,425.0
573.0,506.0,485.0,488.0,532.0
545.0,512.0,491.0,511.0,449.0
548.0,524.0,499.0,498.0,667.0
468.0,500.0,492.0,488.0,579.0
522.0,494.0,497.0,495.0,303.0
570.0,495.0,499.0,483.0,404.0
550.0,489.0,508.0,503.0,506.0
500.0,503.0,533.0,532.0,562.0
461.0,501.0,544.0,553.0,443.0
402.0,494.0,547.0,543.0,422.0
397.0,507.0,552.0,550.0,502.0
448.0,498.0,537.0,525.0,561.0
447.0,491.0,520.0,504.0,609.0
447.0,489.0,501.0,502.0,557.0
431.0,483.0,490.0,499.0,639.0
404.0,484.0,487.0,513.0,609.0
508.0,494.0,484.0,525.0,565.0
613.0,514.0,489.0,532.0,414.0
416.0,507.0,493.0,521.0,423.0
326.0,496.0,492.0,504.0,468.0
380.0,510.0,498.0,496.0,543.0
564.0,524.0,519.0,502.0,500.0
712.0,526.0,539.0,520.0,504.0
553.0,514.0,539.0,522.0,541.0
439.0,508.0,544.0,524.0,498.0
589.0,505.0,539.0,519.0,403.0
770.0,511.0,537.0,515.0,403.0
625.0,498.0,532.0,524.0,488.0
603.0,508.0,539.0,556.0,597.0
612.0,511.0,531.0,561.0,633.0
556.0,505.0,515.0,543.0,549.0
417.0,494.0,495.0,522.0,512.0
320.0,493.0,488.0,515.0,506.0
353.0,503.0,485.0,508.0,495.0
456.0,496.0,476.0,482.0,493.0
496.0,507.0,496.0,498.0,500.0
677.0,538.0,514.0,514.0,510.0
510.0,498.0,490.0,487.0,536.0
492.0,491.0,491.0,485.0,558.0
527.0,507.0,517.0,513.0,520.0
464.0,507.0,535.0,526.0,530.0
423.0,492.0,537.0,542.0,533.0
539.0,501.0,536.0,535.0,608.0
399.0,507.0,548.0,547.0,481.0
393.0,506.0,543.0,555.0,419.0
592.0,515.0,533.0,530.0,542.0
606.0,510.0,520.0,540.0,522.0
511.0,479.0,484.0,517.0,581.0
558.0,508.0,488.0,504.0,489.0
648.0,523.0,494.0,507.0,496.0
638.0,521.0,494.0,512.0,526.0
600.0,512.0,494.0,519.0,483.0
564.0,506.0,496.0,510.0,441.0
541.0,503.0,498.0,517.0,394.0
585.0,510.0,512.0,522.0,477.0
555.0,507.0,513.0,499.0,636.0
523.0,510.0,530.0,533.0,525.0
462.0,502.0,528.0,530.0,484.0
518.0,513.0,542.0,554.0,399.0
586.0,526.0,545.0,512.0,577.0
601.0,518.0,545.0,530.0,613.0
578.0,509.0,535.0,536.0,545.0
490.0,508.0,528.0,533.0,469.0
432.0,492.0,506.0,529.0,469.0
546.0,497.0,496.0,530.0,468.0
566.0,504.0,489.0,533.0,511.0
509.0,499.0,485.0,515.0,524.0
518.0,495.0,479.0,492.0,452.0
471.0,498.0,482.0,486.0,507.0
483.0,502.0,489.0,482.0,573.0
531.0,515.0,499.0,493.0,536.0
573.0,517.0,509.0,500.0,512.0
530.0,505.0,510.0,497.0,483.0
572.0,513.0,525.0,518.0,473.0
636.0,544.0,557.0,550.0,448.0
478.0,513.0,553.0,556.0,503.0
236.0,476.0,530.0,543.0,523.0
337.0,479.0,517.0,529.0,529.0
513.0,506.0,519.0,525.0,563.0
526.0,501.0,512.0,533.0,532.0
514.0,492.0,497.0,536.0,507.0
498.0,500.0,492.0,528.0,475.0
454.0,500.0,490.0,523.0,505.0
507.0,516.0,495.0,511.0,577.0
511.0,528.0,503.0,517.0,637.0
499.0,509.0,493.0,493.0,596.0
555.0,497.0,486.0,509.0,473.0
601.0,505.0,496.0,491.0,530.0
560.0,505.0,503.0,483.0,548.0
530.0,504.0,515.0,503.0,475.0
561.0,519.0,535.0,523.0,517.0
567.0,523.0,551.0,543.0,492.0
388.0,501.0,545.0,545.0,480.0
242.0,487.0,539.0,544.0,529.0
349.0,484.0,520.0,532.0,492.0
651.0,513.0,528.0,545.0,470.0
701.0,517.0,516.0,539.0,538.0
569.0,513.0,506.0,530.0,491.0
521.0,504.0,492.0,522.0,503.0
510.0,509.0,492.0,516.0,519.0
501.0,504.0,488.0,510.0,514.0
523.0,506.0,488.0,503.0,510.0
495.0,506.0,488.0,504.0,492.0
470.0,505.0,494.0,499.0,524.0
487.0,502.0,500.0,502.0,506.0
620.0,510.0,506.0,497.0,504.0
625.0,510.0,517.0,505.0,503.0
560.0,509.0,530.0,527.0,579.0
486.0,501.0,540.0,546.0,501.0
430.0,496.0,541.0,553.0,460.0
504.0,500.0,534.0,526.0,452.0
599.0,515.0,537.0,535.0,457.0
581.0,506.0,528.0,537.0,586.0
488.0,507.0,516.0,547.0,496.0
568.0,520.0,509.0,540.0,470.0
603.0,514.0,492.0,503.0,568.0
525.0,498.0,480.0,497.0,585.0
484.0,504.0,489.0,503.0,619.0
471.0,509.0,495.0,507.0,518.0
481.0,514.0,507.0,508.0,486.0
516.0,516.0,507.0,509.0,453.0
590.0,505.0,508.0,507.0,431.0
519.0,488.0,503.0,499.0,533.0
508.0,499.0,523.0,524.0,524.0
481.0,510.0,543.0,527.0,518.0
499.0,509.0,543.0,538.0,433.0
455.0,498.0,535.0,533.0,468.0
480.0,500.0,535.0,542.0,505.0
572.0,513.0,533.0,544.0,569.0
506.0,498.0,518.0,535.0,539.0
364.0,482.0,496.0,525.0,530.0
352.0,489.0,492.0,530.0,524.0
376.0,493.0,486.0,518.0,577.0
360.0,488.0,480.0,496.0,580.0
391.0,488.0,473.0,485.0,495.0
516.0,518.0,497.0,498.0,483.0
593.0,527.0,506.0,499.0,523.0
623.0,525.0,509.0,495.0,504.0
627.0,511.0,510.0,502.0,473.0
612.0,507.0,518.0,507.0,472.0
612.0,510.0,528.0,521.0,522.0
569.0,511.0,539.0,547.0,495.0
536.0,511.0,550.0,556.0,460.0
574.0,518.0,552.0,571.0,456.0
537.0,513.0,539.0,543.0,566.0
483.0,496.0,522.0,532.0,532.0
519.0,498.0,506.0,534.0,527.0
589.0,512.0,505.0,525.0,500.0
580.0,523.0,507.0,523.0,542.0
553.0,520.0,494.0,514.0,562.0
520.0,506.0,483.0,498.0,595.0
457.0,496.0,484.0,498.0,509.0
436.0,496.0,486.0,488.0,498.0
532.0,504.0,492.0,486.0,457.0
566.0,508.0,507.0,500.0,439.0
572.0,508.0,511.0,503.0,468.0
531.0,503.0,522.0,511.0,497.0
509.0,507.0,530.0,528.0,496.0
496.0,500.0,536.0,550.0,497.0
546.0,509.0,539.0,535.0,487.0
552.0,501.0,529.0,514.0,596.0
542.0,505.0,528.0,528.0,582.0
550.0,520.0,530.0,540.0,558.0
573.0,518.0,519.0,544.0,555.0
541.0,510.0,501.0,533.0,480.0
434.0,503.0,498.0,538.0,475.0
423.0,497.0,489.0,513.0,529.0
489.0,499.0,482.0,491.0,562.0
463.0,502.0,481.0,491.0,524.0
456.0,494.0,490.0,488.0,544.0
561.0,502.0,497.0,496.0,532.0
543.0,503.0,501.0,487.0,508.0
543.0,510.0,517.0,493.0,505.0
609.0,526.0,538.0,520.0,533.0
578.0,515.0,545.0,540.0,562.0
500.0,507.0,548.0,543.0,497.0
470.0,515.0,553.0,548.0,439.0
516.0,509.0,539.0,543.0,451.0
527.0,498.0,526.0,548.0,455.0
404.0,481.0,507.0,539.0,464.0
289.0,464.0,484.0,513.0,543.0
325.0,472.0,478.0,500.0,537.0
456.0,504.0,488.0,514.0,489.0
560.0,521.0,495.0,509.0,534.0
623.0,520.0,492.0,495.0,528.0
591.0,509.0,491.0,492.0,520.0
501.0,502.0,496.0,494.0,556.0
568.0,513.0,504.0,493.0,541.0
604.0,511.0,513.0,502.0,530.0
587.0,511.0,524.0,519.0,513.0
541.0,516.0,537.0,529.0,519.0
498.0,511.0,545.0,533.0,508.0
496.0,511.0,549.0,543.0,465.0
570.0,514.0,547.0,539.0,535.0
512.0,506.0,537.0,538.0,554.0
498.0,508.0,533.0,552.0,453.0
502.0,498.0,513.0,535.0,482.0
493.0,490.0,495.0,523.0,499.0
545.0,500.0,489.0,506.0,556.0
495.0,511.0,486.0,503.0,504.0
425.0,502.0,488.0,500.0,549.0
350.0,498.0,495.0,502.0,521.0
356.0,505.0,501.0,498.0,577.0
429.0,503.0,498.0,486.0,502.0
620.0,508.0,500.0,488.0,471.0
620.0,502.0,508.0,490.0,500.0
584.0,511.0,523.0,511.0,434.0
611.0,513.0,537.0,531.0,373.0
607.0,508.0,543.0,544.0,421.0
566.0,506.0,545.0,542.0,537.0
582.0,515.0,541.0,535.0,585.0
537.0,504.0,530.0,538.0,561.0
539.0,506.0,526.0,541.0,551.0
502.0,509.0,507.0,524.0,525.0
491.0,509.0,505.0,525.0,552.0
479.0,502.0,496.0,515.0,627.0
428.0,501.0,489.0,500.0,638.0
431.0,497.0,489.0,500.0,519.0
506.0,505.0,495.0,504.0,465.0
492.0,498.0,490.0,494.0,474.0
542.0,516.0,501.0,488.0,501.0
630.0,531.0,519.0,504.0,530.0
571.0,505.0,517.0,513.0,476.0
499.0,502.0,529.0,534.0,489.0
453.0,500.0,537.0,541.0,458.0
440.0,498.0,537.0,519.0,509.0
511.0,508.0,542.0,528.0,480.0
592.0,507.0,538.0,542.0,528.0
570.0,502.0,529.0,539.0,552.0
539.0,499.0,510.0,525.0,521.0
514.0,506.0,507.0,530.0,487.0
496.0,509.0,503.0,528.0,545.0
508.0,511.0,497.0,527.0,540.0
472.0,499.0,483.0,493.0,501.0
452.0,505.0,490.0,489.0,507.0
488.0,515.0,497.0,488.0,508.0
516.0,502.0,498.0,493.0,483.0
465.0,507.0,505.0,495.0,452.0
392.0,508.0,517.0,508.0,468.0
380.0,499.0,522.0,506.0,502.0
542.0,512.0,531.0,520.0,458.0
453.0,491.0,533.0,526.0,540.0
489.0,495.0,533.0,546.0,554.0
538.0,518.0,541.0,534.0,613.0
616.0,524.0,538.0,537.0,543.0
616.0,511.0,525.0,529.0,418.0
607.0,501.0,509.0,524.0,470.0
571.0,513.0,512.0,527.0,510.0
535.0,508.0,500.0,520.0,533.0
528.0,507.0,492.0,516.0,566.0
528.0,508.0,487.0,493.0,559.0
526.0,504.0,489.0,497.0,521.0
521.0,510.0,494.0,484.0,530.0
520.0,505.0,499.0,489.0,505.0
516.0,506.0,507.0,497.0,492.0
493.0,505.0,515.0,501.0,490.0
503.0,509.0,522.0,510.0,495.0
533.0,510.0,530.0,515.0,516.0
560.0,513.0,543.0,537.0,519.0
550.0,510.0,548.0,543.0,504.0
539.0,505.0,535.0,538.0,526.0
434.0,492.0,527.0,533.0,496.0
470.0,500.0,517.0,529.0,493.0
511.0,511.0,517.0,534.0,573.0
522.0,510.0,507.0,529.0,573.0
543.0,502.0,491.0,513.0,541.0
486.0,497.0,486.0,501.0,524.0
575.0,519.0,498.0,499.0,501.0
544.0,515.0,496.0,497.0,552.0
482.0,499.0,493.0,496.0,505.0
483.0,499.0,500.0,507.0,457.0
489.0,502.0,509.0,514.0,451.0
542.0,506.0,516.0,509.0,472.0
554.0,516.0,533.0,520.0,496.0
477.0,508.0,545.0,535.0,522.0
425.0,501.0,545.0,534.0,499.0
451.0,509.0,542.0,529.0,450.0
549.0,511.0,546.0,542.0,491.0
585.0,511.0,536.0,547.0,541.0
512.0,505.0,522.0,539.0,574.0
472.0,492.0,498.0,506.0,560.0
448.0,497.0,491.0,510.0,519.0
533.0,506.0,488.0,504.0,495.0
547.0,505.0,483.0,500.0,522.0
549.0,513.0,493.0,499.0,535.0
497.0,506.0,494.0,490.0,553.0
493.0,499.0,493.0,492.0,459.0
523.0,504.0,508.0,504.0,411.0
516.0,507.0,516.0,503.0,444.0
466.0,500.0,521.0,510.0,500.0
512.0,510.0,531.0,510.0,572.0
566.0,512.0,538.0,522.0,518.0
570.0,512.0,539.0,534.0,491.0
633.0,519.0,542.0,529.0,557.0
568.0,515.0,540.0,541.0,540.0
480.0,501.0,529.0,546.0,523.0
396.0,495.0,513.0,537.0,523.0
468.0,499.0,506.0,530.0,482.0
499.0,493.0,487.0,502.0,535.0
467.0,501.0,485.0,498.0,570.0
499.0,505.0,485.0,497.0,513.0
529.0,508.0,492.0,503.0,515.0
516.0,520.0,505.0,505.0,476.0
557.0,508.0,502.0,503.0,492.0
550.0,508.0,509.0,504.0,491.0
549.0,512.0,517.0,496.0,505.0
485.0,507.0,524.0,501.0,527.0
471.0,512.0,535.0,515.0,535.0
511.0,504.0,537.0,529.0,514.0
568.0,507.0,543.0,538.0,437.0
617.0,518.0,543.0,530.0,481.0
558.0,505.0,530.0,527.0,530.0
483.0,496.0,519.0,537.0,535.0
477.0,499.0,508.0,532.0,502.0
465.0,503.0,502.0,525.0,502.0
466.0,501.0,494.0,508.0,535.0
504.0,510.0,499.0,511.0,545.0
515.0,507.0,487.0,493.0,560.0
509.0,501.0,486.0,485.0,513.0
525.0,507.0,491.0,485.0,557.0
474.0,514.0,509.0,489.0,604.0
488.0,507.0,511.0,506.0,540.0
496.0,510.0,524.0,506.0,451.0
482.0,512.0,532.0,518.0,471.0
550.0,514.0,544.0,535.0,422.0
599.0,509.0,542.0,531.0,476.0
592.0,515.0,549.0,540.0,471.0
548.0,508.0,540.0,538.0,536.0
495.0,487.0,518.0,547.0,573.0
492.0,490.0,504.0,528.0,600.0
515.0,504.0,500.0,514.0,537.0
498.0,499.0,489.0,500.0,506.0
498.0,510.0,494.0,509.0,509.0
538.0,516.0,491.0,502.0,553.0
516.0,503.0,485.0,488.0,521.0
517.0,512.0,497.0,500.0,518.0
514.0,512.0,500.0,499.0,461.0
489.0,515.0,509.0,488.0,461.0
445.0,500.0,511.0,493.0,478.0
527.0,506.0,523.0,508.0,482.0
534.0,508.0,528.0,507.0,462.0
557.0,515.0,537.0,521.0,513.0
588.0,522.0,548.0,541.0,486.0
566.0,515.0,548.0,549.0,493.0
528.0,499.0,534.0,546.0,490.0
517.0,493.0,520.0,532.0,535.0
454.0,486.0,504.0,529.0,530.0
512.0,498.0,499.0,509.0,545.0
488.0,502.0,492.0,505.0,530.0
513.0,512.0,490.0,499.0,518.0
526.0,514.0,491.0,504.0,522.0
487.0,511.0,494.0,492.0,516.0
498.0,510.0,497.0,491.0,521.0
523.0,503.0,496.0,482.0,545.0
541.0,507.0,509.0,499.0,520.0
487.0,503.0,519.0,496.0,519.0
459.0,503.0,522.0,501.0,512.0
469.0,506.0,527.0,517.0,488.0
583.0,517.0,544.0,529.0,495.0
555.0,505.0,538.0,528.0,528.0
536.0,508.0,537.0,533.0,520.0
531.0,513.0,538.0,539.0,491.0
506.0,500.0,522.0,539.0,491.0
499.0,502.0,508.0,528.0,520.0
520.0,508.0,501.0,522.0,485.0
535.0,511.0,498.0,519.0,514.0
523.0,518.0,502.0,505.0,594.0
523.0,512.0,494.0,505.0,554.0
524.0,507.0,493.0,491.0,580.0
499.0,501.0,493.0,487.0,523.0
515.0,505.0,499.0,490.0,440.0
489.0,504.0,513.0,496.0,496.0
536.0,512.0,526.0,504.0,494.0
535.0,514.0,533.0,517.0,503.0
566.0,512.0,542.0,525.0,476.0
585.0,506.0,543.0,536.0,480.0
556.0,514.0,547.0,536.0,520.0
484.0,493.0,527.0,531.0,507.0
477.0,493.0,522.0,534.0,497.0
529.0,505.0,516.0,533.0,513.0
497.0,506.0,510.0,528.0,529.0
473.0,499.0,496.0,517.0,537.0
481.0,500.0,488.0,505.0,525.0
467.0,501.0,488.0,504.0,509.0
495.0,504.0,496.0,506.0,512.0
456.0,508.0,496.0,496.0,529.0
404.0,501.0,498.0,490.0,534.0
447.0,494.0,494.0,474.0,526.0
574.0,515.0,509.0,488.0,500.0
585.0,508.0,520.0,502.0,494.0
569.0,510.0,530.0,517.0,481.0
571.0,512.0,539.0,523.0,490.0
560.0,512.0,545.0,532.0,499.0
542.0,506.0,539.0,538.0,481.0
481.0,502.0,529.0,535.0,509.0
486.0,509.0,533.0,545.0,545.0
502.0,509.0,521.0,536.0,552.0
523.0,508.0,506.0,523.0,477.0
519.0,509.0,497.0,510.0,492.0
524.0,509.0,492.0,503.0,531.0
497.0,505.0,490.0,498.0,554.0
492.0,512.0,498.0,501.0,519.0
460.0,502.0,495.0,494.0,527.0
456.0,498.0,494.0,486.0,562.0
501.0,500.0,500.0,484.0,548.0
574.0,509.0,515.0,496.0,507.0
582.0,512.0,525.0,506.0,471.0
575.0,511.0,536.0,528.0,456.0
531.0,507.0,541.0,540.0,432.0
534.0,509.0,543.0,545.0,469.0
529.0,512.0,538.0,528.0,565.0
546.0,514.0,536.0,543.0,523.0
554.0,508.0,524.0,544.0,593.0
539.0,502.0,504.0,502.0,613.0
473.0,493.0,492.0,504.0,556.0
449.0,496.0,487.0,514.0,434.0
481.0,503.0,491.0,513.0,427.0
482.0,510.0,497.0,501.0,521.0
503.0,513.0,499.0,500.0,547.0
502.0,506.0,501.0,492.0,519.0
508.0,500.0,494.0,477.0,500.0
504.0,499.0,501.0,482.0,522.0
515.0,505.0,513.0,494.0,486.0
596.0,520.0,532.0,516.0,491.0
584.0,517.0,539.0,531.0,470.0
536.0,503.0,535.0,529.0,474.0
519.0,507.0,538.0,530.0,507.0
527.0,508.0,539.0,539.0,506.0
520.0,502.0,525.0,532.0,537.0
514.0,503.0,515.0,531.0,517.0
482.0,499.0,504.0,524.0,526.0
479.0,502.0,495.0,513.0,525.0
499.0,509.0,493.0,501.0,511.0
510.0,507.0,492.0,497.0,531.0
508.0,507.0,492.0,494.0,532.0
498.0,509.0,498.0,500.0,529.0
494.0,505.0,499.0,490.0,514.0
504.0,506.0,503.0,487.0,507.0
536.0,508.0,514.0,499.0,493.0
533.0,501.0,518.0,508.0,478.0
536.0,507.0,530.0,510.0,518.0
537.0,507.0,538.0,521.0,506.0
555.0,509.0,539.0,528.0,502.0
558.0,512.0,540.0,538.0,504.0
509.0,504.0,532.0,536.0,510.0
528.0,506.0,525.0,535.0,505.0
522.0,498.0,513.0,528.0,521.0
498.0,501.0,498.0,518.0,542.0
477.0,504.0,497.0,514.0,529.0
498.0,511.0,494.0,505.0,520.0
527.0,517.0,496.0,499.0,528.0
505.0,505.0,492.0,493.0,534.0
486.0,504.0,497.0,492.0,517.0
489.0,500.0,495.0,484.0,521.0
525.0,507.0,510.0,494.0,507.0
517.0,508.0,517.0,503.0,503.0
516.0,505.0,526.0,516.0,504.0
537.0,509.0,533.0,519.0,480.0
538.0,508.0,541.0,532.0,482.0
538.0,506.0,540.0,533.0,489.0
540.0,508.0,539.0,540.0,500.0
518.0,506.0,532.0,540.0,516.0
498.0,504.0,522.0,530.0,532.0
507.0,502.0,510.0,526.0,524.0
507.0,507.0,501.0,520.0,516.0
485.0,510.0,498.0,515.0,523.0
482.0,508.0,495.0,508.0,521.0
506.0,506.0,493.0,498.0,514.0
538.0,511.0,499.0,493.0,534.0
541.0,505.0,494.0,484.0,541.0
526.0,506.0,501.0,488.0,529.0
497.0,502.0,509.0,491.0,518.0
502.0,503.0,517.0,499.0,489.0
543.0,510.0,532.0,514.0,486.0
543.0,511.0,539.0,525.0,489.0
526.0,502.0,538.0,529.0,492.0
516.0,506.0,540.0,537.0,504.0
535.0,503.0,535.0,539.0,497.0
519.0,500.0,528.0,537.0,505.0
494.0,498.0,515.0,531.0,520.0
510.0,500.0,503.0,522.0,534.0
514.0,504.0,496.0,512.0,528.0
501.0,505.0,491.0,507.0,524.0
497.0,506.0,490.0,501.0,527.0
509.0,510.0,496.0,500.0,519.0
501.0,507.0,496.0,494.0,523.0
507.0,510.0,499.0,490.0,509.0
522.0,509.0,506.0,491.0,507.0
524.0,506.0,514.0,494.0,506.0
524.0,506.0,523.0,502.0,512.0
532.0,511.0,535.0,513.0,503.0
524.0,513.0,542.0,529.0,485.0
516.0,507.0,542.0,539.0,488.0
506.0,506.0,541.0,539.0,520.0
529.0,508.0,536.0,544.0,509.0
511.0,502.0,525.0,536.0,527.0
483.0,496.0,509.0,524.0,541.0
507.0,502.0,499.0,514.0,557.0
523.0,505.0,493.0,512.0,514.0
533.0,510.0,490.0,504.0,512.0
516.0,507.0,491.0,499.0,518.0
505.0,511.0,495.0,495.0,510.0
509.0,510.0,498.0,492.0,510.0
515.0,504.0,498.0,488.0,507.0
517.0,505.0,507.0,492.0,503.0
527.0,508.0,519.0,502.0,496.0
529.0,505.0,524.0,503.0,496.0
523.0,510.0,537.0,519.0,505.0
541.0,509.0,541.0,530.0,504.0
539.0,512.0,545.0,540.0,499.0
535.0,510.0,540.0,543.0,504.0
526.0,506.0,530.0,532.0,519.0
512.0,501.0,518.0,530.0,524.0
507.0,500.0,510.0,527.0,529.0
499.0,503.0,500.0,517.0,530.0
500.0,507.0,495.0,511.0,527.0
501.0,508.0,492.0,504.0,523.0
507.0,509.0,494.0,499.0,520.0
510.0,512.0,498.0,496.0,517.0
509.0,508.0,498.0,488.0,516.0
511.0,505.0,501.0,490.0,514.0
518.0,505.0,510.0,493.0,509.0
529.0,510.0,520.0,502.0,502.0
531.0,508.0,529.0,513.0,499.0
537.0,511.0,539.0,525.0,497.0
539.0,510.0,543.0,535.0,498.0
536.0,512.0,544.0,542.0,499.0
533.0,512.0,537.0,543.0,504.0
517.0,502.0,527.0,539.0,509.0
507.0,502.0,515.0,532.0,526.0
501.0,500.0,503.0,523.0,528.0
500.0,503.0,498.0,520.0,525.0
498.0,506.0,493.0,513.0,526.0
502.0,511.0,494.0,501.0,524.0
510.0,511.0,496.0,502.0,522.0
507.0,509.0,497.0,495.0,513.0
509.0,506.0,498.0,490.0,512.0
515.0,505.0,504.0,490.0,502.0
521.0,505.0,514.0,499.0,499.0
528.0,504.0,518.0,502.0,502.0
531.0,509.0,529.0,514.0,501.0
538.0,511.0,541.0,531.0,496.0
532.0,509.0,546.0,540.0,503.0
537.0,511.0,542.0,540.0,505.0
523.0,507.0,534.0,543.0,519.0
516.0,501.0,527.0,534.0,521.0
504.0,504.0,515.0,530.0,530.0
501.0,503.0,502.0,522.0,531.0
499.0,506.0,497.0,515.0,527.0
502.0,506.0,492.0,507.0,515.0
505.0,507.0,491.0,502.0,509.0
509.0,509.0,495.0,499.0,502.0
514.0,508.0,497.0,494.0,505.0
508.0,503.0,497.0,488.0,517.0
518.0,504.0,506.0,492.0,509.0
527.0,508.0,522.0,502.0,502.0
529.0,508.0,524.0,511.0,498.0
533.0,510.0,536.0,522.0,500.0
529.0,508.0,542.0,533.0,499.0
535.0,511.0,551.0,544.0,498.0
522.0,508.0,540.0,542.0,505.0
524.0,504.0,533.0,544.0,510.0
510.0,498.0,516.0,530.0,520.0
503.0,500.0,505.0,523.0,529.0
505.0,504.0,501.0,522.0,527.0
512.0,510.0,498.0,516.0,524.0
518.0,510.0,495.0,508.0,519.0
511.0,509.0,495.0,501.0,520.0
508.0,509.0,498.0,497.0,509.0
506.0,506.0,497.0,491.0,518.0
513.0,506.0,502.0,492.0,512.0
519.0,506.0,512.0,495.0,508.0
520.0,506.0,519.0,504.0,503.0
529.0,508.0,529.0,514.0,491.0
535.0,510.0,538.0,526.0,489.0
539.0,506.0,540.0,532.0,494.0
536.0,509.0,542.0,542.0,495.0
524.0,504.0,534.0,541.0,506.0
514.0,504.0,529.0,539.0,521.0
507.0,500.0,513.0,529.0,535.0
502.0,502.0,504.0,524.0,531.0
501.0,507.0,500.0,519.0,529.0
499.0,508.0,495.0,512.0,528.0
502.0,509.0,495.0,508.0,526.0
509.0,511.0,497.0,503.0,518.0
509.0,515.0,501.0,503.0,513.0
512.0,506.0,499.0,495.0,514.0
512.0,505.0,505.0,496.0,512.0
520.0,508.0,512.0,499.0,506.0
526.0,506.0,522.0,509.0,504.0
532.0,508.0,532.0,521.0,498.0
537.0,510.0,541.0,532.0,498.0
539.0,511.0,543.0,538.0,498.0
533.0,510.0,541.0,541.0,501.0
526.0,504.0,532.0,537.0,505.0
517.0,502.0,522.0,537.0,520.0
505.0,501.0,511.0,527.0,526.0
500.0,501.0,501.0,521.0,527.0
499.0,506.0,496.0,517.0,525.0
501.0,508.0,493.0,513.0,521.0
507.0,510.0,493.0,511.0,518.0
517.0,513.0,497.0,511.0,512.0
515.0,512.0,500.0,508.0,509.0
512.0,507.0,498.0,503.0,510.0
520.0,506.0,505.0,505.0,504.0
525.0,507.0,516.0,511.0,502.0
528.0,511.0,527.0,520.0,499.0
534.0,513.0,535.0,530.0,499.0
540.0,513.0,545.0,530.0,496.0
541.0,517.0,542.0,537.0,497.0
531.0,511.0,536.0,533.0,503.0
521.0,508.0,528.0,529.0,513.0
509.0,507.0,520.0,527.0,521.0
504.0,503.0,505.0,521.0,526.0
502.0,506.0,498.0,519.0,524.0
501.0,507.0,492.0,519.0,519.0
504.0,510.0,491.0,516.0,518.0
508.0,511.0,493.0,516.0,516.0
513.0,510.0,497.0,516.0,511.0
512.0,509.0,499.0,512.0,514.0
515.0,509.0,502.0,510.0,512.0
522.0,512.0,510.0,512.0,508.0
528.0,512.0,518.0,518.0,503.0
536.0,510.0,529.0,524.0,497.0
541.0,512.0,539.0,530.0,488.0
539.0,511.0,538.0,532.0,495.0
533.0,510.0,539.0,533.0,499.0
526.0,508.0,533.0,532.0,506.0
521.0,507.0,526.0,531.0,514.0
512.0,504.0,514.0,525.0,526.0
506.0,505.0,504.0,522.0,524.0
508.0,508.0,497.0,521.0,522.0
510.0,508.0,492.0,518.0,521.0
507.0,509.0,491.0,514.0,518.0
503.0,512.0,495.0,512.0,517.0
509.0,512.0,497.0,510.0,511.0
510.0,507.0,498.0,506.0,513.0
517.0,507.0,505.0,507.0,508.0
524.0,507.0,514.0,513.0,501.0
532.0,508.0,521.0,518.0,499.0
536.0,512.0,531.0,525.0,490.0
534.0,508.0,538.0,529.0,492.0
535.0,509.0,537.0,532.0,500.0
534.0,509.0,537.0,534.0,503.0
527.0,509.0,533.0,533.0,511.0
520.0,504.0,521.0,528.0,513.0
506.0,504.0,510.0,520.0,523.0
501.0,504.0,498.0,518.0,522.0
503.0,506.0,492.0,513.0,522.0
503.0,509.0,491.0,513.0,519.0
503.0,512.0,493.0,510.0,518.0
508.0,511.0,496.0,508.0,512.0
511.0,509.0,497.0,504.0,509.0
513.0,506.0,498.0,500.0,508.0
515.0,508.0,507.0,502.0,506.0
521.0,508.0,517.0,509.0,503.0
526.0,508.0,524.0,518.0,499.0
537.0,512.0,535.0,526.0,497.0
538.0,512.0,541.0,532.0,498.0
536.0,512.0,543.0,537.0,501.0
529.0,508.0,535.0,533.0,505.0
524.0,507.0,530.0,533.0,511.0
509.0,503.0,521.0,531.0,524.0
500.0,502.0,504.0,519.0,529.0
499.0,505.0,498.0,516.0,526.0
503.0,509.0,493.0,513.0,522.0
503.0,515.0,492.0,508.0,517.0
510.0,511.0,493.0,507.0,512.0
510.0,512.0,497.0,506.0,510.0
513.0,508.0,498.0,503.0,509.0
516.0,508.0,503.0,503.0,508.0
522.0,508.0,511.0,510.0,506.0
529.0,510.0,523.0,513.0,502.0
530.0,510.0,530.0,520.0,498.0
535.0,514.0,536.0,525.0,496.0
536.0,510.0,541.0,531.0,501.0
535.0,509.0,540.0,534.0,498.0
528.0,508.0,535.0,534.0,507.0
516.0,504.0,527.0,530.0,515.0
507.0,506.0,517.0,523.0,522.0
505.0,504.0,503.0,521.0,527.0
506.0,507.0,500.0,518.0,526.0
506.0,516.0,494.0,512.0,519.0
507.0,514.0,494.0,510.0,518.0
512.0,515.0,497.0,508.0,512.0
510.0,511.0,498.0,505.0,514.0
507.0,509.0,497.0,500.0,510.0
514.0,508.0,506.0,502.0,505.0
520.0,511.0,518.0,511.0,505.0
525.0,506.0,522.0,514.0,505.0
532.0,509.0,529.0,521.0,497.0
535.0,509.0,539.0,530.0,496.0
532.0,508.0,543.0,535.0,496.0
535.0,507.0,537.0,537.0,501.0
529.0,506.0,531.0,534.0,507.0
513.0,502.0,519.0,526.0,518.0
503.0,502.0,509.0,521.0,526.0
499.0,506.0,500.0,517.0,527.0
502.0,510.0,497.0,515.0,525.0
503.0,512.0,495.0,513.0,516.0
506.0,513.0,495.0,512.0,512.0
516.0,513.0,498.0,507.0,509.0
515.0,511.0,498.0,500.0,513.0
513.0,510.0,503.0,501.0,516.0
513.0,508.0,509.0,502.0,511.0
523.0,507.0,517.0,509.0,506.0
530.0,506.0,523.0,515.0,498.0
538.0,511.0,535.0,527.0,497.0
537.0,512.0,541.0,533.0,497.0
531.0,509.0,537.0,534.0,503.0
522.0,508.0,533.0,533.0,516.0
522.0,506.0,527.0,531.0,511.0
515.0,502.0,515.0,527.0,520.0
503.0,505.0,506.0,523.0,524.0
499.0,511.0,499.0,515.0,526.0
497.0,510.0,495.0,513.0,521.0
504.0,511.0,496.0,514.0,516.0
506.0,512.0,493.0,507.0,512.0
506.0,512.0,495.0,501.0,519.0
509.0,508.0,498.0,499.0,513.0
515.0,508.0,505.0,505.0,510.0
520.0,509.0,513.0,507.0,506.0
528.0,508.0,520.0,513.0,507.0
526.0,506.0,528.0,518.0,500.0
534.0,512.0,537.0,527.0,500.0
535.0,510.0,541.0,535.0,502.0
530.0,508.0,536.0,531.0,503.0
523.0,510.0,532.0,532.0,511.0
516.0,505.0,524.0,528.0,514.0
506.0,502.0,510.0,520.0,524.0
500.0,503.0,501.0,517.0,524.0
496.0,505.0,498.0,516.0,526.0
499.0,510.0,494.0,512.0,522.0
503.0,515.0,492.0,510.0,519.0
509.0,515.0,497.0,513.0,513.0
510.0,515.0,502.0,508.0,510.0
508.0,508.0,498.0,505.0,507.0
514.0,507.0,505.0,508.0,504.0
519.0,507.0,513.0,512.0,503.0
527.0,507.0,519.0,514.0,500.0
529.0,510.0,529.0,521.0,499.0
531.0,512.0,534.0,525.0,494.0
533.0,509.0,537.0,529.0,495.0
528.0,510.0,535.0,529.0,505.0
519.0,506.0,528.0,524.0,511.0
514.0,501.0,515.0,518.0,518.0
505.0,500.0,504.0,514.0,522.0
493.0,507.0,503.0,519.0,530.0
500.0,511.0,496.0,514.0,526.0
498.0,511.0,491.0,512.0,522.0
501.0,512.0,491.0,511.0,519.0
506.0,514.0,496.0,513.0,515.0
509.0,515.0,498.0,512.0,512.0
510.0,512.0,502.0,510.0,512.0
515.0,507.0,508.0,512.0,507.0
526.0,508.0,519.0,517.0,505.0
531.0,508.0,527.0,523.0,497.0
536.0,511.0,534.0,531.0,490.0
535.0,512.0,543.0,527.0,497.0
528.0,508.0,536.0,523.0,501.0
521.0,506.0,531.0,522.0,510.0
517.0,506.0,526.0,520.0,517.0
508.0,502.0,512.0,514.0,526.0
503.0,503.0,503.0,512.0,528.0
500.0,507.0,496.0,513.0,529.0
503.0,512.0,493.0,515.0,527.0
500.0,511.0,492.0,515.0,522.0
504.0,513.0,494.0,516.0,514.0
509.0,516.0,496.0,515.0,510.0
512.0,512.0,500.0,514.0,512.0
513.0,509.0,502.0,511.0,510.0
519.0,507.0,509.0,515.0,509.0
519.0,506.0,516.0,517.0,505.0
527.0,509.0,527.0,519.0,502.0
535.0,510.0,536.0,522.0,500.0
531.0,507.0,537.0,524.0,499.0
529.0,509.0,536.0,525.0,499.0
523.0,506.0,531.0,523.0,506.0
519.0,509.0,523.0,519.0,514.0
507.0,502.0,509.0,513.0,522.0
498.0,505.0,498.0,510.0,522.0
499.0,510.0,494.0,513.0,521.0
504.0,511.0,491.0,514.0,517.0
502.0,511.0,491.0,515.0,517.0
503.0,511.0,494.0,515.0,517.0
507.0,511.0,497.0,513.0,521.0
506.0,506.0,497.0,510.0,520.0
513.0,506.0,505.0,515.0,522.0
514.0,508.0,514.0,513.0,516.0
520.0,507.0,520.0,515.0,507.0
528.0,511.0,529.0,520.0,492.0
533.0,508.0,539.0,523.0,490.0
533.0,513.0,539.0,527.0,492.0
528.0,509.0,537.0,527.0,491.0
522.0,507.0,530.0,523.0,504.0
510.0,499.0,516.0,515.0,525.0
500.0,501.0,504.0,511.0,527.0
502.0,509.0,501.0,517.0,522.0
502.0,508.0,494.0,517.0,518.0
501.0,511.0,493.0,514.0,518.0
503.0,511.0,493.0,513.0,518.0
508.0,513.0,497.0,514.0,513.0
509.0,511.0,498.0,510.0,511.0
510.0,509.0,498.0,505.0,514.0
514.0,504.0,505.0,506.0,509.0
520.0,505.0,516.0,512.0,503.0
525.0,507.0,523.0,515.0,500.0
531.0,510.0,533.0,522.0,499.0
534.0,513.0,538.0,527.0,494.0
530.0,508.0,537.0,529.0,496.0
529.0,506.0,535.0,529.0,504.0
520.0,504.0,525.0,525.0,513.0
508.0,501.0,512.0,518.0,522.0
503.0,501.0,502.0,516.0,527.0
499.0,506.0,497.0,514.0,529.0
502.0,507.0,495.0,509.0,525.0
496.0,511.0,488.0,504.0,525.0
503.0,510.0,492.0,505.0,519.0
511.0,512.0,497.0,504.0,516.0
509.0,510.0,499.0,501.0,513.0
512.0,507.0,502.0,501.0,514.0
518.0,506.0,511.0,505.0,511.0
522.0,504.0,517.0,509.0,504.0
530.0,507.0,528.0,522.0,502.0
532.0,508.0,535.0,527.0,496.0
530.0,507.0,538.0,533.0,501.0
524.0,509.0,535.0,534.0,505.0
519.0,506.0,532.0,535.0,519.0
514.0,505.0,524.0,532.0,524.0
503.0,500.0,509.0,522.0,528.0
498.0,501.0,498.0,515.0,523.0
499.0,505.0,493.0,508.0,518.0
502.0,508.0,493.0,505.0,519.0
499.0,510.0,493.0,503.0,516.0
505.0,510.0,494.0,496.0,510.0
508.0,506.0,494.0,492.0,508.0
512.0,507.0,499.0,488.0,508.0
516.0,506.0,506.0,490.0,505.0
519.0,510.0,514.0,495.0,502.0
527.0,505.0,521.0,506.0,504.0
527.0,506.0,530.0,518.0,498.0
533.0,509.0,538.0,534.0,498.0
532.0,508.0,541.0,545.0,496.0
528.0,509.0,535.0,545.0,501.0
516.0,504.0,534.0,545.0,514.0
510.0,498.0,516.0,535.0,523.0
497.0,499.0,505.0,524.0,527.0
496.0,502.0,497.0,515.0,526.0
500.0,507.0,493.0,506.0,524.0
501.0,510.0,493.0,500.0,519.0
503.0,510.0,493.0,491.0,517.0
507.0,511.0,497.0,490.0,513.0
506.0,509.0,499.0,484.0,512.0
508.0,506.0,500.0,480.0,513.0
520.0,507.0,508.0,487.0,508.0
526.0,506.0,517.0,496.0,505.0
525.0,507.0,527.0,509.0,501.0
532.0,508.0,534.0,522.0,497.0
535.0,508.0,539.0,534.0,499.0
533.0,508.0,540.0,543.0,504.0
528.0,504.0,533.0,543.0,505.0
524.0,503.0,529.0,545.0,507.0
500.0,500.0,515.0,533.0,527.0
499.0,503.0,504.0,522.0,531.0
500.0,507.0,497.0,513.0,532.0
500.0,507.0,493.0,503.0,528.0
501.0,508.0,492.0,494.0,524.0
503.0,509.0,493.0,491.0,518.0
510.0,512.0,496.0,484.0,511.0
509.0,506.0,499.0,482.0,510.0
512.0,504.0,502.0,481.0,508.0
516.0,502.0,511.0,491.0,510.0
519.0,503.0,519.0,497.0,503.0
528.0,505.0,532.0,511.0,501.0
535.0,507.0,537.0,524.0,499.0
530.0,502.0,539.0,535.0,499.0
534.0,507.0,539.0,548.0,501.0
522.0,503.0,532.0,541.0,508.0
515.0,503.0,525.0,540.0,517.0
506.0,501.0,511.0,530.0,523.0
498.0,502.0,506.0,518.0,528.0
500.0,506.0,497.0,509.0,531.0
503.0,508.0,495.0,501.0,527.0
502.0,510.0,494.0,493.0,523.0
508.0,512.0,497.0,489.0,517.0
505.0,511.0,504.0,488.0,516.0
508.0,508.0,501.0,481.0,514.0
513.0,506.0,507.0,483.0,512.0
519.0,508.0,518.0,493.0,507.0
521.0,507.0,523.0,502.0,507.0
526.0,508.0,532.0,515.0,502.0
529.0,506.0,537.0,527.0,496.0
531.0,508.0,541.0,539.0,498.0
529.0,508.0,538.0,543.0,501.0
517.0,504.0,530.0,541.0,509.0
502.0,497.0,517.0,531.0,523.0
499.0,500.0,507.0,521.0,526.0
501.0,504.0,500.0,513.0,527.0
500.0,506.0,495.0,505.0,527.0
500.0,509.0,493.0,496.0,524.0
501.0,510.0,492.0,488.0,521.0
507.0,510.0,498.0,486.0,516.0
507.0,509.0,505.0,485.0,517.0
508.0,506.0,502.0,479.0,518.0
513.0,505.0,510.0,484.0,517.0
519.0,506.0,520.0,495.0,515.0
528.0,508.0,527.0,507.0,511.0
530.0,509.0,536.0,520.0,501.0
535.0,511.0,540.0,533.0,501.0
528.0,506.0,539.0,538.0,498.0
525.0,505.0,535.0,540.0,503.0
519.0,502.0,527.0,539.0,505.0
509.0,499.0,514.0,532.0,521.0
502.0,499.0,501.0,518.0,519.0
501.0,501.0,497.0,511.0,517.0
499.0,507.0,494.0,502.0,520.0
503.0,510.0,494.0,494.0,515.0
505.0,511.0,496.0,490.0,514.0
507.0,509.0,499.0,486.0,516.0
506.0,507.0,499.0,479.0,521.0
509.0,503.0,503.0,480.0,516.0
515.0,506.0,510.0,486.0,508.0
519.0,504.0,519.0,496.0,505.0
526.0,505.0,529.0,510.0,501.0
529.0,508.0,539.0,525.0,499.0
530.0,506.0,540.0,535.0,504.0
527.0,505.0,538.0,540.0,500.0
523.0,506.0,533.0,542.0,510.0
514.0,502.0,525.0,537.0,516.0
503.0,500.0,512.0,527.0,525.0
497.0,501.0,502.0,517.0,529.0
498.0,505.0,497.0,510.0,525.0
499.0,508.0,494.0,500.0,522.0
501.0,509.0,494.0,494.0,522.0
504.0,508.0,496.0,489.0,516.0
505.0,508.0,499.0,485.0,514.0
506.0,507.0,502.0,484.0,513.0
511.0,505.0,510.0,490.0,513.0
518.0,507.0,516.0,493.0,509.0
525.0,507.0,524.0,501.0,504.0
527.0,507.0,532.0,516.0,496.0
529.0,508.0,543.0,531.0,497.0
526.0,509.0,539.0,538.0,495.0
526.0,506.0,537.0,543.0,504.0
519.0,503.0,531.0,541.0,511.0
507.0,503.0,517.0,532.0,526.0
502.0,502.0,508.0,525.0,530.0
499.0,507.0,500.0,516.0,528.0
499.0,507.0,495.0,506.0,525.0
506.0,509.0,494.0,501.0,516.0
509.0,509.0,494.0,496.0,512.0
505.0,511.0,499.0,492.0,512.0
502.0,507.0,497.0,481.0,516.0
504.0,505.0,499.0,477.0,517.0
511.0,504.0,508.0,485.0,513.0
516.0,504.0,517.0,494.0,507.0
522.0,506.0,526.0,506.0,504.0
528.0,509.0,540.0,524.0,500.0
531.0,506.0,540.0,531.0,498.0
532.0,509.0,546.0,543.0,500.0
524.0,506.0,535.0,546.0,509.0
516.0,504.0,528.0,542.0,516.0
503.0,496.0,514.0,531.0,523.0
499.0,501.0,503.0,521.0,525.0
499.0,504.0,496.0,511.0,525.0
498.0,506.0,493.0,504.0,526.0
497.0,509.0,494.0,499.0,527.0
503.0,516.0,497.0,494.0,520.0
505.0,511.0,500.0,489.0,519.0
507.0,509.0,502.0,486.0,516.0
512.0,507.0,506.0,486.0,513.0
520.0,506.0,514.0,493.0,507.0
522.0,505.0,521.0,502.0,502.0
526.0,506.0,529.0,514.0,497.0
534.0,508.0,538.0,528.0,498.0
532.0,507.0,539.0,536.0,499.0
529.0,511.0,538.0,542.0,502.0
524.0,504.0,535.0,545.0,503.0
515.0,501.0,525.0,541.0,517.0
509.0,501.0,511.0,533.0,531.0
500.0,502.0,502.0,520.0,531.0
497.0,503.0,496.0,510.0,529.0
496.0,507.0,492.0,501.0,525.0
500.0,508.0,494.0,495.0,525.0
506.0,510.0,497.0,491.0,519.0
508.0,509.0,500.0,487.0,513.0
507.0,507.0,500.0,481.0,515.0
512.0,504.0,506.0,485.0,511.0
518.0,505.0,515.0,494.0,506.0
522.0,505.0,523.0,504.0,502.0
527.0,507.0,534.0,522.0,500.0
529.0,506.0,540.0,532.0,496.0
529.0,508.0,540.0,541.0,500.0
525.0,508.0,537.0,544.0,507.0
519.0,505.0,530.0,543.0,511.0
509.0,502.0,518.0,536.0,526.0
500.0,502.0,508.0,527.0,534.0
500.0,504.0,504.0,517.0,533.0
497.0,511.0,496.0,509.0,535.0
501.0,510.0,494.0,500.0,527.0
501.0,509.0,494.0,493.0,518.0
506.0,511.0,497.0,489.0,512.0
509.0,506.0,498.0,483.0,504.0
510.0,504.0,499.0,481.0,503.0
514.0,504.0,507.0,486.0,504.0
522.0,508.0,517.0,496.0,503.0
528.0,508.0,527.0,511.0,501.0
532.0,507.0,535.0,523.0,498.0
530.0,506.0,538.0,533.0,498.0
529.0,506.0,539.0,542.0,500.0
524.0,507.0,535.0,545.0,505.0
517.0,504.0,527.0,541.0,509.0
507.0,500.0,512.0,530.0,518.0
501.0,498.0,502.0,521.0,523.0
501.0,505.0,499.0,514.0,525.0
504.0,508.0,495.0,505.0,521.0
499.0,509.0,493.0,496.0,520.0
503.0,509.0,496.0,491.0,519.0
507.0,509.0,497.0,486.0,515.0
508.0,508.0,500.0,484.0,514.0
511.0,506.0,505.0,484.0,513.0
517.0,505.0,511.0,490.0,506.0
520.0,504.0,520.0,500.0,504.0
525.0,511.0,530.0,514.0,502.0
532.0,507.0,537.0,527.0,498.0
531.0,507.0,539.0,537.0,504.0
529.0,507.0,538.0,543.0,504.0
521.0,505.0,532.0,543.0,508.0
515.0,503.0,525.0,540.0,516.0
503.0,500.0,512.0,531.0,528.0
497.0,503.0,500.0,518.0,530.0
497.0,503.0,495.0,510.0,528.0
502.0,508.0,493.0,502.0,523.0
503.0,507.0,493.0,494.0,520.0
503.0,513.0,497.0,491.0,520.0
508.0,510.0,499.0,486.0,516.0
510.0,508.0,501.0,484.0,509.0
513.0,509.0,506.0,486.0,507.0
518.0,504.0,515.0,496.0,504.0
521.0,506.0,521.0,501.0,508.0
528.0,507.0,528.0,518.0,500.0
534.0,510.0,540.0,533.0,498.0
536.0,511.0,541.0,543.0,503.0
524.0,504.0,534.0,542.0,508.0
521.0,509.0,531.0,543.0,510.0
506.0,499.0,516.0,532.0,521.0
500.0,500.0,509.0,525.0,525.0
498.0,503.0,499.0,517.0,524.0
501.0,509.0,495.0,507.0,526.0
500.0,510.0,492.0,499.0,519.0
504.0,508.0,497.0,490.0,521.0
505.0,510.0,497.0,489.0,517.0
508.0,509.0,500.0,486.0,514.0
511.0,507.0,503.0,488.0,518.0
514.0,506.0,510.0,490.0,508.0
518.0,505.0,522.0,500.0,507.0
522.0,504.0,524.0,506.0,501.0
529.0,509.0,535.0,524.0,499.0
528.0,506.0,537.0,533.0,499.0
529.0,507.0,539.0,542.0,503.0
526.0,509.0,532.0,544.0,511.0
518.0,505.0,528.0,543.0,514.0
501.0,498.0,514.0,529.0,524.0
498.0,500.0,501.0,521.0,526.0
501.0,503.0,499.0,517.0,526.0
497.0,508.0,494.0,503.0,523.0
500.0,508.0,492.0,495.0,523.0
504.0,510.0,499.0,492.0,518.0
508.0,511.0,499.0,489.0,515.0
509.0,508.0,502.0,486.0,512.0
512.0,506.0,506.0,487.0,509.0
517.0,505.0,514.0,494.0,505.0
518.0,504.0,520.0,500.0,506.0
526.0,507.0,529.0,514.0,503.0
530.0,508.0,538.0,528.0,504.0
534.0,510.0,539.0,538.0,504.0
528.0,506.0,536.0,542.0,503.0
526.0,505.0,537.0,544.0,510.0
515.0,503.0,522.0,539.0,514.0
503.0,499.0,508.0,527.0,527.0
497.0,501.0,498.0,518.0,528.0
495.0,504.0,494.0,510.0,525.0
501.0,506.0,493.0,503.0,523.0
499.0,512.0,497.0,495.0,518.0
506.0,510.0,497.0,492.0,512.0
507.0,507.0,502.0,486.0,508.0
513.0,506.0,501.0,483.0,510.0
514.0,504.0,505.0,484.0,513.0
514.0,506.0,512.0,492.0,508.0
520.0,505.0,522.0,504.0,505.0
528.0,506.0,531.0,519.0,499.0
534.0,508.0,539.0,535.0,498.0
530.0,511.0,538.0,539.0,501.0
525.0,505.0,533.0,541.0,504.0
519.0,508.0,534.0,544.0,508.0
506.0,499.0,516.0,535.0,522.0
500.0,498.0,505.0,526.0,524.0
497.0,502.0,499.0,516.0,525.0
497.0,507.0,495.0,508.0,524.0
502.0,509.0,493.0,498.0,519.0
502.0,508.0,492.0,491.0,518.0
508.0,511.0,498.0,489.0,516.0
507.0,507.0,501.0,487.0,515.0
508.0,509.0,507.0,487.0,516.0
512.0,503.0,508.0,489.0,506.0
518.0,505.0,522.0,501.0,508.0
528.0,506.0,529.0,511.0,501.0
533.0,509.0,537.0,524.0,500.0
534.0,505.0,537.0,532.0,498.0
533.0,508.0,540.0,547.0,501.0
519.0,504.0,533.0,542.0,506.0
518.0,507.0,529.0,544.0,511.0
507.0,501.0,514.0,532.0,524.0
500.0,502.0,504.0,522.0,528.0
497.0,504.0,498.0,514.0,526.0
501.0,509.0,496.0,506.0,526.0
501.0,509.0,493.0,496.0,526.0
503.0,510.0,496.0,493.0,520.0
512.0,510.0,500.0,489.0,514.0
513.0,511.0,501.0,490.0,511.0
508.0,506.0,505.0,485.0,509.0
519.0,508.0,515.0,494.0,504.0
523.0,505.0,520.0,500.0,502.0
525.0,507.0,529.0,513.0,501.0
528.0,508.0,537.0,528.0,494.0
529.0,508.0,538.0,537.0,499.0
527.0,505.0,537.0,544.0,504.0
522.0,502.0,529.0,541.0,508.0
511.0,501.0,522.0,538.0,517.0
505.0,498.0,507.0,527.0,529.0
498.0,502.0,501.0,520.0,526.0
494.0,509.0,496.0,509.0,528.0
500.0,508.0,494.0,502.0,525.0
500.0,508.0,493.0,494.0,522.0
505.0,510.0,496.0,491.0,513.0
509.0,507.0,497.0,484.0,511.0
505.0,505.0,500.0,479.0,517.0
512.0,506.0,507.0,486.0,514.0
521.0,507.0,518.0,496.0,510.0
524.0,505.0,523.0,506.0,505.0
529.0,507.0,533.0,520.0,499.0
530.0,512.0,539.0,533.0,496.0
528.0,506.0,538.0,539.0,498.0
526.0,506.0,537.0,544.0,506.0
519.0,504.0,530.0,544.0,513.0
507.0,499.0,517.0,535.0,525.0
500.0,498.0,504.0,525.0,527.0
497.0,503.0,499.0,517.0,529.0
498.0,504.0,493.0,507.0,524.0
500.0,508.0,493.0,500.0,521.0
502.0,510.0,495.0,494.0,517.0
511.0,510.0,498.0,490.0,516.0
510.0,506.0,498.0,488.0,514.0
510.0,508.0,502.0,483.0,513.0
512.0,505.0,510.0,488.0,509.0
519.0,504.0,518.0,498.0,507.0
526.0,507.0,529.0,512.0,502.0
529.0,507.0,537.0,526.0,495.0
530.0,509.0,539.0,537.0,498.0
526.0,506.0,538.0,545.0,505.0
522.0,507.0,535.0,546.0,512.0
520.0,505.0,533.0,547.0,514.0
505.0,501.0,518.0,532.0,523.0
500.0,502.0,504.0,523.0,529.0
500.0,504.0,498.0,514.0,526.0
498.0,506.0,494.0,505.0,525.0
499.0,508.0,493.0,496.0,523.0
503.0,510.0,496.0,492.0,518.0
507.0,511.0,504.0,488.0,515.0
510.0,508.0,502.0,486.0,515.0
512.0,509.0,506.0,484.0,510.0
517.0,504.0,512.0,491.0,508.0
523.0,506.0,522.0,504.0,505.0
528.0,508.0,531.0,517.0,499.0
531.0,509.0,542.0,529.0,496.0
531.0,505.0,541.0,540.0,496.0
527.0,508.0,538.0,546.0,502.0
521.0,505.0,532.0,545.0,508.0
514.0,502.0,523.0,540.0,516.0
508.0,501.0,510.0,530.0,525.0
500.0,502.0,501.0,521.0,529.0
499.0,508.0,499.0,510.0,527.0
499.0,507.0,492.0,499.0,524.0
500.0,508.0,492.0,493.0,521.0
504.0,509.0,496.0,490.0,515.0
504.0,509.0,499.0,487.0,514.0
507.0,507.0,502.0,485.0,515.0
516.0,505.0,508.0,488.0,510.0
520.0,505.0,517.0,497.0,505.0
526.0,505.0,524.0,508.0,501.0
532.0,506.0,532.0,520.0,500.0
531.0,507.0,539.0,535.0,502.0
530.0,508.0,541.0,542.0,501.0
524.0,505.0,532.0,544.0,505.0
519.0,504.0,529.0,543.0,508.0
507.0,498.0,515.0,534.0,520.0
498.0,497.0,504.0,525.0,527.0
499.0,503.0,499.0,517.0,527.0
498.0,507.0,493.0,507.0,526.0
502.0,508.0,494.0,501.0,520.0
503.0,510.0,496.0,493.0,515.0
504.0,508.0,497.0,490.0,510.0
507.0,506.0,499.0,484.0,514.0
513.0,506.0,504.0,485.0,513.0
515.0,507.0,512.0,491.0,514.0
516.0,503.0,517.0,498.0,509.0
527.0,506.0,531.0,516.0,503.0
529.0,508.0,539.0,526.0,499.0
531.0,507.0,538.0,537.0,501.0
528.0,506.0,540.0,546.0,506.0
523.0,504.0,534.0,545.0,509.0
516.0,504.0,529.0,545.0,511.0
503.0,499.0,512.0,534.0,522.0
497.0,500.0,500.0,520.0,527.0
496.0,502.0,497.0,516.0,526.0
496.0,506.0,494.0,506.0,526.0
498.0,509.0,492.0,496.0,524.0
500.0,511.0,495.0,493.0,518.0
507.0,511.0,498.0,489.0,513.0
507.0,508.0,500.0,486.0,514.0
509.0,505.0,504.0,483.0,516.0
517.0,504.0,512.0,492.0,510.0
520.0,504.0,521.0,501.0,506.0
524.0,507.0,530.0,517.0,502.0
531.0,507.0,538.0,530.0,499.0
531.0,507.0,540.0,541.0,499.0
531.0,506.0,540.0,545.0,504.0
521.0,503.0,532.0,545.0,509.0
512.0,502.0,523.0,540.0,517.0
504.0,498.0,508.0,528.0,525.0
497.0,505.0,503.0,524.0,530.0
497.0,507.0,496.0,511.0,529.0
501.0,509.0,497.0,506.0,529.0
501.0,508.0,493.0,495.0,525.0
509.0,510.0,500.0,492.0,519.0
512.0,510.0,504.0,490.0,520.0
510.0,511.0,502.0,485.0,521.0
512.0,505.0,506.0,486.0,517.0
512.0,511.0,515.0,494.0,514.0
521.0,508.0,525.0,508.0,510.0
526.0,507.0,530.0,518.0,499.0
533.0,508.0,540.0,535.0,493.0
529.0,506.0,538.0,541.0,496.0
526.0,505.0,537.0,545.0,498.0
521.0,506.0,531.0,545.0,501.0
508.0,503.0,515.0,536.0,519.0
501.0,502.0,506.0,527.0,534.0
498.0,506.0,500.0,518.0,530.0
497.0,509.0,497.0,513.0,527.0
499.0,507.0,491.0,499.0,519.0
498.0,507.0,491.0,493.0,520.0
505.0,509.0,498.0,491.0,516.0
507.0,509.0,500.0,486.0,517.0
510.0,506.0,503.0,482.0,517.0
512.0,503.0,508.0,488.0,515.0
520.0,504.0,517.0,499.0,503.0
525.0,505.0,526.0,511.0,495.0
529.0,507.0,534.0,525.0,500.0
530.0,503.0,538.0,535.0,500.0
528.0,506.0,539.0,543.0,501.0
523.0,503.0,535.0,544.0,508.0
516.0,503.0,528.0,543.0,513.0
503.0,497.0,511.0,532.0,522.0
497.0,500.0,501.0,521.0,526.0
495.0,504.0,495.0,511.0,528.0
498.0,508.0,493.0,504.0,525.0
500.0,508.0,491.0,495.0,522.0
510.0,511.0,495.0,492.0,520.0
509.0,511.0,498.0,489.0,517.0
513.0,507.0,500.0,485.0,514.0
512.0,506.0,505.0,486.0,512.0
519.0,506.0,514.0,493.0,509.0
524.0,505.0,521.0,502.0,505.0
528.0,507.0,533.0,521.0,501.0
536.0,508.0,543.0,533.0,498.0
530.0,505.0,538.0,539.0,499.0
527.0,508.0,537.0,544.0,502.0
518.0,501.0,528.0,540.0,512.0
507.0,502.0,521.0,540.0,519.0
501.0,500.0,509.0,529.0,526.0
497.0,502.0,501.0,520.0,529.0
496.0,502.0,495.0,510.0,530.0
499.0,509.0,494.0,503.0,527.0
501.0,509.0,494.0,494.0,525.0
509.0,510.0,497.0,493.0,517.0
508.0,508.0,499.0,488.0,510.0
512.0,507.0,503.0,487.0,507.0
515.0,505.0,507.0,488.0,511.0
523.0,505.0,520.0,501.0,510.0
525.0,507.0,525.0,508.0,505.0
528.0,508.0,533.0,522.0,500.0
533.0,509.0,542.0,534.0,498.0
532.0,513.0,539.0,541.0,498.0
525.0,505.0,533.0,542.0,502.0
516.0,504.0,528.0,542.0,513.0
503.0,503.0,514.0,538.0,523.0
496.0,500.0,503.0,523.0,527.0
492.0,504.0,496.0,514.0,526.0
493.0,505.0,492.0,505.0,526.0
496.0,508.0,491.0,497.0,522.0
499.0,508.0,492.0,492.0,521.0
504.0,511.0,498.0,490.0,517.0
506.0,509.0,501.0,487.0,516.0
510.0,507.0,504.0,486.0,514.0
515.0,503.0,508.0,489.0,505.0
522.0,506.0,518.0,500.0,504.0
532.0,508.0,528.0,514.0,496.0
533.0,507.0,534.0,524.0,494.0
531.0,508.0,539.0,539.0,500.0
530.0,506.0,538.0,544.0,499.0
523.0,504.0,533.0,544.0,507.0
515.0,504.0,531.0,547.0,513.0
502.0,501.0,511.0,531.0,524.0
500.0,501.0,500.0,521.0,527.0
497.0,505.0,496.0,513.0,526.0
502.0,510.0,495.0,506.0,525.0
502.0,510.0,492.0,496.0,526.0
504.0,511.0,496.0,492.0,520.0
507.0,513.0,497.0,489.0,515.0
512.0,508.0,500.0,486.0,514.0
512.0,505.0,505.0,486.0,509.0
515.0,505.0,512.0,493.0,506.0
522.0,505.0,520.0,504.0,504.0
526.0,508.0,528.0,515.0,499.0
532.0,511.0,540.0,532.0,497.0
531.0,506.0,538.0,542.0,500.0
524.0,507.0,538.0,543.0,505.0
520.0,506.0,535.0,544.0,512.0
510.0,503.0,522.0,539.0,519.0
504.0,502.0,509.0,529.0,526.0
499.0,503.0,500.0,518.0,528.0
499.0,506.0,496.0,509.0,529.0
501.0,509.0,494.0,502.0,525.0
503.0,510.0,494.0,495.0,522.0
508.0,510.0,500.0,495.0,519.0
512.0,509.0,502.0,490.0,511.0
512.0,507.0,502.0,486.0,511.0
509.0,507.0,506.0,488.0,509.0
517.0,504.0,517.0,497.0,504.0
527.0,506.0,528.0,511.0,500.0
528.0,506.0,533.0,521.0,497.0
533.0,510.0,538.0,533.0,499.0
533.0,507.0,542.0,540.0,497.0
527.0,509.0,535.0,545.0,507.0
517.0,505.0,530.0,544.0,510.0
504.0,500.0,516.0,535.0,523.0
497.0,500.0,504.0,524.0,532.0
494.0,505.0,497.0,513.0,528.0
495.0,507.0,492.0,509.0,524.0
497.0,508.0,492.0,498.0,523.0
495.0,506.0,491.0,489.0,522.0
503.0,509.0,497.0,488.0,518.0
504.0,506.0,499.0,485.0,517.0
506.0,503.0,503.0,485.0,514.0
512.0,504.0,510.0,489.0,511.0
519.0,505.0,519.0,499.0,508.0
524.0,508.0,528.0,513.0,503.0
528.0,507.0,536.0,526.0,497.0
532.0,507.0,539.0,536.0,503.0
525.0,510.0,538.0,543.0,504.0
519.0,504.0,532.0,541.0,509.0
514.0,504.0,528.0,543.0,516.0
502.0,503.0,511.0,531.0,525.0
496.0,501.0,506.0,524.0,530.0
494.0,504.0,501.0,512.0,529.0
496.0,507.0,498.0,507.0,526.0
497.0,512.0,496.0,495.0,523.0
503.0,507.0,495.0,492.0,518.0
506.0,507.0,498.0,490.0,516.0
508.0,505.0,499.0,486.0,516.0
509.0,504.0,504.0,485.0,515.0
515.0,505.0,514.0,494.0,509.0
522.0,507.0,523.0,504.0,505.0
525.0,508.0,531.0,517.0,497.0
531.0,505.0,537.0,530.0,493.0
529.0,507.0,538.0,539.0,497.0
525.0,507.0,538.0,544.0,504.0
517.0,502.0,531.0,542.0,508.0
512.0,501.0,521.0,537.0,516.0
504.0,499.0,511.0,530.0,523.0
496.0,502.0,499.0,518.0,527.0
498.0,505.0,495.0,510.0,527.0
497.0,512.0,493.0,503.0,522.0
498.0,510.0,494.0,493.0,518.0
503.0,510.0,496.0,491.0,515.0
503.0,509.0,496.0,483.0,510.0
508.0,507.0,502.0,485.0,511.0
510.0,506.0,508.0,488.0,511.0
516.0,504.0,516.0,496.0,506.0
523.0,506.0,525.0,509.0,503.0
528.0,507.0,534.0,522.0,499.0
530.0,507.0,539.0,534.0,493.0
531.0,507.0,540.0,543.0,496.0
521.0,504.0,534.0,543.0,501.0
517.0,504.0,530.0,544.0,508.0
505.0,499.0,515.0,533.0,521.0
503.0,500.0,503.0,523.0,524.0
500.0,504.0,498.0,516.0,524.0
501.0,510.0,495.0,509.0,525.0
504.0,510.0,493.0,498.0,522.0
502.0,509.0,492.0,491.0,520.0
507.0,511.0,497.0,490.0,516.0
506.0,513.0,505.0,490.0,516.0
508.0,511.0,504.0,488.0,516.0
509.0,501.0,508.0,487.0,512.0
519.0,504.0,517.0,498.0,507.0
527.0,508.0,529.0,513.0,501.0
528.0,507.0,536.0,526.0,497.0
527.0,505.0,537.0,535.0,501.0
527.0,507.0,540.0,544.0,505.0
521.0,504.0,532.0,544.0,509.0
515.0,503.0,528.0,544.0,514.0
502.0,501.0,512.0,531.0,526.0
498.0,503.0,501.0,522.0,527.0
500.0,507.0,497.0,515.0,523.0
500.0,508.0,492.0,505.0,520.0
501.0,508.0,490.0,494.0,515.0
504.0,511.0,495.0,490.0,506.0
511.0,511.0,499.0,489.0,509.0
510.0,509.0,498.0,485.0,508.0
512.0,504.0,503.0,485.0,511.0
516.0,505.0,514.0,494.0,513.0
522.0,506.0,521.0,504.0,512.0
529.0,509.0,532.0,518.0,502.0
532.0,507.0,538.0,532.0,498.0
533.0,511.0,539.0,541.0,502.0
526.0,506.0,537.0,544.0,506.0
523.0,503.0,532.0,545.0,507.0
512.0,501.0,521.0,541.0,520.0
501.0,500.0,508.0,528.0,528.0
501.0,504.0,500.0,518.0,530.0
497.0,507.0,495.0,509.0,524.0
499.0,508.0,493.0,503.0,522.0
500.0,508.0,491.0,492.0,524.0
505.0,511.0,496.0,489.0,520.0
507.0,509.0,499.0,488.0,515.0
505.0,506.0,501.0,485.0,513.0
511.0,505.0,510.0,488.0,513.0
518.0,506.0,518.0,497.0,504.0
525.0,506.0,525.0,513.0,501.0
528.0,509.0,535.0,523.0,498.0
535.0,507.0,539.0,533.0,494.0
532.0,509.0,542.0,543.0,500.0
522.0,505.0,535.0,542.0,505.0
522.0,505.0,530.0,543.0,513.0
504.0,500.0,515.0,532.0,525.0
498.0,499.0,503.0,523.0,526.0
495.0,504.0,498.0,516.0,527.0
497.0,507.0,494.0,507.0,524.0
500.0,510.0,494.0,501.0,519.0
502.0,514.0,496.0,498.0,517.0
507.0,511.0,498.0,491.0,511.0
509.0,507.0,499.0,485.0,512.0
508.0,504.0,501.0,483.0,512.0
513.0,504.0,510.0,489.0,509.0
520.0,503.0,518.0,498.0,504.0
521.0,507.0,528.0,511.0,503.0
527.0,508.0,535.0,527.0,497.0
530.0,507.0,540.0,536.0,503.0
526.0,509.0,538.0,542.0,502.0
521.0,506.0,538.0,548.0,511.0
513.0,510.0,527.0,541.0,514.0
503.0,501.0,512.0,530.0,524.0
503.0,503.0,502.0,522.0,527.0
499.0,504.0,496.0,512.0,527.0
497.0,507.0,493.0,504.0,525.0
500.0,508.0,491.0,494.0,521.0
504.0,509.0,494.0,490.0,517.0
508.0,513.0,499.0,486.0,516.0
511.0,508.0,501.0,486.0,514.0
517.0,507.0,507.0,488.0,512.0
519.0,506.0,515.0,494.0,506.0
519.0,503.0,521.0,502.0,504.0
524.0,506.0,530.0,512.0,502.0
531.0,507.0,537.0,529.0,498.0
530.0,507.0,540.0,536.0,500.0
525.0,508.0,537.0,543.0,504.0
521.0,505.0,531.0,543.0,509.0
510.0,499.0,520.0,537.0,519.0
501.0,502.0,508.0,527.0,525.0
496.0,507.0,506.0,523.0,531.0
499.0,507.0,499.0,510.0,530.0
499.0,508.0,492.0,499.0,523.0
500.0,509.0,492.0,492.0,520.0
504.0,511.0,496.0,490.0,515.0
506.0,508.0,499.0,486.0,514.0
509.0,507.0,502.0,485.0,512.0
513.0,507.0,505.0,486.0,510.0
519.0,505.0,517.0,496.0,504.0
526.0,512.0,526.0,507.0,500.0
530.0,509.0,535.0,522.0,498.0
532.0,508.0,540.0,534.0,501.0
527.0,507.0,540.0,541.0,497.0
523.0,507.0,537.0,545.0,504.0
518.0,510.0,532.0,543.0,510.0
506.0,501.0,516.0,533.0,523.0
500.0,502.0,505.0,524.0,527.0
498.0,504.0,499.0,516.0,525.0
497.0,507.0,493.0,505.0,525.0
501.0,509.0,492.0,497.0,521.0
503.0,508.0,493.0,492.0,518.0
507.0,510.0,498.0,489.0,513.0
509.0,509.0,500.0,486.0,511.0
515.0,509.0,506.0,488.0,509.0
518.0,507.0,513.0,492.0,509.0
519.0,505.0,520.0,501.0,512.0
526.0,506.0,533.0,513.0,503.0
530.0,506.0,537.0,527.0,500.0
529.0,508.0,537.0,535.0,499.0
529.0,508.0,541.0,545.0,503.0
520.0,505.0,534.0,543.0,508.0
515.0,503.0,527.0,540.0,513.0
503.0,499.0,511.0,530.0,525.0
497.0,501.0,502.0,521.0,526.0
497.0,503.0,495.0,511.0,525.0
499.0,506.0,493.0,503.0,523.0
503.0,508.0,492.0,496.0,519.0
504.0,509.0,497.0,496.0,513.0
504.0,509.0,499.0,488.0,515.0
506.0,507.0,501.0,484.0,513.0
512.0,506.0,506.0,487.0,511.0
521.0,505.0,520.0,500.0,508.0
522.0,506.0,523.0,506.0,506.0
528.0,508.0,533.0,519.0,499.0
532.0,507.0,538.0,531.0,492.0
532.0,506.0,539.0,538.0,495.0
528.0,506.0,537.0,545.0,507.0
521.0,506.0,533.0,544.0,509.0
512.0,501.0,520.0,537.0,515.0
505.0,501.0,509.0,529.0,519.0
499.0,504.0,502.0,519.0,524.0
496.0,505.0,495.0,510.0,522.0
503.0,507.0,492.0,501.0,518.0
506.0,507.0,492.0,495.0,517.0
501.0,509.0,495.0,488.0,520.0
500.0,509.0,499.0,487.0,519.0
510.0,507.0,502.0,484.0,517.0
511.0,506.0,512.0,488.0,518.0
516.0,503.0,517.0,497.0,510.0
521.0,504.0,524.0,507.0,504.0
528.0,508.0,535.0,526.0,502.0
530.0,507.0,540.0,534.0,495.0
528.0,511.0,540.0,541.0,497.0
523.0,506.0,536.0,544.0,504.0
522.0,505.0,531.0,545.0,509.0
508.0,498.0,515.0,534.0,525.0
498.0,506.0,506.0,523.0,529.0
498.0,504.0,498.0,517.0,525.0
501.0,507.0,494.0,508.0,519.0
498.0,506.0,491.0,498.0,517.0
497.0,508.0,493.0,493.0,520.0
506.0,510.0,497.0,488.0,517.0
507.0,506.0,500.0,484.0,519.0
512.0,507.0,505.0,486.0,515.0
519.0,508.0,513.0,490.0,509.0
521.0,505.0,519.0,500.0,506.0
524.0,510.0,527.0,513.0,502.0
532.0,509.0,538.0,527.0,499.0
530.0,507.0,539.0,536.0,499.0
527.0,507.0,539.0,543.0,501.0
521.0,502.0,533.0,543.0,506.0
518.0,510.0,529.0,543.0,513.0
508.0,503.0,514.0,532.0,524.0
499.0,502.0,503.0,521.0,528.0
498.0,505.0,496.0,512.0,526.0
498.0,507.0,493.0,502.0,526.0
496.0,509.0,494.0,495.0,524.0
503.0,511.0,494.0,489.0,519.0
507.0,512.0,497.0,486.0,515.0
509.0,507.0,501.0,484.0,513.0
516.0,504.0,509.0,488.0,510.0
517.0,505.0,515.0,495.0,507.0
524.0,506.0,523.0,509.0,510.0
527.0,507.0,532.0,518.0,500.0
532.0,506.0,540.0,535.0,502.0
529.0,507.0,539.0,539.0,503.0
528.0,508.0,538.0,545.0,506.0
521.0,504.0,529.0,545.0,507.0
508.0,500.0,519.0,536.0,521.0
500.0,499.0,506.0,526.0,524.0
494.0,505.0,498.0,516.0,527.0
495.0,506.0,493.0,507.0,526.0
500.0,509.0,493.0,501.0,522.0
504.0,510.0,493.0,494.0,519.0
502.0,511.0,496.0,491.0,523.0
509.0,509.0,500.0,487.0,519.0
509.0,508.0,504.0,486.0,518.0
512.0,505.0,510.0,491.0,513.0
515.0,507.0,515.0,495.0,508.0
522.0,507.0,526.0,509.0,504.0
529.0,507.0,535.0,523.0,496.0
531.0,507.0,539.0,534.0,497.0
531.0,506.0,538.0,546.0,501.0
523.0,505.0,536.0,544.0,507.0
523.0,505.0,531.0,543.0,517.0
506.0,501.0,515.0,533.0,523.0
501.0,504.0,504.0,524.0,525.0
503.0,505.0,498.0,515.0,526.0
497.0,506.0,493.0,505.0,523.0
498.0,508.0,493.0,497.0,521.0
502.0,507.0,493.0,491.0,519.0
504.0,509.0,497.0,488.0,515.0
506.0,510.0,499.0,483.0,515.0
510.0,506.0,501.0,483.0,512.0
515.0,505.0,512.0,491.0,510.0
525.0,505.0,521.0,502.0,507.0
527.0,507.0,531.0,514.0,502.0
531.0,505.0,537.0,528.0,498.0
530.0,505.0,540.0,538.0,500.0
527.0,512.0,542.0,546.0,504.0
519.0,504.0,537.0,547.0,509.0
516.0,504.0,531.0,544.0,516.0
501.0,499.0,513.0,530.0,529.0
494.0,500.0,503.0,521.0,532.0
493.0,508.0,497.0,512.0,528.0
498.0,510.0,493.0,503.0,522.0
500.0,511.0,497.0,498.0,519.0
502.0,510.0,495.0,491.0,517.0
510.0,510.0,499.0,488.0,514.0
513.0,512.0,505.0,484.0,512.0
517.0,506.0,507.0,487.0,512.0
519.0,505.0,516.0,494.0,508.0
523.0,503.0,522.0,503.0,504.0
533.0,508.0,533.0,518.0,501.0
532.0,507.0,541.0,531.0,499.0
530.0,506.0,541.0,540.0,503.0
525.0,506.0,536.0,542.0,506.0
520.0,510.0,534.0,544.0,508.0
509.0,498.0,518.0,533.0,517.0
500.0,499.0,506.0,525.0,521.0
499.0,502.0,500.0,517.0,524.0
499.0,507.0,495.0,509.0,525.0
501.0,508.0,495.0,502.0,522.0
503.0,510.0,494.0,494.0,521.0
506.0,511.0,498.0,490.0,517.0
508.0,508.0,500.0,491.0,517.0
506.0,507.0,503.0,485.0,512.0
512.0,504.0,508.0,486.0,508.0
519.0,505.0,519.0,498.0,508.0
524.0,505.0,528.0,510.0,504.0
530.0,508.0,535.0,523.0,500.0
533.0,509.0,542.0,535.0,502.0
525.0,509.0,538.0,540.0,501.0
522.0,505.0,537.0,544.0,509.0
516.0,504.0,530.0,542.0,507.0
505.0,499.0,514.0,532.0,516.0
504.0,501.0,504.0,525.0,518.0
499.0,503.0,499.0,516.0,520.0
501.0,507.0,495.0,511.0,516.0
500.0,508.0,491.0,497.0,517.0
500.0,509.0,494.0,492.0,535.0
506.0,511.0,500.0,490.0,520.0
511.0,509.0,502.0,490.0,516.0
513.0,503.0,504.0,488.0,512.0
515.0,501.0,509.0,493.0,507.0
515.0,505.0,523.0,499.0,508.0
531.0,508.0,531.0,513.0,503.0
532.0,507.0,538.0,525.0,496.0
529.0,508.0,541.0,538.0,501.0
527.0,504.0,538.0,541.0,501.0
520.0,505.0,535.0,545.0,512.0
513.0,504.0,528.0,541.0,517.0
500.0,503.0,507.0,529.0,525.0
497.0,500.0,500.0,519.0,528.0
494.0,503.0,495.0,510.0,527.0
498.0,507.0,493.0,503.0,525.0
500.0,508.0,493.0,497.0,522.0
502.0,512.0,495.0,491.0,520.0
508.0,509.0,504.0,492.0,517.0
507.0,507.0,502.0,486.0,519.0
515.0,504.0,507.0,487.0,509.0
521.0,504.0,515.0,495.0,507.0
519.0,504.0,525.0,506.0,501.0
530.0,508.0,534.0,521.0,495.0
531.0,508.0,540.0,532.0,494.0
529.0,510.0,539.0,539.0,505.0
522.0,506.0,536.0,539.0,508.0
522.0,505.0,535.0,544.0,514.0
513.0,501.0,519.0,535.0,525.0
504.0,501.0,508.0,526.0,528.0
503.0,505.0,501.0,518.0,529.0
500.0,507.0,496.0,509.0,527.0
500.0,509.0,494.0,502.0,525.0
502.0,511.0,491.0,492.0,520.0
507.0,509.0,497.0,490.0,516.0
512.0,507.0,503.0,490.0,511.0
509.0,507.0,503.0,485.0,513.0
516.0,506.0,513.0,493.0,516.0
523.0,506.0,520.0,499.0,508.0
528.0,508.0,530.0,512.0,505.0
532.0,508.0,536.0,525.0,499.0
529.0,505.0,539.0,533.0,498.0
527.0,506.0,538.0,539.0,502.0
524.0,505.0,535.0,543.0,507.0
519.0,506.0,531.0,544.0,511.0
506.0,500.0,515.0,533.0,522.0
503.0,503.0,505.0,524.0,528.0
500.0,505.0,499.0,516.0,529.0
497.0,510.0,495.0,506.0,525.0
499.0,509.0,493.0,499.0,523.0
503.0,509.0,496.0,497.0,524.0
506.0,513.0,499.0,490.0,515.0
507.0,512.0,506.0,491.0,517.0
510.0,507.0,505.0,485.0,518.0
515.0,504.0,513.0,493.0,512.0
520.0,504.0,520.0,501.0,506.0
526.0,507.0,531.0,516.0,501.0
529.0,507.0,538.0,526.0,495.0
530.0,507.0,540.0,537.0,498.0
525.0,505.0,537.0,542.0,501.0
519.0,507.0,534.0,544.0,509.0
514.0,504.0,526.0,540.0,513.0
506.0,501.0,510.0,531.0,522.0
498.0,505.0,500.0,519.0,526.0
497.0,504.0,497.0,514.0,525.0
501.0,508.0,493.0,504.0,521.0
502.0,508.0,492.0,496.0,519.0
505.0,509.0,494.0,490.0,516.0
508.0,509.0,499.0,488.0,512.0
508.0,507.0,502.0,485.0,511.0
515.0,506.0,507.0,490.0,514.0
519.0,507.0,517.0,496.0,511.0
523.0,506.0,524.0,506.0,508.0
532.0,508.0,533.0,521.0,505.0
531.0,508.0,540.0,532.0,499.0
529.0,506.0,539.0,539.0,499.0
527.0,508.0,538.0,545.0,501.0
519.0,505.0,532.0,544.0,504.0
507.0,499.0,518.0,534.0,517.0
500.0,500.0,507.0,526.0,524.0
499.0,500.0,498.0,517.0,524.0
503.0,510.0,496.0,509.0,523.0
502.0,509.0,494.0,501.0,521.0
506.0,508.0,494.0,498.0,519.0
504.0,509.0,496.0,490.0,517.0
502.0,509.0,500.0,486.0,516.0
510.0,507.0,503.0,485.0,513.0
515.0,505.0,510.0,489.0,512.0
519.0,506.0,522.0,500.0,509.0
526.0,508.0,528.0,512.0,503.0
528.0,507.0,535.0,524.0,497.0
531.0,508.0,541.0,535.0,499.0
525.0,506.0,537.0,538.0,499.0
523.0,505.0,536.0,544.0,505.0
520.0,503.0,531.0,547.0,507.0
506.0,498.0,514.0,533.0,519.0
497.0,503.0,504.0,523.0,522.0
496.0,504.0,498.0,518.0,527.0
498.0,507.0,494.0,505.0,520.0
502.0,509.0,493.0,497.0,527.0
501.0,507.0,494.0,491.0,524.0
510.0,510.0,501.0,487.0,519.0
507.0,507.0,500.0,484.0,520.0
511.0,506.0,506.0,486.0,517.0
515.0,504.0,513.0,492.0,512.0
519.0,504.0,521.0,501.0,508.0
524.0,506.0,531.0,514.0,506.0
530.0,507.0,540.0,528.0,500.0
531.0,506.0,539.0,535.0,496.0
526.0,505.0,539.0,542.0,503.0
524.0,508.0,534.0,545.0,507.0
515.0,503.0,527.0,541.0,509.0
503.0,499.0,510.0,529.0,519.0
504.0,501.0,502.0,520.0,520.0
496.0,504.0,496.0,511.0,518.0
497.0,507.0,495.0,505.0,519.0
500.0,509.0,493.0,495.0,522.0
502.0,508.0,494.0,490.0,517.0
506.0,507.0,496.0,484.0,515.0
508.0,505.0,501.0,484.0,518.0
511.0,509.0,507.0,486.0,517.0
519.0,507.0,517.0,496.0,512.0
527.0,506.0,524.0,505.0,508.0
528.0,506.0,532.0,521.0,499.0
532.0,507.0,540.0,532.0,497.0
530.0,505.0,540.0,540.0,502.0
527.0,503.0,535.0,542.0,503.0
518.0,505.0,532.0,543.0,512.0
508.0,500.0,518.0,535.0,520.0
502.0,501.0,507.0,527.0,524.0
499.0,504.0,501.0,519.0,525.0
496.0,506.0,494.0,506.0,529.0
501.0,508.0,493.0,500.0,521.0
501.0,508.0,494.0,494.0,514.0
509.0,507.0,498.0,489.0,511.0
502.0,509.0,498.0,484.0,512.0
509.0,503.0,504.0,483.0,513.0
513.0,504.0,509.0,490.0,508.0
518.0,504.0,518.0,498.0,509.0
526.0,506.0,529.0,509.0,506.0
531.0,508.0,532.0,523.0,499.0
534.0,507.0,540.0,535.0,498.0
527.0,504.0,538.0,541.0,504.0
521.0,509.0,534.0,542.0,506.0
519.0,509.0,530.0,543.0,510.0
504.0,500.0,514.0,532.0,524.0
499.0,501.0,503.0,523.0,528.0
497.0,504.0,497.0,513.0,526.0
502.0,507.0,493.0,504.0,523.0
501.0,508.0,492.0,496.0,523.0
502.0,512.0,494.0,492.0,521.0
507.0,510.0,499.0,489.0,517.0
511.0,508.0,501.0,486.0,514.0
515.0,506.0,506.0,487.0,509.0
519.0,507.0,514.0,494.0,508.0
525.0,506.0,521.0,503.0,508.0
528.0,509.0,531.0,516.0,501.0
526.0,506.0,536.0,525.0,500.0
531.0,507.0,540.0,537.0,501.0
524.0,504.0,536.0,541.0,504.0
521.0,506.0,533.0,543.0,511.0
513.0,503.0,525.0,536.0,516.0
501.0,500.0,509.0,527.0,525.0
502.0,502.0,502.0,522.0,527.0
499.0,505.0,495.0,509.0,525.0
497.0,508.0,492.0,501.0,523.0
500.0,508.0,491.0,494.0,523.0
502.0,507.0,494.0,487.0,522.0
510.0,515.0,498.0,486.0,519.0
508.0,506.0,501.0,485.0,515.0
511.0,508.0,505.0,485.0,511.0
518.0,508.0,513.0,493.0,506.0
522.0,507.0,524.0,507.0,501.0
527.0,508.0,529.0,518.0,498.0
534.0,509.0,541.0,532.0,498.0
530.0,507.0,539.0,539.0,501.0
529.0,505.0,539.0,547.0,507.0
521.0,505.0,529.0,541.0,508.0
507.0,499.0,516.0,534.0,520.0
500.0,500.0,506.0,525.0,525.0
499.0,503.0,499.0,517.0,524.0
498.0,506.0,493.0,507.0,523.0
501.0,508.0,493.0,500.0,522.0
502.0,509.0,491.0,492.0,521.0
506.0,509.0,496.0,489.0,517.0
509.0,509.0,499.0,485.0,514.0
510.0,508.0,503.0,484.0,513.0
513.0,505.0,509.0,489.0,513.0
522.0,506.0,519.0,499.0,509.0
528.0,508.0,529.0,512.0,503.0
530.0,509.0,536.0,523.0,499.0
531.0,509.0,540.0,536.0,501.0
526.0,504.0,537.0,541.0,500.0
524.0,506.0,536.0,545.0,505.0
518.0,505.0,529.0,543.0,509.0
506.0,501.0,514.0,532.0,523.0
498.0,501.0,503.0,523.0,529.0
498.0,504.0,497.0,511.0,530.0
500.0,507.0,493.0,504.0,527.0
500.0,507.0,492.0,496.0,522.0
502.0,509.0,494.0,492.0,521.0
506.0,510.0,498.0,488.0,515.0
509.0,512.0,499.0,485.0,511.0
511.0,507.0,506.0,487.0,510.0
517.0,504.0,514.0,493.0,507.0
523.0,505.0,521.0,502.0,501.0
528.0,506.0,529.0,515.0,499.0
534.0,507.0,537.0,529.0,498.0
526.0,506.0,540.0,535.0,502.0
523.0,506.0,538.0,543.0,511.0
524.0,507.0,534.0,548.0,518.0
514.0,505.0,526.0,541.0,518.0
501.0,500.0,510.0,529.0,524.0
499.0,502.0,502.0,525.0,526.0
495.0,504.0,495.0,511.0,525.0
503.0,508.0,492.0,506.0,523.0
506.0,511.0,492.0,496.0,519.0
505.0,508.0,494.0,489.0,518.0
509.0,508.0,497.0,487.0,511.0
514.0,505.0,501.0,485.0,507.0
517.0,507.0,508.0,490.0,508.0
520.0,507.0,517.0,497.0,506.0
524.0,507.0,523.0,505.0,503.0
529.0,506.0,532.0,521.0,495.0
535.0,507.0,541.0,536.0,495.0
531.0,512.0,538.0,542.0,499.0
525.0,504.0,536.0,542.0,506.0
517.0,504.0,530.0,543.0,511.0
506.0,500.0,517.0,534.0,524.0
498.0,499.0,504.0,526.0,527.0
497.0,504.0,499.0,517.0,526.0
499.0,508.0,495.0,508.0,525.0
499.0,507.0,492.0,499.0,521.0
503.0,513.0,497.0,493.0,523.0
506.0,509.0,494.0,488.0,520.0
511.0,510.0,501.0,488.0,515.0
518.0,509.0,504.0,486.0,510.0
514.0,504.0,509.0,490.0,506.0
520.0,508.0,519.0,501.0,496.0
531.0,512.0,529.0,515.0,487.0
539.0,510.0,538.0,526.0,493.0
531.0,507.0,538.0,533.0,495.0
527.0,506.0,538.0,541.0,501.0
526.0,509.0,534.0,543.0,511.0
521.0,503.0,530.0,542.0,516.0
503.0,501.0,513.0,531.0,534.0
495.0,501.0,502.0,521.0,534.0
497.0,503.0,496.0,516.0,533.0
497.0,507.0,492.0,503.0,525.0
500.0,508.0,491.0,497.0,524.0
502.0,509.0,496.0,494.0,523.0
507.0,510.0,498.0,488.0,518.0
510.0,511.0,499.0,483.0,515.0
510.0,505.0,504.0,485.0,512.0
514.0,506.0,513.0,493.0,510.0
521.0,507.0,521.0,502.0,506.0
528.0,507.0,531.0,516.0,502.0
529.0,508.0,538.0,529.0,498.0
529.0,507.0,540.0,539.0,500.0
526.0,505.0,536.0,543.0,506.0
519.0,505.0,530.0,544.0,508.0
515.0,504.0,526.0,541.0,517.0
500.0,500.0,508.0,529.0,526.0
497.0,503.0,500.0,519.0,526.0
499.0,505.0,496.0,512.0,526.0
501.0,508.0,493.0,504.0,522.0
499.0,509.0,491.0,495.0,520.0
506.0,511.0,495.0,492.0,520.0
508.0,511.0,500.0,489.0,520.0
509.0,509.0,502.0,485.0,515.0
511.0,506.0,508.0,488.0,514.0
518.0,506.0,517.0,496.0,509.0
524.0,508.0,524.0,508.0,504.0
528.0,508.0,533.0,520.0,500.0
532.0,508.0,540.0,534.0,499.0
529.0,506.0,538.0,541.0,502.0
525.0,505.0,535.0,544.0,506.0
520.0,505.0,530.0,544.0,510.0
508.0,500.0,516.0,536.0,519.0
497.0,500.0,504.0,527.0,528.0
499.0,504.0,499.0,518.0,528.0
499.0,508.0,495.0,510.0,528.0
503.0,509.0,492.0,500.0,525.0
501.0,509.0,493.0,493.0,522.0
503.0,509.0,492.0,487.0,517.0
505.0,508.0,498.0,486.0,512.0
511.0,506.0,502.0,486.0,512.0
515.0,508.0,508.0,489.0,508.0
520.0,504.0,517.0,496.0,505.0
524.0,506.0,526.0,511.0,501.0
535.0,509.0,537.0,525.0,497.0
534.0,509.0,541.0,540.0,501.0
532.0,506.0,538.0,543.0,504.0
520.0,507.0,532.0,542.0,506.0
516.0,505.0,529.0,544.0,513.0
501.0,499.0,513.0,532.0,525.0
501.0,500.0,503.0,524.0,525.0
500.0,505.0,498.0,516.0,523.0
497.0,507.0,493.0,507.0,523.0
497.0,508.0,491.0,495.0,524.0
501.0,507.0,493.0,490.0,520.0
507.0,508.0,497.0,489.0,514.0
508.0,507.0,500.0,487.0,514.0
510.0,505.0,504.0,485.0,514.0
520.0,503.0,514.0,491.0,510.0
519.0,503.0,519.0,501.0,502.0
526.0,506.0,528.0,513.0,500.0
532.0,509.0,539.0,530.0,500.0
536.0,508.0,542.0,539.0,501.0
525.0,505.0,536.0,542.0,509.0
520.0,507.0,531.0,542.0,515.0
513.0,504.0,523.0,539.0,522.0
501.0,501.0,508.0,528.0,529.0
498.0,503.0,501.0,520.0,530.0
499.0,506.0,495.0,512.0,526.0
499.0,508.0,492.0,502.0,517.0
499.0,509.0,492.0,494.0,521.0
503.0,511.0,493.0,489.0,518.0
511.0,509.0,503.0,490.0,515.0
512.0,508.0,502.0,486.0,507.0
510.0,504.0,506.0,485.0,512.0
516.0,504.0,513.0,493.0,505.0
523.0,506.0,522.0,505.0,499.0
529.0,508.0,534.0,522.0,498.0
531.0,503.0,539.0,532.0,494.0
530.0,507.0,538.0,540.0,500.0
525.0,503.0,537.0,541.0,501.0
519.0,507.0,532.0,545.0,510.0
511.0,501.0,517.0,535.0,520.0
505.0,502.0,506.0,527.0,524.0
502.0,505.0,500.0,519.0,523.0
499.0,507.0,494.0,508.0,523.0
505.0,509.0,492.0,498.0,522.0
500.0,509.0,493.0,492.0,521.0
504.0,506.0,494.0,485.0,517.0
507.0,507.0,498.0,483.0,514.0
509.0,506.0,502.0,484.0,513.0
514.0,504.0,509.0,489.0,510.0
519.0,503.0,517.0,498.0,505.0
526.0,506.0,528.0,511.0,501.0
532.0,509.0,537.0,526.0,499.0
532.0,507.0,540.0,536.0,502.0
528.0,504.0,537.0,541.0,502.0
526.0,505.0,534.0,544.0,509.0
519.0,508.0,529.0,544.0,510.0
506.0,500.0,513.0,532.0,522.0
498.0,501.0,501.0,521.0,528.0
497.0,505.0,496.0,512.0,525.0
500.0,508.0,493.0,504.0,523.0
501.0,509.0,492.0,496.0,522.0
505.0,509.0,494.0,491.0,518.0
505.0,507.0,495.0,485.0,516.0
509.0,506.0,500.0,485.0,513.0
513.0,505.0,505.0,485.0,510.0
518.0,506.0,514.0,493.0,509.0
522.0,506.0,521.0,503.0,505.0
527.0,506.0,530.0,516.0,502.0
531.0,507.0,536.0,528.0,498.0
532.0,507.0,541.0,540.0,502.0
525.0,504.0,537.0,540.0,507.0
519.0,507.0,533.0,543.0,510.0
513.0,503.0,523.0,540.0,518.0
505.0,502.0,512.0,534.0,527.0
499.0,503.0,501.0,520.0,524.0
498.0,507.0,493.0,509.0,520.0
501.0,509.0,493.0,503.0,517.0
505.0,509.0,492.0,495.0,516.0
504.0,508.0,494.0,489.0,515.0
506.0,507.0,497.0,486.0,517.0
507.0,505.0,499.0,484.0,517.0
514.0,504.0,505.0,486.0,510.0
521.0,507.0,516.0,497.0,507.0
528.0,505.0,522.0,505.0,504.0
528.0,508.0,533.0,519.0,497.0
530.0,506.0,539.0,533.0,496.0
526.0,508.0,537.0,540.0,497.0
523.0,504.0,535.0,543.0,505.0
520.0,506.0,532.0,542.0,507.0
512.0,502.0,516.0,535.0,516.0
503.0,502.0,505.0,526.0,524.0
496.0,503.0,497.0,515.0,530.0
497.0,506.0,493.0,507.0,528.0
501.0,509.0,493.0,500.0,523.0
500.0,510.0,497.0,497.0,521.0
504.0,507.0,494.0,487.0,519.0
507.0,507.0,500.0,487.0,514.0
510.0,511.0,504.0,488.0,510.0
514.0,504.0,509.0,489.0,510.0
519.0,508.0,515.0,497.0,510.0
526.0,502.0,526.0,511.0,503.0
534.0,509.0,537.0,528.0,499.0
533.0,507.0,539.0,537.0,497.0
526.0,504.0,537.0,541.0,499.0
525.0,505.0,534.0,545.0,505.0
521.0,506.0,529.0,544.0,513.0
504.0,501.0,511.0,531.0,525.0
496.0,498.0,500.0,521.0,525.0
495.0,503.0,495.0,512.0,528.0
499.0,508.0,493.0,505.0,524.0
502.0,509.0,492.0,498.0,519.0
507.0,509.0,494.0,493.0,516.0
508.0,510.0,498.0,488.0,515.0
509.0,509.0,501.0,487.0,511.0
514.0,507.0,507.0,490.0,507.0
522.0,505.0,517.0,497.0,508.0
522.0,505.0,521.0,502.0,506.0
527.0,507.0,529.0,515.0,502.0
532.0,508.0,538.0,530.0,498.0
531.0,508.0,541.0,538.0,500.0
527.0,506.0,536.0,542.0,509.0
522.0,505.0,532.0,545.0,507.0
513.0,502.0,522.0,539.0,517.0
500.0,501.0,508.0,527.0,526.0
497.0,504.0,500.0,518.0,527.0
498.0,506.0,499.0,513.0,527.0
500.0,508.0,492.0,501.0,521.0
500.0,508.0,492.0,493.0,517.0
502.0,508.0,493.0,488.0,516.0
505.0,510.0,497.0,484.0,513.0
507.0,505.0,500.0,484.0,514.0
512.0,504.0,506.0,487.0,510.0
521.0,506.0,517.0,497.0,507.0
526.0,508.0,525.0,509.0,504.0
529.0,507.0,533.0,521.0,501.0
531.0,509.0,538.0,532.0,499.0
529.0,508.0,538.0,540.0,502.0
523.0,505.0,534.0,543.0,503.0
519.0,505.0,531.0,545.0,507.0
504.0,503.0,519.0,536.0,520.0
501.0,501.0,508.0,526.0,525.0
499.0,505.0,499.0,518.0,526.0
499.0,507.0,494.0,509.0,526.0
501.0,513.0,491.0,499.0,519.0
503.0,509.0,493.0,495.0,523.0
504.0,508.0,496.0,488.0,524.0
511.0,510.0,501.0,487.0,515.0
511.0,508.0,504.0,487.0,511.0
514.0,506.0,511.0,492.0,508.0
520.0,506.0,518.0,499.0,505.0
524.0,507.0,527.0,512.0,496.0
533.0,510.0,537.0,528.0,495.0
529.0,506.0,538.0,537.0,496.0
528.0,504.0,536.0,542.0,501.0
522.0,503.0,533.0,544.0,504.0
514.0,506.0,529.0,544.0,511.0
500.0,501.0,512.0,532.0,526.0
494.0,501.0,502.0,520.0,527.0
498.0,504.0,495.0,513.0,527.0
503.0,508.0,493.0,505.0,523.0
501.0,509.0,493.0,500.0,519.0
504.0,509.0,495.0,493.0,517.0
506.0,509.0,497.0,488.0,515.0
511.0,508.0,503.0,485.0,515.0
516.0,506.0,505.0,486.0,511.0
515.0,506.0,518.0,495.0,507.0
521.0,505.0,521.0,505.0,505.0
526.0,507.0,530.0,517.0,499.0
531.0,508.0,540.0,534.0,497.0
529.0,506.0,539.0,540.0,497.0
525.0,505.0,536.0,544.0,506.0
520.0,504.0,530.0,543.0,507.0
512.0,501.0,523.0,537.0,517.0
506.0,504.0,508.0,528.0,526.0
498.0,503.0,501.0,521.0,530.0
495.0,509.0,494.0,510.0,528.0
497.0,506.0,491.0,503.0,524.0
502.0,507.0,494.0,500.0,521.0
505.0,507.0,492.0,491.0,513.0
507.0,507.0,497.0,487.0,509.0
507.0,506.0,500.0,483.0,513.0
511.0,502.0,503.0,485.0,507.0
518.0,503.0,515.0,496.0,505.0
523.0,508.0,524.0,511.0,505.0
527.0,508.0,532.0,521.0,497.0
532.0,507.0,538.0,538.0,493.0
526.0,508.0,538.0,540.0,496.0
524.0,505.0,533.0,547.0,505.0
518.0,504.0,530.0,544.0,509.0
511.0,501.0,519.0,536.0,524.0
498.0,501.0,505.0,526.0,527.0
500.0,502.0,497.0,516.0,527.0
499.0,508.0,494.0,510.0,529.0
504.0,510.0,493.0,502.0,522.0
502.0,509.0,495.0,494.0,516.0
507.0,509.0,498.0,488.0,516.0
509.0,508.0,499.0,485.0,514.0
506.0,505.0,501.0,482.0,517.0
512.0,503.0,508.0,488.0,508.0
518.0,505.0,518.0,499.0,505.0
527.0,507.0,531.0,513.0,499.0
528.0,508.0,535.0,525.0,500.0
531.0,507.0,540.0,537.0,500.0
529.0,507.0,538.0,544.0,502.0
521.0,505.0,533.0,544.0,506.0
518.0,505.0,528.0,544.0,510.0
506.0,498.0,510.0,532.0,523.0
502.0,499.0,501.0,523.0,525.0
511.0,507.0,497.0,519.0,525.0
500.0,510.0,494.0,507.0,522.0
493.0,512.0,493.0,495.0,524.0
497.0,510.0,492.0,488.0,525.0
503.0,511.0,496.0,486.0,516.0
508.0,509.0,501.0,485.0,513.0
512.0,507.0,506.0,487.0,510.0
521.0,507.0,515.0,495.0,506.0
524.0,507.0,522.0,504.0,503.0
527.0,507.0,530.0,517.0,499.0
534.0,509.0,539.0,532.0,497.0
530.0,508.0,539.0,541.0,507.0
522.0,504.0,534.0,540.0,507.0
520.0,508.0,531.0,543.0,509.0
511.0,500.0,520.0,537.0,518.0
502.0,502.0,507.0,529.0,527.0
504.0,504.0,501.0,520.0,530.0
499.0,506.0,493.0,511.0,523.0
500.0,509.0,492.0,502.0,521.0
501.0,509.0,490.0,495.0,518.0
501.0,508.0,493.0,488.0,518.0
505.0,509.0,498.0,486.0,514.0
507.0,507.0,500.0,484.0,511.0
511.0,507.0,504.0,487.0,510.0
518.0,505.0,515.0,500.0,509.0
524.0,508.0,525.0,508.0,502.0
528.0,513.0,534.0,521.0,499.0
534.0,509.0,540.0,535.0,499.0
530.0,508.0,540.0,547.0,501.0
522.0,506.0,534.0,544.0,506.0
518.0,505.0,531.0,545.0,511.0
505.0,505.0,515.0,534.0,520.0
499.0,502.0,505.0,524.0,527.0
496.0,503.0,496.0,513.0,530.0
500.0,509.0,494.0,507.0,526.0
500.0,510.0,493.0,500.0,525.0
507.0,512.0,496.0,496.0,522.0
504.0,508.0,494.0,488.0,516.0
506.0,509.0,499.0,486.0,514.0
509.0,508.0,503.0,485.0,511.0
515.0,507.0,511.0,491.0,510.0
522.0,506.0,519.0,501.0,505.0
527.0,509.0,529.0,514.0,500.0
535.0,509.0,539.0,526.0,499.0
531.0,507.0,539.0,536.0,499.0
525.0,505.0,536.0,542.0,503.0
520.0,505.0,533.0,543.0,509.0
517.0,505.0,527.0,543.0,512.0
501.0,503.0,512.0,530.0,520.0
498.0,501.0,500.0,521.0,526.0
497.0,504.0,494.0,511.0,529.0
497.0,508.0,496.0,507.0,527.0
500.0,509.0,491.0,497.0,521.0
501.0,511.0,494.0,491.0,520.0
503.0,507.0,494.0,484.0,515.0
507.0,507.0,499.0,484.0,512.0
510.0,505.0,504.0,484.0,509.0
518.0,504.0,512.0,491.0,505.0
522.0,504.0,520.0,503.0,500.0
527.0,506.0,531.0,517.0,496.0
529.0,507.0,537.0,529.0,490.0
529.0,507.0,541.0,540.0,498.0
526.0,505.0,538.0,547.0,511.0
519.0,505.0,532.0,544.0,511.0
511.0,503.0,526.0,538.0,523.0
501.0,501.0,508.0,528.0,527.0
502.0,501.0,504.0,519.0,524.0
496.0,504.0,494.0,509.0,525.0
501.0,509.0,496.0,501.0,524.0
501.0,510.0,498.0,498.0,522.0
501.0,509.0,494.0,488.0,519.0
505.0,508.0,498.0,483.0,514.0
508.0,507.0,500.0,483.0,512.0
512.0,504.0,506.0,486.0,510.0
518.0,503.0,516.0,496.0,503.0
523.0,506.0,524.0,507.0,501.0
530.0,508.0,534.0,523.0,495.0
530.0,507.0,540.0,539.0,494.0
530.0,507.0,539.0,543.0,498.0
522.0,504.0,533.0,541.0,511.0
520.0,506.0,531.0,543.0,517.0
509.0,502.0,517.0,534.0,523.0
500.0,503.0,506.0,526.0,527.0
500.0,506.0,500.0,518.0,526.0
497.0,511.0,494.0,507.0,524.0
495.0,508.0,491.0,497.0,521.0
501.0,510.0,492.0,492.0,520.0
503.0,509.0,495.0,484.0,521.0
513.0,508.0,504.0,489.0,514.0
509.0,506.0,504.0,486.0,511.0
512.0,504.0,509.0,490.0,504.0
522.0,504.0,518.0,503.0,503.0
532.0,508.0,530.0,513.0,502.0
531.0,508.0,537.0,527.0,495.0
531.0,509.0,542.0,539.0,502.0
526.0,506.0,537.0,542.0,505.0
518.0,504.0,529.0,541.0,509.0
516.0,504.0,528.0,543.0,516.0
505.0,501.0,513.0,532.0,525.0
497.0,502.0,502.0,523.0,524.0
496.0,505.0,496.0,514.0,523.0
499.0,506.0,492.0,503.0,525.0
502.0,509.0,492.0,496.0,521.0
507.0,509.0,495.0,492.0,515.0
504.0,509.0,497.0,487.0,516.0
507.0,508.0,500.0,484.0,513.0
509.0,505.0,505.0,485.0,513.0
515.0,505.0,514.0,493.0,511.0
519.0,504.0,520.0,502.0,511.0
525.0,508.0,534.0,519.0,505.0
528.0,507.0,539.0,531.0,500.0
530.0,512.0,540.0,540.0,500.0
530.0,507.0,537.0,543.0,507.0
519.0,505.0,531.0,542.0,509.0
512.0,502.0,522.0,537.0,520.0
501.0,500.0,507.0,528.0,522.0
498.0,503.0,500.0,520.0,522.0
497.0,503.0,493.0,509.0,519.0
499.0,508.0,493.0,501.0,524.0
499.0,508.0,491.0,492.0,524.0
502.0,506.0,492.0,487.0,518.0
507.0,509.0,498.0,486.0,519.0
510.0,508.0,503.0,486.0,515.0
514.0,506.0,508.0,489.0,512.0
519.0,504.0,517.0,497.0,506.0
524.0,506.0,525.0,509.0,502.0
533.0,510.0,535.0,524.0,498.0
533.0,509.0,540.0,536.0,498.0
529.0,507.0,540.0,543.0,504.0
519.0,502.0,531.0,540.0,507.0
519.0,505.0,532.0,545.0,511.0
501.0,500.0,515.0,532.0,521.0
497.0,497.0,504.0,523.0,526.0
497.0,501.0,497.0,515.0,525.0
500.0,505.0,493.0,508.0,523.0
504.0,508.0,494.0,504.0,522.0
502.0,510.0,495.0,495.0,519.0
505.0,508.0,495.0,487.0,522.0
504.0,507.0,498.0,484.0,515.0
509.0,506.0,502.0,484.0,511.0
512.0,504.0,509.0,494.0,514.0
514.0,506.0,517.0,499.0,506.0
525.0,505.0,527.0,512.0,500.0
532.0,510.0,538.0,528.0,498.0
530.0,507.0,540.0,538.0,501.0
528.0,506.0,537.0,543.0,502.0
523.0,505.0,536.0,545.0,511.0
514.0,504.0,527.0,543.0,514.0
504.0,498.0,510.0,532.0,520.0
496.0,500.0,500.0,523.0,525.0
496.0,505.0,495.0,513.0,526.0
498.0,508.0,493.0,503.0,526.0
500.0,507.0,491.0,496.0,523.0
503.0,508.0,493.0,491.0,518.0
502.0,505.0,494.0,483.0,518.0
508.0,508.0,501.0,485.0,514.0
511.0,506.0,506.0,487.0,512.0
521.0,504.0,513.0,496.0,505.0
522.0,504.0,521.0,503.0,501.0
531.0,508.0,532.0,519.0,499.0
536.0,510.0,538.0,533.0,498.0
532.0,507.0,541.0,541.0,497.0
525.0,504.0,534.0,542.0,504.0
525.0,504.0,533.0,546.0,506.0
511.0,502.0,524.0,542.0,519.0
501.0,501.0,508.0,529.0,526.0
501.0,504.0,502.0,518.0,524.0
496.0,509.0,495.0,509.0,523.0
495.0,508.0,497.0,500.0,525.0
499.0,509.0,491.0,493.0,520.0
506.0,509.0,494.0,489.0,513.0
506.0,507.0,497.0,486.0,514.0
509.0,506.0,500.0,483.0,512.0
512.0,505.0,507.0,486.0,510.0
519.0,504.0,517.0,497.0,504.0
525.0,506.0,525.0,509.0,500.0
531.0,509.0,535.0,523.0,498.0
536.0,507.0,539.0,536.0,499.0
534.0,508.0,541.0,544.0,499.0
521.0,504.0,533.0,543.0,509.0
520.0,509.0,531.0,546.0,512.0
507.0,501.0,515.0,533.0,522.0
499.0,501.0,503.0,524.0,527.0
497.0,502.0,496.0,514.0,526.0
502.0,507.0,494.0,507.0,526.0
499.0,509.0,493.0,500.0,524.0
504.0,510.0,495.0,495.0,515.0
503.0,508.0,495.0,486.0,517.0
507.0,507.0,498.0,484.0,509.0
509.0,510.0,505.0,487.0,506.0
513.0,505.0,511.0,491.0,503.0
519.0,505.0,519.0,501.0,509.0
525.0,507.0,529.0,514.0,500.0
532.0,507.0,538.0,531.0,500.0
534.0,505.0,538.0,538.0,495.0
527.0,506.0,538.0,543.0,503.0
519.0,504.0,532.0,542.0,513.0
516.0,504.0,528.0,542.0,513.0
507.0,500.0,512.0,532.0,520.0
502.0,499.0,501.0,523.0,522.0
500.0,505.0,498.0,515.0,522.0
500.0,511.0,494.0,504.0,526.0
498.0,511.0,492.0,495.0,525.0
501.0,511.0,494.0,490.0,519.0
505.0,508.0,496.0,487.0,518.0
508.0,510.0,501.0,487.0,513.0
514.0,509.0,507.0,489.0,507.0
519.0,506.0,515.0,495.0,506.0
517.0,505.0,520.0,503.0,511.0
525.0,507.0,530.0,517.0,501.0
530.0,508.0,541.0,531.0,499.0
529.0,506.0,538.0,540.0,500.0
524.0,503.0,535.0,542.0,511.0
522.0,507.0,533.0,545.0,512.0
510.0,501.0,517.0,534.0,517.0
500.0,498.0,507.0,527.0,525.0
503.0,503.0,501.0,521.0,524.0
497.0,509.0,498.0,511.0,530.0
497.0,509.0,492.0,500.0,524.0
502.0,507.0,491.0,496.0,520.0
503.0,509.0,494.0,489.0,517.0
505.0,508.0,498.0,485.0,513.0
510.0,509.0,503.0,486.0,510.0
512.0,507.0,507.0,486.0,509.0
519.0,505.0,517.0,501.0,510.0
526.0,508.0,527.0,509.0,499.0
527.0,507.0,532.0,521.0,496.0
532.0,507.0,540.0,535.0,498.0
530.0,508.0,542.0,544.0,501.0
521.0,503.0,535.0,543.0,513.0
516.0,504.0,528.0,542.0,512.0
505.0,499.0,514.0,533.0,523.0
499.0,504.0,507.0,526.0,531.0
500.0,506.0,499.0,517.0,530.0
500.0,508.0,494.0,507.0,524.0
501.0,509.0,492.0,499.0,518.0
504.0,507.0,494.0,493.0,515.0
505.0,506.0,494.0,485.0,516.0
509.0,512.0,498.0,484.0,513.0
512.0,506.0,503.0,485.0,510.0
510.0,507.0,514.0,491.0,507.0
516.0,504.0,520.0,502.0,506.0
533.0,506.0,529.0,514.0,498.0
531.0,510.0,539.0,531.0,501.0
528.0,508.0,541.0,539.0,507.0
522.0,508.0,537.0,541.0,508.0
520.0,505.0,532.0,542.0,521.0
513.0,507.0,526.0,539.0,518.0
502.0,500.0,510.0,530.0,519.0
501.0,501.0,502.0,524.0,522.0
496.0,504.0,496.0,508.0,519.0
499.0,507.0,492.0,503.0,519.0
501.0,509.0,491.0,496.0,517.0
506.0,516.0,496.0,492.0,513.0
505.0,512.0,495.0,486.0,515.0
510.0,509.0,502.0,488.0,510.0
518.0,507.0,509.0,490.0,511.0
518.0,505.0,514.0,494.0,505.0
521.0,504.0,520.0,502.0,501.0
528.0,509.0,531.0,517.0,499.0
531.0,508.0,538.0,531.0,496.0
532.0,508.0,541.0,542.0,496.0
524.0,506.0,536.0,544.0,507.0
520.0,506.0,533.0,545.0,508.0
513.0,502.0,520.0,537.0,523.0
500.0,501.0,509.0,532.0,532.0
497.0,504.0,501.0,520.0,529.0
496.0,506.0,495.0,510.0,528.0
501.0,508.0,492.0,502.0,523.0
504.0,508.0,492.0,495.0,518.0
504.0,507.0,493.0,489.0,515.0
501.0,506.0,496.0,489.0,510.0
507.0,508.0,503.0,489.0,512.0
512.0,505.0,513.0,493.0,511.0
519.0,507.0,519.0,501.0,506.0
529.0,512.0,526.0,509.0,500.0
531.0,509.0,536.0,525.0,497.0
535.0,508.0,541.0,537.0,498.0
531.0,509.0,544.0,547.0,497.0
520.0,505.0,534.0,543.0,505.0
518.0,509.0,530.0,544.0,509.0
508.0,502.0,516.0,536.0,523.0
501.0,500.0,503.0,526.0,530.0
497.0,503.0,496.0,515.0,536.0
497.0,507.0,493.0,506.0,533.0
502.0,511.0,492.0,499.0,525.0
505.0,510.0,494.0,494.0,514.0
504.0,507.0,495.0,488.0,511.0
506.0,507.0,498.0,485.0,506.0
508.0,503.0,502.0,482.0,508.0
511.0,505.0,512.0,491.0,509.0
518.0,505.0,519.0,501.0,506.0
527.0,508.0,529.0,514.0,499.0
534.0,510.0,539.0,530.0,495.0
527.0,507.0,540.0,537.0,496.0
525.0,507.0,538.0,542.0,502.0
517.0,502.0,531.0,542.0,510.0
519.0,504.0,532.0,544.0,514.0
501.0,500.0,510.0,530.0,523.0
499.0,502.0,501.0,521.0,527.0
496.0,507.0,497.0,518.0,532.0
499.0,509.0,496.0,507.0,523.0
500.0,513.0,494.0,498.0,518.0
502.0,510.0,496.0,492.0,515.0
502.0,507.0,496.0,484.0,518.0
510.0,506.0,499.0,483.0,515.0
517.0,505.0,506.0,486.0,512.0
517.0,504.0,514.0,495.0,506.0
520.0,505.0,521.0,504.0,505.0
527.0,506.0,531.0,518.0,501.0
532.0,507.0,539.0,532.0,496.0
531.0,511.0,540.0,542.0,492.0
528.0,505.0,537.0,548.0,501.0
520.0,506.0,532.0,545.0,509.0
507.0,500.0,518.0,535.0,521.0
500.0,501.0,510.0,530.0,519.0
501.0,505.0,502.0,519.0,522.0
499.0,506.0,496.0,509.0,531.0
501.0,508.0,494.0,501.0,526.0
509.0,511.0,495.0,495.0,526.0
504.0,510.0,496.0,488.0,523.0
503.0,506.0,497.0,484.0,519.0
508.0,506.0,503.0,485.0,512.0
514.0,505.0,509.0,490.0,508.0
519.0,504.0,517.0,498.0,508.0
526.0,506.0,526.0,510.0,498.0
534.0,511.0,535.0,524.0,494.0
527.0,507.0,539.0,532.0,504.0
531.0,507.0,542.0,543.0,504.0
520.0,502.0,532.0,540.0,511.0
516.0,504.0,531.0,544.0,511.0
503.0,499.0,515.0,534.0,523.0
501.0,501.0,505.0,525.0,528.0
498.0,501.0,497.0,516.0,528.0
503.0,508.0,495.0,508.0,524.0
504.0,509.0,494.0,501.0,521.0
503.0,511.0,495.0,493.0,520.0
499.0,507.0,494.0,483.0,520.0
505.0,506.0,499.0,484.0,513.0
510.0,506.0,505.0,486.0,511.0
516.0,505.0,513.0,492.0,508.0
521.0,504.0,520.0,501.0,504.0
526.0,510.0,528.0,514.0,501.0
533.0,508.0,538.0,528.0,494.0
532.0,507.0,540.0,538.0,494.0
529.0,506.0,538.0,542.0,498.0
519.0,502.0,529.0,545.0,505.0
520.0,506.0,528.0,543.0,510.0
504.0,502.0,513.0,532.0,522.0
496.0,502.0,502.0,521.0,533.0
496.0,505.0,495.0,510.0,534.0
498.0,508.0,493.0,502.0,528.0
500.0,509.0,494.0,496.0,525.0
508.0,511.0,498.0,495.0,520.0
504.0,508.0,496.0,484.0,518.0
509.0,507.0,501.0,485.0,512.0
512.0,505.0,506.0,486.0,510.0
518.0,508.0,512.0,491.0,505.0
528.0,505.0,522.0,504.0,499.0
532.0,507.0,533.0,522.0,499.0
527.0,506.0,539.0,532.0,502.0
529.0,509.0,542.0,542.0,505.0
524.0,504.0,535.0,542.0,513.0
519.0,502.0,532.0,543.0,512.0
513.0,503.0,519.0,537.0,523.0
503.0,502.0,507.0,528.0,527.0
499.0,503.0,499.0,517.0,529.0
499.0,504.0,495.0,508.0,528.0
499.0,511.0,493.0,501.0,524.0
505.0,512.0,494.0,496.0,520.0
507.0,511.0,497.0,491.0,516.0
507.0,508.0,496.0,486.0,516.0
512.0,507.0,503.0,486.0,512.0
514.0,507.0,510.0,490.0,510.0
521.0,507.0,518.0,499.0,513.0
520.0,506.0,527.0,512.0,508.0
524.0,508.0,540.0,527.0,501.0
525.0,506.0,538.0,536.0,504.0
522.0,509.0,541.0,545.0,511.0
519.0,506.0,534.0,543.0,517.0
525.0,507.0,530.0,546.0,514.0
510.0,501.0,514.0,534.0,516.0
502.0,499.0,499.0,525.0,523.0
499.0,502.0,495.0,515.0,521.0
502.0,506.0,493.0,507.0,523.0
503.0,509.0,495.0,500.0,523.0
506.0,513.0,497.0,494.0,519.0
508.0,510.0,496.0,487.0,517.0
513.0,511.0,499.0,484.0,513.0
514.0,508.0,505.0,486.0,505.0
517.0,505.0,512.0,495.0,501.0
518.0,502.0,518.0,501.0,501.0
521.0,505.0,527.0,514.0,494.0
531.0,508.0,537.0,529.0,491.0
528.0,511.0,540.0,539.0,502.0
525.0,506.0,538.0,543.0,511.0
522.0,504.0,530.0,542.0,512.0
523.0,506.0,527.0,544.0,516.0
505.0,500.0,510.0,532.0,521.0
498.0,502.0,499.0,522.0,523.0
495.0,502.0,497.0,511.0,526.0
497.0,507.0,496.0,506.0,529.0
505.0,510.0,492.0,498.0,526.0
507.0,511.0,495.0,492.0,515.0
506.0,507.0,494.0,484.0,515.0
511.0,509.0,506.0,487.0,514.0
513.0,505.0,508.0,490.0,516.0
519.0,506.0,518.0,496.0,508.0
515.0,507.0,524.0,510.0,514.0
521.0,506.0,533.0,520.0,505.0
524.0,508.0,540.0,534.0,508.0
525.0,508.0,542.0,544.0,503.0
520.0,504.0,535.0,543.0,505.0
521.0,506.0,531.0,546.0,510.0
519.0,502.0,519.0,540.0,513.0
516.0,501.0,507.0,530.0,511.0
504.0,501.0,497.0,517.0,519.0
499.0,503.0,492.0,509.0,516.0
499.0,507.0,491.0,501.0,516.0
505.0,513.0,491.0,499.0,516.0
507.0,509.0,496.0,491.0,521.0
505.0,508.0,494.0,482.0,522.0
513.0,508.0,501.0,485.0,515.0
517.0,507.0,508.0,489.0,512.0
522.0,506.0,515.0,497.0,507.0
528.0,506.0,525.0,511.0,503.0
537.0,509.0,537.0,526.0,496.0
533.0,508.0,544.0,536.0,497.0
531.0,508.0,541.0,545.0,502.0
523.0,504.0,532.0,544.0,508.0
518.0,506.0,530.0,549.0,518.0
503.0,501.0,514.0,533.0,528.0
497.0,500.0,502.0,522.0,532.0
493.0,503.0,498.0,518.0,534.0
498.0,510.0,494.0,507.0,529.0
502.0,511.0,492.0,496.0,527.0
505.0,517.0,496.0,493.0,520.0
504.0,510.0,496.0,488.0,520.0
509.0,507.0,500.0,487.0,518.0
512.0,507.0,506.0,488.0,509.0
519.0,506.0,513.0,494.0,503.0
523.0,505.0,520.0,504.0,495.0
523.0,508.0,528.0,514.0,495.0
532.0,510.0,539.0,531.0,500.0
531.0,507.0,540.0,540.0,504.0
527.0,505.0,536.0,542.0,506.0
527.0,503.0,531.0,544.0,513.0
518.0,506.0,524.0,543.0,515.0
504.0,502.0,515.0,534.0,527.0
499.0,501.0,500.0,527.0,540.0
495.0,506.0,495.0,509.0,529.0
497.0,508.0,490.0,497.0,522.0
500.0,508.0,491.0,492.0,521.0
504.0,512.0,495.0,491.0,524.0
505.0,509.0,496.0,485.0,524.0
503.0,507.0,498.0,486.0,521.0
509.0,506.0,507.0,487.0,514.0
518.0,505.0,515.0,496.0,506.0
522.0,505.0,521.0,505.0,497.0
525.0,505.0,530.0,518.0,492.0
529.0,507.0,540.0,534.0,494.0
525.0,509.0,543.0,544.0,504.0
515.0,505.0,536.0,544.0,523.0
512.0,504.0,531.0,544.0,520.0
504.0,502.0,521.0,540.0,525.0
502.0,503.0,511.0,532.0,528.0
503.0,503.0,497.0,515.0,520.0
502.0,509.0,494.0,510.0,526.0
503.0,508.0,491.0,499.0,523.0
510.0,513.0,495.0,496.0,518.0
508.0,512.0,497.0,492.0,520.0
500.0,504.0,495.0,486.0,523.0
501.0,506.0,501.0,485.0,521.0
508.0,504.0,508.0,489.0,504.0
512.0,506.0,516.0,497.0,504.0
520.0,507.0,527.0,509.0,501.0
532.0,509.0,537.0,526.0,479.0
538.0,509.0,541.0,536.0,486.0
540.0,509.0,545.0,545.0,495.0
530.0,504.0,532.0,540.0,506.0
521.0,505.0,529.0,544.0,517.0
502.0,501.0,514.0,533.0,551.0
494.0,501.0,502.0,522.0,536.0
497.0,504.0,496.0,515.0,517.0
497.0,508.0,494.0,507.0,527.0
498.0,509.0,491.0,498.0,517.0
500.0,510.0,495.0,496.0,506.0
500.0,507.0,496.0,491.0,510.0
504.0,506.0,500.0,486.0,514.0
519.0,506.0,505.0,485.0,508.0
527.0,506.0,512.0,494.0,501.0
535.0,504.0,520.0,505.0,498.0
535.0,507.0,535.0,519.0,500.0
541.0,508.0,538.0,528.0,493.0
539.0,509.0,538.0,537.0,492.0
534.0,506.0,538.0,544.0,495.0
519.0,501.0,529.0,543.0,496.0
513.0,502.0,524.0,542.0,505.0
496.0,501.0,509.0,532.0,523.0
490.0,503.0,502.0,526.0,535.0
481.0,504.0,500.0,516.0,527.0
473.0,507.0,489.0,501.0,528.0
482.0,506.0,497.0,501.0,534.0
477.0,505.0,495.0,494.0,540.0
472.0,504.0,496.0,481.0,540.0
476.0,505.0,501.0,484.0,538.0
494.0,505.0,507.0,488.0,524.0
520.0,510.0,519.0,501.0,515.0
520.0,512.0,528.0,510.0,515.0
509.0,513.0,534.0,522.0,511.0
536.0,509.0,536.0,534.0,495.0
579.0,508.0,535.0,542.0,472.0
559.0,503.0,531.0,540.0,474.0
535.0,501.0,530.0,550.0,496.0
524.0,497.0,519.0,543.0,515.0
509.0,501.0,506.0,528.0,526.0
503.0,507.0,503.0,524.0,526.0
509.0,513.0,499.0,512.0,532.0
512.0,513.0,497.0,506.0,530.0
513.0,516.0,496.0,499.0,530.0
511.0,511.0,500.0,489.0,517.0
519.0,506.0,496.0,479.0,514.0
521.0,507.0,501.0,483.0,505.0
534.0,504.0,509.0,488.0,494.0
533.0,504.0,516.0,499.0,476.0
530.0,505.0,527.0,514.0,476.0
528.0,506.0,534.0,526.0,486.0
522.0,504.0,538.0,537.0,496.0
527.0,505.0,540.0,546.0,498.0
522.0,503.0,531.0,542.0,507.0
521.0,507.0,532.0,548.0,510.0
502.0,502.0,513.0,530.0,529.0
495.0,503.0,503.0,522.0,547.0
490.0,504.0,495.0,512.0,549.0
496.0,507.0,496.0,511.0,533.0
490.0,504.0,492.0,496.0,541.0
510.0,508.0,493.0,495.0,516.0
513.0,506.0,494.0,489.0,499.0
514.0,504.0,496.0,487.0,502.0
512.0,508.0,505.0,490.0,502.0
521.0,509.0,512.0,497.0,508.0
521.0,507.0,522.0,504.0,530.0
525.0,510.0,535.0,521.0,520.0
527.0,510.0,541.0,532.0,514.0
525.0,510.0,545.0,544.0,507.0
517.0,504.0,541.0,547.0,508.0
510.0,503.0,531.0,544.0,493.0
523.0,501.0,523.0,545.0,468.0
515.0,498.0,506.0,530.0,481.0
508.0,497.0,494.0,523.0,486.0
501.0,495.0,490.0,515.0,502.0
505.0,501.0,489.0,498.0,524.0
512.0,507.0,490.0,492.0,531.0
509.0,511.0,495.0,493.0,511.0
502.0,506.0,497.0,489.0,516.0
508.0,505.0,501.0,487.0,525.0
518.0,505.0,507.0,490.0,516.0
532.0,507.0,516.0,500.0,508.0
540.0,507.0,524.0,510.0,521.0
534.0,510.0,535.0,522.0,523.0
533.0,511.0,543.0,534.0,513.0
530.0,509.0,546.0,545.0,516.0
508.0,501.0,533.0,540.0,537.0
492.0,502.0,532.0,539.0,534.0
485.0,503.0,521.0,540.0,512.0
482.0,503.0,511.0,531.0,515.0
492.0,503.0,499.0,518.0,517.0
489.0,504.0,493.0,508.0,510.0
497.0,507.0,492.0,501.0,514.0
505.0,509.0,493.0,494.0,525.0
516.0,509.0,493.0,485.0,526.0
520.0,502.0,492.0,480.0,533.0
521.0,503.0,497.0,478.0,522.0
500.0,494.0,505.0,494.0,503.0
529.0,501.0,517.0,501.0,472.0
549.0,512.0,531.0,514.0,465.0
537.0,509.0,538.0,527.0,502.0
534.0,510.0,547.0,533.0,562.0
545.0,513.0,543.0,541.0,538.0
539.0,509.0,535.0,538.0,521.0
538.0,508.0,532.0,542.0,518.0
528.0,505.0,517.0,537.0,521.0
517.0,501.0,503.0,525.0,535.0
472.0,501.0,496.0,509.0,534.0
438.0,504.0,499.0,516.0,522.0
453.0,511.0,498.0,501.0,529.0
456.0,509.0,496.0,488.0,554.0
473.0,508.0,500.0,489.0,542.0
466.0,502.0,494.0,477.0,542.0
485.0,508.0,503.0,482.0,544.0
523.0,509.0,515.0,496.0,535.0
521.0,510.0,523.0,500.0,511.0
530.0,513.0,537.0,510.0,487.0
538.0,513.0,542.0,528.0,464.0
553.0,508.0,541.0,540.0,425.0
568.0,503.0,534.0,537.0,416.0
571.0,497.0,524.0,533.0,459.0
560.0,506.0,523.0,537.0,526.0
533.0,501.0,510.0,523.0,577.0
507.0,501.0,498.0,509.0,573.0
503.0,514.0,502.0,512.0,575.0
473.0,512.0,497.0,503.0,561.0
463.0,509.0,495.0,496.0,513.0
491.0,518.0,506.0,505.0,462.0
469.0,506.0,500.0,492.0,482.0
484.0,501.0,504.0,486.0,475.0
462.0,486.0,493.0,478.0,496.0
471.0,493.0,507.0,489.0,567.0
525.0,502.0,523.0,504.0,528.0
518.0,504.0,530.0,511.0,518.0
505.0,505.0,540.0,526.0,533.0
518.0,512.0,546.0,546.0,524.0
555.0,512.0,543.0,544.0,511.0
529.0,510.0,535.0,537.0,548.0
505.0,504.0,520.0,524.0,545.0
543.0,511.0,509.0,517.0,520.0
473.0,503.0,495.0,503.0,521.0
397.0,508.0,503.0,523.0,440.0
424.0,501.0,496.0,509.0,382.0
410.0,500.0,491.0,497.0,470.0
433.0,498.0,494.0,494.0,477.0
468.0,489.0,486.0,473.0,537.0
488.0,494.0,497.0,482.0,493.0
541.0,490.0,499.0,482.0,506.0
610.0,501.0,516.0,495.0,497.0
580.0,508.0,529.0,506.0,508.0
568.0,509.0,538.0,518.0,553.0
571.0,514.0,541.0,530.0,554.0
531.0,515.0,545.0,542.0,505.0
523.0,500.0,530.0,533.0,496.0
531.0,498.0,532.0,540.0,484.0
502.0,490.0,511.0,533.0,476.0
526.0,498.0,501.0,522.0,455.0
514.0,503.0,498.0,519.0,464.0
471.0,501.0,493.0,500.0,551.0
447.0,502.0,490.0,494.0,546.0
408.0,502.0,493.0,490.0,555.0
398.0,498.0,492.0,486.0,536.0
378.0,496.0,495.0,485.0,550.0
382.0,499.0,502.0,476.0,556.0
444.0,499.0,511.0,481.0,538.0
452.0,503.0,521.0,495.0,510.0
475.0,509.0,537.0,510.0,556.0
597.0,516.0,544.0,523.0,489.0
657.0,511.0,544.0,541.0,356.0
591.0,494.0,529.0,542.0,375.0
466.0,479.0,515.0,536.0,428.0
361.0,477.0,511.0,533.0,435.0
391.0,490.0,505.0,532.0,472.0
400.0,493.0,497.0,519.0,563.0
442.0,492.0,490.0,501.0,614.0
503.0,504.0,492.0,493.0,628.0
566.0,520.0,500.0,501.0,603.0
560.0,527.0,506.0,504.0,493.0
503.0,514.0,503.0,488.0,489.0
471.0,509.0,504.0,488.0,580.0
483.0,501.0,507.0,488.0,607.0
494.0,496.0,511.0,487.0,638.0
447.0,480.0,503.0,478.0,583.0
424.0,489.0,514.0,493.0,469.0
520.0,506.0,540.0,534.0,383.0
513.0,499.0,539.0,540.0,425.0
440.0,497.0,536.0,550.0,537.0
380.0,486.0,530.0,532.0,635.0
436.0,489.0,506.0,499.0,650.0
567.0,495.0,495.0,503.0,602.0
511.0,496.0,496.0,526.0,568.0
546.0,514.0,505.0,546.0,503.0
560.0,502.0,488.0,521.0,482.0
595.0,513.0,498.0,522.0,395.0
604.0,520.0,503.0,504.0,442.0
570.0,513.0,491.0,438.0,472.0
523.0,506.0,501.0,469.0,424.0
514.0,513.0,522.0,504.0,474.0
442.0,505.0,522.0,492.0,567.0
473.0,502.0,525.0,488.0,579.0
490.0,510.0,538.0,502.0,590.0
497.0,503.0,540.0,526.0,503.0
430.0,489.0,530.0,531.0,543.0
454.0,490.0,524.0,525.0,531.0
466.0,496.0,531.0,544.0,440.0
448.0,481.0,506.0,513.0,611.0
453.0,488.0,489.0,495.0,605.0
498.0,503.0,488.0,497.0,540.0
551.0,524.0,500.0,499.0,578.0
504.0,519.0,499.0,515.0,465.0
464.0,493.0,482.0,501.0,464.0
549.0,510.0,487.0,456.0,510.0
585.0,512.0,493.0,463.0,571.0
559.0,527.0,518.0,498.0,587.0
486.0,510.0,525.0,505.0,490.0
336.0,469.0,506.0,494.0,479.0
270.0,465.0,514.0,501.0,515.0
322.0,480.0,531.0,498.0,550.0
428.0,490.0,538.0,506.0,598.0
566.0,520.0,553.0,531.0,569.0
737.0,540.0,556.0,541.0,467.0
684.0,520.0,538.0,535.0,462.0
638.0,508.0,516.0,532.0,455.0
573.0,496.0,496.0,500.0,479.0
431.0,489.0,483.0,488.0,471.0
400.0,505.0,488.0,488.0,507.0
568.0,516.0,489.0,496.0,368.0
633.0,506.0,481.0,475.0,439.0
440.0,494.0,479.0,472.0,398.0
414.0,508.0,497.0,476.0,532.0
341.0,492.0,499.0,472.0,539.0
295.0,484.0,513.0,484.0,544.0
376.0,499.0,521.0,486.0,585.0
526.0,513.0,533.0,507.0,513.0
661.0,512.0,545.0,520.0,443.0
585.0,503.0,544.0,523.0,543.0
619.0,512.0,548.0,532.0,543.0
629.0,510.0,541.0,541.0,492.0
530.0,489.0,512.0,514.0,515.0
535.0,501.0,509.0,522.0,487.0
450.0,507.0,503.0,509.0,604.0
489.0,509.0,494.0,500.0,643.0
508.0,504.0,488.0,495.0,690.0
566.0,505.0,482.0,482.0,587.0
459.0,496.0,484.0,485.0,475.0
401.0,506.0,498.0,490.0,476.0
478.0,524.0,526.0,512.0,441.0
636.0,517.0,516.0,488.0,479.0
614.0,483.0,494.0,472.0,451.0
545.0,492.0,510.0,487.0,474.0
610.0,509.0,537.0,507.0,469.0
532.0,507.0,545.0,518.0,483.0
345.0,485.0,546.0,542.0,439.0
203.0,467.0,529.0,525.0,475.0
204.0,479.0,518.0,520.0,522.0
345.0,499.0,514.0,502.0,649.0
718.0,532.0,515.0,527.0,563.0
806.0,540.0,516.0,541.0,442.0
671.0,516.0,496.0,504.0,494.0
544.0,505.0,488.0,508.0,470.0
579.0,534.0,504.0,497.0,531.0
556.0,525.0,504.0,481.0,467.0
522.0,510.0,496.0,471.0,538.0
537.0,502.0,505.0,500.0,476.0
563.0,504.0,508.0,504.0,421.0
655.0,501.0,515.0,497.0,524.0
626.0,500.0,526.0,493.0,500.0
508.0,479.0,523.0,493.0,611.0
355.0,485.0,536.0,520.0,605.0
468.0,526.0,554.0,542.0,475.0
626.0,520.0,546.0,533.0,441.0
