CH1,CH2,CH3,CH4,CH5
530.0,510.0,532.0,519.0,493.0
537.0,518.0,543.0,538.0,488.0
537.0,513.0,545.0,550.0,491.0
533.0,511.0,544.0,558.0,496.0
523.0,507.0,535.0,554.0,503.0
518.0,505.0,527.0,555.0,507.0
505.0,499.0,508.0,538.0,524.0
497.0,499.0,500.0,520.0,532.0
493.0,502.0,494.0,507.0,534.0
497.0,508.0,489.0,497.0,532.0
498.0,506.0,489.0,487.0,529.0
502.0,508.0,492.0,481.0,524.0
505.0,507.0,496.0,474.0,524.0
506.0,504.0,498.0,473.0,522.0
512.0,508.0,506.0,481.0,514.0
525.0,506.0,520.0,495.0,505.0
525.0,509.0,527.0,513.0,500.0
530.0,511.0,537.0,526.0,492.0
538.0,513.0,546.0,544.0,491.0
535.0,512.0,543.0,553.0,493.0
529.0,512.0,542.0,560.0,494.0
523.0,507.0,533.0,556.0,501.0
506.0,499.0,516.0,542.0,521.0
497.0,498.0,503.0,530.0,530.0
490.0,501.0,497.0,514.0,536.0
496.0,507.0,490.0,503.0,536.0
495.0,506.0,488.0,495.0,533.0
495.0,505.0,488.0,479.0,531.0
502.0,506.0,491.0,479.0,523.0
503.0,505.0,496.0,476.0,521.0
507.0,507.0,501.0,477.0,519.0
515.0,505.0,508.0,484.0,511.0
521.0,509.0,517.0,497.0,502.0
528.0,511.0,529.0,515.0,496.0
535.0,514.0,540.0,533.0,489.0
537.0,514.0,545.0,548.0,491.0
532.0,516.0,543.0,559.0,495.0
524.0,507.0,537.0,554.0,499.0
519.0,506.0,531.0,554.0,508.0
503.0,500.0,513.0,541.0,524.0
496.0,499.0,499.0,524.0,532.0
500.0,501.0,493.0,512.0,533.0
499.0,506.0,490.0,501.0,536.0
499.0,506.0,491.0,488.0,532.0
501.0,506.0,490.0,483.0,527.0
505.0,508.0,495.0,480.0,519.0
504.0,506.0,497.0,475.0,519.0
509.0,506.0,503.0,479.0,516.0
523.0,507.0,513.0,490.0,508.0
523.0,508.0,523.0,503.0,504.0
534.0,513.0,534.0,523.0,493.0
539.0,513.0,543.0,540.0,493.0
537.0,512.0,545.0,549.0,488.0
532.0,512.0,542.0,558.0,494.0
524.0,508.0,535.0,561.0,502.0
516.0,507.0,531.0,554.0,511.0
504.0,500.0,510.0,536.0,526.0
490.0,502.0,496.0,521.0,532.0
495.0,503.0,493.0,508.0,534.0
500.0,505.0,493.0,501.0,532.0
495.0,505.0,487.0,486.0,532.0
500.0,507.0,491.0,481.0,524.0
506.0,507.0,495.0,478.0,523.0
507.0,506.0,498.0,476.0,521.0
515.0,506.0,506.0,482.0,516.0
522.0,508.0,517.0,495.0,508.0
526.0,508.0,525.0,508.0,503.0
534.0,513.0,537.0,527.0,496.0
538.0,513.0,545.0,546.0,490.0
537.0,515.0,543.0,553.0,491.0
531.0,510.0,542.0,559.0,494.0
519.0,506.0,538.0,557.0,506.0
510.0,501.0,520.0,548.0,520.0
504.0,501.0,505.0,532.0,528.0
495.0,501.0,495.0,517.0,535.0
493.0,503.0,491.0,504.0,534.0
495.0,504.0,488.0,492.0,533.0
497.0,504.0,487.0,481.0,529.0
507.0,506.0,491.0,480.0,523.0
510.0,505.0,497.0,476.0,520.0
507.0,505.0,500.0,479.0,517.0
514.0,504.0,508.0,483.0,514.0
521.0,510.0,519.0,498.0,506.0
528.0,509.0,530.0,514.0,498.0
535.0,513.0,541.0,537.0,491.0
535.0,510.0,544.0,547.0,490.0
533.0,512.0,545.0,557.0,492.0
526.0,510.0,538.0,558.0,502.0
515.0,508.0,531.0,555.0,507.0
499.0,498.0,512.0,539.0,523.0
491.0,498.0,498.0,524.0,532.0
490.0,501.0,491.0,511.0,533.0
489.0,503.0,488.0,499.0,532.0
494.0,504.0,487.0,489.0,532.0
496.0,509.0,488.0,487.0,529.0
512.0,512.0,495.0,481.0,523.0
511.0,507.0,499.0,478.0,520.0
514.0,507.0,504.0,480.0,518.0
522.0,506.0,513.0,489.0,513.0
525.0,504.0,521.0,502.0,499.0
534.0,512.0,534.0,527.0,493.0
542.0,514.0,542.0,540.0,485.0
536.0,512.0,545.0,552.0,490.0
535.0,513.0,544.0,558.0,495.0
523.0,507.0,535.0,556.0,501.0
516.0,505.0,527.0,552.0,513.0
498.0,496.0,507.0,534.0,528.0
493.0,497.0,495.0,520.0,532.0
491.0,500.0,489.0,506.0,532.0
492.0,504.0,487.0,495.0,531.0
495.0,504.0,486.0,486.0,530.0
500.0,507.0,491.0,480.0,529.0
504.0,506.0,496.0,480.0,524.0
507.0,506.0,498.0,481.0,520.0
513.0,505.0,505.0,481.0,515.0
519.0,507.0,519.0,491.0,505.0
525.0,509.0,526.0,507.0,501.0
532.0,510.0,536.0,527.0,493.0
538.0,514.0,544.0,544.0,490.0
535.0,513.0,544.0,553.0,493.0
528.0,515.0,539.0,562.0,498.0
521.0,508.0,532.0,556.0,505.0
508.0,501.0,518.0,545.0,519.0
498.0,499.0,503.0,530.0,529.0
493.0,502.0,495.0,517.0,533.0
491.0,507.0,489.0,504.0,534.0
494.0,506.0,487.0,492.0,533.0
500.0,506.0,488.0,485.0,529.0
501.0,507.0,493.0,482.0,521.0
501.0,508.0,496.0,478.0,522.0
508.0,508.0,501.0,477.0,520.0
515.0,507.0,508.0,484.0,515.0
523.0,508.0,521.0,499.0,505.0
529.0,509.0,531.0,516.0,497.0
538.0,514.0,540.0,534.0,491.0
541.0,516.0,547.0,550.0,490.0
534.0,511.0,544.0,557.0,494.0
524.0,509.0,539.0,557.0,500.0
518.0,509.0,529.0,555.0,503.0
502.0,499.0,511.0,540.0,522.0
491.0,501.0,497.0,525.0,533.0
491.0,504.0,491.0,512.0,533.0
490.0,505.0,489.0,503.0,533.0
489.0,507.0,489.0,492.0,533.0
501.0,508.0,490.0,484.0,528.0
509.0,509.0,494.0,481.0,523.0
507.0,506.0,497.0,475.0,526.0
514.0,507.0,503.0,479.0,519.0
522.0,507.0,515.0,491.0,511.0
523.0,505.0,521.0,501.0,504.0
532.0,511.0,534.0,526.0,495.0
537.0,513.0,544.0,539.0,486.0
535.0,512.0,547.0,550.0,491.0
531.0,513.0,546.0,559.0,497.0
522.0,507.0,536.0,555.0,504.0
515.0,505.0,527.0,552.0,510.0
502.0,497.0,509.0,536.0,523.0
494.0,497.0,496.0,520.0,532.0
490.0,501.0,490.0,506.0,535.0
497.0,506.0,488.0,497.0,531.0
497.0,504.0,487.0,485.0,530.0
499.0,504.0,490.0,480.0,526.0
509.0,506.0,496.0,477.0,521.0
509.0,505.0,499.0,477.0,520.0
514.0,504.0,506.0,484.0,514.0
520.0,506.0,518.0,493.0,503.0
529.0,509.0,527.0,510.0,498.0
536.0,512.0,538.0,529.0,489.0
538.0,512.0,545.0,542.0,492.0
535.0,514.0,543.0,556.0,493.0
527.0,511.0,542.0,555.0,496.0
519.0,505.0,534.0,556.0,507.0
507.0,497.0,516.0,545.0,522.0
500.0,498.0,504.0,534.0,529.0
493.0,500.0,495.0,515.0,533.0
490.0,502.0,489.0,503.0,533.0
492.0,504.0,486.0,491.0,532.0
494.0,503.0,487.0,483.0,530.0
502.0,508.0,494.0,481.0,523.0
506.0,506.0,496.0,478.0,521.0
510.0,504.0,501.0,475.0,516.0
517.0,506.0,514.0,485.0,510.0
524.0,511.0,523.0,500.0,503.0
532.0,513.0,534.0,517.0,497.0
537.0,514.0,543.0,534.0,489.0
535.0,514.0,547.0,547.0,491.0
529.0,511.0,543.0,557.0,494.0
523.0,508.0,538.0,556.0,501.0
516.0,506.0,535.0,553.0,506.0
501.0,497.0,512.0,538.0,523.0
492.0,498.0,499.0,522.0,534.0
490.0,501.0,493.0,512.0,533.0
492.0,505.0,489.0,500.0,533.0
492.0,506.0,486.0,487.0,533.0
497.0,505.0,489.0,482.0,528.0
502.0,508.0,495.0,484.0,522.0
506.0,507.0,502.0,476.0,521.0
509.0,506.0,504.0,478.0,515.0
515.0,506.0,513.0,489.0,509.0
523.0,507.0,524.0,500.0,501.0
529.0,512.0,535.0,521.0,494.0
536.0,515.0,544.0,540.0,486.0
534.0,513.0,546.0,552.0,489.0
533.0,514.0,545.0,560.0,490.0
519.0,507.0,535.0,556.0,501.0
516.0,508.0,532.0,555.0,513.0
501.0,500.0,509.0,536.0,525.0
493.0,500.0,498.0,521.0,532.0
489.0,500.0,490.0,512.0,533.0
495.0,505.0,489.0,497.0,530.0
497.0,506.0,488.0,485.0,531.0
498.0,508.0,489.0,480.0,530.0
503.0,508.0,495.0,478.0,524.0
508.0,506.0,500.0,476.0,520.0
514.0,506.0,506.0,480.0,512.0
520.0,509.0,517.0,495.0,503.0
526.0,510.0,527.0,508.0,499.0
533.0,512.0,538.0,528.0,492.0
535.0,515.0,545.0,543.0,490.0
531.0,514.0,546.0,555.0,492.0
527.0,511.0,541.0,561.0,496.0
525.0,509.0,534.0,557.0,503.0
508.0,502.0,519.0,546.0,518.0
496.0,500.0,505.0,531.0,529.0
488.0,500.0,494.0,514.0,534.0
494.0,503.0,490.0,503.0,532.0
497.0,507.0,489.0,493.0,532.0
499.0,507.0,488.0,486.0,530.0
503.0,508.0,494.0,481.0,524.0
507.0,507.0,497.0,478.0,521.0
510.0,510.0,503.0,480.0,516.0
513.0,505.0,509.0,486.0,510.0
522.0,508.0,519.0,499.0,502.0
528.0,510.0,530.0,515.0,495.0
535.0,514.0,542.0,533.0,490.0
535.0,513.0,546.0,548.0,492.0
530.0,511.0,543.0,555.0,493.0
525.0,510.0,537.0,558.0,501.0
518.0,507.0,532.0,554.0,506.0
500.0,499.0,512.0,539.0,521.0
492.0,503.0,498.0,525.0,531.0
493.0,502.0,493.0,513.0,533.0
495.0,505.0,490.0,502.0,532.0
497.0,506.0,488.0,495.0,530.0
501.0,506.0,490.0,483.0,526.0
506.0,507.0,494.0,480.0,523.0
505.0,505.0,498.0,478.0,520.0
515.0,507.0,504.0,485.0,514.0
515.0,504.0,513.0,488.0,507.0
523.0,509.0,522.0,503.0,502.0
531.0,511.0,533.0,520.0,493.0
536.0,515.0,542.0,538.0,489.0
534.0,512.0,546.0,552.0,490.0
527.0,512.0,543.0,557.0,493.0
518.0,509.0,536.0,556.0,502.0
509.0,504.0,526.0,552.0,509.0
496.0,497.0,508.0,536.0,524.0
497.0,499.0,496.0,521.0,534.0
493.0,501.0,488.0,507.0,534.0
492.0,501.0,486.0,495.0,532.0
499.0,504.0,486.0,486.0,528.0
501.0,505.0,490.0,482.0,525.0
501.0,505.0,493.0,479.0,519.0
502.0,505.0,495.0,478.0,518.0
515.0,505.0,505.0,486.0,517.0
521.0,506.0,516.0,495.0,505.0
526.0,508.0,526.0,509.0,499.0
538.0,513.0,538.0,529.0,491.0
543.0,515.0,549.0,546.0,487.0
535.0,512.0,544.0,555.0,489.0
529.0,510.0,541.0,558.0,496.0
516.0,504.0,533.0,557.0,499.0
503.0,499.0,518.0,547.0,515.0
500.0,496.0,504.0,532.0,522.0
487.0,498.0,492.0,516.0,530.0
490.0,502.0,485.0,501.0,538.0
505.0,505.0,488.0,487.0,535.0
505.0,506.0,486.0,482.0,532.0
506.0,508.0,492.0,481.0,525.0
506.0,506.0,495.0,478.0,522.0
509.0,509.0,501.0,478.0,515.0
516.0,507.0,510.0,487.0,511.0
521.0,508.0,521.0,500.0,506.0
525.0,511.0,531.0,517.0,499.0
527.0,512.0,538.0,533.0,492.0
529.0,516.0,545.0,549.0,491.0
531.0,514.0,543.0,556.0,496.0
529.0,508.0,537.0,556.0,500.0
524.0,509.0,532.0,557.0,506.0
504.0,500.0,513.0,541.0,523.0
492.0,498.0,500.0,526.0,532.0
503.0,504.0,491.0,515.0,532.0
509.0,504.0,489.0,503.0,529.0
504.0,505.0,487.0,489.0,528.0
505.0,508.0,490.0,484.0,527.0
508.0,508.0,494.0,481.0,522.0
510.0,506.0,497.0,478.0,520.0
516.0,506.0,504.0,481.0,518.0
516.0,507.0,518.0,491.0,510.0
524.0,507.0,521.0,502.0,505.0
534.0,512.0,535.0,522.0,499.0
536.0,514.0,545.0,540.0,488.0
536.0,514.0,546.0,552.0,493.0
530.0,511.0,543.0,558.0,497.0
524.0,509.0,536.0,559.0,504.0
516.0,505.0,527.0,553.0,510.0
502.0,500.0,508.0,536.0,526.0
494.0,499.0,496.0,521.0,533.0
496.0,502.0,491.0,507.0,534.0
495.0,505.0,488.0,503.0,533.0
497.0,506.0,488.0,488.0,531.0
501.0,507.0,490.0,483.0,528.0
506.0,508.0,495.0,480.0,523.0
508.0,506.0,500.0,477.0,524.0
511.0,505.0,505.0,481.0,514.0
520.0,506.0,518.0,495.0,505.0
526.0,509.0,526.0,510.0,500.0
528.0,512.0,537.0,528.0,492.0
533.0,514.0,547.0,546.0,488.0
532.0,513.0,549.0,553.0,491.0
526.0,515.0,540.0,560.0,497.0
517.0,508.0,534.0,557.0,503.0
505.0,499.0,517.0,543.0,520.0
495.0,497.0,503.0,530.0,529.0
489.0,500.0,494.0,520.0,533.0
487.0,503.0,492.0,503.0,536.0
491.0,504.0,488.0,494.0,533.0
504.0,508.0,489.0,486.0,529.0
508.0,510.0,495.0,484.0,524.0
510.0,509.0,497.0,484.0,520.0
512.0,508.0,502.0,478.0,520.0
515.0,507.0,509.0,484.0,514.0
525.0,507.0,521.0,500.0,505.0
531.0,512.0,532.0,518.0,498.0
534.0,513.0,542.0,532.0,488.0
541.0,514.0,548.0,549.0,488.0
531.0,511.0,543.0,558.0,495.0
523.0,508.0,538.0,557.0,500.0
517.0,506.0,532.0,555.0,510.0
505.0,499.0,516.0,542.0,523.0
490.0,498.0,500.0,524.0,532.0
493.0,501.0,496.0,513.0,533.0
496.0,503.0,488.0,501.0,533.0
497.0,505.0,487.0,494.0,531.0
498.0,505.0,489.0,483.0,528.0
500.0,507.0,492.0,479.0,521.0
504.0,505.0,496.0,477.0,518.0
508.0,508.0,503.0,479.0,514.0
517.0,506.0,513.0,490.0,506.0
528.0,511.0,522.0,504.0,501.0
532.0,513.0,536.0,524.0,492.0
532.0,513.0,544.0,540.0,489.0
531.0,511.0,546.0,551.0,494.0
522.0,506.0,540.0,557.0,494.0
520.0,506.0,535.0,555.0,507.0
506.0,509.0,525.0,550.0,518.0
501.0,517.0,487.0,512.0,521.0
507.0,519.0,484.0,509.0,518.0
506.0,518.0,485.0,506.0,513.0
506.0,509.0,484.0,497.0,508.0
509.0,509.0,491.0,499.0,507.0
513.0,508.0,501.0,499.0,510.0
518.0,503.0,512.0,503.0,506.0
524.0,504.0,525.0,510.0,501.0
531.0,504.0,539.0,520.0,497.0
533.0,504.0,551.0,526.0,498.0
530.0,502.0,553.0,532.0,501.0
522.0,500.0,546.0,529.0,516.0
516.0,501.0,541.0,528.0,522.0
503.0,495.0,523.0,520.0,532.0
497.0,502.0,509.0,518.0,533.0
502.0,509.0,501.0,515.0,520.0
501.0,514.0,491.0,513.0,519.0
501.0,515.0,486.0,512.0,516.0
503.0,517.0,485.0,506.0,517.0
503.0,512.0,483.0,499.0,512.0
503.0,508.0,484.0,493.0,512.0
512.0,509.0,494.0,495.0,507.0
513.0,506.0,507.0,502.0,505.0
519.0,502.0,517.0,502.0,501.0
531.0,504.0,529.0,516.0,497.0
533.0,503.0,544.0,523.0,495.0
530.0,503.0,551.0,529.0,493.0
528.0,502.0,551.0,533.0,502.0
520.0,499.0,543.0,530.0,517.0
510.0,499.0,538.0,530.0,522.0
509.0,500.0,520.0,522.0,530.0
501.0,508.0,505.0,517.0,535.0
498.0,509.0,495.0,514.0,528.0
500.0,513.0,487.0,507.0,520.0
500.0,512.0,483.0,502.0,521.0
503.0,516.0,485.0,502.0,516.0
512.0,515.0,485.0,498.0,506.0
512.0,510.0,490.0,500.0,504.0
514.0,508.0,494.0,494.0,500.0
518.0,503.0,512.0,501.0,502.0
520.0,501.0,520.0,507.0,502.0
527.0,502.0,533.0,517.0,497.0
530.0,502.0,551.0,525.0,498.0
531.0,501.0,551.0,531.0,497.0
529.0,500.0,550.0,533.0,503.0
527.0,499.0,543.0,529.0,513.0
513.0,499.0,531.0,523.0,520.0
502.0,500.0,515.0,520.0,527.0
496.0,506.0,499.0,515.0,526.0
496.0,510.0,491.0,512.0,524.0
496.0,514.0,486.0,510.0,520.0
498.0,515.0,483.0,505.0,514.0
508.0,520.0,485.0,507.0,510.0
505.0,509.0,485.0,499.0,509.0
510.0,509.0,490.0,497.0,507.0
515.0,506.0,499.0,497.0,508.0
522.0,503.0,513.0,503.0,502.0
530.0,503.0,525.0,512.0,499.0
532.0,501.0,538.0,517.0,498.0
533.0,502.0,550.0,526.0,500.0
528.0,501.0,550.0,529.0,502.0
525.0,500.0,550.0,526.0,513.0
515.0,502.0,542.0,528.0,520.0
498.0,498.0,526.0,520.0,531.0
496.0,503.0,510.0,517.0,530.0
505.0,508.0,498.0,514.0,526.0
504.0,510.0,490.0,509.0,520.0
506.0,513.0,482.0,509.0,518.0
509.0,517.0,484.0,509.0,514.0
515.0,518.0,485.0,505.0,512.0
513.0,508.0,488.0,498.0,507.0
513.0,508.0,493.0,502.0,505.0
510.0,505.0,503.0,502.0,504.0
523.0,505.0,522.0,508.0,502.0
524.0,506.0,532.0,516.0,502.0
528.0,505.0,544.0,522.0,500.0
527.0,501.0,549.0,524.0,502.0
524.0,501.0,550.0,525.0,503.0
517.0,497.0,541.0,522.0,511.0
515.0,499.0,538.0,523.0,514.0
500.0,495.0,518.0,515.0,523.0
505.0,509.0,503.0,514.0,526.0
504.0,511.0,496.0,516.0,524.0
501.0,513.0,488.0,514.0,526.0
501.0,515.0,483.0,511.0,522.0
506.0,516.0,485.0,510.0,515.0
504.0,511.0,487.0,505.0,511.0
507.0,507.0,488.0,502.0,511.0
519.0,506.0,497.0,503.0,510.0
521.0,503.0,507.0,503.0,502.0
522.0,501.0,519.0,507.0,501.0
530.0,503.0,533.0,515.0,495.0
534.0,502.0,546.0,522.0,495.0
534.0,505.0,551.0,527.0,499.0
523.0,499.0,550.0,526.0,510.0
508.0,497.0,542.0,522.0,524.0
505.0,499.0,532.0,518.0,529.0
499.0,501.0,516.0,515.0,534.0
497.0,506.0,502.0,513.0,534.0
496.0,511.0,492.0,512.0,530.0
497.0,520.0,485.0,511.0,520.0
502.0,516.0,484.0,509.0,516.0
508.0,520.0,485.0,509.0,507.0
510.0,511.0,486.0,503.0,509.0
506.0,506.0,489.0,499.0,508.0
511.0,505.0,499.0,500.0,507.0
519.0,504.0,513.0,505.0,504.0
528.0,503.0,526.0,510.0,500.0
532.0,507.0,539.0,519.0,499.0
532.0,502.0,549.0,524.0,497.0
535.0,503.0,557.0,529.0,496.0
524.0,500.0,546.0,525.0,509.0
517.0,500.0,541.0,525.0,514.0
505.0,496.0,524.0,517.0,526.0
500.0,501.0,509.0,516.0,528.0
496.0,508.0,497.0,514.0,527.0
497.0,513.0,489.0,512.0,525.0
502.0,516.0,487.0,510.0,518.0
502.0,516.0,485.0,510.0,515.0
504.0,513.0,485.0,505.0,512.0
506.0,508.0,484.0,502.0,508.0
514.0,509.0,498.0,500.0,509.0
512.0,503.0,503.0,501.0,505.0
517.0,501.0,516.0,506.0,505.0
525.0,504.0,531.0,515.0,503.0
529.0,504.0,542.0,521.0,502.0
529.0,500.0,548.0,528.0,502.0
532.0,502.0,552.0,531.0,502.0
521.0,497.0,543.0,522.0,508.0
518.0,498.0,537.0,524.0,510.0
506.0,497.0,518.0,514.0,520.0
496.0,504.0,504.0,513.0,530.0
492.0,510.0,495.0,512.0,528.0
494.0,514.0,488.0,511.0,525.0
497.0,516.0,484.0,508.0,524.0
510.0,518.0,487.0,509.0,518.0
507.0,512.0,486.0,503.0,519.0
511.0,510.0,488.0,501.0,511.0
516.0,508.0,496.0,500.0,504.0
520.0,506.0,508.0,505.0,501.0
522.0,504.0,519.0,507.0,505.0
534.0,508.0,534.0,518.0,499.0
535.0,502.0,546.0,524.0,493.0
537.0,502.0,552.0,526.0,502.0
533.0,505.0,548.0,527.0,505.0
516.0,496.0,539.0,521.0,514.0
508.0,495.0,529.0,518.0,519.0
497.0,498.0,514.0,515.0,528.0
495.0,505.0,504.0,514.0,524.0
492.0,511.0,492.0,512.0,525.0
499.0,515.0,486.0,512.0,523.0
504.0,515.0,482.0,510.0,515.0
506.0,516.0,483.0,509.0,508.0
504.0,510.0,484.0,504.0,511.0
506.0,509.0,489.0,501.0,513.0
504.0,504.0,498.0,502.0,517.0
510.0,505.0,509.0,504.0,507.0
535.0,504.0,523.0,512.0,496.0
535.0,504.0,537.0,519.0,498.0
535.0,505.0,550.0,524.0,500.0
531.0,503.0,555.0,525.0,502.0
523.0,500.0,548.0,522.0,515.0
519.0,499.0,543.0,522.0,514.0
510.0,496.0,525.0,517.0,525.0
499.0,501.0,509.0,513.0,528.0
498.0,509.0,500.0,515.0,525.0
498.0,514.0,490.0,514.0,525.0
499.0,515.0,484.0,512.0,524.0
501.0,516.0,484.0,516.0,514.0
505.0,515.0,486.0,511.0,511.0
505.0,514.0,485.0,504.0,511.0
509.0,508.0,496.0,508.0,506.0
511.0,505.0,503.0,505.0,511.0
517.0,502.0,515.0,509.0,504.0
533.0,504.0,530.0,515.0,501.0
535.0,504.0,543.0,520.0,499.0
531.0,500.0,549.0,525.0,502.0
528.0,500.0,551.0,527.0,508.0
519.0,499.0,543.0,521.0,520.0
508.0,500.0,538.0,519.0,523.0
506.0,500.0,519.0,512.0,528.0
504.0,503.0,504.0,511.0,528.0
502.0,508.0,493.0,512.0,524.0
502.0,511.0,486.0,513.0,518.0
506.0,514.0,482.0,512.0,515.0
514.0,518.0,484.0,516.0,510.0
510.0,514.0,485.0,510.0,513.0
504.0,509.0,488.0,505.0,516.0
512.0,508.0,498.0,508.0,513.0
518.0,504.0,504.0,506.0,506.0
524.0,504.0,519.0,511.0,504.0
530.0,506.0,533.0,521.0,500.0
535.0,506.0,543.0,521.0,489.0
529.0,504.0,552.0,524.0,495.0
524.0,502.0,548.0,520.0,501.0
516.0,498.0,539.0,516.0,513.0
522.0,500.0,533.0,515.0,527.0
509.0,504.0,514.0,513.0,532.0
501.0,505.0,500.0,511.0,529.0
498.0,509.0,490.0,511.0,525.0
495.0,514.0,485.0,514.0,521.0
496.0,516.0,483.0,514.0,520.0
503.0,518.0,488.0,513.0,520.0
502.0,511.0,487.0,508.0,516.0
504.0,509.0,489.0,506.0,511.0
511.0,506.0,498.0,506.0,509.0
522.0,504.0,511.0,508.0,509.0
527.0,503.0,522.0,508.0,503.0
530.0,504.0,536.0,517.0,501.0
534.0,504.0,549.0,521.0,503.0
532.0,503.0,551.0,522.0,504.0
524.0,501.0,546.0,517.0,513.0
518.0,499.0,538.0,516.0,518.0
507.0,499.0,525.0,511.0,525.0
498.0,502.0,509.0,509.0,527.0
498.0,508.0,498.0,512.0,525.0
497.0,513.0,489.0,514.0,522.0
500.0,516.0,484.0,514.0,519.0
503.0,516.0,484.0,515.0,514.0
505.0,519.0,484.0,514.0,509.0
506.0,508.0,485.0,509.0,512.0
509.0,505.0,490.0,507.0,507.0
512.0,508.0,504.0,509.0,510.0
516.0,501.0,514.0,508.0,504.0
525.0,504.0,527.0,512.0,501.0
532.0,505.0,544.0,519.0,498.0
535.0,504.0,550.0,522.0,500.0
530.0,501.0,551.0,518.0,502.0
521.0,498.0,543.0,516.0,514.0
519.0,501.0,542.0,515.0,523.0
503.0,500.0,525.0,509.0,529.0
496.0,503.0,505.0,510.0,528.0
493.0,510.0,494.0,512.0,525.0
497.0,514.0,488.0,514.0,523.0
498.0,513.0,483.0,513.0,522.0
503.0,514.0,485.0,515.0,517.0
504.0,514.0,486.0,511.0,518.0
504.0,509.0,487.0,508.0,519.0
510.0,508.0,497.0,509.0,511.0
515.0,508.0,505.0,508.0,503.0
519.0,502.0,519.0,509.0,500.0
528.0,503.0,533.0,515.0,491.0
534.0,503.0,546.0,520.0,494.0
530.0,503.0,552.0,520.0,502.0
527.0,503.0,550.0,520.0,509.0
519.0,498.0,543.0,513.0,514.0
509.0,498.0,534.0,511.0,518.0
499.0,500.0,515.0,509.0,526.0
496.0,505.0,503.0,510.0,529.0
498.0,512.0,494.0,513.0,526.0
491.0,515.0,486.0,515.0,524.0
490.0,515.0,483.0,515.0,522.0
503.0,516.0,482.0,514.0,515.0
504.0,511.0,484.0,510.0,515.0
501.0,509.0,490.0,510.0,512.0
514.0,505.0,498.0,509.0,502.0
529.0,506.0,512.0,511.0,500.0
528.0,508.0,523.0,513.0,499.0
539.0,504.0,536.0,520.0,492.0
540.0,504.0,549.0,521.0,494.0
532.0,503.0,551.0,521.0,497.0
523.0,504.0,546.0,516.0,514.0
519.0,500.0,538.0,512.0,516.0
509.0,501.0,523.0,508.0,528.0
499.0,506.0,513.0,506.0,530.0
499.0,505.0,498.0,509.0,528.0
498.0,510.0,488.0,513.0,524.0
497.0,514.0,484.0,516.0,520.0
502.0,514.0,482.0,515.0,514.0
507.0,515.0,485.0,515.0,514.0
505.0,509.0,486.0,509.0,515.0
509.0,511.0,494.0,511.0,512.0
517.0,503.0,504.0,509.0,509.0
523.0,504.0,515.0,511.0,507.0
528.0,504.0,529.0,515.0,499.0
532.0,505.0,542.0,517.0,499.0
530.0,502.0,549.0,517.0,498.0
526.0,506.0,549.0,521.0,504.0
519.0,499.0,544.0,514.0,513.0
515.0,501.0,539.0,514.0,516.0
505.0,502.0,520.0,508.0,527.0
499.0,502.0,504.0,508.0,530.0
503.0,507.0,493.0,510.0,527.0
499.0,511.0,487.0,514.0,522.0
499.0,511.0,482.0,515.0,520.0
504.0,516.0,484.0,517.0,514.0
507.0,513.0,485.0,512.0,512.0
504.0,508.0,487.0,510.0,512.0
517.0,509.0,497.0,512.0,508.0
518.0,504.0,509.0,511.0,497.0
520.0,503.0,518.0,512.0,498.0
525.0,503.0,531.0,513.0,502.0
531.0,502.0,544.0,517.0,502.0
529.0,500.0,545.0,516.0,504.0
533.0,505.0,549.0,520.0,509.0
524.0,500.0,542.0,511.0,517.0
517.0,501.0,535.0,511.0,521.0
504.0,500.0,520.0,507.0,529.0
499.0,504.0,502.0,510.0,528.0
498.0,507.0,492.0,514.0,525.0
500.0,514.0,486.0,516.0,523.0
505.0,516.0,484.0,517.0,522.0
506.0,515.0,486.0,519.0,512.0
505.0,509.0,484.0,512.0,511.0
511.0,507.0,490.0,512.0,510.0
517.0,504.0,500.0,511.0,510.0
522.0,507.0,510.0,511.0,503.0
523.0,503.0,522.0,511.0,498.0
530.0,503.0,536.0,516.0,498.0
533.0,503.0,547.0,516.0,501.0
525.0,504.0,555.0,517.0,499.0
521.0,501.0,547.0,514.0,511.0
515.0,497.0,540.0,513.0,514.0
507.0,497.0,526.0,506.0,520.0
495.0,500.0,509.0,506.0,527.0
503.0,508.0,500.0,512.0,525.0
506.0,513.0,491.0,518.0,526.0
504.0,515.0,487.0,517.0,526.0
501.0,515.0,483.0,518.0,525.0
506.0,519.0,486.0,520.0,514.0
505.0,509.0,485.0,513.0,514.0
511.0,510.0,492.0,513.0,507.0
516.0,502.0,501.0,511.0,506.0
519.0,502.0,512.0,514.0,502.0
528.0,505.0,527.0,514.0,498.0
533.0,504.0,541.0,517.0,495.0
538.0,503.0,553.0,516.0,498.0
531.0,504.0,552.0,519.0,500.0
520.0,500.0,544.0,512.0,511.0
513.0,500.0,538.0,511.0,515.0
502.0,496.0,524.0,505.0,527.0
491.0,502.0,507.0,509.0,529.0
498.0,509.0,497.0,514.0,524.0
504.0,512.0,490.0,520.0,520.0
504.0,513.0,484.0,522.0,519.0
511.0,516.0,485.0,522.0,515.0
509.0,511.0,485.0,516.0,516.0
506.0,507.0,485.0,510.0,518.0
516.0,508.0,497.0,511.0,512.0
516.0,503.0,506.0,511.0,504.0
520.0,501.0,515.0,510.0,500.0
529.0,501.0,529.0,513.0,498.0
534.0,504.0,546.0,518.0,496.0
533.0,501.0,550.0,517.0,495.0
526.0,500.0,549.0,516.0,505.0
520.0,501.0,540.0,510.0,512.0
517.0,498.0,535.0,512.0,514.0
498.0,497.0,517.0,507.0,522.0
491.0,502.0,500.0,508.0,531.0
497.0,511.0,494.0,515.0,530.0
508.0,515.0,488.0,519.0,521.0
502.0,515.0,484.0,519.0,519.0
507.0,513.0,484.0,516.0,513.0
512.0,510.0,487.0,515.0,511.0
511.0,509.0,489.0,513.0,511.0
515.0,506.0,499.0,512.0,508.0
518.0,501.0,509.0,510.0,503.0
520.0,502.0,522.0,513.0,500.0
523.0,502.0,534.0,516.0,497.0
526.0,502.0,547.0,517.0,504.0
528.0,504.0,552.0,518.0,505.0
522.0,501.0,547.0,514.0,514.0
513.0,499.0,536.0,509.0,523.0
511.0,497.0,525.0,507.0,529.0
509.0,498.0,506.0,507.0,528.0
503.0,507.0,499.0,512.0,530.0
497.0,514.0,491.0,515.0,531.0
499.0,517.0,485.0,517.0,522.0
505.0,515.0,484.0,518.0,519.0
510.0,516.0,487.0,517.0,511.0
507.0,512.0,487.0,514.0,506.0
513.0,511.0,493.0,513.0,502.0
517.0,506.0,503.0,513.0,501.0
519.0,504.0,515.0,512.0,500.0
530.0,504.0,529.0,515.0,499.0
530.0,506.0,542.0,518.0,497.0
531.0,503.0,549.0,516.0,499.0
529.0,502.0,550.0,516.0,503.0
521.0,498.0,545.0,513.0,513.0
517.0,499.0,540.0,512.0,517.0
505.0,499.0,523.0,506.0,529.0
497.0,502.0,506.0,507.0,536.0
498.0,507.0,496.0,511.0,527.0
500.0,510.0,486.0,513.0,519.0
499.0,512.0,483.0,517.0,516.0
498.0,520.0,484.0,520.0,511.0
500.0,516.0,485.0,517.0,510.0
500.0,512.0,487.0,513.0,513.0
503.0,510.0,497.0,511.0,507.0
509.0,504.0,506.0,510.0,507.0
513.0,501.0,517.0,510.0,505.0
521.0,504.0,531.0,515.0,501.0
537.0,504.0,545.0,519.0,498.0
538.0,503.0,550.0,519.0,503.0
532.0,501.0,548.0,513.0,508.0
521.0,498.0,542.0,510.0,521.0
515.0,498.0,535.0,513.0,523.0
502.0,497.0,516.0,506.0,530.0
498.0,504.0,503.0,508.0,532.0
500.0,508.0,492.0,513.0,525.0
503.0,514.0,487.0,517.0,519.0
502.0,515.0,487.0,519.0,516.0
507.0,517.0,486.0,523.0,513.0
506.0,511.0,487.0,515.0,516.0
506.0,509.0,490.0,512.0,515.0
512.0,506.0,498.0,510.0,511.0
517.0,503.0,511.0,511.0,507.0
522.0,503.0,522.0,513.0,502.0
527.0,504.0,533.0,516.0,493.0
535.0,507.0,545.0,520.0,496.0
531.0,503.0,551.0,518.0,505.0
523.0,502.0,548.0,513.0,521.0
515.0,500.0,541.0,512.0,525.0
509.0,500.0,528.0,510.0,527.0
498.0,501.0,516.0,507.0,524.0
502.0,506.0,500.0,510.0,519.0
499.0,509.0,488.0,513.0,520.0
497.0,511.0,483.0,516.0,524.0
504.0,517.0,482.0,522.0,517.0
509.0,515.0,486.0,523.0,512.0
506.0,509.0,485.0,513.0,514.0
509.0,508.0,491.0,514.0,506.0
514.0,506.0,502.0,511.0,502.0
520.0,504.0,515.0,512.0,497.0
525.0,505.0,532.0,514.0,497.0
532.0,505.0,541.0,517.0,498.0
530.0,502.0,545.0,515.0,506.0
528.0,504.0,555.0,516.0,507.0
518.0,500.0,544.0,512.0,512.0
517.0,500.0,539.0,510.0,517.0
507.0,499.0,524.0,505.0,529.0
496.0,503.0,507.0,508.0,534.0
506.0,509.0,497.0,513.0,528.0
504.0,514.0,489.0,517.0,524.0
501.0,516.0,483.0,519.0,523.0
508.0,519.0,489.0,521.0,514.0
512.0,515.0,491.0,518.0,512.0
506.0,508.0,487.0,513.0,515.0
510.0,507.0,495.0,512.0,508.0
517.0,505.0,505.0,512.0,505.0
521.0,504.0,518.0,513.0,504.0
527.0,505.0,533.0,518.0,500.0
536.0,505.0,544.0,517.0,497.0
533.0,504.0,548.0,514.0,504.0
525.0,502.0,547.0,513.0,506.0
517.0,499.0,541.0,509.0,515.0
513.0,501.0,535.0,508.0,519.0
499.0,498.0,519.0,507.0,528.0
494.0,502.0,501.0,506.0,530.0
495.0,509.0,492.0,513.0,527.0
501.0,516.0,486.0,518.0,524.0
501.0,517.0,488.0,521.0,519.0
504.0,518.0,486.0,519.0,518.0
505.0,513.0,486.0,516.0,514.0
504.0,509.0,489.0,515.0,516.0
511.0,506.0,496.0,509.0,511.0
529.0,506.0,510.0,511.0,506.0
528.0,502.0,521.0,514.0,504.0
532.0,507.0,534.0,515.0,500.0
531.0,504.0,547.0,517.0,497.0
531.0,503.0,551.0,518.0,501.0
525.0,501.0,546.0,514.0,510.0
513.0,499.0,539.0,511.0,518.0
511.0,500.0,528.0,510.0,524.0
505.0,501.0,513.0,509.0,529.0
500.0,505.0,499.0,512.0,533.0
498.0,510.0,488.0,515.0,531.0
498.0,515.0,484.0,516.0,528.0
503.0,517.0,483.0,517.0,521.0
504.0,516.0,486.0,517.0,516.0
505.0,510.0,485.0,511.0,512.0
509.0,512.0,491.0,514.0,505.0
506.0,503.0,499.0,510.0,503.0
513.0,504.0,515.0,509.0,504.0
523.0,504.0,527.0,514.0,499.0
535.0,502.0,538.0,517.0,492.0
530.0,501.0,547.0,517.0,498.0
530.0,502.0,550.0,518.0,504.0
522.0,498.0,543.0,514.0,506.0
508.0,497.0,536.0,509.0,515.0
503.0,497.0,519.0,504.0,530.0
507.0,503.0,505.0,506.0,532.0
506.0,509.0,495.0,510.0,529.0
504.0,514.0,488.0,514.0,524.0
506.0,515.0,483.0,515.0,520.0
507.0,517.0,485.0,519.0,514.0
509.0,515.0,486.0,517.0,512.0
508.0,508.0,486.0,509.0,515.0
510.0,508.0,495.0,511.0,511.0
513.0,503.0,504.0,509.0,512.0
517.0,501.0,516.0,507.0,510.0
524.0,504.0,528.0,514.0,505.0
530.0,506.0,542.0,519.0,500.0
529.0,502.0,548.0,518.0,501.0
523.0,500.0,548.0,516.0,502.0
516.0,497.0,541.0,511.0,510.0
517.0,499.0,535.0,513.0,517.0
502.0,498.0,514.0,506.0,525.0
499.0,504.0,502.0,509.0,528.0
497.0,509.0,492.0,512.0,526.0
500.0,514.0,487.0,517.0,520.0
503.0,515.0,483.0,514.0,513.0
508.0,518.0,485.0,519.0,506.0
507.0,512.0,486.0,515.0,512.0
507.0,507.0,487.0,511.0,508.0
513.0,505.0,496.0,509.0,508.0
521.0,506.0,507.0,511.0,503.0
525.0,501.0,518.0,510.0,500.0
533.0,503.0,534.0,519.0,496.0
535.0,504.0,546.0,519.0,499.0
531.0,501.0,549.0,518.0,503.0
525.0,501.0,548.0,521.0,507.0
514.0,498.0,540.0,513.0,521.0
506.0,497.0,528.0,509.0,532.0
499.0,501.0,512.0,512.0,538.0
503.0,511.0,500.0,513.0,531.0
498.0,512.0,492.0,515.0,529.0
497.0,516.0,487.0,520.0,521.0
503.0,517.0,485.0,517.0,513.0
511.0,515.0,486.0,520.0,510.0
510.0,508.0,484.0,513.0,514.0
509.0,509.0,491.0,512.0,508.0
513.0,507.0,504.0,510.0,505.0
519.0,500.0,510.0,511.0,499.0
527.0,503.0,525.0,515.0,497.0
531.0,502.0,538.0,518.0,494.0
532.0,506.0,548.0,520.0,500.0
528.0,504.0,551.0,519.0,502.0
520.0,499.0,543.0,515.0,512.0
514.0,499.0,537.0,514.0,519.0
503.0,498.0,521.0,508.0,529.0
499.0,502.0,508.0,510.0,531.0
499.0,506.0,496.0,514.0,525.0
492.0,510.0,487.0,516.0,520.0
494.0,513.0,483.0,516.0,521.0
497.0,515.0,484.0,519.0,513.0
499.0,512.0,485.0,516.0,510.0
499.0,509.0,486.0,512.0,513.0
504.0,508.0,498.0,513.0,510.0
513.0,505.0,505.0,511.0,506.0
523.0,504.0,518.0,513.0,506.0
538.0,505.0,532.0,517.0,502.0
530.0,504.0,542.0,516.0,501.0
529.0,499.0,548.0,514.0,502.0
527.0,508.0,551.0,517.0,509.0
523.0,504.0,541.0,512.0,515.0
519.0,501.0,536.0,512.0,519.0
507.0,500.0,517.0,506.0,530.0
503.0,506.0,504.0,509.0,531.0
502.0,512.0,495.0,513.0,527.0
503.0,515.0,487.0,521.0,524.0
501.0,514.0,483.0,516.0,519.0
503.0,521.0,485.0,518.0,514.0
506.0,514.0,487.0,520.0,514.0
508.0,507.0,486.0,511.0,515.0
508.0,504.0,496.0,508.0,511.0
513.0,503.0,509.0,509.0,508.0
524.0,503.0,521.0,512.0,503.0
538.0,504.0,534.0,516.0,496.0
538.0,503.0,546.0,520.0,498.0
538.0,503.0,551.0,518.0,500.0
525.0,501.0,547.0,514.0,509.0
517.0,502.0,539.0,511.0,524.0
510.0,497.0,528.0,509.0,527.0
501.0,499.0,515.0,507.0,530.0
495.0,508.0,499.0,510.0,529.0
496.0,510.0,492.0,519.0,525.0
497.0,515.0,489.0,517.0,521.0
498.0,517.0,485.0,517.0,519.0
501.0,515.0,485.0,518.0,517.0
502.0,509.0,485.0,512.0,513.0
511.0,508.0,490.0,509.0,508.0
521.0,507.0,501.0,513.0,511.0
522.0,504.0,513.0,512.0,515.0
525.0,503.0,524.0,513.0,504.0
531.0,504.0,539.0,517.0,508.0
534.0,505.0,551.0,519.0,509.0
530.0,503.0,551.0,518.0,510.0
522.0,499.0,542.0,512.0,513.0
518.0,498.0,538.0,513.0,520.0
506.0,496.0,522.0,506.0,524.0
500.0,501.0,508.0,508.0,524.0
498.0,506.0,497.0,511.0,527.0
497.0,512.0,488.0,515.0,523.0
499.0,512.0,484.0,516.0,518.0
504.0,514.0,484.0,518.0,512.0
506.0,518.0,487.0,516.0,510.0
507.0,506.0,486.0,511.0,516.0
512.0,506.0,493.0,515.0,509.0
517.0,505.0,505.0,510.0,511.0
519.0,502.0,516.0,510.0,507.0
526.0,502.0,530.0,513.0,505.0
535.0,504.0,546.0,518.0,503.0
530.0,501.0,549.0,517.0,503.0
526.0,500.0,550.0,518.0,501.0
520.0,498.0,542.0,512.0,508.0
515.0,500.0,539.0,514.0,514.0
501.0,498.0,517.0,508.0,527.0
500.0,502.0,507.0,511.0,528.0
496.0,507.0,493.0,512.0,525.0
504.0,514.0,490.0,516.0,525.0
497.0,517.0,484.0,516.0,519.0
506.0,514.0,486.0,522.0,518.0
509.0,513.0,487.0,515.0,520.0
505.0,510.0,485.0,508.0,518.0
513.0,510.0,496.0,508.0,512.0
519.0,504.0,509.0,510.0,509.0
523.0,504.0,520.0,511.0,497.0
527.0,501.0,533.0,514.0,494.0
529.0,503.0,549.0,520.0,491.0
527.0,506.0,551.0,521.0,489.0
521.0,503.0,548.0,516.0,504.0
514.0,496.0,538.0,509.0,520.0
511.0,496.0,529.0,508.0,519.0
497.0,500.0,513.0,506.0,535.0
492.0,506.0,501.0,510.0,532.0
493.0,511.0,491.0,513.0,527.0
497.0,513.0,486.0,516.0,522.0
494.0,513.0,479.0,515.0,520.0
501.0,516.0,486.0,517.0,513.0
512.0,512.0,486.0,512.0,513.0
510.0,509.0,492.0,511.0,512.0
510.0,503.0,498.0,508.0,508.0
518.0,502.0,512.0,511.0,500.0
524.0,502.0,526.0,514.0,499.0
528.0,507.0,537.0,517.0,499.0
527.0,503.0,547.0,516.0,499.0
530.0,506.0,553.0,520.0,503.0
524.0,502.0,546.0,515.0,512.0
513.0,501.0,536.0,510.0,518.0
503.0,495.0,520.0,505.0,528.0
498.0,502.0,511.0,507.0,527.0
499.0,508.0,498.0,512.0,526.0
499.0,513.0,490.0,516.0,521.0
500.0,515.0,485.0,516.0,517.0
507.0,517.0,485.0,518.0,513.0
511.0,517.0,491.0,518.0,513.0
506.0,510.0,491.0,513.0,515.0
508.0,507.0,495.0,513.0,511.0
514.0,505.0,504.0,509.0,510.0
518.0,501.0,514.0,509.0,504.0
525.0,501.0,529.0,513.0,501.0
531.0,501.0,542.0,518.0,494.0
534.0,503.0,551.0,519.0,498.0
529.0,503.0,551.0,519.0,501.0
519.0,499.0,542.0,513.0,511.0
517.0,501.0,536.0,511.0,513.0
507.0,500.0,522.0,510.0,524.0
500.0,503.0,505.0,508.0,531.0
498.0,509.0,498.0,510.0,529.0
500.0,514.0,489.0,518.0,525.0
501.0,518.0,482.0,515.0,519.0
508.0,516.0,486.0,519.0,515.0
505.0,514.0,488.0,516.0,519.0
500.0,508.0,488.0,509.0,517.0
504.0,505.0,496.0,508.0,512.0
513.0,503.0,508.0,509.0,515.0
522.0,502.0,519.0,510.0,506.0
528.0,504.0,534.0,516.0,498.0
530.0,503.0,546.0,515.0,494.0
539.0,507.0,552.0,519.0,499.0
529.0,502.0,548.0,517.0,507.0
513.0,498.0,540.0,516.0,514.0
510.0,497.0,531.0,508.0,520.0
502.0,500.0,515.0,510.0,525.0
500.0,505.0,500.0,510.0,524.0
501.0,511.0,493.0,514.0,523.0
498.0,513.0,486.0,517.0,517.0
504.0,513.0,481.0,515.0,512.0
508.0,516.0,486.0,517.0,509.0
507.0,513.0,487.0,514.0,510.0
508.0,508.0,490.0,511.0,508.0
516.0,505.0,502.0,511.0,507.0
521.0,503.0,511.0,508.0,504.0
521.0,505.0,524.0,512.0,507.0
526.0,505.0,537.0,516.0,504.0
525.0,503.0,547.0,517.0,505.0
531.0,501.0,550.0,519.0,505.0
535.0,504.0,548.0,517.0,511.0
519.0,500.0,539.0,513.0,517.0
505.0,497.0,523.0,509.0,527.0
494.0,501.0,513.0,509.0,532.0
501.0,508.0,497.0,512.0,529.0
505.0,512.0,489.0,514.0,521.0
509.0,515.0,483.0,515.0,515.0
505.0,517.0,485.0,517.0,508.0
512.0,515.0,487.0,517.0,506.0
510.0,509.0,487.0,511.0,514.0
511.0,507.0,491.0,509.0,512.0
521.0,505.0,508.0,510.0,510.0
523.0,502.0,515.0,510.0,506.0
527.0,508.0,530.0,514.0,504.0
533.0,505.0,543.0,518.0,499.0
532.0,502.0,550.0,517.0,497.0
530.0,501.0,550.0,518.0,501.0
519.0,498.0,543.0,513.0,511.0
510.0,501.0,539.0,514.0,515.0
503.0,499.0,521.0,510.0,522.0
498.0,502.0,503.0,508.0,525.0
498.0,509.0,497.0,511.0,528.0
497.0,511.0,487.0,514.0,528.0
500.0,514.0,483.0,517.0,524.0
505.0,514.0,484.0,518.0,515.0
503.0,516.0,486.0,515.0,511.0
504.0,509.0,488.0,511.0,511.0
510.0,507.0,501.0,515.0,504.0
515.0,504.0,507.0,509.0,494.0
521.0,502.0,519.0,512.0,493.0
529.0,503.0,533.0,516.0,491.0
534.0,503.0,546.0,517.0,495.0
534.0,503.0,551.0,518.0,502.0
526.0,500.0,549.0,516.0,510.0
519.0,498.0,540.0,512.0,521.0
513.0,499.0,533.0,510.0,522.0
499.0,498.0,513.0,506.0,533.0
490.0,503.0,500.0,508.0,532.0
491.0,510.0,492.0,514.0,532.0
496.0,513.0,486.0,517.0,522.0
498.0,510.0,480.0,514.0,516.0
514.0,514.0,484.0,518.0,511.0
519.0,511.0,488.0,513.0,510.0
514.0,508.0,490.0,515.0,512.0
513.0,503.0,498.0,509.0,506.0
519.0,503.0,512.0,510.0,503.0
525.0,504.0,523.0,512.0,501.0
530.0,504.0,537.0,513.0,497.0
534.0,503.0,551.0,516.0,501.0
533.0,502.0,551.0,517.0,502.0
525.0,500.0,545.0,513.0,510.0
518.0,496.0,536.0,509.0,517.0
505.0,495.0,523.0,505.0,527.0
501.0,501.0,509.0,508.0,531.0
499.0,508.0,499.0,512.0,531.0
500.0,513.0,491.0,518.0,524.0
502.0,514.0,484.0,519.0,523.0
507.0,518.0,482.0,519.0,519.0
507.0,511.0,485.0,516.0,511.0
505.0,509.0,486.0,512.0,514.0
511.0,513.0,493.0,512.0,510.0
512.0,504.0,503.0,506.0,505.0
519.0,504.0,516.0,512.0,503.0
526.0,504.0,530.0,515.0,500.0
536.0,505.0,541.0,518.0,496.0
529.0,503.0,547.0,514.0,499.0
532.0,502.0,551.0,517.0,505.0
531.0,500.0,547.0,512.0,514.0
517.0,502.0,536.0,512.0,519.0
507.0,499.0,520.0,508.0,530.0
499.0,503.0,508.0,514.0,531.0
495.0,507.0,493.0,513.0,523.0
499.0,512.0,486.0,516.0,521.0
501.0,513.0,482.0,516.0,518.0
502.0,517.0,485.0,519.0,516.0
500.0,513.0,486.0,517.0,518.0
499.0,507.0,488.0,512.0,516.0
508.0,507.0,496.0,510.0,513.0
507.0,503.0,506.0,509.0,513.0
517.0,502.0,517.0,514.0,496.0
530.0,503.0,532.0,516.0,492.0
537.0,504.0,545.0,517.0,491.0
533.0,503.0,551.0,517.0,496.0
531.0,503.0,550.0,516.0,505.0
522.0,501.0,540.0,510.0,514.0
515.0,499.0,531.0,508.0,522.0
513.0,500.0,517.0,503.0,528.0
507.0,505.0,500.0,509.0,530.0
501.0,509.0,490.0,513.0,525.0
498.0,512.0,485.0,517.0,515.0
497.0,515.0,483.0,517.0,513.0
503.0,516.0,486.0,519.0,506.0
500.0,510.0,486.0,513.0,509.0
497.0,509.0,491.0,513.0,511.0
497.0,504.0,497.0,508.0,507.0
503.0,505.0,513.0,510.0,505.0
510.0,503.0,524.0,514.0,503.0
519.0,505.0,538.0,518.0,501.0
542.0,505.0,546.0,516.0,497.0
539.0,506.0,552.0,518.0,507.0
536.0,501.0,546.0,514.0,507.0
522.0,499.0,539.0,511.0,517.0
514.0,498.0,525.0,508.0,528.0
509.0,501.0,510.0,507.0,528.0
501.0,506.0,501.0,511.0,525.0
500.0,509.0,488.0,513.0,520.0
501.0,513.0,482.0,516.0,518.0
502.0,515.0,484.0,518.0,516.0
513.0,516.0,487.0,521.0,512.0
509.0,512.0,489.0,512.0,522.0
512.0,509.0,494.0,511.0,514.0
517.0,504.0,503.0,510.0,507.0
521.0,504.0,516.0,513.0,508.0
528.0,507.0,531.0,516.0,505.0
535.0,504.0,544.0,516.0,498.0
532.0,502.0,551.0,513.0,498.0
532.0,503.0,551.0,523.0,504.0
526.0,501.0,545.0,514.0,509.0
517.0,501.0,537.0,512.0,528.0
506.0,499.0,521.0,509.0,537.0
505.0,507.0,506.0,506.0,538.0
501.0,513.0,496.0,512.0,535.0
499.0,513.0,490.0,517.0,523.0
500.0,512.0,482.0,518.0,510.0
506.0,514.0,485.0,521.0,494.0
509.0,513.0,487.0,519.0,499.0
505.0,508.0,489.0,514.0,512.0
513.0,506.0,494.0,509.0,514.0
524.0,506.0,507.0,511.0,512.0
521.0,504.0,516.0,509.0,508.0
530.0,502.0,531.0,514.0,497.0
531.0,503.0,547.0,519.0,493.0
530.0,503.0,550.0,517.0,499.0
524.0,502.0,549.0,514.0,503.0
515.0,498.0,540.0,510.0,512.0
507.0,498.0,532.0,509.0,518.0
495.0,498.0,514.0,506.0,528.0
498.0,506.0,502.0,510.0,529.0
499.0,510.0,492.0,514.0,525.0
499.0,513.0,488.0,518.0,521.0
503.0,517.0,483.0,519.0,519.0
514.0,520.0,485.0,521.0,514.0
513.0,511.0,483.0,515.0,510.0
512.0,508.0,489.0,514.0,509.0
522.0,506.0,499.0,514.0,505.0
522.0,501.0,512.0,509.0,504.0
525.0,503.0,522.0,513.0,499.0
535.0,504.0,538.0,516.0,493.0
534.0,503.0,547.0,517.0,493.0
529.0,501.0,549.0,517.0,494.0
527.0,502.0,548.0,516.0,506.0
519.0,502.0,539.0,509.0,522.0
504.0,497.0,524.0,504.0,539.0
497.0,501.0,509.0,506.0,534.0
497.0,507.0,497.0,509.0,531.0
497.0,513.0,489.0,515.0,527.0
499.0,514.0,483.0,517.0,520.0
505.0,514.0,482.0,517.0,516.0
505.0,514.0,484.0,518.0,515.0
505.0,509.0,486.0,514.0,516.0
510.0,509.0,492.0,514.0,513.0
512.0,502.0,501.0,511.0,507.0
522.0,503.0,515.0,513.0,509.0
529.0,508.0,528.0,515.0,502.0
531.0,505.0,542.0,517.0,501.0
529.0,501.0,548.0,516.0,500.0
526.0,506.0,549.0,516.0,508.0
520.0,500.0,543.0,516.0,510.0
515.0,500.0,538.0,509.0,516.0
499.0,497.0,520.0,506.0,525.0
493.0,502.0,504.0,507.0,527.0
496.0,508.0,495.0,514.0,523.0
499.0,513.0,488.0,519.0,520.0
494.0,513.0,482.0,519.0,519.0
503.0,516.0,483.0,520.0,512.0
507.0,515.0,486.0,519.0,510.0
506.0,510.0,487.0,514.0,515.0
508.0,506.0,496.0,514.0,505.0
512.0,504.0,507.0,512.0,508.0
520.0,502.0,517.0,511.0,503.0
538.0,505.0,533.0,517.0,505.0
539.0,505.0,544.0,517.0,506.0
537.0,509.0,550.0,519.0,508.0
532.0,503.0,548.0,513.0,512.0
526.0,499.0,537.0,508.0,516.0
518.0,500.0,532.0,507.0,520.0
505.0,500.0,515.0,505.0,529.0
499.0,505.0,499.0,509.0,528.0
502.0,509.0,492.0,511.0,526.0
502.0,514.0,487.0,521.0,517.0
497.0,515.0,484.0,521.0,514.0
502.0,516.0,487.0,522.0,514.0
501.0,512.0,487.0,518.0,513.0
499.0,507.0,488.0,513.0,511.0
507.0,507.0,498.0,513.0,510.0
520.0,504.0,511.0,513.0,504.0
523.0,503.0,520.0,513.0,500.0
525.0,504.0,536.0,516.0,499.0
543.0,505.0,549.0,514.0,506.0
534.0,505.0,551.0,517.0,506.0
524.0,502.0,547.0,514.0,507.0
515.0,499.0,537.0,510.0,514.0
505.0,498.0,524.0,506.0,524.0
501.0,501.0,510.0,508.0,530.0
499.0,507.0,499.0,511.0,526.0
501.0,515.0,490.0,516.0,523.0
500.0,515.0,486.0,518.0,519.0
503.0,513.0,482.0,519.0,513.0
503.0,514.0,485.0,519.0,510.0
498.0,509.0,485.0,511.0,513.0
501.0,508.0,491.0,513.0,510.0
502.0,505.0,502.0,514.0,513.0
514.0,504.0,514.0,509.0,506.0
528.0,505.0,528.0,513.0,504.0
537.0,505.0,541.0,516.0,500.0
538.0,503.0,548.0,516.0,505.0
540.0,504.0,551.0,515.0,499.0
534.0,504.0,541.0,510.0,507.0
521.0,500.0,536.0,510.0,517.0
507.0,496.0,519.0,506.0,526.0
501.0,501.0,504.0,506.0,528.0
499.0,506.0,494.0,510.0,524.0
499.0,513.0,489.0,520.0,521.0
498.0,518.0,484.0,518.0,521.0
504.0,517.0,485.0,517.0,514.0
507.0,515.0,488.0,518.0,515.0
505.0,506.0,486.0,511.0,516.0
510.0,507.0,496.0,511.0,507.0
518.0,505.0,507.0,511.0,500.0
520.0,501.0,516.0,511.0,497.0
527.0,501.0,531.0,520.0,495.0
533.0,503.0,544.0,517.0,492.0
532.0,501.0,548.0,516.0,491.0
531.0,501.0,550.0,517.0,498.0
521.0,499.0,542.0,512.0,510.0
513.0,501.0,535.0,511.0,520.0
501.0,500.0,518.0,507.0,530.0
498.0,506.0,502.0,510.0,531.0
499.0,511.0,493.0,514.0,527.0
502.0,514.0,489.0,518.0,520.0
501.0,514.0,487.0,518.0,521.0
504.0,515.0,485.0,521.0,519.0
505.0,509.0,485.0,514.0,516.0
506.0,505.0,488.0,511.0,516.0
510.0,505.0,497.0,511.0,510.0
516.0,504.0,510.0,512.0,506.0
533.0,504.0,522.0,514.0,503.0
534.0,504.0,535.0,515.0,496.0
532.0,501.0,546.0,516.0,493.0
531.0,504.0,554.0,517.0,499.0
526.0,501.0,546.0,514.0,501.0
518.0,497.0,537.0,508.0,512.0
509.0,497.0,524.0,505.0,522.0
503.0,504.0,508.0,506.0,526.0
497.0,506.0,495.0,510.0,527.0
500.0,510.0,489.0,514.0,525.0
500.0,513.0,487.0,516.0,520.0
498.0,514.0,483.0,519.0,515.0
502.0,514.0,485.0,520.0,512.0
501.0,508.0,485.0,518.0,514.0
513.0,508.0,491.0,514.0,508.0
518.0,506.0,502.0,514.0,502.0
522.0,504.0,515.0,515.0,503.0
525.0,503.0,525.0,514.0,498.0
531.0,504.0,541.0,517.0,498.0
528.0,503.0,547.0,517.0,498.0
523.0,500.0,551.0,517.0,505.0
516.0,499.0,542.0,509.0,507.0
508.0,497.0,535.0,508.0,520.0
495.0,497.0,523.0,509.0,531.0
493.0,501.0,505.0,507.0,531.0
494.0,506.0,494.0,512.0,531.0
499.0,514.0,488.0,518.0,526.0
514.0,516.0,485.0,520.0,519.0
512.0,519.0,487.0,523.0,515.0
513.0,516.0,488.0,519.0,512.0
514.0,513.0,486.0,515.0,514.0
511.0,504.0,493.0,511.0,507.0
519.0,504.0,503.0,510.0,506.0
523.0,503.0,518.0,511.0,507.0
523.0,502.0,528.0,513.0,504.0
523.0,503.0,547.0,516.0,504.0
530.0,504.0,549.0,518.0,504.0
532.0,502.0,548.0,518.0,505.0
522.0,500.0,541.0,511.0,516.0
515.0,500.0,535.0,511.0,518.0
503.0,498.0,515.0,509.0,523.0
497.0,504.0,502.0,511.0,529.0
498.0,512.0,493.0,515.0,527.0
500.0,515.0,486.0,518.0,522.0
499.0,515.0,483.0,518.0,519.0
506.0,517.0,486.0,520.0,513.0
511.0,514.0,487.0,518.0,509.0
511.0,511.0,489.0,515.0,509.0
510.0,504.0,496.0,510.0,506.0
521.0,506.0,513.0,512.0,505.0
523.0,504.0,525.0,514.0,503.0
528.0,503.0,537.0,519.0,499.0
538.0,503.0,546.0,517.0,494.0
530.0,502.0,551.0,516.0,496.0
525.0,500.0,546.0,512.0,505.0
516.0,498.0,538.0,508.0,515.0
509.0,497.0,525.0,505.0,521.0
501.0,500.0,511.0,507.0,524.0
495.0,507.0,500.0,511.0,528.0
495.0,511.0,491.0,516.0,526.0
498.0,516.0,485.0,519.0,524.0
498.0,513.0,482.0,519.0,518.0
506.0,514.0,486.0,519.0,513.0
503.0,509.0,486.0,517.0,512.0
505.0,510.0,491.0,512.0,511.0
511.0,505.0,501.0,511.0,512.0
519.0,502.0,512.0,510.0,506.0
521.0,503.0,526.0,515.0,508.0
525.0,504.0,542.0,517.0,502.0
534.0,503.0,547.0,517.0,500.0
534.0,503.0,551.0,516.0,504.0
523.0,499.0,548.0,509.0,512.0
515.0,497.0,535.0,507.0,515.0
508.0,496.0,519.0,503.0,525.0
495.0,501.0,507.0,508.0,524.0
495.0,509.0,498.0,515.0,517.0
498.0,513.0,491.0,522.0,508.0
504.0,513.0,486.0,518.0,500.0
507.0,516.0,488.0,520.0,496.0
504.0,512.0,486.0,519.0,495.0
501.0,504.0,484.0,511.0,492.0
510.0,506.0,494.0,512.0,489.0
518.0,505.0,505.0,512.0,511.0
518.0,502.0,517.0,517.0,506.0
530.0,505.0,532.0,516.0,500.0
538.0,503.0,544.0,516.0,503.0
536.0,501.0,552.0,516.0,510.0
526.0,501.0,549.0,515.0,508.0
513.0,497.0,537.0,508.0,516.0
511.0,499.0,534.0,510.0,518.0
498.0,499.0,518.0,507.0,530.0
499.0,504.0,507.0,511.0,536.0
501.0,507.0,491.0,512.0,535.0
497.0,512.0,485.0,516.0,525.0
490.0,513.0,481.0,517.0,527.0
506.0,515.0,483.0,520.0,516.0
508.0,514.0,488.0,516.0,514.0
506.0,511.0,488.0,511.0,516.0
509.0,506.0,496.0,510.0,510.0
527.0,503.0,510.0,512.0,508.0
543.0,503.0,525.0,512.0,507.0
537.0,507.0,536.0,520.0,510.0
535.0,504.0,547.0,519.0,502.0
534.0,501.0,549.0,517.0,506.0
534.0,506.0,549.0,516.0,513.0
523.0,501.0,542.0,508.0,517.0
513.0,500.0,532.0,507.0,524.0
503.0,502.0,512.0,507.0,530.0
497.0,508.0,498.0,510.0,530.0
502.0,511.0,491.0,514.0,522.0
501.0,513.0,485.0,519.0,518.0
504.0,514.0,481.0,517.0,511.0
505.0,515.0,484.0,520.0,510.0
509.0,513.0,487.0,514.0,510.0
511.0,510.0,493.0,513.0,511.0
513.0,503.0,499.0,507.0,505.0
520.0,504.0,514.0,512.0,504.0
521.0,501.0,527.0,520.0,501.0
530.0,505.0,544.0,514.0,501.0
535.0,504.0,548.0,518.0,500.0
533.0,502.0,550.0,519.0,498.0
527.0,500.0,547.0,518.0,508.0
511.0,499.0,539.0,511.0,521.0
506.0,503.0,522.0,509.0,527.0
493.0,501.0,506.0,506.0,529.0
492.0,504.0,493.0,510.0,527.0
493.0,511.0,486.0,514.0,526.0
500.0,514.0,483.0,516.0,524.0
506.0,516.0,487.0,518.0,518.0
514.0,513.0,486.0,517.0,513.0
515.0,509.0,484.0,513.0,508.0
511.0,510.0,496.0,514.0,507.0
514.0,504.0,504.0,511.0,506.0
522.0,502.0,516.0,511.0,503.0
529.0,502.0,529.0,516.0,494.0
531.0,504.0,547.0,519.0,497.0
533.0,503.0,549.0,516.0,506.0
529.0,502.0,549.0,519.0,506.0
521.0,498.0,541.0,511.0,518.0
514.0,499.0,541.0,511.0,522.0
502.0,498.0,517.0,513.0,527.0
497.0,501.0,501.0,508.0,531.0
497.0,508.0,492.0,513.0,527.0
500.0,513.0,487.0,517.0,522.0
498.0,519.0,482.0,518.0,520.0
502.0,516.0,489.0,518.0,512.0
505.0,514.0,488.0,519.0,510.0
505.0,508.0,487.0,510.0,511.0
510.0,505.0,493.0,509.0,501.0
516.0,503.0,508.0,510.0,502.0
517.0,500.0,519.0,514.0,506.0
523.0,505.0,533.0,514.0,502.0
532.0,505.0,545.0,515.0,499.0
522.0,500.0,549.0,518.0,504.0
525.0,501.0,549.0,521.0,515.0
523.0,501.0,540.0,510.0,515.0
515.0,499.0,527.0,505.0,527.0
501.0,499.0,512.0,506.0,533.0
498.0,506.0,500.0,510.0,530.0
499.0,512.0,489.0,513.0,528.0
501.0,514.0,484.0,515.0,522.0
503.0,515.0,482.0,518.0,519.0
504.0,514.0,483.0,515.0,508.0
505.0,511.0,485.0,513.0,510.0
509.0,510.0,491.0,511.0,512.0
510.0,503.0,498.0,507.0,509.0
518.0,507.0,512.0,509.0,505.0
526.0,506.0,527.0,513.0,503.0
532.0,504.0,538.0,516.0,491.0
533.0,501.0,548.0,520.0,493.0
528.0,501.0,551.0,523.0,492.0
517.0,497.0,545.0,522.0,510.0
522.0,500.0,536.0,506.0,509.0
508.0,499.0,523.0,502.0,530.0
498.0,501.0,507.0,505.0,542.0
496.0,506.0,501.0,511.0,536.0
498.0,514.0,490.0,516.0,534.0
503.0,515.0,485.0,518.0,519.0
506.0,515.0,484.0,517.0,508.0
510.0,512.0,485.0,515.0,507.0
508.0,509.0,486.0,512.0,504.0
510.0,510.0,494.0,515.0,499.0
513.0,503.0,502.0,511.0,492.0
520.0,501.0,517.0,507.0,487.0
529.0,502.0,528.0,514.0,486.0
537.0,504.0,544.0,518.0,500.0
535.0,503.0,549.0,515.0,505.0
537.0,504.0,552.0,519.0,507.0
525.0,501.0,544.0,512.0,531.0
517.0,501.0,538.0,513.0,530.0
504.0,499.0,519.0,509.0,523.0
488.0,506.0,501.0,512.0,524.0
487.0,507.0,497.0,516.0,516.0
486.0,509.0,486.0,517.0,514.0
497.0,515.0,482.0,514.0,509.0
501.0,517.0,486.0,520.0,507.0
501.0,512.0,487.0,521.0,511.0
504.0,505.0,485.0,510.0,512.0
519.0,506.0,496.0,511.0,500.0
524.0,505.0,509.0,513.0,495.0
529.0,506.0,519.0,514.0,491.0
538.0,504.0,537.0,517.0,483.0
540.0,502.0,547.0,519.0,484.0
534.0,502.0,550.0,520.0,511.0
525.0,501.0,549.0,515.0,528.0
523.0,502.0,541.0,512.0,525.0
514.0,500.0,530.0,509.0,531.0
501.0,500.0,513.0,510.0,535.0
496.0,503.0,499.0,510.0,529.0
501.0,509.0,489.0,517.0,528.0
495.0,514.0,483.0,521.0,525.0
492.0,515.0,485.0,516.0,525.0
488.0,515.0,487.0,519.0,521.0
494.0,514.0,485.0,514.0,518.0
493.0,507.0,489.0,511.0,516.0
494.0,504.0,499.0,513.0,522.0
526.0,504.0,511.0,509.0,516.0
527.0,502.0,523.0,512.0,502.0
509.0,502.0,538.0,519.0,513.0
494.0,500.0,548.0,521.0,521.0
499.0,505.0,555.0,530.0,512.0
493.0,502.0,550.0,509.0,508.0
487.0,501.0,538.0,511.0,524.0
495.0,501.0,526.0,510.0,551.0
523.0,512.0,513.0,506.0,532.0
540.0,509.0,499.0,515.0,517.0
542.0,513.0,488.0,513.0,516.0
528.0,515.0,482.0,512.0,526.0
520.0,517.0,482.0,516.0,521.0
513.0,513.0,485.0,513.0,506.0
509.0,509.0,486.0,512.0,512.0
521.0,511.0,495.0,514.0,507.0
527.0,503.0,506.0,515.0,508.0
532.0,501.0,512.0,507.0,501.0
544.0,506.0,529.0,509.0,489.0
549.0,506.0,541.0,517.0,479.0
542.0,504.0,550.0,519.0,493.0
536.0,502.0,550.0,516.0,496.0
523.0,500.0,543.0,514.0,508.0
509.0,498.0,534.0,514.0,510.0
499.0,498.0,518.0,506.0,517.0
507.0,503.0,503.0,510.0,528.0
504.0,512.0,492.0,512.0,527.0
504.0,514.0,488.0,518.0,517.0
501.0,512.0,483.0,518.0,512.0
504.0,519.0,486.0,521.0,503.0
510.0,515.0,489.0,516.0,504.0
506.0,509.0,488.0,510.0,514.0
504.0,506.0,496.0,507.0,521.0
506.0,505.0,510.0,507.0,524.0
513.0,504.0,522.0,511.0,516.0
522.0,506.0,536.0,517.0,512.0
529.0,506.0,547.0,517.0,504.0
531.0,506.0,554.0,521.0,514.0
525.0,505.0,552.0,519.0,525.0
521.0,503.0,545.0,516.0,526.0
506.0,501.0,534.0,514.0,527.0
492.0,499.0,513.0,509.0,517.0
498.0,506.0,503.0,516.0,519.0
492.0,511.0,493.0,518.0,534.0
504.0,516.0,491.0,513.0,516.0
519.0,516.0,482.0,513.0,491.0
519.0,513.0,486.0,521.0,501.0
522.0,511.0,485.0,507.0,522.0
520.0,509.0,490.0,506.0,550.0
523.0,504.0,502.0,506.0,531.0
528.0,511.0,514.0,510.0,528.0
518.0,509.0,533.0,520.0,516.0
537.0,509.0,545.0,526.0,500.0
532.0,502.0,549.0,522.0,513.0
524.0,502.0,550.0,518.0,541.0
518.0,502.0,549.0,524.0,481.0
498.0,497.0,539.0,517.0,489.0
483.0,494.0,523.0,511.0,520.0
482.0,505.0,513.0,514.0,519.0
490.0,510.0,502.0,524.0,472.0
506.0,512.0,488.0,517.0,494.0
527.0,512.0,482.0,514.0,474.0
540.0,512.0,477.0,517.0,449.0
528.0,512.0,478.0,510.0,523.0
522.0,508.0,487.0,512.0,525.0
526.0,512.0,495.0,510.0,546.0
521.0,508.0,508.0,508.0,536.0
503.0,503.0,517.0,507.0,510.0
515.0,504.0,531.0,516.0,507.0
521.0,503.0,545.0,525.0,515.0
518.0,501.0,552.0,537.0,520.0
531.0,504.0,553.0,524.0,521.0
522.0,500.0,544.0,517.0,526.0
502.0,503.0,541.0,511.0,535.0
485.0,502.0,525.0,515.0,523.0
483.0,507.0,511.0,516.0,519.0
486.0,505.0,491.0,508.0,492.0
514.0,506.0,478.0,508.0,482.0
520.0,503.0,473.0,512.0,503.0
517.0,510.0,476.0,512.0,486.0
527.0,515.0,488.0,510.0,466.0
519.0,509.0,488.0,512.0,488.0
507.0,505.0,494.0,510.0,489.0
515.0,502.0,504.0,501.0,494.0
524.0,497.0,515.0,508.0,511.0
541.0,499.0,529.0,515.0,500.0
542.0,503.0,545.0,518.0,507.0
548.0,509.0,552.0,520.0,507.0
530.0,496.0,552.0,532.0,511.0
515.0,499.0,541.0,519.0,519.0
512.0,501.0,532.0,510.0,521.0
493.0,499.0,519.0,515.0,525.0
480.0,506.0,506.0,519.0,531.0
479.0,515.0,496.0,512.0,546.0
488.0,522.0,490.0,515.0,536.0
485.0,524.0,489.0,519.0,526.0
473.0,520.0,491.0,525.0,528.0
470.0,505.0,485.0,519.0,544.0
508.0,511.0,486.0,492.0,535.0
531.0,508.0,502.0,512.0,519.0
520.0,502.0,512.0,518.0,516.0
546.0,504.0,521.0,513.0,494.0
539.0,510.0,540.0,524.0,487.0
527.0,507.0,560.0,529.0,517.0
530.0,511.0,558.0,527.0,526.0
516.0,506.0,553.0,526.0,564.0
507.0,499.0,545.0,537.0,529.0
523.0,497.0,526.0,520.0,527.0
517.0,501.0,509.0,516.0,546.0
483.0,509.0,498.0,520.0,597.0
462.0,512.0,484.0,489.0,619.0
432.0,508.0,480.0,507.0,541.0
404.0,505.0,476.0,499.0,506.0
429.0,507.0,481.0,506.0,437.0
467.0,507.0,481.0,498.0,432.0
532.0,510.0,488.0,487.0,473.0
548.0,507.0,497.0,482.0,543.0
541.0,512.0,515.0,489.0,642.0
559.0,508.0,536.0,521.0,624.0
568.0,515.0,551.0,526.0,546.0
548.0,507.0,550.0,512.0,531.0
522.0,501.0,552.0,543.0,515.0
459.0,499.0,549.0,554.0,501.0
450.0,494.0,539.0,546.0,511.0
442.0,490.0,517.0,533.0,564.0
444.0,496.0,502.0,524.0,552.0
464.0,505.0,494.0,515.0,573.0
497.0,517.0,492.0,498.0,621.0
476.0,503.0,474.0,502.0,534.0
505.0,519.0,482.0,491.0,540.0
554.0,532.0,500.0,528.0,454.0
540.0,508.0,487.0,518.0,487.0
497.0,489.0,482.0,531.0,396.0
469.0,482.0,492.0,525.0,333.0
513.0,505.0,518.0,509.0,418.0
546.0,510.0,542.0,531.0,530.0
524.0,503.0,548.0,532.0,577.0
479.0,485.0,542.0,515.0,541.0
469.0,486.0,538.0,505.0,459.0
458.0,485.0,534.0,521.0,454.0
468.0,497.0,538.0,534.0,438.0
488.0,504.0,525.0,541.0,517.0
499.0,501.0,502.0,527.0,501.0
531.0,507.0,482.0,506.0,454.0
542.0,519.0,489.0,509.0,507.0
580.0,522.0,479.0,502.0,540.0
587.0,514.0,475.0,465.0,512.0
553.0,507.0,476.0,482.0,535.0
521.0,501.0,480.0,497.0,556.0
505.0,507.0,491.0,464.0,575.0
484.0,509.0,516.0,491.0,624.0
540.0,513.0,530.0,511.0,715.0
515.0,497.0,534.0,526.0,651.0
527.0,494.0,546.0,547.0,455.0
520.0,492.0,544.0,533.0,288.0
491.0,493.0,552.0,541.0,303.0
524.0,505.0,551.0,525.0,375.0
532.0,503.0,537.0,531.0,406.0
473.0,502.0,519.0,531.0,503.0
466.0,508.0,492.0,520.0,587.0
466.0,497.0,471.0,512.0,476.0
519.0,512.0,467.0,503.0,573.0
555.0,512.0,468.0,474.0,653.0
541.0,516.0,477.0,478.0,630.0
537.0,510.0,469.0,461.0,616.0
508.0,504.0,479.0,479.0,489.0
530.0,509.0,500.0,492.0,509.0
549.0,513.0,524.0,510.0,535.0
549.0,509.0,538.0,519.0,540.0
555.0,506.0,548.0,530.0,503.0
560.0,494.0,550.0,529.0,483.0
534.0,484.0,543.0,525.0,400.0
481.0,486.0,546.0,536.0,464.0
398.0,496.0,555.0,548.0,492.0
377.0,491.0,532.0,538.0,532.0
342.0,480.0,492.0,520.0,529.0
395.0,499.0,483.0,515.0,650.0
528.0,518.0,486.0,534.0,589.0
582.0,540.0,496.0,529.0,628.0
567.0,524.0,483.0,529.0,518.0
513.0,498.0,468.0,519.0,337.0
463.0,485.0,466.0,505.0,336.0
445.0,485.0,474.0,465.0,599.0
453.0,486.0,482.0,462.0,684.0
417.0,479.0,495.0,483.0,553.0
396.0,476.0,515.0,494.0,496.0
469.0,492.0,547.0,518.0,450.0
481.0,510.0,573.0,541.0,448.0
462.0,510.0,572.0,537.0,580.0
494.0,512.0,564.0,524.0,690.0
434.0,494.0,540.0,498.0,735.0
447.0,498.0,524.0,513.0,687.0
407.0,488.0,494.0,527.0,402.0
430.0,489.0,478.0,533.0,312.0
385.0,492.0,463.0,507.0,511.0
455.0,499.0,453.0,483.0,475.0
473.0,515.0,463.0,509.0,459.0
496.0,519.0,476.0,490.0,395.0
517.0,514.0,472.0,477.0,432.0
603.0,528.0,499.0,488.0,433.0
605.0,534.0,533.0,508.0,460.0
529.0,509.0,536.0,508.0,485.0
457.0,482.0,535.0,527.0,520.0
399.0,460.0,542.0,525.0,609.0
462.0,477.0,564.0,533.0,614.0
586.0,484.0,560.0,507.0,630.0
709.0,501.0,571.0,519.0,470.0
583.0,492.0,556.0,545.0,531.0
394.0,488.0,525.0,521.0,606.0
314.0,507.0,517.0,513.0,471.0
263.0,516.0,502.0,537.0,534.0
227.0,511.0,481.0,527.0,601.0
299.0,502.0,438.0,486.0,574.0
386.0,500.0,427.0,465.0,442.0
456.0,509.0,441.0,475.0,452.0
488.0,512.0,445.0,447.0,592.0
621.0,513.0,482.0,521.0,543.0
563.0,489.0,499.0,517.0,454.0
639.0,514.0,534.0,518.0,363.0
630.0,503.0,558.0,499.0,389.0
539.0,485.0,570.0,500.0,406.0
496.0,486.0,585.0,512.0,491.0
541.0,487.0,577.0,521.0,599.0
518.0,503.0,587.0,541.0,588.0
453.0,511.0,577.0,557.0,602.0
387.0,495.0,533.0,537.0,578.0
455.0,510.0,494.0,501.0,488.0
551.0,523.0,466.0,473.0,487.0
607.0,531.0,461.0,496.0,423.0
499.0,511.0,447.0,507.0,473.0
477.0,511.0,448.0,509.0,457.0
492.0,496.0,449.0,500.0,453.0
528.0,516.0,474.0,501.0,450.0
444.0,515.0,504.0,512.0,463.0
463.0,516.0,519.0,495.0,616.0
450.0,485.0,518.0,482.0,819.0
539.0,477.0,528.0,486.0,553.0
686.0,500.0,564.0,508.0,481.0
636.0,490.0,569.0,533.0,492.0
584.0,489.0,566.0,513.0,408.0
615.0,504.0,559.0,525.0,414.0
633.0,504.0,536.0,533.0,431.0
568.0,514.0,517.0,536.0,510.0
518.0,515.0,501.0,527.0,551.0
509.0,533.0,483.0,523.0,562.0
497.0,524.0,476.0,532.0,554.0
485.0,524.0,471.0,493.0,674.0
502.0,522.0,473.0,512.0,538.0
402.0,500.0,464.0,498.0,425.0
424.0,493.0,473.0,474.0,395.0
546.0,497.0,490.0,461.0,658.0
595.0,497.0,514.0,510.0,440.0
743.0,503.0,531.0,508.0,281.0
686.0,512.0,561.0,513.0,469.0
529.0,500.0,569.0,527.0,700.0
504.0,494.0,560.0,521.0,659.0
433.0,488.0,544.0,516.0,561.0
430.0,497.0,544.0,541.0,399.0
429.0,492.0,515.0,530.0,464.0
454.0,511.0,510.0,544.0,549.0
534.0,537.0,503.0,523.0,617.0
604.0,528.0,491.0,506.0,607.0
678.0,530.0,475.0,507.0,604.0
514.0,502.0,461.0,490.0,618.0
433.0,503.0,472.0,503.0,443.0
453.0,495.0,471.0,490.0,377.0
552.0,501.0,490.0,516.0,429.0
575.0,505.0,513.0,527.0,357.0
568.0,523.0,541.0,514.0,557.0
533.0,517.0,562.0,533.0,537.0
487.0,488.0,549.0,542.0,458.0
478.0,488.0,537.0,507.0,425.0
450.0,499.0,538.0,494.0,569.0
512.0,514.0,543.0,516.0,497.0
408.0,498.0,526.0,521.0,520.0
354.0,484.0,508.0,525.0,576.0
350.0,492.0,496.0,519.0,566.0
509.0,513.0,489.0,533.0,442.0
589.0,535.0,493.0,526.0,428.0
571.0,537.0,493.0,512.0,399.0
566.0,505.0,467.0,488.0,499.0
641.0,510.0,479.0,494.0,519.0
650.0,524.0,496.0,491.0,619.0
548.0,512.0,501.0,476.0,677.0
387.0,476.0,498.0,494.0,706.0
276.0,460.0,500.0,517.0,562.0
320.0,468.0,517.0,509.0,415.0
424.0,486.0,541.0,546.0,342.0
584.0,494.0,547.0,536.0,418.0
614.0,521.0,553.0,524.0,433.0
488.0,529.0,553.0,550.0,578.0
440.0,508.0,522.0,548.0,559.0
392.0,509.0,507.0,532.0,490.0
580.0,538.0,502.0,521.0,517.0
434.0,516.0,492.0,521.0,571.0
429.0,484.0,457.0,505.0,466.0
481.0,506.0,485.0,509.0,556.0
457.0,504.0,484.0,472.0,594.0
527.0,510.0,483.0,470.0,473.0
511.0,498.0,486.0,489.0,327.0
567.0,496.0,500.0,492.0,496.0
629.0,526.0,533.0,499.0,446.0
632.0,526.0,546.0,523.0,479.0
663.0,530.0,564.0,529.0,567.0
630.0,515.0,556.0,530.0,572.0
523.0,514.0,551.0,533.0,552.0
482.0,485.0,525.0,532.0,520.0
627.0,491.0,511.0,536.0,532.0
583.0,498.0,507.0,545.0,611.0
487.0,500.0,500.0,558.0,514.0
431.0,490.0,476.0,509.0,450.0
412.0,495.0,469.0,484.0,707.0
432.0,511.0,483.0,513.0,712.0
625.0,519.0,485.0,507.0,471.0
678.0,526.0,487.0,479.0,335.0
513.0,502.0,485.0,489.0,393.0
456.0,504.0,490.0,472.0,452.0
481.0,501.0,512.0,505.0,455.0
510.0,506.0,530.0,526.0,381.0
538.0,520.0,545.0,520.0,503.0
550.0,535.0,566.0,545.0,557.0
462.0,515.0,558.0,544.0,562.0
565.0,504.0,543.0,533.0,518.0
526.0,498.0,537.0,535.0,568.0
508.0,496.0,520.0,535.0,572.0
265.0,466.0,485.0,527.0,473.0
226.0,486.0,476.0,506.0,448.0
271.0,520.0,493.0,534.0,473.0
685.0,521.0,481.0,508.0,505.0
769.0,525.0,478.0,490.0,527.0
576.0,505.0,483.0,509.0,500.0
602.0,500.0,486.0,522.0,516.0
623.0,512.0,498.0,498.0,487.0
575.0,497.0,498.0,480.0,614.0
385.0,465.0,486.0,493.0,638.0
461.0,500.0,528.0,545.0,381.0
646.0,531.0,552.0,507.0,501.0
626.0,521.0,557.0,532.0,405.0
518.0,498.0,546.0,528.0,454.0
533.0,512.0,550.0,525.0,560.0
607.0,525.0,550.0,544.0,590.0
618.0,519.0,525.0,525.0,520.0
557.0,505.0,496.0,516.0,577.0
534.0,507.0,490.0,514.0,550.0
483.0,504.0,478.0,509.0,413.0
471.0,509.0,474.0,509.0,493.0
459.0,503.0,478.0,512.0,525.0
516.0,514.0,484.0,505.0,518.0
556.0,494.0,467.0,482.0,317.0
603.0,495.0,479.0,498.0,365.0
601.0,507.0,500.0,490.0,435.0
501.0,507.0,519.0,492.0,645.0
437.0,509.0,539.0,522.0,616.0
454.0,506.0,549.0,549.0,561.0
434.0,501.0,557.0,566.0,512.0
482.0,505.0,556.0,543.0,609.0
467.0,506.0,551.0,529.0,435.0
484.0,502.0,533.0,526.0,426.0
541.0,497.0,521.0,531.0,523.0
566.0,507.0,499.0,521.0,508.0
478.0,495.0,474.0,497.0,556.0
471.0,495.0,466.0,500.0,506.0
437.0,501.0,466.0,500.0,501.0
433.0,511.0,478.0,503.0,481.0
403.0,496.0,478.0,492.0,532.0
553.0,506.0,489.0,502.0,515.0
581.0,519.0,501.0,489.0,573.0
630.0,520.0,524.0,504.0,600.0
596.0,525.0,540.0,521.0,595.0
380.0,508.0,550.0,544.0,509.0
332.0,478.0,532.0,523.0,355.0
555.0,503.0,548.0,536.0,381.0
677.0,515.0,548.0,527.0,459.0
666.0,512.0,541.0,535.0,466.0
573.0,500.0,526.0,533.0,475.0
553.0,506.0,510.0,535.0,499.0
563.0,508.0,495.0,523.0,517.0
514.0,505.0,481.0,515.0,551.0
554.0,521.0,482.0,503.0,577.0
562.0,514.0,475.0,493.0,581.0
603.0,514.0,480.0,496.0,548.0
536.0,495.0,477.0,486.0,539.0
478.0,484.0,478.0,475.0,512.0
416.0,479.0,490.0,482.0,558.0
455.0,488.0,507.0,511.0,487.0
452.0,499.0,531.0,521.0,509.0
568.0,527.0,563.0,546.0,578.0
497.0,515.0,560.0,560.0,551.0
517.0,513.0,547.0,541.0,382.0
576.0,518.0,552.0,550.0,352.0
529.0,503.0,534.0,543.0,435.0
517.0,501.0,512.0,517.0,561.0
515.0,505.0,503.0,511.0,558.0
473.0,496.0,497.0,561.0,547.0
492.0,509.0,482.0,508.0,596.0
492.0,516.0,488.0,486.0,518.0
496.0,499.0,479.0,511.0,391.0
453.0,500.0,478.0,526.0,428.0
369.0,491.0,474.0,481.0,584.0
478.0,502.0,487.0,463.0,592.0
692.0,538.0,523.0,495.0,555.0
661.0,527.0,525.0,497.0,608.0
464.0,487.0,522.0,494.0,561.0
501.0,500.0,539.0,525.0,446.0
532.0,507.0,550.0,534.0,444.0
498.0,501.0,541.0,531.0,462.0
511.0,505.0,541.0,537.0,447.0
570.0,510.0,536.0,542.0,518.0
471.0,501.0,517.0,529.0,532.0
293.0,479.0,490.0,524.0,590.0
267.0,495.0,479.0,521.0,628.0
395.0,499.0,473.0,520.0,457.0
596.0,520.0,482.0,510.0,453.0
666.0,518.0,476.0,479.0,569.0
623.0,509.0,473.0,466.0,566.0
552.0,501.0,480.0,489.0,502.0
573.0,508.0,500.0,505.0,497.0
592.0,510.0,518.0,522.0,444.0
451.0,497.0,522.0,512.0,471.0
470.0,515.0,547.0,528.0,402.0
524.0,522.0,560.0,533.0,544.0
624.0,524.0,560.0,538.0,595.0
611.0,513.0,553.0,535.0,660.0
491.0,490.0,529.0,529.0,590.0
515.0,495.0,518.0,533.0,528.0
484.0,503.0,509.0,534.0,407.0
514.0,506.0,499.0,530.0,404.0
548.0,508.0,483.0,504.0,536.0
546.0,503.0,477.0,506.0,526.0
501.0,501.0,471.0,505.0,525.0
424.0,494.0,472.0,500.0,519.0
517.0,502.0,481.0,500.0,485.0
528.0,501.0,480.0,475.0,518.0
561.0,511.0,504.0,494.0,450.0
545.0,516.0,523.0,505.0,511.0
512.0,521.0,540.0,512.0,538.0
487.0,513.0,545.0,522.0,531.0
484.0,504.0,548.0,526.0,482.0
589.0,508.0,550.0,543.0,439.0
660.0,514.0,552.0,560.0,429.0
517.0,491.0,529.0,544.0,533.0
469.0,497.0,518.0,541.0,524.0
434.0,495.0,500.0,514.0,603.0
449.0,495.0,487.0,523.0,491.0
415.0,497.0,478.0,505.0,552.0
524.0,519.0,480.0,506.0,536.0
571.0,519.0,483.0,505.0,482.0
551.0,526.0,494.0,499.0,512.0
540.0,507.0,483.0,496.0,547.0
437.0,492.0,488.0,490.0,614.0
527.0,510.0,508.0,483.0,518.0
494.0,500.0,523.0,515.0,479.0
515.0,510.0,533.0,520.0,485.0
562.0,506.0,543.0,527.0,450.0
602.0,512.0,551.0,539.0,438.0
558.0,515.0,558.0,550.0,467.0
508.0,501.0,539.0,532.0,527.0
482.0,497.0,525.0,528.0,524.0
457.0,497.0,513.0,532.0,537.0
428.0,510.0,513.0,547.0,582.0
433.0,499.0,490.0,521.0,520.0
495.0,498.0,467.0,491.0,531.0
554.0,510.0,472.0,498.0,502.0
556.0,514.0,482.0,499.0,642.0
471.0,511.0,483.0,486.0,570.0
430.0,487.0,475.0,481.0,434.0
528.0,499.0,492.0,492.0,427.0
604.0,519.0,522.0,492.0,572.0
616.0,522.0,533.0,518.0,530.0
589.0,511.0,541.0,538.0,422.0
512.0,497.0,543.0,552.0,348.0
510.0,504.0,550.0,549.0,469.0
509.0,513.0,556.0,532.0,586.0
526.0,512.0,545.0,526.0,577.0
493.0,505.0,532.0,545.0,489.0
425.0,488.0,507.0,527.0,501.0
440.0,488.0,492.0,535.0,542.0
482.0,517.0,489.0,501.0,585.0
480.0,518.0,485.0,484.0,605.0
628.0,514.0,480.0,507.0,530.0
566.0,505.0,479.0,506.0,443.0
495.0,503.0,480.0,492.0,417.0
480.0,501.0,486.0,472.0,508.0
497.0,501.0,496.0,484.0,523.0
559.0,515.0,528.0,514.0,525.0
552.0,503.0,530.0,516.0,522.0
571.0,511.0,549.0,559.0,452.0
561.0,515.0,554.0,555.0,457.0
575.0,516.0,554.0,551.0,432.0
583.0,504.0,535.0,508.0,551.0
461.0,486.0,523.0,505.0,580.0
417.0,487.0,509.0,520.0,580.0
439.0,493.0,493.0,518.0,573.0
467.0,504.0,488.0,516.0,521.0
509.0,512.0,487.0,513.0,504.0
588.0,522.0,488.0,511.0,544.0
567.0,523.0,490.0,507.0,565.0
494.0,518.0,495.0,516.0,506.0
425.0,510.0,497.0,495.0,485.0
460.0,498.0,492.0,478.0,500.0
508.0,498.0,503.0,496.0,548.0
580.0,499.0,512.0,495.0,563.0
596.0,503.0,529.0,513.0,480.0
537.0,497.0,539.0,525.0,538.0
540.0,506.0,552.0,542.0,449.0
538.0,508.0,550.0,541.0,470.0
505.0,502.0,542.0,538.0,481.0
512.0,492.0,530.0,536.0,512.0
533.0,503.0,511.0,513.0,495.0
461.0,502.0,491.0,509.0,514.0
451.0,508.0,488.0,514.0,540.0
471.0,514.0,486.0,509.0,580.0
543.0,519.0,489.0,509.0,498.0
522.0,519.0,490.0,499.0,509.0
486.0,500.0,478.0,481.0,559.0
458.0,499.0,483.0,481.0,566.0
532.0,504.0,499.0,494.0,530.0
558.0,515.0,515.0,501.0,503.0
546.0,509.0,531.0,512.0,499.0
536.0,505.0,538.0,536.0,511.0
502.0,494.0,540.0,543.0,496.0
468.0,503.0,549.0,538.0,422.0
478.0,510.0,549.0,528.0,501.0
495.0,509.0,547.0,537.0,525.0
544.0,506.0,536.0,551.0,520.0
507.0,504.0,510.0,526.0,563.0
489.0,508.0,496.0,520.0,540.0
479.0,507.0,487.0,521.0,480.0
514.0,508.0,483.0,521.0,480.0
550.0,511.0,480.0,516.0,516.0
554.0,511.0,481.0,473.0,638.0
548.0,508.0,480.0,470.0,512.0
477.0,509.0,498.0,494.0,400.0
504.0,513.0,513.0,520.0,448.0
529.0,504.0,514.0,486.0,561.0
488.0,500.0,525.0,495.0,573.0
529.0,503.0,542.0,523.0,510.0
525.0,513.0,556.0,532.0,436.0
576.0,511.0,557.0,550.0,431.0
517.0,496.0,542.0,542.0,570.0
480.0,495.0,527.0,524.0,548.0
471.0,496.0,518.0,530.0,529.0
494.0,501.0,499.0,521.0,522.0
465.0,495.0,485.0,506.0,526.0
499.0,506.0,483.0,509.0,541.0
508.0,521.0,491.0,521.0,518.0
559.0,525.0,495.0,512.0,485.0
544.0,513.0,488.0,489.0,486.0
546.0,511.0,487.0,483.0,508.0
553.0,508.0,495.0,483.0,543.0
506.0,490.0,496.0,478.0,573.0
442.0,499.0,528.0,511.0,479.0
444.0,500.0,534.0,524.0,477.0
430.0,492.0,534.0,518.0,523.0
509.0,507.0,550.0,542.0,505.0
492.0,507.0,552.0,543.0,524.0
511.0,510.0,543.0,528.0,537.0
484.0,503.0,530.0,529.0,562.0
481.0,491.0,510.0,530.0,512.0
605.0,509.0,511.0,554.0,452.0
595.0,517.0,503.0,520.0,505.0
537.0,521.0,497.0,515.0,529.0
534.0,526.0,499.0,516.0,527.0
552.0,524.0,494.0,497.0,500.0
557.0,509.0,482.0,478.0,453.0
503.0,499.0,483.0,485.0,545.0
502.0,489.0,489.0,484.0,541.0
509.0,495.0,506.0,487.0,576.0
517.0,500.0,514.0,493.0,511.0
559.0,510.0,531.0,517.0,436.0
546.0,508.0,550.0,536.0,455.0
547.0,509.0,552.0,543.0,459.0
517.0,503.0,543.0,543.0,482.0
471.0,497.0,536.0,525.0,517.0
507.0,505.0,530.0,526.0,601.0
527.0,519.0,522.0,539.0,573.0
536.0,502.0,496.0,522.0,553.0
516.0,501.0,485.0,528.0,398.0
506.0,511.0,484.0,509.0,545.0
468.0,511.0,489.0,523.0,545.0
545.0,526.0,491.0,493.0,506.0
551.0,517.0,491.0,483.0,493.0
480.0,499.0,489.0,478.0,535.0
527.0,497.0,499.0,488.0,500.0
506.0,492.0,513.0,498.0,510.0
522.0,502.0,531.0,521.0,460.0
510.0,516.0,546.0,516.0,518.0
488.0,508.0,546.0,531.0,512.0
514.0,509.0,551.0,545.0,496.0
516.0,502.0,541.0,537.0,468.0
534.0,498.0,529.0,539.0,498.0
497.0,492.0,518.0,555.0,580.0
539.0,508.0,499.0,491.0,576.0
488.0,498.0,488.0,522.0,513.0
543.0,523.0,498.0,524.0,526.0
535.0,516.0,486.0,507.0,508.0
523.0,509.0,482.0,496.0,443.0
518.0,505.0,480.0,481.0,525.0
509.0,500.0,480.0,478.0,540.0
553.0,509.0,496.0,488.0,507.0
560.0,508.0,509.0,498.0,480.0
541.0,500.0,514.0,499.0,490.0
504.0,500.0,529.0,511.0,514.0
491.0,508.0,547.0,530.0,540.0
446.0,500.0,549.0,528.0,480.0
449.0,497.0,546.0,539.0,461.0
450.0,501.0,543.0,535.0,597.0
510.0,499.0,535.0,549.0,510.0
565.0,508.0,522.0,526.0,492.0
574.0,517.0,508.0,526.0,508.0
559.0,514.0,492.0,512.0,532.0
528.0,512.0,488.0,505.0,532.0
508.0,513.0,486.0,504.0,554.0
531.0,516.0,491.0,507.0,587.0
523.0,503.0,480.0,486.0,591.0
547.0,506.0,489.0,489.0,517.0
503.0,503.0,501.0,490.0,525.0
476.0,500.0,510.0,489.0,485.0
499.0,504.0,525.0,504.0,431.0
533.0,509.0,538.0,520.0,500.0
561.0,522.0,559.0,543.0,524.0
534.0,516.0,562.0,559.0,508.0
412.0,499.0,550.0,544.0,505.0
412.0,487.0,527.0,521.0,455.0
488.0,476.0,511.0,526.0,474.0
493.0,497.0,501.0,513.0,529.0
492.0,501.0,492.0,514.0,510.0
501.0,503.0,486.0,521.0,508.0
582.0,521.0,490.0,517.0,523.0
563.0,520.0,486.0,505.0,503.0
555.0,515.0,489.0,496.0,512.0
563.0,509.0,489.0,501.0,542.0
520.0,507.0,494.0,489.0,559.0
500.0,495.0,496.0,481.0,528.0
518.0,498.0,511.0,497.0,460.0
526.0,507.0,529.0,509.0,501.0
551.0,511.0,542.0,527.0,491.0
552.0,505.0,548.0,537.0,470.0
497.0,503.0,556.0,548.0,466.0
456.0,498.0,541.0,533.0,482.0
482.0,495.0,534.0,526.0,535.0
530.0,504.0,522.0,519.0,601.0
554.0,508.0,507.0,521.0,548.0
555.0,516.0,500.0,518.0,544.0
544.0,513.0,486.0,503.0,540.0
509.0,513.0,487.0,517.0,505.0
458.0,517.0,489.0,509.0,510.0
453.0,518.0,494.0,501.0,506.0
519.0,503.0,491.0,496.0,502.0
519.0,496.0,487.0,483.0,526.0
522.0,504.0,504.0,489.0,524.0
521.0,501.0,519.0,507.0,518.0
505.0,504.0,536.0,529.0,519.0
508.0,504.0,549.0,536.0,474.0
534.0,508.0,552.0,526.0,470.0
549.0,515.0,557.0,548.0,436.0
558.0,510.0,544.0,533.0,485.0
559.0,508.0,534.0,534.0,498.0
524.0,503.0,516.0,519.0,545.0
476.0,498.0,495.0,506.0,569.0
482.0,502.0,488.0,517.0,542.0
502.0,506.0,479.0,503.0,510.0
507.0,512.0,483.0,501.0,516.0
499.0,510.0,483.0,495.0,505.0
484.0,501.0,484.0,496.0,521.0
484.0,502.0,485.0,478.0,526.0
494.0,503.0,494.0,483.0,574.0
511.0,500.0,507.0,497.0,496.0
531.0,506.0,530.0,520.0,484.0
562.0,518.0,542.0,513.0,528.0
550.0,517.0,554.0,523.0,557.0
523.0,509.0,553.0,534.0,520.0
490.0,504.0,552.0,556.0,445.0
522.0,512.0,542.0,537.0,474.0
536.0,502.0,528.0,527.0,498.0
533.0,509.0,513.0,512.0,560.0
488.0,501.0,496.0,510.0,552.0
480.0,501.0,484.0,513.0,514.0
500.0,515.0,486.0,511.0,569.0
499.0,513.0,484.0,503.0,536.0
501.0,505.0,482.0,493.0,506.0
527.0,506.0,489.0,492.0,515.0
543.0,506.0,489.0,489.0,522.0
554.0,508.0,503.0,492.0,526.0
487.0,494.0,507.0,492.0,514.0
462.0,505.0,533.0,516.0,495.0
548.0,521.0,549.0,521.0,500.0
610.0,520.0,557.0,528.0,471.0
604.0,508.0,550.0,533.0,470.0
533.0,499.0,543.0,541.0,483.0
480.0,503.0,543.0,549.0,462.0
487.0,503.0,525.0,538.0,489.0
502.0,502.0,510.0,515.0,553.0
505.0,509.0,496.0,519.0,510.0
496.0,508.0,488.0,515.0,553.0
488.0,507.0,481.0,505.0,534.0
501.0,513.0,485.0,502.0,502.0
504.0,507.0,485.0,494.0,511.0
521.0,504.0,485.0,489.0,515.0
532.0,504.0,495.0,491.0,504.0
520.0,503.0,506.0,496.0,502.0
516.0,502.0,518.0,504.0,499.0
507.0,507.0,533.0,513.0,486.0
485.0,499.0,542.0,521.0,479.0
476.0,502.0,548.0,532.0,502.0
533.0,505.0,548.0,535.0,499.0
589.0,514.0,547.0,541.0,506.0
534.0,506.0,537.0,534.0,532.0
509.0,502.0,519.0,530.0,542.0
511.0,501.0,499.0,518.0,540.0
512.0,502.0,489.0,517.0,544.0
517.0,515.0,488.0,510.0,538.0
514.0,514.0,483.0,505.0,507.0
507.0,515.0,488.0,503.0,505.0
496.0,508.0,486.0,495.0,522.0
495.0,504.0,490.0,485.0,504.0
485.0,499.0,494.0,482.0,512.0
526.0,499.0,512.0,493.0,488.0
526.0,499.0,519.0,501.0,497.0
540.0,506.0,536.0,516.0,496.0
534.0,506.0,549.0,528.0,493.0
530.0,508.0,553.0,537.0,493.0
529.0,510.0,551.0,540.0,502.0
517.0,506.0,541.0,537.0,513.0
519.0,501.0,526.0,530.0,516.0
491.0,497.0,509.0,521.0,535.0
496.0,503.0,497.0,519.0,540.0
487.0,510.0,494.0,515.0,541.0
520.0,513.0,486.0,505.0,516.0
516.0,511.0,482.0,501.0,511.0
503.0,508.0,484.0,504.0,512.0
491.0,505.0,485.0,494.0,508.0
479.0,504.0,491.0,491.0,516.0
470.0,501.0,501.0,488.0,523.0
503.0,502.0,512.0,494.0,517.0
553.0,509.0,532.0,508.0,500.0
535.0,511.0,544.0,520.0,507.0
538.0,510.0,552.0,531.0,498.0
554.0,510.0,553.0,536.0,492.0
546.0,509.0,545.0,541.0,493.0
536.0,500.0,535.0,529.0,501.0
502.0,496.0,518.0,526.0,502.0
506.0,500.0,505.0,522.0,516.0
498.0,505.0,497.0,517.0,543.0
501.0,510.0,489.0,511.0,526.0
503.0,510.0,484.0,507.0,518.0
508.0,510.0,483.0,502.0,514.0
511.0,509.0,485.0,496.0,511.0
513.0,505.0,491.0,491.0,512.0
510.0,503.0,495.0,489.0,515.0
516.0,503.0,504.0,492.0,514.0
522.0,508.0,517.0,501.0,510.0
532.0,508.0,532.0,515.0,501.0
538.0,508.0,544.0,524.0,494.0
537.0,509.0,551.0,532.0,500.0
537.0,510.0,549.0,536.0,500.0
525.0,505.0,545.0,537.0,512.0
518.0,504.0,536.0,535.0,518.0
505.0,502.0,519.0,529.0,528.0
498.0,505.0,502.0,522.0,534.0
496.0,507.0,494.0,521.0,534.0
498.0,510.0,487.0,511.0,528.0
502.0,512.0,483.0,506.0,526.0
503.0,511.0,487.0,504.0,516.0
504.0,513.0,487.0,497.0,515.0
507.0,505.0,487.0,490.0,520.0
518.0,503.0,497.0,490.0,509.0
525.0,504.0,510.0,498.0,500.0
527.0,506.0,523.0,507.0,499.0
533.0,508.0,538.0,518.0,499.0
536.0,507.0,547.0,526.0,493.0
540.0,509.0,552.0,536.0,494.0
533.0,507.0,553.0,540.0,501.0
523.0,504.0,542.0,538.0,508.0
508.0,499.0,527.0,531.0,523.0
497.0,500.0,509.0,525.0,530.0
497.0,504.0,500.0,520.0,531.0
497.0,507.0,490.0,515.0,524.0
502.0,511.0,486.0,510.0,522.0
505.0,510.0,483.0,504.0,520.0
513.0,511.0,486.0,501.0,508.0
511.0,507.0,487.0,495.0,512.0
510.0,502.0,488.0,489.0,511.0
514.0,501.0,501.0,492.0,513.0
518.0,501.0,513.0,498.0,512.0
529.0,507.0,527.0,510.0,500.0
534.0,508.0,543.0,523.0,497.0
539.0,510.0,554.0,533.0,496.0
536.0,509.0,555.0,540.0,501.0
529.0,507.0,550.0,544.0,504.0
519.0,502.0,543.0,549.0,509.0
507.0,500.0,531.0,544.0,522.0
499.0,503.0,513.0,538.0,535.0
498.0,508.0,503.0,532.0,535.0
499.0,511.0,494.0,524.0,530.0
500.0,509.0,482.0,506.0,527.0
505.0,513.0,484.0,497.0,521.0
512.0,510.0,486.0,486.0,514.0
513.0,502.0,485.0,481.0,514.0
521.0,504.0,495.0,486.0,504.0
524.0,508.0,507.0,495.0,500.0
521.0,503.0,522.0,503.0,503.0
530.0,506.0,531.0,513.0,501.0
536.0,508.0,546.0,525.0,497.0
539.0,506.0,552.0,532.0,496.0
538.0,512.0,554.0,540.0,498.0
529.0,504.0,546.0,538.0,503.0
519.0,501.0,536.0,534.0,509.0
505.0,499.0,519.0,528.0,523.0
495.0,500.0,503.0,521.0,530.0
499.0,506.0,495.0,520.0,524.0
501.0,511.0,490.0,515.0,523.0
505.0,509.0,485.0,512.0,522.0
506.0,513.0,485.0,501.0,514.0
506.0,508.0,488.0,497.0,519.0
510.0,504.0,491.0,492.0,520.0
516.0,503.0,501.0,495.0,512.0
522.0,503.0,513.0,501.0,504.0
533.0,506.0,526.0,511.0,495.0
537.0,507.0,540.0,523.0,491.0
539.0,508.0,550.0,530.0,495.0
535.0,504.0,549.0,536.0,499.0
531.0,506.0,552.0,542.0,504.0
521.0,504.0,544.0,540.0,511.0
513.0,499.0,528.0,530.0,522.0
505.0,501.0,515.0,530.0,526.0
506.0,505.0,502.0,525.0,524.0
502.0,510.0,494.0,521.0,525.0
499.0,511.0,489.0,514.0,524.0
503.0,511.0,487.0,510.0,519.0
511.0,512.0,491.0,506.0,514.0
507.0,507.0,490.0,500.0,512.0
509.0,504.0,493.0,497.0,512.0
517.0,507.0,502.0,499.0,511.0
525.0,503.0,515.0,507.0,504.0
530.0,506.0,529.0,516.0,497.0
535.0,508.0,540.0,525.0,492.0
540.0,506.0,548.0,535.0,492.0
542.0,509.0,552.0,545.0,496.0
528.0,506.0,546.0,542.0,504.0
520.0,505.0,542.0,539.0,514.0
506.0,500.0,524.0,534.0,523.0
499.0,502.0,509.0,532.0,530.0
500.0,505.0,498.0,526.0,526.0
499.0,507.0,489.0,520.0,525.0
504.0,512.0,486.0,514.0,521.0
511.0,513.0,489.0,512.0,514.0
510.0,510.0,489.0,507.0,509.0
511.0,510.0,490.0,502.0,513.0
514.0,504.0,496.0,499.0,510.0
522.0,504.0,507.0,507.0,504.0
527.0,502.0,516.0,507.0,505.0
534.0,505.0,530.0,519.0,495.0
540.0,509.0,544.0,531.0,494.0
539.0,507.0,549.0,539.0,494.0
534.0,508.0,549.0,545.0,500.0
527.0,503.0,541.0,543.0,509.0
522.0,502.0,533.0,545.0,513.0
507.0,501.0,518.0,536.0,526.0
501.0,503.0,507.0,532.0,523.0
502.0,509.0,497.0,527.0,526.0
501.0,510.0,489.0,521.0,521.0
506.0,511.0,485.0,514.0,516.0
507.0,511.0,487.0,510.0,512.0
510.0,511.0,491.0,505.0,513.0
512.0,506.0,492.0,505.0,513.0
517.0,505.0,496.0,501.0,506.0
528.0,507.0,509.0,506.0,503.0
530.0,503.0,519.0,512.0,496.0
539.0,511.0,536.0,526.0,494.0
539.0,508.0,546.0,534.0,490.0
540.0,513.0,550.0,543.0,497.0
532.0,508.0,548.0,543.0,500.0
523.0,503.0,538.0,539.0,508.0
513.0,500.0,526.0,535.0,519.0
507.0,502.0,512.0,530.0,524.0
505.0,507.0,502.0,527.0,524.0
500.0,512.0,492.0,523.0,522.0
502.0,514.0,486.0,521.0,516.0
506.0,513.0,486.0,519.0,516.0
512.0,513.0,490.0,518.0,511.0
513.0,509.0,488.0,512.0,508.0
516.0,506.0,491.0,510.0,510.0
518.0,504.0,502.0,511.0,503.0
524.0,505.0,516.0,517.0,502.0
530.0,507.0,526.0,525.0,498.0
536.0,509.0,540.0,529.0,493.0
538.0,509.0,548.0,537.0,493.0
536.0,509.0,550.0,534.0,497.0
528.0,505.0,544.0,534.0,501.0
522.0,502.0,539.0,530.0,506.0
512.0,502.0,522.0,527.0,516.0
504.0,506.0,507.0,525.0,524.0
500.0,507.0,496.0,522.0,523.0
499.0,510.0,493.0,523.0,524.0
504.0,514.0,487.0,526.0,518.0
512.0,519.0,487.0,528.0,510.0
516.0,515.0,490.0,526.0,510.0
513.0,508.0,489.0,520.0,508.0
513.0,508.0,496.0,520.0,507.0
516.0,504.0,505.0,519.0,505.0
525.0,504.0,518.0,522.0,502.0
530.0,508.0,531.0,527.0,497.0
534.0,508.0,542.0,531.0,494.0
538.0,509.0,548.0,533.0,495.0
532.0,506.0,547.0,532.0,498.0
523.0,506.0,544.0,531.0,507.0
523.0,501.0,534.0,529.0,511.0
509.0,505.0,515.0,525.0,518.0
492.0,507.0,504.0,523.0,530.0
496.0,510.0,496.0,527.0,529.0
510.0,516.0,494.0,533.0,518.0
512.0,519.0,491.0,532.0,514.0
513.0,511.0,489.0,534.0,504.0
505.0,514.0,492.0,531.0,507.0
512.0,511.0,492.0,526.0,510.0
523.0,506.0,500.0,520.0,506.0
527.0,506.0,511.0,524.0,507.0
528.0,506.0,522.0,529.0,505.0
530.0,511.0,533.0,531.0,500.0
539.0,509.0,545.0,530.0,497.0
532.0,508.0,546.0,532.0,498.0
527.0,511.0,543.0,531.0,508.0
526.0,506.0,537.0,530.0,513.0
513.0,503.0,528.0,524.0,521.0
506.0,502.0,508.0,521.0,526.0
500.0,506.0,500.0,527.0,526.0
499.0,511.0,492.0,531.0,524.0
500.0,513.0,490.0,536.0,520.0
509.0,514.0,489.0,537.0,515.0
517.0,517.0,491.0,540.0,510.0
509.0,512.0,493.0,537.0,509.0
510.0,510.0,495.0,532.0,511.0
514.0,507.0,504.0,528.0,512.0
519.0,506.0,512.0,528.0,504.0
525.0,507.0,525.0,530.0,501.0
531.0,507.0,535.0,532.0,498.0
535.0,508.0,544.0,534.0,498.0
532.0,508.0,545.0,533.0,498.0
525.0,507.0,539.0,528.0,507.0
518.0,504.0,532.0,525.0,511.0
509.0,502.0,518.0,522.0,523.0
501.0,504.0,510.0,524.0,529.0
498.0,509.0,497.0,530.0,529.0
499.0,514.0,492.0,538.0,522.0
503.0,519.0,491.0,539.0,517.0
511.0,517.0,496.0,543.0,513.0
506.0,515.0,492.0,540.0,516.0
509.0,508.0,494.0,536.0,511.0
510.0,508.0,497.0,536.0,511.0
520.0,507.0,510.0,534.0,509.0
521.0,505.0,516.0,532.0,503.0
528.0,508.0,528.0,536.0,497.0
532.0,513.0,539.0,539.0,495.0
532.0,505.0,543.0,532.0,497.0
534.0,506.0,541.0,529.0,498.0
522.0,503.0,536.0,524.0,506.0
515.0,503.0,528.0,524.0,512.0
504.0,503.0,514.0,522.0,526.0
497.0,505.0,501.0,528.0,531.0
498.0,512.0,492.0,532.0,527.0
500.0,510.0,490.0,540.0,521.0
497.0,520.0,489.0,547.0,521.0
504.0,518.0,493.0,549.0,513.0
505.0,512.0,494.0,547.0,512.0
510.0,509.0,495.0,543.0,514.0
507.0,508.0,501.0,537.0,509.0
516.0,507.0,511.0,536.0,508.0
534.0,507.0,522.0,534.0,498.0
544.0,510.0,534.0,537.0,497.0
538.0,508.0,539.0,532.0,498.0
539.0,509.0,545.0,530.0,505.0
532.0,510.0,542.0,527.0,510.0
526.0,508.0,535.0,524.0,517.0
512.0,504.0,523.0,520.0,528.0
500.0,502.0,508.0,518.0,527.0
502.0,507.0,499.0,527.0,527.0
509.0,513.0,498.0,540.0,522.0
505.0,513.0,490.0,541.0,520.0
503.0,515.0,488.0,542.0,518.0
514.0,516.0,494.0,548.0,512.0
525.0,512.0,496.0,548.0,501.0
518.0,506.0,498.0,546.0,500.0
505.0,509.0,508.0,544.0,504.0
514.0,509.0,515.0,534.0,503.0
518.0,506.0,520.0,530.0,498.0
525.0,506.0,535.0,527.0,495.0
526.0,512.0,540.0,527.0,498.0
520.0,506.0,542.0,530.0,499.0
509.0,503.0,534.0,518.0,507.0
501.0,502.0,529.0,516.0,518.0
498.0,502.0,518.0,518.0,530.0
490.0,502.0,505.0,518.0,538.0
490.0,507.0,496.0,526.0,541.0
507.0,518.0,491.0,535.0,533.0
520.0,516.0,492.0,542.0,528.0
522.0,515.0,492.0,546.0,510.0
519.0,514.0,499.0,543.0,502.0
517.0,513.0,496.0,541.0,506.0
516.0,508.0,498.0,536.0,504.0
523.0,507.0,508.0,534.0,501.0
528.0,508.0,518.0,534.0,502.0
536.0,511.0,530.0,534.0,497.0
538.0,513.0,537.0,530.0,494.0
537.0,507.0,541.0,524.0,497.0
531.0,509.0,542.0,522.0,501.0
523.0,506.0,535.0,518.0,509.0
515.0,501.0,528.0,516.0,515.0
503.0,501.0,513.0,514.0,527.0
497.0,503.0,501.0,519.0,528.0
499.0,508.0,496.0,529.0,523.0
501.0,513.0,492.0,537.0,521.0
503.0,513.0,489.0,542.0,517.0
508.0,516.0,493.0,544.0,515.0
507.0,511.0,495.0,542.0,515.0
504.0,505.0,492.0,538.0,513.0
511.0,504.0,501.0,536.0,511.0
514.0,504.0,516.0,533.0,500.0
516.0,504.0,521.0,534.0,499.0
517.0,507.0,533.0,530.0,503.0
520.0,506.0,541.0,526.0,505.0
521.0,509.0,541.0,523.0,503.0
512.0,503.0,538.0,516.0,508.0
538.0,504.0,533.0,514.0,511.0
534.0,502.0,523.0,510.0,519.0
512.0,500.0,508.0,512.0,526.0
504.0,507.0,501.0,520.0,530.0
499.0,510.0,498.0,527.0,531.0
505.0,511.0,490.0,535.0,523.0
508.0,513.0,489.0,539.0,513.0
513.0,515.0,494.0,542.0,511.0
517.0,511.0,495.0,538.0,511.0
511.0,506.0,494.0,533.0,512.0
515.0,507.0,506.0,533.0,511.0
522.0,506.0,515.0,529.0,504.0
528.0,507.0,524.0,527.0,500.0
533.0,509.0,538.0,526.0,498.0
533.0,512.0,541.0,522.0,497.0
532.0,508.0,543.0,519.0,499.0
527.0,506.0,540.0,514.0,505.0
518.0,503.0,534.0,513.0,513.0
506.0,499.0,517.0,507.0,523.0
499.0,500.0,504.0,511.0,528.0
498.0,503.0,497.0,519.0,528.0
498.0,510.0,492.0,528.0,525.0
502.0,515.0,491.0,536.0,522.0
508.0,517.0,491.0,539.0,519.0
508.0,512.0,493.0,538.0,514.0
510.0,510.0,495.0,534.0,514.0
514.0,507.0,498.0,530.0,516.0
516.0,507.0,509.0,528.0,509.0
518.0,503.0,516.0,524.0,504.0
527.0,506.0,529.0,524.0,501.0
534.0,508.0,540.0,523.0,497.0
530.0,507.0,544.0,521.0,498.0
529.0,507.0,545.0,517.0,503.0
521.0,504.0,539.0,514.0,511.0
512.0,501.0,530.0,507.0,516.0
505.0,503.0,516.0,508.0,527.0
496.0,502.0,503.0,510.0,532.0
495.0,507.0,497.0,519.0,533.0
500.0,511.0,493.0,527.0,527.0
499.0,513.0,489.0,530.0,523.0
504.0,514.0,493.0,533.0,520.0
506.0,512.0,495.0,531.0,518.0
504.0,503.0,492.0,525.0,511.0
511.0,505.0,501.0,523.0,505.0
518.0,505.0,513.0,522.0,507.0
520.0,503.0,520.0,518.0,505.0
527.0,505.0,532.0,520.0,499.0
533.0,506.0,542.0,519.0,497.0
533.0,505.0,545.0,516.0,500.0
526.0,506.0,545.0,514.0,508.0
516.0,502.0,535.0,508.0,511.0
508.0,501.0,528.0,508.0,523.0
497.0,500.0,513.0,507.0,531.0
496.0,510.0,502.0,512.0,533.0
497.0,508.0,495.0,517.0,524.0
494.0,515.0,491.0,521.0,517.0
504.0,511.0,488.0,523.0,514.0
515.0,514.0,494.0,527.0,511.0
512.0,510.0,493.0,522.0,508.0
510.0,507.0,496.0,520.0,511.0
516.0,506.0,509.0,519.0,512.0
522.0,506.0,517.0,518.0,506.0
525.0,505.0,528.0,517.0,500.0
530.0,507.0,537.0,519.0,493.0
532.0,506.0,544.0,518.0,496.0
532.0,506.0,546.0,517.0,498.0
526.0,504.0,542.0,514.0,503.0
516.0,504.0,531.0,508.0,512.0
507.0,499.0,521.0,505.0,527.0
498.0,501.0,509.0,506.0,531.0
496.0,503.0,499.0,510.0,532.0
497.0,513.0,493.0,515.0,528.0
499.0,511.0,491.0,521.0,526.0
503.0,513.0,492.0,521.0,514.0
509.0,512.0,495.0,521.0,509.0
510.0,508.0,500.0,513.0,515.0
511.0,506.0,499.0,511.0,515.0
522.0,505.0,510.0,516.0,511.0
520.0,505.0,520.0,514.0,504.0
526.0,507.0,535.0,518.0,501.0
529.0,505.0,538.0,516.0,500.0
529.0,504.0,543.0,514.0,504.0
527.0,507.0,546.0,517.0,505.0
522.0,505.0,542.0,515.0,512.0
517.0,500.0,531.0,508.0,515.0
502.0,499.0,518.0,508.0,525.0
498.0,502.0,504.0,506.0,527.0
498.0,505.0,497.0,509.0,526.0
504.0,512.0,494.0,516.0,529.0
497.0,514.0,489.0,511.0,525.0
501.0,520.0,494.0,514.0,525.0
502.0,515.0,495.0,511.0,522.0
504.0,509.0,498.0,508.0,525.0
510.0,506.0,506.0,509.0,519.0
513.0,504.0,512.0,506.0,505.0
521.0,501.0,523.0,508.0,506.0
531.0,506.0,533.0,515.0,497.0
538.0,507.0,544.0,519.0,494.0
536.0,506.0,547.0,521.0,496.0
529.0,505.0,545.0,521.0,497.0
520.0,502.0,538.0,518.0,500.0
509.0,497.0,527.0,513.0,505.0
499.0,500.0,515.0,510.0,531.0
494.0,502.0,502.0,508.0,525.0
494.0,504.0,495.0,509.0,519.0
495.0,513.0,494.0,511.0,519.0
498.0,510.0,490.0,506.0,516.0
512.0,511.0,492.0,505.0,510.0
518.0,512.0,495.0,501.0,515.0
514.0,506.0,497.0,499.0,519.0
517.0,503.0,505.0,500.0,515.0
524.0,504.0,516.0,502.0,511.0
530.0,507.0,527.0,510.0,511.0
537.0,506.0,536.0,516.0,501.0
531.0,508.0,543.0,521.0,499.0
530.0,504.0,548.0,528.0,493.0
527.0,505.0,544.0,527.0,493.0
520.0,502.0,537.0,522.0,499.0
510.0,498.0,522.0,514.0,510.0
498.0,499.0,509.0,511.0,520.0
497.0,506.0,501.0,506.0,527.0
494.0,508.0,493.0,505.0,528.0
497.0,511.0,491.0,503.0,531.0
504.0,512.0,496.0,503.0,533.0
519.0,513.0,495.0,501.0,519.0
528.0,512.0,496.0,499.0,515.0
511.0,504.0,498.0,494.0,516.0
511.0,502.0,504.0,499.0,507.0
520.0,502.0,519.0,504.0,502.0
528.0,505.0,530.0,512.0,497.0
529.0,505.0,540.0,517.0,497.0
529.0,505.0,546.0,524.0,499.0
529.0,505.0,546.0,526.0,498.0
524.0,503.0,540.0,527.0,505.0
516.0,501.0,532.0,521.0,516.0
505.0,499.0,515.0,513.0,525.0
501.0,502.0,506.0,510.0,532.0
498.0,504.0,497.0,507.0,529.0
504.0,511.0,495.0,510.0,528.0
504.0,511.0,491.0,503.0,524.0
511.0,512.0,493.0,502.0,518.0
509.0,509.0,494.0,498.0,513.0
508.0,508.0,497.0,495.0,516.0
511.0,505.0,502.0,496.0,512.0
518.0,504.0,512.0,500.0,507.0
522.0,503.0,521.0,506.0,506.0
527.0,504.0,530.0,513.0,498.0
531.0,506.0,541.0,522.0,495.0
531.0,505.0,546.0,528.0,498.0
528.0,505.0,545.0,530.0,504.0
520.0,502.0,536.0,526.0,508.0
512.0,500.0,528.0,522.0,519.0
505.0,502.0,514.0,515.0,527.0
498.0,502.0,502.0,512.0,529.0
498.0,506.0,496.0,509.0,531.0
499.0,512.0,493.0,506.0,524.0
501.0,513.0,493.0,503.0,523.0
507.0,513.0,494.0,502.0,516.0
506.0,507.0,493.0,498.0,513.0
509.0,506.0,497.0,496.0,517.0
511.0,506.0,505.0,497.0,513.0
516.0,504.0,515.0,501.0,505.0
520.0,502.0,521.0,507.0,501.0
524.0,505.0,534.0,518.0,498.0
532.0,508.0,544.0,527.0,494.0
531.0,507.0,546.0,531.0,498.0
525.0,506.0,542.0,530.0,502.0
520.0,506.0,534.0,527.0,513.0
505.0,499.0,520.0,518.0,521.0
498.0,500.0,511.0,515.0,530.0
499.0,502.0,500.0,511.0,526.0
500.0,510.0,495.0,510.0,529.0
503.0,510.0,491.0,504.0,524.0
498.0,515.0,491.0,501.0,524.0
506.0,511.0,492.0,504.0,525.0
504.0,508.0,495.0,498.0,520.0
504.0,504.0,496.0,495.0,520.0
511.0,505.0,508.0,499.0,515.0
520.0,505.0,521.0,508.0,511.0
523.0,505.0,528.0,514.0,500.0
528.0,505.0,539.0,523.0,496.0
542.0,510.0,546.0,531.0,497.0
532.0,511.0,545.0,533.0,499.0
524.0,504.0,540.0,531.0,507.0
518.0,502.0,532.0,527.0,516.0
508.0,497.0,516.0,520.0,524.0
499.0,505.0,506.0,514.0,527.0
496.0,507.0,498.0,511.0,526.0
497.0,511.0,493.0,508.0,524.0
501.0,512.0,490.0,506.0,522.0
503.0,510.0,491.0,501.0,516.0
509.0,510.0,495.0,501.0,516.0
505.0,507.0,495.0,496.0,515.0
509.0,504.0,504.0,500.0,512.0
517.0,504.0,511.0,502.0,506.0
522.0,505.0,521.0,508.0,502.0
527.0,508.0,532.0,516.0,502.0
533.0,507.0,542.0,525.0,498.0
529.0,506.0,544.0,530.0,499.0
525.0,505.0,544.0,533.0,500.0
522.0,502.0,537.0,532.0,507.0
515.0,502.0,530.0,530.0,517.0
507.0,501.0,517.0,525.0,520.0
499.0,504.0,504.0,516.0,526.0
499.0,506.0,497.0,510.0,523.0
499.0,511.0,492.0,507.0,528.0
501.0,510.0,490.0,501.0,527.0
505.0,514.0,493.0,499.0,521.0
508.0,510.0,495.0,498.0,521.0
503.0,504.0,493.0,488.0,519.0
510.0,507.0,505.0,493.0,516.0
516.0,503.0,513.0,499.0,509.0
521.0,503.0,521.0,505.0,504.0
528.0,506.0,535.0,519.0,494.0
528.0,508.0,542.0,528.0,493.0
533.0,507.0,545.0,537.0,500.0
523.0,504.0,543.0,539.0,506.0
517.0,502.0,539.0,535.0,512.0
505.0,498.0,522.0,529.0,523.0
497.0,501.0,510.0,521.0,527.0
499.0,506.0,500.0,514.0,527.0
494.0,507.0,493.0,506.0,524.0
498.0,512.0,491.0,502.0,524.0
505.0,512.0,490.0,495.0,521.0
511.0,513.0,494.0,492.0,516.0
506.0,508.0,496.0,491.0,516.0
508.0,505.0,498.0,483.0,514.0
515.0,505.0,507.0,489.0,509.0
518.0,505.0,514.0,497.0,499.0
528.0,505.0,527.0,509.0,497.0
529.0,507.0,538.0,523.0,497.0
535.0,508.0,544.0,536.0,495.0
534.0,511.0,545.0,544.0,491.0
523.0,504.0,541.0,546.0,502.0
512.0,500.0,532.0,541.0,514.0
501.0,498.0,517.0,532.0,522.0
499.0,499.0,506.0,525.0,530.0
499.0,505.0,498.0,518.0,533.0
499.0,510.0,493.0,507.0,529.0
502.0,513.0,491.0,499.0,526.0
505.0,514.0,493.0,494.0,520.0
506.0,511.0,494.0,487.0,517.0
502.0,506.0,495.0,482.0,516.0
503.0,504.0,499.0,481.0,513.0
509.0,502.0,509.0,488.0,510.0
514.0,503.0,519.0,498.0,507.0
520.0,507.0,529.0,510.0,499.0
530.0,507.0,544.0,527.0,496.0
539.0,506.0,545.0,537.0,502.0
539.0,508.0,547.0,546.0,504.0
531.0,505.0,541.0,546.0,513.0
518.0,507.0,531.0,542.0,528.0
507.0,500.0,514.0,529.0,532.0
500.0,507.0,502.0,521.0,527.0
501.0,505.0,495.0,512.0,522.0
501.0,511.0,493.0,506.0,523.0
502.0,512.0,489.0,496.0,514.0
505.0,513.0,494.0,493.0,509.0
503.0,511.0,499.0,488.0,504.0
502.0,503.0,498.0,480.0,506.0
517.0,504.0,506.0,484.0,512.0
518.0,503.0,513.0,494.0,507.0
524.0,504.0,523.0,509.0,506.0
524.0,504.0,534.0,518.0,498.0
540.0,504.0,540.0,531.0,492.0
540.0,506.0,550.0,540.0,497.0
528.0,506.0,545.0,546.0,497.0
520.0,505.0,537.0,542.0,506.0
509.0,500.0,523.0,532.0,522.0
500.0,500.0,508.0,522.0,524.0
496.0,505.0,500.0,515.0,528.0
506.0,510.0,498.0,510.0,525.0
505.0,512.0,491.0,502.0,525.0
504.0,512.0,491.0,497.0,526.0
505.0,512.0,494.0,493.0,517.0
506.0,508.0,496.0,490.0,517.0
505.0,507.0,498.0,487.0,518.0
512.0,508.0,506.0,489.0,513.0
519.0,506.0,514.0,497.0,506.0
530.0,506.0,530.0,512.0,500.0
532.0,507.0,539.0,524.0,495.0
531.0,505.0,544.0,534.0,495.0
531.0,506.0,546.0,541.0,496.0
523.0,507.0,540.0,540.0,508.0
515.0,500.0,533.0,542.0,514.0
506.0,497.0,517.0,528.0,521.0
500.0,506.0,506.0,522.0,525.0
494.0,509.0,499.0,514.0,530.0
497.0,509.0,493.0,506.0,527.0
501.0,512.0,490.0,501.0,526.0
503.0,512.0,490.0,495.0,520.0
508.0,514.0,494.0,494.0,519.0
507.0,512.0,496.0,487.0,519.0
506.0,504.0,498.0,487.0,516.0
512.0,502.0,506.0,492.0,510.0
522.0,504.0,519.0,503.0,503.0
528.0,507.0,530.0,514.0,499.0
529.0,504.0,540.0,527.0,495.0
530.0,503.0,544.0,536.0,497.0
526.0,506.0,545.0,542.0,499.0
520.0,509.0,539.0,540.0,508.0
513.0,500.0,528.0,536.0,515.0
499.0,499.0,512.0,527.0,522.0
496.0,503.0,503.0,520.0,528.0
496.0,505.0,494.0,511.0,527.0
498.0,510.0,491.0,505.0,525.0
502.0,515.0,488.0,498.0,525.0
503.0,511.0,491.0,493.0,518.0
508.0,510.0,494.0,490.0,517.0
512.0,506.0,495.0,487.0,517.0
509.0,504.0,502.0,487.0,514.0
508.0,503.0,510.0,490.0,513.0
519.0,504.0,523.0,504.0,511.0
523.0,506.0,533.0,517.0,504.0
531.0,507.0,543.0,531.0,500.0
535.0,508.0,546.0,542.0,498.0
527.0,506.0,543.0,543.0,499.0
520.0,503.0,535.0,541.0,506.0
513.0,500.0,524.0,539.0,515.0
504.0,498.0,508.0,530.0,521.0
503.0,503.0,500.0,524.0,521.0
501.0,511.0,499.0,516.0,520.0
502.0,514.0,493.0,505.0,520.0
503.0,516.0,490.0,496.0,518.0
498.0,514.0,491.0,490.0,516.0
506.0,516.0,494.0,485.0,519.0
506.0,507.0,496.0,480.0,523.0
510.0,503.0,503.0,483.0,516.0
520.0,506.0,517.0,496.0,511.0
524.0,504.0,526.0,507.0,503.0
531.0,509.0,534.0,521.0,499.0
530.0,505.0,544.0,538.0,498.0
532.0,507.0,547.0,548.0,497.0
524.0,504.0,541.0,545.0,501.0
515.0,501.0,533.0,542.0,509.0
509.0,498.0,520.0,534.0,520.0
501.0,499.0,506.0,527.0,524.0
496.0,504.0,498.0,517.0,526.0
498.0,510.0,495.0,511.0,524.0
499.0,511.0,489.0,503.0,520.0
505.0,513.0,492.0,494.0,518.0
511.0,514.0,495.0,490.0,515.0
508.0,506.0,495.0,483.0,513.0
507.0,506.0,498.0,482.0,514.0
512.0,504.0,508.0,488.0,513.0
518.0,504.0,518.0,498.0,503.0
527.0,505.0,530.0,513.0,500.0
533.0,508.0,542.0,527.0,494.0
529.0,504.0,544.0,536.0,499.0
529.0,507.0,545.0,545.0,499.0
521.0,503.0,539.0,542.0,507.0
514.0,503.0,527.0,539.0,517.0
502.0,497.0,515.0,530.0,524.0
498.0,502.0,504.0,523.0,530.0
498.0,512.0,496.0,515.0,527.0
504.0,510.0,491.0,506.0,518.0
500.0,507.0,488.0,496.0,518.0
504.0,512.0,492.0,492.0,518.0
509.0,512.0,494.0,488.0,516.0
506.0,506.0,498.0,481.0,517.0
510.0,504.0,501.0,484.0,511.0
517.0,503.0,513.0,492.0,508.0
520.0,504.0,520.0,502.0,504.0
527.0,504.0,532.0,516.0,498.0
530.0,505.0,540.0,530.0,493.0
530.0,504.0,546.0,541.0,498.0
529.0,506.0,543.0,545.0,503.0
520.0,501.0,535.0,542.0,510.0
508.0,496.0,524.0,534.0,520.0
497.0,501.0,511.0,530.0,526.0
493.0,504.0,500.0,521.0,529.0
494.0,508.0,494.0,510.0,530.0
498.0,509.0,490.0,503.0,529.0
497.0,510.0,488.0,495.0,522.0
504.0,513.0,493.0,491.0,515.0
510.0,514.0,494.0,485.0,515.0
512.0,505.0,494.0,482.0,517.0
515.0,503.0,503.0,489.0,510.0
523.0,505.0,517.0,495.0,508.0
526.0,506.0,525.0,507.0,504.0
529.0,504.0,535.0,519.0,498.0
531.0,506.0,543.0,539.0,497.0
531.0,508.0,546.0,543.0,497.0
527.0,505.0,539.0,543.0,503.0
513.0,502.0,531.0,541.0,513.0
504.0,499.0,517.0,533.0,524.0
498.0,503.0,506.0,525.0,532.0
498.0,507.0,500.0,518.0,532.0
497.0,509.0,491.0,509.0,524.0
499.0,511.0,488.0,500.0,518.0
502.0,513.0,491.0,495.0,518.0
507.0,509.0,489.0,487.0,512.0
507.0,507.0,494.0,485.0,512.0
498.0,506.0,495.0,482.0,510.0
510.0,503.0,507.0,489.0,505.0
505.0,508.0,515.0,496.0,506.0
523.0,507.0,529.0,511.0,502.0
540.0,509.0,539.0,527.0,493.0
540.0,506.0,547.0,536.0,496.0
545.0,510.0,549.0,546.0,498.0
537.0,504.0,537.0,545.0,500.0
519.0,501.0,530.0,542.0,512.0
505.0,498.0,514.0,530.0,523.0
501.0,501.0,502.0,521.0,528.0
504.0,505.0,495.0,514.0,521.0
507.0,512.0,492.0,508.0,523.0
501.0,509.0,488.0,497.0,524.0
505.0,512.0,491.0,496.0,518.0
506.0,509.0,492.0,488.0,519.0
508.0,506.0,491.0,481.0,521.0
513.0,504.0,500.0,484.0,513.0
516.0,505.0,511.0,495.0,512.0
519.0,504.0,520.0,502.0,505.0
527.0,505.0,532.0,516.0,502.0
532.0,507.0,542.0,530.0,498.0
531.0,506.0,545.0,539.0,500.0
525.0,503.0,544.0,542.0,502.0
517.0,502.0,536.0,543.0,509.0
509.0,504.0,524.0,536.0,520.0
508.0,500.0,512.0,532.0,524.0
503.0,502.0,500.0,520.0,524.0
499.0,506.0,493.0,513.0,526.0
500.0,511.0,492.0,505.0,524.0
505.0,515.0,489.0,497.0,524.0
504.0,512.0,490.0,490.0,517.0
509.0,509.0,493.0,487.0,519.0
508.0,504.0,493.0,488.0,520.0
510.0,503.0,503.0,488.0,514.0
518.0,501.0,513.0,496.0,507.0
524.0,505.0,525.0,508.0,504.0
529.0,508.0,537.0,523.0,499.0
533.0,504.0,543.0,531.0,496.0
533.0,507.0,547.0,547.0,495.0
530.0,507.0,544.0,545.0,503.0
519.0,504.0,535.0,537.0,514.0
503.0,499.0,518.0,527.0,530.0
500.0,501.0,508.0,522.0,532.0
497.0,505.0,499.0,514.0,532.0
493.0,512.0,492.0,507.0,532.0
498.0,512.0,491.0,503.0,529.0
502.0,511.0,490.0,500.0,525.0
503.0,511.0,493.0,494.0,516.0
506.0,510.0,495.0,492.0,517.0
506.0,507.0,495.0,487.0,511.0
511.0,504.0,508.0,497.0,510.0
514.0,503.0,516.0,502.0,502.0
532.0,510.0,529.0,515.0,497.0
538.0,509.0,540.0,527.0,495.0
533.0,507.0,545.0,532.0,491.0
532.0,506.0,545.0,540.0,494.0
526.0,504.0,539.0,538.0,502.0
515.0,501.0,531.0,536.0,511.0
502.0,500.0,513.0,523.0,521.0
499.0,502.0,503.0,516.0,528.0
498.0,506.0,496.0,514.0,531.0
500.0,510.0,492.0,508.0,524.0
505.0,513.0,489.0,504.0,523.0
505.0,510.0,490.0,499.0,517.0
504.0,510.0,493.0,498.0,516.0
502.0,507.0,494.0,495.0,518.0
508.0,505.0,501.0,494.0,512.0
519.0,503.0,510.0,500.0,507.0
517.0,504.0,520.0,507.0,505.0
528.0,506.0,532.0,521.0,499.0
538.0,509.0,542.0,528.0,496.0
528.0,506.0,545.0,533.0,499.0
526.0,505.0,542.0,534.0,504.0
515.0,503.0,536.0,532.0,510.0
506.0,498.0,526.0,527.0,519.0
495.0,503.0,512.0,521.0,528.0
490.0,505.0,499.0,512.0,527.0
504.0,510.0,495.0,509.0,526.0
510.0,517.0,490.0,505.0,525.0
510.0,511.0,488.0,499.0,522.0
510.0,513.0,492.0,501.0,519.0
509.0,511.0,496.0,497.0,517.0
508.0,504.0,492.0,492.0,518.0
519.0,507.0,503.0,497.0,512.0
518.0,507.0,515.0,503.0,506.0
524.0,508.0,525.0,510.0,502.0
529.0,508.0,539.0,519.0,498.0
533.0,508.0,545.0,529.0,497.0
530.0,508.0,545.0,534.0,496.0
522.0,505.0,542.0,532.0,500.0
518.0,502.0,533.0,529.0,506.0
512.0,501.0,519.0,524.0,520.0
501.0,502.0,507.0,516.0,528.0
500.0,506.0,499.0,514.0,526.0
504.0,513.0,494.0,512.0,526.0
501.0,513.0,487.0,503.0,523.0
508.0,512.0,489.0,504.0,521.0
502.0,513.0,490.0,497.0,513.0
506.0,506.0,493.0,496.0,515.0
506.0,501.0,492.0,490.0,514.0
515.0,506.0,507.0,497.0,512.0
517.0,504.0,516.0,504.0,506.0
523.0,506.0,532.0,513.0,502.0
533.0,507.0,541.0,522.0,499.0
535.0,505.0,544.0,531.0,498.0
530.0,503.0,544.0,535.0,499.0
522.0,504.0,539.0,534.0,507.0
516.0,504.0,533.0,533.0,513.0
505.0,503.0,515.0,523.0,521.0
499.0,507.0,505.0,516.0,530.0
498.0,504.0,495.0,511.0,533.0
500.0,510.0,491.0,508.0,527.0
507.0,511.0,493.0,504.0,524.0
505.0,513.0,491.0,500.0,521.0
509.0,512.0,494.0,497.0,520.0
510.0,508.0,493.0,492.0,518.0
513.0,506.0,503.0,494.0,515.0
514.0,504.0,509.0,495.0,508.0
519.0,503.0,520.0,504.0,504.0
530.0,505.0,535.0,519.0,499.0
533.0,507.0,542.0,529.0,495.0
528.0,506.0,545.0,536.0,496.0
523.0,503.0,541.0,538.0,500.0
516.0,503.0,536.0,536.0,515.0
507.0,498.0,525.0,530.0,519.0
497.0,497.0,511.0,524.0,526.0
491.0,504.0,501.0,515.0,531.0
503.0,504.0,493.0,511.0,529.0
504.0,510.0,488.0,505.0,524.0
504.0,515.0,488.0,500.0,523.0
508.0,513.0,491.0,497.0,519.0
509.0,508.0,492.0,489.0,515.0
508.0,505.0,495.0,487.0,515.0
512.0,505.0,508.0,490.0,513.0
519.0,502.0,515.0,498.0,506.0
528.0,505.0,523.0,510.0,502.0
529.0,505.0,532.0,518.0,499.0
531.0,505.0,542.0,532.0,497.0
533.0,507.0,546.0,542.0,500.0
524.0,505.0,540.0,542.0,506.0
517.0,501.0,532.0,540.0,514.0
507.0,497.0,519.0,534.0,522.0
500.0,499.0,506.0,526.0,525.0
502.0,504.0,499.0,519.0,526.0
499.0,508.0,493.0,511.0,528.0
504.0,515.0,487.0,499.0,522.0
500.0,510.0,489.0,495.0,520.0
508.0,512.0,492.0,491.0,515.0
506.0,510.0,494.0,486.0,518.0
507.0,506.0,495.0,481.0,520.0
514.0,503.0,504.0,491.0,510.0
522.0,503.0,516.0,496.0,505.0
530.0,507.0,528.0,511.0,501.0
531.0,508.0,538.0,525.0,500.0
528.0,506.0,544.0,535.0,496.0
524.0,504.0,543.0,542.0,499.0
518.0,501.0,538.0,542.0,507.0
510.0,505.0,530.0,538.0,515.0
498.0,500.0,517.0,530.0,525.0
499.0,503.0,504.0,523.0,532.0
497.0,505.0,496.0,518.0,532.0
504.0,512.0,492.0,507.0,524.0
504.0,514.0,490.0,503.0,524.0
506.0,513.0,492.0,498.0,517.0
508.0,511.0,492.0,490.0,512.0
505.0,507.0,493.0,486.0,516.0
509.0,505.0,499.0,491.0,513.0
514.0,508.0,508.0,493.0,508.0
521.0,503.0,518.0,503.0,505.0
530.0,503.0,530.0,514.0,498.0
534.0,505.0,540.0,528.0,492.0
533.0,506.0,545.0,537.0,497.0
529.0,505.0,542.0,539.0,501.0
523.0,502.0,536.0,535.0,507.0
516.0,501.0,528.0,533.0,515.0
500.0,503.0,515.0,526.0,528.0
498.0,504.0,502.0,514.0,529.0
494.0,512.0,492.0,509.0,529.0
496.0,512.0,491.0,506.0,523.0
501.0,511.0,488.0,504.0,524.0
508.0,516.0,495.0,497.0,522.0
502.0,509.0,493.0,495.0,523.0
499.0,504.0,491.0,487.0,518.0
513.0,507.0,503.0,494.0,513.0
516.0,505.0,513.0,500.0,506.0
520.0,504.0,521.0,508.0,499.0
524.0,505.0,532.0,518.0,493.0
532.0,507.0,543.0,530.0,500.0
529.0,507.0,549.0,535.0,500.0
523.0,506.0,543.0,537.0,506.0
514.0,504.0,536.0,533.0,517.0
508.0,500.0,521.0,526.0,524.0
505.0,503.0,509.0,519.0,529.0
500.0,506.0,501.0,515.0,530.0
499.0,508.0,491.0,507.0,526.0
500.0,512.0,488.0,504.0,523.0
502.0,515.0,488.0,500.0,511.0
506.0,512.0,490.0,499.0,510.0
509.0,509.0,495.0,496.0,514.0
503.0,503.0,494.0,492.0,515.0
507.0,502.0,503.0,495.0,507.0
520.0,507.0,515.0,506.0,503.0
526.0,507.0,527.0,513.0,498.0
536.0,507.0,539.0,521.0,493.0
535.0,507.0,544.0,531.0,494.0
531.0,506.0,546.0,535.0,497.0
521.0,503.0,540.0,531.0,503.0
513.0,502.0,531.0,528.0,511.0
506.0,500.0,521.0,522.0,523.0
498.0,502.0,505.0,517.0,527.0
497.0,505.0,496.0,513.0,523.0
502.0,510.0,493.0,511.0,522.0
503.0,510.0,488.0,504.0,519.0
507.0,515.0,492.0,503.0,519.0
506.0,511.0,491.0,498.0,516.0
506.0,507.0,494.0,494.0,518.0
510.0,505.0,499.0,495.0,512.0
516.0,504.0,509.0,500.0,507.0
517.0,503.0,518.0,506.0,504.0
527.0,507.0,530.0,517.0,502.0
530.0,506.0,541.0,527.0,495.0
527.0,505.0,543.0,534.0,501.0
528.0,505.0,543.0,535.0,501.0
521.0,502.0,537.0,532.0,508.0
507.0,501.0,528.0,529.0,520.0
495.0,499.0,511.0,521.0,528.0
496.0,505.0,501.0,515.0,531.0
508.0,509.0,495.0,517.0,529.0
502.0,512.0,491.0,508.0,525.0
503.0,514.0,487.0,504.0,524.0
509.0,511.0,491.0,499.0,515.0
512.0,510.0,498.0,497.0,515.0
503.0,505.0,493.0,490.0,516.0
511.0,505.0,501.0,493.0,510.0
515.0,503.0,512.0,499.0,505.0
523.0,506.0,522.0,509.0,505.0
530.0,507.0,535.0,520.0,499.0
532.0,507.0,543.0,533.0,495.0
529.0,507.0,545.0,536.0,498.0
524.0,502.0,542.0,536.0,504.0
517.0,503.0,535.0,535.0,511.0
508.0,500.0,522.0,528.0,523.0
499.0,505.0,508.0,520.0,527.0
497.0,505.0,500.0,516.0,528.0
498.0,510.0,494.0,511.0,530.0
497.0,510.0,488.0,502.0,526.0
501.0,511.0,488.0,498.0,523.0
505.0,511.0,497.0,500.0,518.0
505.0,509.0,494.0,491.0,515.0
508.0,506.0,496.0,490.0,515.0
513.0,503.0,504.0,494.0,508.0
518.0,504.0,518.0,508.0,504.0
524.0,506.0,527.0,514.0,497.0
530.0,509.0,537.0,525.0,493.0
526.0,504.0,542.0,532.0,496.0
525.0,504.0,543.0,538.0,503.0
521.0,507.0,539.0,539.0,507.0
510.0,501.0,533.0,537.0,515.0
505.0,499.0,517.0,528.0,522.0
503.0,501.0,504.0,520.0,527.0
507.0,505.0,497.0,516.0,526.0
501.0,510.0,492.0,508.0,522.0
497.0,512.0,488.0,500.0,526.0
509.0,515.0,492.0,497.0,519.0
509.0,511.0,495.0,493.0,518.0
506.0,507.0,494.0,486.0,520.0
505.0,501.0,497.0,485.0,514.0
514.0,507.0,507.0,492.0,512.0
514.0,503.0,517.0,505.0,509.0
521.0,506.0,530.0,515.0,502.0
528.0,507.0,540.0,525.0,496.0
532.0,507.0,545.0,537.0,498.0
535.0,507.0,543.0,541.0,497.0
528.0,505.0,539.0,542.0,509.0
514.0,501.0,530.0,538.0,516.0
505.0,501.0,516.0,529.0,526.0
497.0,503.0,505.0,519.0,528.0
496.0,508.0,492.0,511.0,526.0
499.0,508.0,490.0,506.0,523.0
502.0,512.0,488.0,497.0,524.0
505.0,518.0,491.0,494.0,519.0
506.0,510.0,494.0,489.0,517.0
505.0,506.0,493.0,484.0,519.0
510.0,503.0,499.0,485.0,513.0
520.0,504.0,512.0,497.0,511.0
520.0,503.0,522.0,503.0,506.0
526.0,505.0,532.0,518.0,502.0
530.0,507.0,545.0,531.0,499.0
529.0,507.0,545.0,541.0,499.0
522.0,504.0,542.0,542.0,503.0
517.0,501.0,535.0,540.0,509.0
505.0,498.0,523.0,534.0,520.0
501.0,500.0,511.0,525.0,524.0
498.0,505.0,500.0,519.0,529.0
495.0,508.0,492.0,508.0,526.0
501.0,513.0,490.0,501.0,525.0
503.0,511.0,490.0,495.0,523.0
507.0,510.0,492.0,492.0,518.0
508.0,509.0,494.0,487.0,518.0
509.0,506.0,496.0,484.0,519.0
512.0,507.0,501.0,487.0,511.0
521.0,504.0,516.0,497.0,506.0
524.0,505.0,526.0,509.0,502.0
532.0,506.0,536.0,522.0,496.0
533.0,507.0,545.0,538.0,495.0
530.0,506.0,545.0,541.0,496.0
524.0,503.0,540.0,542.0,505.0
517.0,501.0,537.0,539.0,513.0
505.0,500.0,519.0,533.0,525.0
499.0,501.0,506.0,523.0,530.0
497.0,505.0,497.0,518.0,530.0
495.0,510.0,492.0,508.0,528.0
497.0,512.0,489.0,502.0,525.0
499.0,512.0,491.0,496.0,520.0
502.0,509.0,491.0,491.0,519.0
501.0,505.0,491.0,482.0,514.0
505.0,504.0,494.0,484.0,512.0
520.0,505.0,508.0,491.0,507.0
525.0,503.0,517.0,499.0,504.0
528.0,504.0,529.0,512.0,501.0
534.0,506.0,540.0,527.0,496.0
532.0,507.0,545.0,536.0,503.0
528.0,505.0,544.0,540.0,504.0
525.0,502.0,534.0,539.0,512.0
514.0,501.0,529.0,536.0,514.0
503.0,500.0,512.0,528.0,519.0
504.0,501.0,504.0,521.0,528.0
498.0,505.0,495.0,512.0,528.0
504.0,514.0,492.0,505.0,521.0
505.0,512.0,489.0,499.0,517.0
513.0,514.0,492.0,495.0,514.0
509.0,510.0,492.0,488.0,514.0
508.0,506.0,493.0,481.0,516.0
516.0,507.0,500.0,485.0,513.0
517.0,504.0,511.0,492.0,507.0
521.0,503.0,520.0,502.0,504.0
525.0,504.0,531.0,515.0,497.0
530.0,506.0,542.0,531.0,495.0
533.0,507.0,546.0,541.0,498.0
525.0,506.0,542.0,544.0,503.0
518.0,503.0,537.0,544.0,510.0
508.0,501.0,525.0,537.0,523.0
500.0,502.0,514.0,526.0,531.0
498.0,505.0,501.0,520.0,523.0
501.0,509.0,495.0,511.0,527.0
501.0,511.0,491.0,505.0,521.0
505.0,512.0,490.0,497.0,522.0
499.0,511.0,491.0,490.0,516.0
503.0,508.0,492.0,484.0,514.0
507.0,503.0,494.0,484.0,516.0
508.0,502.0,503.0,486.0,510.0
513.0,503.0,512.0,493.0,501.0
523.0,506.0,526.0,507.0,498.0
536.0,508.0,537.0,523.0,496.0
532.0,507.0,544.0,535.0,495.0
523.0,505.0,544.0,543.0,494.0
517.0,503.0,539.0,542.0,505.0
506.0,499.0,533.0,540.0,513.0
501.0,498.0,518.0,534.0,522.0
499.0,504.0,507.0,526.0,530.0
499.0,504.0,497.0,516.0,526.0
504.0,510.0,493.0,509.0,526.0
506.0,512.0,487.0,500.0,522.0
515.0,514.0,494.0,497.0,520.0
513.0,512.0,491.0,493.0,519.0
511.0,506.0,493.0,483.0,515.0
512.0,505.0,497.0,482.0,514.0
517.0,507.0,508.0,488.0,509.0
521.0,504.0,516.0,498.0,505.0
530.0,507.0,530.0,513.0,501.0
534.0,506.0,540.0,526.0,494.0
532.0,505.0,543.0,537.0,496.0
531.0,507.0,545.0,544.0,503.0
521.0,503.0,538.0,543.0,509.0
514.0,501.0,530.0,540.0,516.0
508.0,500.0,518.0,530.0,525.0
498.0,501.0,501.0,520.0,528.0
497.0,509.0,496.0,513.0,527.0
500.0,511.0,491.0,505.0,527.0
499.0,510.0,487.0,498.0,524.0
505.0,518.0,490.0,493.0,517.0
505.0,511.0,495.0,487.0,516.0
505.0,506.0,493.0,479.0,515.0
517.0,505.0,503.0,485.0,513.0
517.0,502.0,509.0,490.0,507.0
523.0,505.0,521.0,503.0,505.0
528.0,506.0,533.0,517.0,499.0
533.0,507.0,542.0,531.0,494.0
530.0,505.0,544.0,539.0,495.0
522.0,504.0,542.0,543.0,499.0
515.0,502.0,535.0,542.0,506.0
506.0,498.0,524.0,537.0,514.0
499.0,501.0,511.0,530.0,526.0
494.0,505.0,501.0,520.0,527.0
496.0,506.0,492.0,510.0,529.0
503.0,511.0,490.0,503.0,524.0
503.0,511.0,489.0,495.0,521.0
506.0,513.0,493.0,492.0,515.0
508.0,511.0,495.0,487.0,517.0
506.0,506.0,495.0,483.0,517.0
513.0,504.0,503.0,485.0,513.0
518.0,504.0,518.0,498.0,508.0
523.0,503.0,527.0,505.0,501.0
529.0,507.0,536.0,519.0,497.0
531.0,506.0,542.0,533.0,499.0
530.0,509.0,548.0,545.0,503.0
522.0,504.0,542.0,545.0,506.0
517.0,503.0,534.0,544.0,512.0
509.0,501.0,520.0,535.0,521.0
502.0,501.0,506.0,527.0,522.0
504.0,512.0,499.0,521.0,523.0
496.0,508.0,492.0,512.0,530.0
494.0,510.0,486.0,499.0,521.0
500.0,513.0,487.0,493.0,518.0
506.0,512.0,496.0,490.0,516.0
505.0,508.0,494.0,484.0,515.0
507.0,506.0,495.0,484.0,512.0
512.0,504.0,507.0,487.0,508.0
518.0,503.0,518.0,499.0,504.0
526.0,505.0,527.0,512.0,497.0
534.0,510.0,539.0,528.0,490.0
532.0,507.0,544.0,537.0,493.0
527.0,510.0,543.0,547.0,498.0
522.0,505.0,540.0,545.0,505.0
516.0,503.0,530.0,543.0,513.0
508.0,500.0,514.0,533.0,523.0
495.0,506.0,501.0,522.0,526.0
495.0,508.0,495.0,515.0,525.0
500.0,513.0,493.0,510.0,523.0
500.0,512.0,488.0,498.0,523.0
507.0,513.0,491.0,490.0,517.0
506.0,512.0,493.0,486.0,517.0
506.0,508.0,494.0,484.0,518.0
509.0,505.0,500.0,483.0,516.0
515.0,506.0,511.0,492.0,511.0
519.0,504.0,518.0,499.0,503.0
524.0,506.0,530.0,515.0,493.0
536.0,505.0,545.0,529.0,491.0
536.0,505.0,545.0,542.0,486.0
533.0,506.0,545.0,547.0,499.0
516.0,506.0,538.0,545.0,507.0
509.0,502.0,526.0,538.0,520.0
505.0,503.0,515.0,532.0,525.0
497.0,506.0,500.0,521.0,531.0
495.0,507.0,493.0,510.0,528.0
498.0,511.0,490.0,503.0,528.0
503.0,512.0,490.0,498.0,523.0
504.0,512.0,490.0,493.0,516.0
507.0,510.0,493.0,485.0,515.0
507.0,506.0,495.0,481.0,517.0
508.0,503.0,501.0,483.0,511.0
512.0,504.0,514.0,493.0,512.0
522.0,505.0,523.0,505.0,501.0
525.0,505.0,533.0,520.0,496.0
527.0,505.0,545.0,534.0,496.0
528.0,509.0,547.0,544.0,499.0
527.0,505.0,542.0,544.0,504.0
522.0,503.0,533.0,543.0,511.0
513.0,499.0,517.0,537.0,519.0
508.0,503.0,511.0,531.0,525.0
501.0,506.0,501.0,520.0,530.0
496.0,508.0,490.0,508.0,527.0
498.0,510.0,487.0,500.0,522.0
501.0,512.0,489.0,497.0,518.0
511.0,512.0,492.0,491.0,515.0
513.0,512.0,494.0,486.0,516.0
507.0,503.0,494.0,480.0,513.0
513.0,500.0,505.0,487.0,510.0
516.0,500.0,514.0,495.0,505.0
523.0,504.0,527.0,510.0,499.0
528.0,505.0,538.0,525.0,495.0
524.0,503.0,541.0,534.0,498.0
529.0,506.0,545.0,547.0,502.0
530.0,506.0,540.0,545.0,505.0
521.0,503.0,531.0,542.0,511.0
503.0,498.0,516.0,533.0,524.0
494.0,501.0,503.0,523.0,530.0
500.0,507.0,496.0,516.0,530.0
504.0,510.0,494.0,509.0,524.0
500.0,509.0,485.0,497.0,521.0
505.0,513.0,490.0,494.0,514.0
506.0,511.0,493.0,488.0,516.0
512.0,506.0,494.0,483.0,518.0
517.0,505.0,502.0,485.0,512.0
518.0,503.0,507.0,490.0,510.0
526.0,503.0,519.0,501.0,502.0
533.0,508.0,531.0,518.0,500.0
535.0,507.0,541.0,529.0,494.0
530.0,503.0,544.0,539.0,497.0
526.0,506.0,543.0,545.0,503.0
521.0,504.0,539.0,546.0,510.0
513.0,501.0,527.0,538.0,521.0
502.0,501.0,513.0,530.0,529.0
496.0,502.0,500.0,520.0,529.0
496.0,506.0,492.0,512.0,528.0
498.0,511.0,490.0,505.0,525.0
496.0,510.0,488.0,499.0,519.0
501.0,511.0,490.0,491.0,513.0
498.0,508.0,493.0,486.0,512.0
499.0,504.0,493.0,482.0,518.0
500.0,502.0,505.0,487.0,513.0
512.0,504.0,513.0,493.0,506.0
537.0,505.0,522.0,506.0,499.0
543.0,508.0,535.0,521.0,493.0
537.0,507.0,544.0,534.0,495.0
536.0,508.0,544.0,542.0,500.0
525.0,504.0,540.0,542.0,504.0
518.0,502.0,533.0,542.0,509.0
508.0,499.0,517.0,532.0,519.0
504.0,502.0,508.0,526.0,526.0
497.0,510.0,499.0,516.0,530.0
499.0,507.0,489.0,507.0,526.0
501.0,511.0,489.0,501.0,525.0
503.0,511.0,488.0,494.0,522.0
508.0,513.0,493.0,492.0,517.0
508.0,509.0,493.0,484.0,512.0
506.0,506.0,495.0,482.0,514.0
514.0,506.0,505.0,488.0,511.0
517.0,504.0,515.0,496.0,506.0
526.0,508.0,527.0,510.0,503.0
533.0,511.0,539.0,524.0,496.0
529.0,508.0,543.0,534.0,498.0
529.0,508.0,545.0,545.0,500.0
522.0,506.0,539.0,545.0,505.0
515.0,504.0,527.0,540.0,512.0
504.0,501.0,516.0,533.0,524.0
498.0,504.0,504.0,524.0,528.0
497.0,508.0,496.0,516.0,528.0
499.0,512.0,488.0,508.0,522.0
506.0,513.0,491.0,502.0,519.0
509.0,514.0,492.0,497.0,512.0
506.0,513.0,493.0,489.0,515.0
510.0,509.0,495.0,484.0,517.0
508.0,506.0,497.0,481.0,514.0
513.0,505.0,508.0,489.0,510.0
519.0,503.0,519.0,498.0,503.0
528.0,507.0,530.0,514.0,496.0
529.0,508.0,541.0,529.0,492.0
526.0,508.0,543.0,537.0,495.0
527.0,506.0,546.0,544.0,500.0
519.0,506.0,538.0,545.0,509.0
513.0,501.0,526.0,540.0,518.0
497.0,505.0,510.0,528.0,526.0
497.0,503.0,500.0,521.0,530.0
498.0,509.0,494.0,513.0,529.0
498.0,510.0,489.0,505.0,525.0
501.0,512.0,487.0,496.0,522.0
507.0,513.0,491.0,493.0,520.0
505.0,509.0,491.0,485.0,518.0
504.0,508.0,494.0,481.0,520.0
513.0,507.0,503.0,484.0,515.0
517.0,506.0,512.0,493.0,508.0
521.0,505.0,524.0,504.0,503.0
528.0,507.0,533.0,518.0,495.0
535.0,509.0,544.0,533.0,495.0
533.0,508.0,546.0,540.0,495.0
526.0,506.0,542.0,548.0,501.0
516.0,507.0,534.0,543.0,510.0
503.0,498.0,520.0,535.0,522.0
499.0,502.0,507.0,526.0,529.0
500.0,507.0,501.0,520.0,530.0
498.0,512.0,494.0,512.0,531.0
500.0,512.0,489.0,503.0,523.0
502.0,512.0,488.0,495.0,520.0
505.0,513.0,492.0,489.0,517.0
510.0,509.0,494.0,485.0,509.0
502.0,504.0,496.0,479.0,511.0
512.0,505.0,506.0,488.0,509.0
511.0,505.0,515.0,496.0,504.0
521.0,507.0,528.0,508.0,502.0
527.0,509.0,539.0,522.0,498.0
528.0,506.0,543.0,534.0,497.0
529.0,506.0,545.0,543.0,498.0
527.0,505.0,540.0,547.0,505.0
520.0,503.0,533.0,542.0,513.0
511.0,500.0,517.0,533.0,524.0
501.0,502.0,504.0,524.0,527.0
504.0,508.0,498.0,516.0,529.0
498.0,511.0,491.0,507.0,523.0
501.0,516.0,489.0,500.0,521.0
505.0,513.0,492.0,497.0,517.0
504.0,512.0,493.0,489.0,517.0
503.0,508.0,494.0,488.0,516.0
507.0,505.0,500.0,482.0,514.0
512.0,509.0,508.0,488.0,508.0
519.0,503.0,517.0,497.0,505.0
529.0,506.0,531.0,512.0,494.0
533.0,507.0,539.0,526.0,492.0
532.0,506.0,548.0,536.0,498.0
530.0,506.0,544.0,544.0,500.0
518.0,504.0,535.0,544.0,505.0
509.0,501.0,527.0,542.0,517.0
501.0,500.0,513.0,529.0,526.0
498.0,505.0,503.0,521.0,530.0
497.0,505.0,493.0,511.0,526.0
498.0,510.0,490.0,504.0,525.0
504.0,512.0,492.0,496.0,522.0
504.0,512.0,491.0,491.0,515.0
506.0,511.0,495.0,486.0,516.0
510.0,508.0,495.0,484.0,515.0
517.0,508.0,503.0,486.0,512.0
517.0,505.0,512.0,491.0,505.0
526.0,506.0,522.0,504.0,504.0
529.0,508.0,534.0,519.0,499.0
535.0,505.0,544.0,531.0,495.0
529.0,502.0,543.0,543.0,492.0
527.0,506.0,546.0,545.0,503.0
517.0,505.0,540.0,543.0,510.0
505.0,503.0,521.0,535.0,520.0
496.0,500.0,508.0,526.0,527.0
489.0,504.0,502.0,517.0,528.0
491.0,508.0,491.0,508.0,528.0
494.0,512.0,488.0,500.0,527.0
496.0,512.0,488.0,494.0,524.0
498.0,514.0,490.0,489.0,520.0
497.0,509.0,494.0,485.0,521.0
509.0,506.0,499.0,484.0,519.0
516.0,506.0,503.0,485.0,511.0
521.0,505.0,516.0,497.0,506.0
532.0,507.0,531.0,511.0,499.0
534.0,509.0,538.0,525.0,500.0
535.0,506.0,544.0,535.0,496.0
535.0,508.0,545.0,545.0,505.0
524.0,510.0,541.0,546.0,507.0
514.0,502.0,532.0,542.0,515.0
502.0,500.0,518.0,534.0,525.0
499.0,502.0,505.0,526.0,529.0
491.0,504.0,495.0,515.0,528.0
502.0,511.0,492.0,508.0,519.0
512.0,516.0,489.0,501.0,520.0
507.0,513.0,489.0,494.0,515.0
517.0,513.0,493.0,490.0,511.0
520.0,509.0,498.0,484.0,511.0
515.0,507.0,499.0,483.0,512.0
518.0,504.0,507.0,488.0,505.0
523.0,504.0,518.0,499.0,505.0
530.0,507.0,532.0,515.0,502.0
535.0,508.0,541.0,529.0,496.0
537.0,505.0,544.0,539.0,497.0
527.0,505.0,544.0,546.0,502.0
522.0,504.0,537.0,544.0,507.0
517.0,502.0,529.0,541.0,510.0
504.0,502.0,514.0,531.0,522.0
492.0,503.0,499.0,520.0,524.0
495.0,508.0,495.0,515.0,525.0
501.0,511.0,491.0,506.0,524.0
504.0,513.0,489.0,497.0,523.0
505.0,514.0,492.0,494.0,519.0
506.0,512.0,494.0,489.0,517.0
507.0,506.0,494.0,483.0,517.0
513.0,504.0,501.0,486.0,510.0
519.0,500.0,511.0,493.0,505.0
526.0,503.0,520.0,505.0,498.0
526.0,508.0,533.0,520.0,495.0
535.0,508.0,545.0,531.0,500.0
528.0,509.0,547.0,541.0,502.0
523.0,505.0,541.0,543.0,505.0
517.0,504.0,533.0,543.0,511.0
506.0,499.0,521.0,537.0,524.0
501.0,501.0,508.0,527.0,528.0
497.0,506.0,499.0,519.0,530.0
494.0,509.0,493.0,514.0,530.0
496.0,510.0,487.0,501.0,525.0
500.0,513.0,485.0,494.0,522.0
503.0,512.0,491.0,491.0,518.0
505.0,511.0,493.0,486.0,516.0
510.0,508.0,494.0,483.0,519.0
520.0,504.0,504.0,485.0,507.0
523.0,503.0,514.0,498.0,505.0
527.0,509.0,525.0,509.0,504.0
528.0,506.0,537.0,523.0,499.0
531.0,506.0,543.0,535.0,496.0
527.0,505.0,543.0,542.0,499.0
520.0,507.0,539.0,544.0,508.0
513.0,503.0,533.0,540.0,515.0
509.0,500.0,520.0,537.0,523.0
499.0,502.0,505.0,523.0,528.0
502.0,507.0,498.0,518.0,527.0
503.0,510.0,493.0,510.0,526.0
500.0,512.0,488.0,500.0,525.0
503.0,512.0,489.0,493.0,517.0
503.0,513.0,492.0,490.0,515.0
506.0,509.0,494.0,485.0,514.0
510.0,508.0,499.0,485.0,515.0
517.0,505.0,509.0,490.0,507.0
518.0,503.0,517.0,499.0,503.0
527.0,506.0,530.0,513.0,500.0
532.0,507.0,538.0,527.0,497.0
528.0,504.0,541.0,539.0,495.0
526.0,506.0,544.0,547.0,501.0
520.0,505.0,538.0,545.0,509.0
511.0,503.0,530.0,541.0,521.0
506.0,502.0,515.0,532.0,528.0
500.0,503.0,505.0,522.0,532.0
498.0,510.0,494.0,514.0,531.0
500.0,511.0,491.0,506.0,530.0
500.0,509.0,486.0,496.0,520.0
504.0,512.0,490.0,492.0,513.0
507.0,510.0,493.0,488.0,515.0
508.0,507.0,495.0,484.0,515.0
513.0,505.0,503.0,486.0,511.0
519.0,504.0,511.0,492.0,507.0
524.0,503.0,519.0,507.0,505.0
526.0,504.0,531.0,517.0,498.0
532.0,507.0,542.0,532.0,496.0
533.0,505.0,545.0,541.0,494.0
524.0,504.0,543.0,545.0,503.0
517.0,503.0,536.0,545.0,511.0
507.0,501.0,522.0,538.0,522.0
498.0,500.0,509.0,529.0,525.0
499.0,504.0,501.0,520.0,529.0
498.0,508.0,493.0,511.0,528.0
497.0,510.0,490.0,505.0,524.0
495.0,512.0,489.0,494.0,521.0
505.0,512.0,491.0,490.0,516.0
507.0,509.0,492.0,486.0,514.0
507.0,506.0,494.0,481.0,516.0
512.0,505.0,504.0,486.0,513.0
518.0,502.0,513.0,493.0,504.0
524.0,504.0,524.0,506.0,503.0
530.0,507.0,535.0,522.0,499.0
531.0,506.0,543.0,534.0,496.0
532.0,506.0,545.0,544.0,499.0
523.0,505.0,542.0,545.0,513.0
512.0,504.0,537.0,546.0,519.0
508.0,501.0,521.0,534.0,526.0
502.0,502.0,508.0,527.0,530.0
493.0,506.0,498.0,516.0,527.0
498.0,509.0,492.0,508.0,522.0
500.0,511.0,488.0,498.0,520.0
503.0,514.0,490.0,492.0,514.0
505.0,510.0,490.0,488.0,514.0
506.0,508.0,494.0,481.0,515.0
507.0,505.0,497.0,483.0,513.0
513.0,503.0,509.0,489.0,509.0
518.0,501.0,516.0,499.0,501.0
525.0,505.0,529.0,515.0,497.0
536.0,509.0,538.0,528.0,491.0
538.0,506.0,544.0,535.0,497.0
533.0,503.0,543.0,543.0,495.0
520.0,504.0,540.0,543.0,509.0
512.0,503.0,531.0,537.0,518.0
501.0,499.0,518.0,528.0,524.0
493.0,500.0,501.0,519.0,529.0
502.0,508.0,496.0,512.0,527.0
502.0,511.0,491.0,504.0,526.0
501.0,510.0,490.0,497.0,526.0
505.0,512.0,490.0,494.0,521.0
503.0,514.0,492.0,488.0,517.0
503.0,506.0,494.0,482.0,517.0
510.0,505.0,502.0,487.0,514.0
513.0,503.0,511.0,494.0,514.0
517.0,502.0,520.0,503.0,506.0
532.0,505.0,530.0,516.0,497.0
534.0,506.0,543.0,533.0,496.0
530.0,506.0,546.0,538.0,497.0
528.0,505.0,544.0,547.0,503.0
520.0,505.0,538.0,540.0,511.0
508.0,499.0,525.0,532.0,520.0
502.0,497.0,511.0,524.0,530.0
496.0,502.0,500.0,516.0,527.0
498.0,508.0,494.0,510.0,528.0
501.0,512.0,491.0,505.0,525.0
499.0,511.0,491.0,500.0,523.0
503.0,512.0,492.0,496.0,518.0
511.0,509.0,493.0,490.0,516.0
507.0,506.0,494.0,488.0,516.0
510.0,503.0,503.0,491.0,515.0
525.0,503.0,519.0,503.0,508.0
526.0,503.0,524.0,511.0,499.0
528.0,506.0,535.0,523.0,496.0
530.0,507.0,544.0,531.0,498.0
537.0,507.0,544.0,536.0,498.0
527.0,504.0,541.0,539.0,507.0
513.0,504.0,535.0,534.0,515.0
503.0,497.0,516.0,524.0,523.0
498.0,501.0,507.0,518.0,530.0
503.0,508.0,500.0,516.0,529.0
499.0,507.0,490.0,507.0,528.0
497.0,511.0,489.0,502.0,521.0
499.0,511.0,489.0,499.0,518.0
503.0,512.0,493.0,498.0,517.0
502.0,506.0,492.0,493.0,513.0
502.0,505.0,497.0,490.0,516.0
506.0,503.0,506.0,495.0,514.0
511.0,504.0,517.0,503.0,510.0
537.0,510.0,530.0,516.0,501.0
544.0,509.0,539.0,526.0,494.0
541.0,508.0,541.0,530.0,496.0
535.0,509.0,546.0,537.0,500.0
523.0,504.0,538.0,534.0,508.0
515.0,502.0,530.0,530.0,515.0
508.0,500.0,515.0,523.0,526.0
499.0,500.0,503.0,515.0,529.0
497.0,507.0,497.0,512.0,531.0
499.0,513.0,493.0,508.0,525.0
501.0,513.0,489.0,503.0,522.0
506.0,517.0,491.0,501.0,518.0
509.0,512.0,494.0,499.0,517.0
504.0,505.0,493.0,497.0,520.0
509.0,504.0,499.0,494.0,513.0
517.0,504.0,510.0,501.0,507.0
523.0,506.0,521.0,509.0,504.0
527.0,506.0,531.0,516.0,500.0
533.0,508.0,539.0,526.0,495.0
531.0,508.0,545.0,531.0,500.0
524.0,505.0,542.0,533.0,504.0
519.0,504.0,536.0,530.0,508.0
509.0,501.0,526.0,524.0,518.0
498.0,501.0,510.0,518.0,528.0
497.0,505.0,501.0,515.0,530.0
496.0,508.0,497.0,511.0,530.0
497.0,511.0,490.0,508.0,527.0
500.0,511.0,488.0,503.0,522.0
507.0,512.0,492.0,502.0,518.0
507.0,510.0,494.0,497.0,519.0
507.0,505.0,494.0,492.0,514.0
512.0,506.0,503.0,497.0,509.0
520.0,507.0,514.0,504.0,506.0
520.0,503.0,523.0,510.0,501.0
530.0,505.0,534.0,521.0,496.0
530.0,505.0,543.0,530.0,495.0
530.0,506.0,551.0,534.0,496.0
522.0,506.0,540.0,534.0,503.0
521.0,502.0,534.0,531.0,511.0
505.0,499.0,520.0,522.0,526.0
499.0,502.0,508.0,519.0,529.0
499.0,509.0,499.0,514.0,526.0
495.0,506.0,489.0,509.0,525.0
495.0,511.0,489.0,504.0,523.0
503.0,513.0,489.0,501.0,522.0
509.0,515.0,493.0,499.0,519.0
512.0,511.0,493.0,497.0,519.0
506.0,505.0,496.0,494.0,519.0
515.0,506.0,508.0,499.0,512.0
519.0,505.0,518.0,506.0,510.0
525.0,506.0,528.0,514.0,505.0
529.0,507.0,539.0,524.0,496.0
530.0,506.0,544.0,530.0,495.0
529.0,506.0,544.0,535.0,497.0
522.0,503.0,540.0,532.0,507.0
516.0,503.0,532.0,530.0,516.0
503.0,500.0,518.0,524.0,524.0
498.0,501.0,502.0,514.0,525.0
498.0,506.0,496.0,511.0,526.0
501.0,510.0,492.0,509.0,524.0
501.0,512.0,489.0,504.0,525.0
505.0,513.0,491.0,508.0,518.0
508.0,509.0,494.0,498.0,515.0
509.0,506.0,494.0,495.0,516.0
512.0,507.0,501.0,496.0,514.0
514.0,503.0,510.0,501.0,506.0
516.0,502.0,519.0,507.0,503.0
526.0,504.0,530.0,515.0,497.0
525.0,505.0,541.0,527.0,497.0
525.0,504.0,544.0,532.0,496.0
518.0,507.0,542.0,533.0,498.0
526.0,503.0,535.0,531.0,503.0
520.0,498.0,525.0,524.0,511.0
505.0,502.0,511.0,518.0,525.0
499.0,506.0,506.0,514.0,528.0
497.0,508.0,493.0,510.0,524.0
499.0,509.0,489.0,507.0,521.0
502.0,513.0,489.0,503.0,522.0
504.0,514.0,495.0,501.0,518.0
500.0,508.0,491.0,495.0,519.0
499.0,505.0,494.0,493.0,519.0
510.0,503.0,506.0,496.0,514.0
512.0,504.0,513.0,503.0,508.0
516.0,503.0,521.0,509.0,504.0
524.0,504.0,534.0,517.0,497.0
543.0,510.0,542.0,529.0,494.0
539.0,507.0,545.0,533.0,494.0
527.0,503.0,539.0,531.0,502.0
519.0,501.0,533.0,528.0,508.0
505.0,498.0,520.0,521.0,522.0
500.0,501.0,509.0,517.0,529.0
499.0,505.0,503.0,514.0,528.0
492.0,509.0,491.0,510.0,525.0
503.0,512.0,490.0,506.0,524.0
501.0,511.0,488.0,501.0,523.0
508.0,511.0,492.0,501.0,515.0
515.0,509.0,491.0,497.0,512.0
514.0,506.0,497.0,495.0,517.0
520.0,503.0,504.0,497.0,509.0
523.0,504.0,517.0,508.0,511.0
529.0,504.0,528.0,518.0,500.0
533.0,507.0,539.0,524.0,496.0
534.0,505.0,543.0,530.0,495.0
530.0,505.0,543.0,532.0,498.0
523.0,503.0,537.0,530.0,510.0
520.0,502.0,531.0,527.0,514.0
505.0,497.0,516.0,520.0,528.0
499.0,499.0,503.0,514.0,529.0
496.0,506.0,495.0,510.0,529.0
500.0,509.0,491.0,508.0,526.0
502.0,512.0,490.0,506.0,522.0
505.0,513.0,495.0,509.0,515.0
505.0,511.0,490.0,500.0,512.0
508.0,508.0,493.0,496.0,514.0
511.0,505.0,500.0,499.0,514.0
514.0,503.0,506.0,501.0,508.0
522.0,504.0,520.0,508.0,506.0
529.0,506.0,531.0,517.0,499.0
531.0,506.0,540.0,526.0,494.0
528.0,504.0,542.0,530.0,496.0
528.0,506.0,544.0,534.0,500.0
520.0,504.0,538.0,530.0,510.0
512.0,501.0,531.0,524.0,517.0
501.0,499.0,511.0,517.0,525.0
501.0,503.0,501.0,513.0,527.0
500.0,508.0,496.0,511.0,533.0
502.0,512.0,492.0,509.0,524.0
502.0,511.0,488.0,506.0,519.0
504.0,512.0,492.0,504.0,518.0
506.0,510.0,493.0,499.0,517.0
503.0,505.0,494.0,496.0,519.0
509.0,505.0,499.0,498.0,512.0
515.0,504.0,515.0,507.0,508.0
518.0,503.0,522.0,510.0,505.0
524.0,506.0,533.0,519.0,501.0
535.0,505.0,543.0,528.0,496.0
532.0,510.0,543.0,535.0,499.0
528.0,507.0,542.0,530.0,500.0
522.0,504.0,535.0,527.0,507.0
508.0,499.0,521.0,519.0,521.0
507.0,505.0,507.0,515.0,529.0
500.0,505.0,499.0,513.0,532.0
494.0,508.0,492.0,507.0,530.0
497.0,512.0,490.0,511.0,528.0
499.0,512.0,489.0,508.0,522.0
504.0,512.0,492.0,507.0,516.0
504.0,510.0,495.0,500.0,516.0
508.0,506.0,498.0,500.0,514.0
508.0,502.0,508.0,504.0,511.0
509.0,503.0,518.0,506.0,508.0
528.0,504.0,525.0,513.0,493.0
530.0,505.0,537.0,520.0,491.0
529.0,504.0,542.0,526.0,489.0
533.0,506.0,545.0,534.0,489.0
525.0,506.0,545.0,529.0,503.0
519.0,506.0,533.0,523.0,521.0
504.0,501.0,518.0,516.0,531.0
492.0,502.0,504.0,510.0,532.0
490.0,505.0,496.0,509.0,534.0
493.0,511.0,493.0,509.0,537.0
501.0,513.0,490.0,507.0,534.0
512.0,515.0,491.0,508.0,530.0
515.0,510.0,493.0,505.0,525.0
508.0,506.0,496.0,500.0,514.0
511.0,508.0,497.0,498.0,512.0
520.0,504.0,507.0,502.0,500.0
522.0,503.0,517.0,508.0,496.0
528.0,508.0,528.0,515.0,490.0
535.0,508.0,540.0,522.0,489.0
532.0,505.0,542.0,528.0,498.0
531.0,506.0,544.0,528.0,498.0
521.0,503.0,537.0,524.0,504.0
512.0,502.0,529.0,521.0,514.0
502.0,500.0,514.0,517.0,526.0
491.0,502.0,500.0,510.0,530.0
498.0,508.0,495.0,510.0,526.0
496.0,512.0,491.0,512.0,524.0
490.0,511.0,489.0,506.0,519.0
506.0,511.0,491.0,507.0,500.0
505.0,508.0,492.0,504.0,500.0
504.0,505.0,497.0,500.0,514.0
506.0,507.0,498.0,499.0,525.0
501.0,507.0,512.0,506.0,517.0
511.0,505.0,523.0,512.0,502.0
520.0,508.0,539.0,520.0,492.0
530.0,508.0,545.0,526.0,509.0
542.0,508.0,549.0,525.0,508.0
538.0,506.0,544.0,528.0,498.0
527.0,508.0,535.0,522.0,504.0
518.0,503.0,519.0,513.0,529.0
517.0,503.0,509.0,511.0,536.0
513.0,504.0,498.0,509.0,528.0
506.0,508.0,490.0,507.0,530.0
506.0,512.0,489.0,509.0,525.0
518.0,514.0,490.0,508.0,525.0
519.0,513.0,493.0,508.0,519.0
514.0,508.0,491.0,503.0,515.0
512.0,509.0,493.0,502.0,514.0
516.0,503.0,504.0,504.0,511.0
520.0,505.0,515.0,508.0,501.0
526.0,506.0,527.0,519.0,497.0
532.0,508.0,537.0,518.0,493.0
532.0,507.0,544.0,527.0,497.0
532.0,508.0,544.0,529.0,498.0
524.0,505.0,539.0,524.0,506.0
516.0,504.0,533.0,520.0,513.0
504.0,500.0,518.0,512.0,522.0
498.0,504.0,505.0,511.0,531.0
495.0,507.0,497.0,509.0,529.0
498.0,511.0,492.0,513.0,530.0
498.0,509.0,488.0,508.0,523.0
500.0,514.0,489.0,509.0,516.0
500.0,516.0,493.0,508.0,514.0
504.0,510.0,495.0,509.0,514.0
506.0,506.0,497.0,503.0,506.0
512.0,505.0,512.0,505.0,507.0
513.0,503.0,515.0,511.0,512.0
532.0,506.0,528.0,516.0,501.0
544.0,506.0,541.0,524.0,494.0
541.0,507.0,542.0,524.0,494.0
535.0,507.0,545.0,527.0,501.0
525.0,506.0,537.0,523.0,507.0
512.0,502.0,528.0,519.0,516.0
502.0,501.0,514.0,513.0,529.0
502.0,501.0,501.0,510.0,528.0
494.0,505.0,495.0,510.0,523.0
495.0,514.0,492.0,512.0,524.0
498.0,515.0,490.0,506.0,525.0
504.0,514.0,491.0,510.0,516.0
505.0,513.0,494.0,505.0,518.0
502.0,511.0,494.0,500.0,520.0
505.0,505.0,499.0,499.0,519.0
513.0,507.0,512.0,505.0,511.0
518.0,504.0,522.0,507.0,504.0
525.0,506.0,532.0,517.0,501.0
525.0,509.0,542.0,521.0,495.0
530.0,509.0,546.0,526.0,500.0
522.0,504.0,542.0,525.0,503.0
514.0,505.0,536.0,522.0,510.0
507.0,502.0,527.0,517.0,521.0
501.0,502.0,512.0,511.0,526.0
491.0,503.0,499.0,510.0,527.0
494.0,506.0,491.0,509.0,528.0
500.0,512.0,487.0,508.0,526.0
494.0,511.0,487.0,506.0,525.0
494.0,513.0,492.0,508.0,521.0
503.0,511.0,495.0,504.0,519.0
506.0,508.0,497.0,503.0,520.0
507.0,504.0,505.0,503.0,517.0
518.0,509.0,517.0,506.0,513.0
521.0,508.0,527.0,515.0,511.0
531.0,509.0,538.0,522.0,500.0
536.0,507.0,542.0,525.0,499.0
535.0,508.0,550.0,529.0,496.0
526.0,506.0,541.0,527.0,502.0
517.0,504.0,534.0,522.0,509.0
502.0,499.0,518.0,518.0,524.0
494.0,501.0,503.0,511.0,524.0
495.0,510.0,496.0,510.0,526.0
500.0,511.0,491.0,511.0,522.0
498.0,512.0,492.0,508.0,521.0
498.0,511.0,488.0,507.0,517.0
503.0,512.0,492.0,505.0,513.0
506.0,508.0,494.0,506.0,517.0
508.0,506.0,498.0,500.0,511.0
513.0,504.0,512.0,503.0,508.0
521.0,503.0,519.0,508.0,503.0
528.0,506.0,530.0,515.0,502.0
530.0,505.0,540.0,523.0,504.0
528.0,504.0,544.0,526.0,505.0
526.0,506.0,547.0,530.0,508.0
516.0,503.0,541.0,528.0,513.0
508.0,500.0,532.0,524.0,516.0
503.0,498.0,514.0,516.0,521.0
500.0,504.0,504.0,513.0,525.0
498.0,511.0,496.0,512.0,526.0
495.0,510.0,490.0,509.0,523.0
494.0,510.0,488.0,507.0,519.0
496.0,511.0,491.0,508.0,514.0
495.0,507.0,493.0,500.0,508.0
486.0,506.0,493.0,500.0,519.0
507.0,507.0,500.0,499.0,512.0
527.0,505.0,514.0,507.0,507.0
530.0,504.0,519.0,507.0,504.0
528.0,506.0,532.0,517.0,514.0
534.0,508.0,543.0,526.0,508.0
532.0,506.0,545.0,530.0,492.0
524.0,506.0,545.0,530.0,504.0
526.0,503.0,535.0,527.0,508.0
519.0,501.0,525.0,521.0,515.0
510.0,501.0,516.0,518.0,516.0
513.0,502.0,502.0,511.0,512.0
506.0,509.0,494.0,511.0,514.0
510.0,512.0,491.0,511.0,520.0
510.0,511.0,488.0,506.0,527.0
507.0,512.0,492.0,508.0,529.0
501.0,509.0,495.0,499.0,539.0
490.0,503.0,495.0,495.0,533.0
506.0,504.0,505.0,503.0,507.0
510.0,502.0,515.0,507.0,505.0
