CH1,CH2,CH3,CH4,CH5
499,509,497,527,515
504,509,501,528,506
509,509,506,529,507
511,506,510,524,505
515,506,517,519,504
521,504,522,514,504
527,509,529,511,504
529,506,536,509,504
530,504,534,501,507
530,504,533,498,513
519,504,530,497,524
510,499,515,490,532
504,500,506,500,533
498,501,498,505,525
497,506,497,518,523
498,508,499,525,514
496,507,494,527,513
500,511,500,530,512
505,509,502,527,508
508,511,507,527,506
516,507,516,525,505
516,505,518,518,504
529,506,526,513,502
533,504,530,514,504
526,504,533,502,508
522,505,534,499,514
518,504,532,496,518
516,502,525,497,526
507,501,509,492,529
499,503,502,499,531
502,504,498,515,525
496,505,495,518,523
497,516,496,525,516
502,508,497,529,515
505,511,501,527,505
508,512,504,531,506
509,508,508,527,504
517,507,518,524,507
519,506,520,516,504
526,508,528,514,504
533,510,533,509,508
532,504,535,503,511
527,505,532,499,512
524,503,529,498,517
520,504,524,495,523
504,501,512,497,529
498,501,499,502,528
496,505,496,512,524
500,510,497,523,520
500,509,495,532,513
499,510,497,529,509
507,512,503,531,507
507,508,504,528,505
511,507,510,524,505
516,507,519,519,503
518,504,521,514,502
525,506,529,513,504
530,509,535,508,504
529,504,535,502,510
526,504,532,499,516
519,503,527,498,521
511,500,517,495,528
500,500,506,499,534
497,504,500,508,529
495,505,494,515,523
500,508,496,524,517
502,511,497,529,514
503,508,498,530,508
507,510,504,531,504
508,508,508,528,503
512,506,510,523,504
518,505,519,518,504
522,505,524,514,504
533,507,531,511,503
532,506,536,506,508
531,508,533,502,514
524,504,531,499,520
518,502,525,498,518
507,499,512,496,527
499,501,505,499,530
499,504,498,509,526
498,507,494,524,522
498,509,496,526,518
503,511,494,527,510
507,511,501,530,506
508,509,503,529,504
510,513,507,526,503
511,505,512,520,503
518,506,523,517,503
527,508,533,519,502
530,507,533,511,505
527,504,534,502,512
525,501,530,498,513
520,503,528,499,519
517,504,524,499,524
506,499,506,495,528
502,504,501,506,529
500,506,495,513,521
505,510,497,523,518
500,509,495,527,514
505,511,497,531,509
512,511,503,534,502
508,508,505,530,501
509,507,510,525,508
517,506,516,520,498
520,504,524,514,508
529,504,527,509,505
535,507,535,510,504
536,507,540,502,510
526,507,533,501,516
520,504,525,499,516
513,503,517,497,525
501,501,504,497,534
497,502,499,505,530
497,506,495,514,523
500,510,495,523,519
501,508,494,526,510
504,509,498,528,509
505,508,507,534,504
510,509,506,527,502
516,510,509,523,506
518,504,518,518,505
527,505,522,516,505
525,504,530,508,506
529,506,535,505,506
532,505,536,500,512
525,505,532,499,518
519,503,526,498,521
503,498,511,494,530
499,499,503,500,530
500,504,500,510,527
495,506,494,517,520
498,509,496,526,515
505,511,497,533,512
506,510,500,534,507
506,510,500,529,502
518,510,508,527,503
517,506,512,521,500
521,506,520,518,502
528,508,528,514,505
533,507,534,511,504
536,506,536,503,509
527,504,533,500,517
520,503,528,497,520
517,503,524,498,522
505,500,509,497,532
500,501,501,508,534
497,505,498,514,522
499,510,497,522,519
499,510,498,527,514
500,509,496,527,507
506,510,502,531,504
511,508,503,530,505
511,505,508,523,502
516,504,514,520,502
519,504,520,515,505
524,505,529,513,506
527,506,536,506,505
528,504,535,503,510
521,501,531,498,514
514,502,527,499,520
509,501,520,498,526
508,499,506,499,526
507,504,501,509,525
500,505,495,514,524
496,509,495,522,519
503,511,497,528,514
503,509,497,528,508
508,511,504,530,504
514,509,506,528,504
516,507,510,522,505
527,507,519,519,503
527,504,527,515,501
531,504,532,511,503
532,505,532,505,511
528,504,533,498,521
527,505,531,498,518
522,505,526,497,522
514,502,514,495,531
503,501,503,500,527
502,504,499,510,526
497,506,492,516,522
500,510,497,525,514
504,514,498,531,510
505,510,498,530,500
506,514,503,529,500
511,506,506,525,499
518,507,513,522,502
522,505,519,517,501
527,506,527,514,503
527,507,533,509,506
528,509,536,504,511
523,505,533,500,513
517,504,528,498,514
516,506,525,498,519
503,500,510,500,531
496,503,501,503,526
505,509,497,511,530
503,506,494,519,523
502,510,495,526,516
505,511,497,531,508
506,510,501,530,501
508,509,504,529,504
510,507,509,526,500
516,505,514,519,500
517,506,521,516,500
515,504,527,510,504
522,507,535,506,510
524,504,537,502,511
519,503,533,498,515
512,505,528,497,519
512,504,520,497,525
530,503,509,498,523
517,506,503,509,519
506,508,496,516,513
501,508,494,523,508
506,509,494,526,494
508,509,497,527,506
508,510,501,528,496
513,508,505,528,503
517,505,509,522,502
523,506,519,520,499
529,505,526,515,497
529,507,531,510,514
530,506,536,503,524
530,505,534,499,518
528,506,532,496,517
522,509,527,495,534
506,505,512,492,544
508,502,508,501,538
499,505,500,509,536
494,510,493,517,533
494,508,494,524,517
492,510,492,529,509
498,509,500,532,506
506,512,503,530,506
506,508,504,527,493
516,505,511,522,485
521,506,520,518,492
526,506,530,514,493
528,504,532,507,502
530,505,535,502,506
527,504,533,498,514
523,505,531,496,521
516,507,525,496,529
505,500,511,494,539
497,502,502,503,537
496,503,497,511,526
498,507,494,521,512
502,509,494,530,506
503,513,495,531,501
508,509,504,534,497
509,513,503,531,500
514,506,508,527,499
516,506,515,522,499
522,504,519,515,502
526,505,528,509,505
531,507,535,504,510
531,505,535,499,515
529,505,533,497,518
524,503,529,495,523
514,501,520,492,527
504,500,508,495,530
500,501,499,505,521
499,506,494,514,518
499,508,494,524,513
501,510,495,527,509
505,511,498,533,510
508,509,500,532,506
510,510,507,532,507
513,506,513,524,506
519,510,517,518,509
521,505,522,516,507
525,509,530,508,508
531,507,537,503,509
529,504,536,497,511
526,504,533,497,510
520,502,527,493,516
509,499,515,491,527
501,503,504,497,526
499,503,498,508,520
497,505,494,517,517
500,508,495,526,514
504,510,499,532,512
505,510,495,531,504
507,510,508,535,501
510,508,504,529,500
518,507,513,523,502
520,505,518,519,499
528,508,528,512,505
530,508,536,507,508
532,505,539,497,508
531,507,535,494,505
529,504,533,495,509
523,504,527,494,512
505,499,512,492,527
499,501,501,499,532
504,507,497,512,525
498,507,495,520,516
497,509,495,528,513
502,512,497,532,509
509,509,499,532,504
511,509,505,532,500
512,507,507,527,495
519,506,516,521,493
525,504,520,513,487
534,504,529,506,484
532,506,536,501,492
531,503,536,494,494
527,504,535,493,503
523,503,531,493,508
509,504,524,490,544
499,503,510,493,546
496,504,505,510,534
502,506,497,515,524
502,514,495,523,518
502,513,496,530,517
507,511,497,532,525
509,509,499,530,503
517,508,504,530,493
525,509,509,527,501
522,506,520,520,495
526,508,527,521,492
525,507,537,508,513
521,507,538,500,531
522,503,538,491,537
521,503,534,488,534
517,503,530,489,535
500,498,517,484,548
496,501,507,493,542
494,505,501,505,529
493,505,493,514,519
496,509,495,527,513
499,508,495,530,514
501,509,498,531,509
507,509,503,533,505
512,508,505,533,500
513,506,513,522,503
519,504,519,520,488
526,506,528,510,494
531,507,536,504,506
533,509,538,497,514
528,504,537,492,523
526,505,533,491,525
523,507,528,491,533
507,498,514,490,533
501,503,504,498,528
497,504,498,512,524
499,509,498,522,519
500,509,494,527,504
503,511,498,532,499
508,510,501,533,499
509,508,502,530,497
517,511,508,528,493
515,505,515,520,493
521,505,523,515,503
523,504,520,502,495
532,506,533,515,499
532,510,538,528,501
530,504,542,538,512
524,504,541,542,522
517,501,535,540,531
507,500,520,537,536
498,500,510,532,537
499,505,502,523,528
504,509,496,516,522
502,512,493,508,517
503,513,492,500,513
504,513,495,497,505
503,512,498,492,504
505,509,498,487,499
514,507,507,492,498
518,506,516,498,501
526,506,525,506,503
532,507,535,519,507
536,503,539,528,509
533,502,541,539,508
526,503,538,540,514
519,500,530,538,523
506,498,518,531,531
499,500,506,524,527
497,504,499,520,524
497,507,494,512,518
496,513,491,504,509
501,512,491,498,505
504,512,496,493,506
501,511,494,489,505
503,507,502,489,506
508,506,511,496,509
513,506,523,500,510
526,507,530,511,509
528,506,536,524,507
535,505,543,532,510
540,509,544,540,510
526,500,536,537,512
515,499,528,538,525
505,503,514,532,530
500,501,502,523,524
497,506,495,513,524
502,511,492,507,514
505,512,491,500,510
503,514,494,497,500
504,512,497,493,496
503,508,496,486,499
510,507,502,488,500
516,507,513,494,502
521,505,519,502,505
529,505,532,515,508
534,506,544,525,509
533,505,543,533,512
530,504,540,536,512
523,501,539,538,520
512,499,522,535,528
504,500,510,528,529
498,504,501,520,524
493,507,494,512,517
498,512,494,507,507
496,512,492,500,507
505,514,495,497,507
507,513,498,491,504
507,508,498,487,506
513,506,510,491,503
520,505,520,501,499
521,506,526,513,499
523,505,533,517,509
537,505,540,526,513
540,506,543,537,517
529,502,537,538,521
518,501,531,537,526
504,498,517,532,532
501,501,507,527,530
499,506,499,519,523
496,510,495,513,516
502,511,491,503,512
500,513,493,499,505
504,513,496,495,501
504,511,497,489,503
508,508,501,487,504
523,504,508,490,504
524,504,517,498,501
528,505,529,510,502
533,505,537,525,504
534,503,541,531,510
531,505,542,540,514
522,500,535,538,520
514,499,529,539,525
506,499,515,531,534
493,500,502,521,535
490,504,494,517,527
502,510,492,509,515
504,511,490,501,510
508,518,493,497,498
512,514,498,492,497
512,509,498,488,499
514,508,504,489,502
519,506,514,495,504
527,508,520,504,511
528,506,531,515,512
528,504,540,524,507
528,505,544,537,510
523,501,538,538,518
519,502,534,538,525
509,498,520,533,533
514,501,511,528,534
506,501,501,524,527
501,508,495,513,521
500,510,491,507,513
498,508,490,498,505
498,512,493,497,494
502,511,498,489,495
509,507,499,487,502
512,506,505,488,504
524,504,515,496,501
531,506,526,507,496
536,506,535,519,499
536,505,542,530,510
527,501,540,534,515
520,501,536,539,521
515,500,530,541,524
505,500,517,533,532
500,499,506,525,531
499,504,501,520,522
494,509,492,511,517
497,513,489,503,509
501,511,491,499,504
507,512,494,494,502
506,509,495,489,504
509,507,500,488,506
516,505,509,492,506
522,505,522,499,506
526,507,530,512,503
530,506,539,521,507
530,505,541,531,516
527,503,543,536,524
520,501,535,537,525
516,501,529,538,535
502,499,513,528,533
501,501,503,524,530
500,506,496,518,523
499,510,497,511,512
500,516,491,503,510
503,514,495,498,504
508,517,496,494,497
503,508,495,487,497
506,506,502,488,497
514,504,513,492,496
517,503,520,501,510
527,505,531,512,509
536,506,538,525,502
534,504,542,535,506
531,503,541,538,513
522,500,532,538,517
513,499,523,535,531
501,499,509,527,541
499,504,501,520,536
501,511,493,513,526
499,510,491,506,515
498,512,489,498,513
505,511,493,495,506
507,511,495,490,501
506,507,497,487,504
508,505,504,488,504
516,503,514,495,503
521,504,527,503,502
530,505,537,519,505
533,504,540,529,506
535,505,543,538,517
530,503,542,540,525
520,500,530,538,529
513,499,518,532,536
503,500,505,524,532
496,504,497,516,526
497,509,492,507,520
503,511,490,504,510
506,513,492,501,501
505,513,494,495,497
507,510,496,488,499
510,507,499,486,499
514,507,508,491,502
521,506,519,499,511
525,507,531,510,507
527,504,538,524,504
524,503,541,536,510
527,505,543,540,514
526,502,539,539,520
517,502,528,534,527
507,499,513,529,531
505,502,503,522,531
500,512,494,516,530
501,509,497,512,522
503,513,491,502,516
505,514,494,498,508
510,514,497,494,502
509,510,497,488,503
514,509,503,489,501
520,508,513,495,502
523,506,521,503,503
527,506,530,513,503
531,503,537,524,506
532,504,541,534,512
530,508,541,540,520
520,502,535,538,522
511,498,526,534,533
504,501,511,529,535
501,505,502,521,530
504,508,496,512,525
500,513,491,505,518
502,512,490,498,516
506,513,493,494,508
513,516,497,489,502
511,508,497,486,500
513,507,505,489,497
519,506,515,494,497
521,505,523,506,499
525,504,531,515,503
526,504,540,528,512
522,503,540,536,513
517,503,539,540,521
507,500,527,537,527
497,497,517,532,535
506,501,507,526,532
506,506,499,520,525
504,511,494,515,517
506,512,491,504,516
506,513,493,500,509
509,515,495,496,503
511,512,497,491,503
510,510,500,489,504
513,506,511,491,502
519,504,517,499,503
523,503,527,510,504
532,510,537,524,508
529,504,540,531,514
536,505,546,539,515
528,504,536,540,521
517,501,531,538,531
508,500,514,531,538
501,502,502,523,533
503,509,497,518,524
503,512,496,512,517
498,511,487,501,516
503,514,494,500,511
506,512,496,494,506
504,507,495,488,501
505,508,501,488,495
513,507,512,495,500
520,506,521,503,506
524,506,531,515,507
527,505,539,525,504
531,503,542,535,511
524,503,539,540,517
521,502,534,540,526
509,498,522,535,532
496,501,508,528,532
509,505,502,520,526
502,506,495,515,522
502,511,491,505,512
503,511,490,499,507
513,514,496,496,501
514,512,497,493,499
510,509,497,488,502
512,506,505,495,505
520,505,515,498,501
523,505,524,510,500
533,507,535,519,501
537,503,538,527,506
532,505,543,536,511
523,501,536,538,521
514,502,530,537,530
503,495,515,536,531
498,499,504,525,528
497,505,497,522,520
498,508,492,512,516
504,511,491,507,509
507,514,492,500,503
512,518,493,494,499
509,515,497,489,503
510,507,498,487,499
514,505,507,491,502
520,507,515,497,511
526,506,525,509,506
530,505,537,522,507
530,504,541,532,514
526,507,540,536,518
523,503,537,539,523
514,499,532,536,527
504,499,514,533,536
496,504,501,522,538
497,506,498,514,527
498,511,495,507,516
497,511,493,501,509
502,514,498,498,504
504,514,495,493,502
504,510,497,489,503
510,509,504,490,502
513,510,512,494,502
519,505,522,504,502
526,506,530,513,504
532,506,541,524,507
529,503,540,533,513
527,504,540,539,523
522,503,537,539,529
512,500,524,536,534
504,500,509,528,532
501,503,499,520,525
500,508,493,513,511
495,511,490,505,513
496,513,490,499,508
502,515,493,496,502
508,513,495,489,498
507,509,496,486,511
511,507,504,489,513
516,509,516,498,510
520,507,522,505,507
523,506,537,519,503
526,509,539,529,503
526,503,540,536,501
523,504,538,540,514
515,500,530,540,518
505,498,517,533,530
504,501,507,526,532
503,506,500,522,526
499,509,493,510,525
498,510,489,502,516
501,513,492,497,511
505,513,493,492,499
505,511,497,487,497
503,507,498,486,501
511,506,508,491,502
519,508,517,499,503
520,506,529,510,504
527,506,538,518,505
525,504,543,528,511
526,505,543,539,517
517,501,535,537,523
514,502,529,538,531
514,499,514,529,533
501,502,503,523,530
500,505,496,515,520
493,509,491,508,514
495,511,491,501,510
501,514,495,499,503
505,514,497,493,500
512,510,497,489,499
514,508,504,489,502
527,507,514,496,502
529,507,520,504,504
530,505,531,514,507
531,505,539,525,508
525,501,539,532,514
526,507,539,538,518
518,501,533,539,521
509,499,524,534,533
499,499,510,527,534
502,504,500,519,527
505,508,499,514,519
509,513,493,507,512
507,513,490,500,510
510,514,493,499,502
511,513,496,493,500
511,509,498,488,504
515,508,506,489,503
519,507,516,497,502
525,506,524,506,498
528,509,532,518,501
538,504,541,527,506
530,508,543,538,509
524,503,538,541,518
513,507,530,538,531
505,496,515,529,535
505,500,508,525,530
494,504,500,517,531
495,509,492,511,522
499,512,491,503,517
501,514,492,499,511
504,515,496,495,500
511,513,500,491,496
510,510,501,489,497
510,507,510,492,501
523,506,518,500,510
529,509,527,509,511
533,505,538,520,508
533,503,540,530,513
530,504,541,535,523
524,503,538,541,528
512,499,527,537,531
504,500,515,531,532
497,502,505,522,523
495,504,496,516,520
497,509,493,509,514
497,511,491,501,509
500,519,493,498,502
502,515,496,494,498
509,510,497,487,501
514,508,503,487,500
520,507,513,494,501
522,505,520,501,505
527,505,529,516,502
531,506,538,526,506
531,504,541,534,513
528,504,540,539,519
521,501,536,538,521
514,499,525,536,530
503,500,510,528,531
497,503,501,521,525
497,506,492,513,521
496,509,491,505,515
497,511,489,498,512
502,515,495,496,507
506,519,496,492,507
509,510,504,491,507
514,508,507,491,507
516,510,515,498,502
527,506,524,507,495
532,504,533,517,497
532,504,540,528,504
531,505,543,536,512
522,501,538,538,521
512,502,532,540,527
507,499,519,531,535
503,502,508,527,531
498,505,500,518,527
496,508,491,510,519
502,516,491,504,510
504,512,491,498,504
507,514,493,495,500
506,511,496,490,501
509,508,497,485,503
511,504,507,491,508
512,505,517,498,504
520,506,529,511,501
524,504,535,520,502
533,504,542,529,509
536,504,542,542,516
523,499,535,542,522
525,503,530,539,528
511,500,515,532,532
501,502,502,525,529
501,505,496,516,522
497,509,493,507,515
496,512,489,501,511
503,513,492,497,506
509,513,494,492,502
509,508,495,487,506
505,507,501,487,508
525,506,510,493,507
525,503,519,501,507
528,505,531,515,507
530,506,541,526,507
535,503,542,536,506
532,504,540,538,511
520,502,538,539,523
520,498,524,536,524
508,500,512,529,524
499,502,500,521,520
500,506,495,515,518
500,511,495,508,509
500,511,491,500,506
505,512,493,496,503
511,511,496,490,504
510,509,498,489,496
514,507,506,494,494
518,507,516,498,504
526,506,522,504,500
525,505,532,519,506
532,508,541,528,513
533,504,542,538,516
530,504,539,540,522
523,505,533,540,528
504,498,518,531,532
497,499,507,526,533
496,504,504,518,527
503,509,495,514,523
500,511,492,505,521
501,512,492,499,511
506,510,493,493,503
505,508,497,492,502
505,509,498,489,509
511,507,507,491,509
520,507,516,499,507
529,509,530,512,503
531,506,537,521,504
533,504,542,532,511
530,502,540,538,514
523,503,536,540,525
515,499,528,537,531
503,501,514,529,535
499,500,503,522,534
499,505,497,517,527
501,509,494,508,521
504,512,490,504,513
506,514,495,499,504
507,512,496,493,499
510,510,498,489,500
515,508,503,489,504
515,508,509,493,508
522,504,521,503,505
529,505,529,513,505
531,503,537,523,507
531,504,541,533,518
526,503,540,538,526
520,501,535,538,532
514,500,522,536,539
507,499,510,526,535
500,505,499,522,531
500,508,494,514,513
497,510,491,504,501
497,509,490,504,501
503,515,496,498,498
502,512,496,492,494
499,507,496,487,497
508,504,502,488,499
512,504,513,497,499
519,503,521,505,498
526,505,534,520,501
536,505,539,529,504
533,510,542,538,514
525,503,538,541,522
519,499,531,539,523
505,498,517,534,533
495,495,505,527,533
494,497,495,518,525
500,504,494,510,515
503,508,492,507,505
497,508,490,510,508
501,512,494,494,505
506,519,498,488,503
509,514,501,486,508
515,509,509,492,502
518,508,519,501,502
532,507,527,510,500
530,505,535,521,504
531,505,542,531,512
527,504,543,542,520
514,503,537,540,528
509,501,530,541,529
498,498,515,532,529
492,502,502,522,523
489,505,495,515,516
501,510,492,510,509
511,511,490,503,509
509,513,494,501,506
512,514,497,500,504
517,511,499,490,500
517,510,504,490,502
520,508,512,494,499
525,508,521,503,502
529,507,531,514,505
530,506,538,525,508
538,506,543,536,514
533,504,540,539,517
523,502,534,541,524
510,498,524,539,532
503,503,511,526,522
500,504,501,525,522
502,508,495,513,518
503,509,490,504,515
504,511,488,495,522
506,513,493,493,521
507,511,496,490,513
505,508,495,485,509
511,508,506,490,507
529,507,515,498,500
529,504,522,507,506
531,505,531,517,504
528,501,539,536,496
522,503,540,534,513
519,505,537,541,524
516,502,533,539,528
506,497,518,534,520
496,498,506,529,520
493,503,497,521,525
499,510,495,509,513
500,511,491,503,503
498,510,491,498,502
500,511,494,494,503
501,510,497,490,503
506,509,497,491,498
516,507,511,491,502
522,505,516,498,507
527,506,527,511,503
531,507,536,521,506
527,502,540,527,510
529,506,543,539,513
521,503,536,538,521
518,500,530,542,525
505,497,515,531,529
492,500,501,522,534
496,506,495,517,526
494,510,492,515,516
497,513,490,501,509
499,514,494,498,503
504,514,493,494,511
503,511,497,483,505
505,506,501,486,512
526,506,509,490,517
549,507,519,499,517
546,508,529,512,516
550,509,541,526,519
541,504,543,531,522
528,502,538,536,523
509,503,536,544,516
493,499,524,537,506
488,499,510,529,518
496,502,502,522,512
493,504,495,519,509
502,509,490,508,513
496,511,491,507,513
505,515,493,492,500
504,512,496,492,501
505,510,497,485,502
512,507,504,485,502
519,505,515,497,504
520,506,525,506,507
529,507,532,515,504
530,505,542,523,507
529,507,544,536,516
520,504,539,540,528
511,499,534,543,530
490,493,520,545,545
483,499,509,525,539
487,508,499,507,525
484,507,491,507,510
496,509,489,502,501
494,511,490,498,504
513,514,494,496,499
531,513,498,491,496
518,508,499,492,485
517,506,507,496,491
521,505,517,496,488
533,507,525,507,492
539,507,533,519,500
542,506,541,530,509
548,507,543,539,516
530,504,536,538,525
514,499,527,534,533
501,499,514,530,534
501,502,504,524,530
513,509,498,517,523
504,511,492,511,519
496,511,489,502,514
497,514,492,500,509
491,513,494,494,499
489,507,496,489,509
502,506,501,488,508
511,506,510,491,508
513,502,518,500,514
509,503,527,510,504
504,504,540,524,501
495,503,543,539,509
490,498,539,548,506
490,504,540,541,511
488,499,525,532,535
500,498,511,527,536
515,506,504,525,536
530,513,494,516,536
520,515,493,506,527
507,513,489,498,524
506,513,491,496,514
512,514,494,492,501
511,509,497,491,506
528,506,501,493,507
529,506,514,494,495
537,509,527,512,491
550,505,532,523,494
547,507,540,524,509
538,504,543,531,514
540,502,538,536,491
537,500,535,537,496
527,497,517,528,537
518,501,506,525,537
502,504,499,520,551
498,509,494,511,548
487,507,490,511,522
494,507,489,513,516
515,517,496,503,492
512,512,495,484,482
503,505,496,483,488
516,510,509,488,489
504,507,520,505,495
499,505,531,532,515
535,512,543,513,525
536,509,540,523,533
521,504,543,533,526
519,500,534,536,514
516,498,527,537,508
506,494,510,530,511
505,499,502,523,510
505,502,497,526,523
516,514,495,507,523
498,517,492,503,527
485,516,498,497,514
478,513,496,488,517
472,510,498,492,493
483,504,499,487,474
508,503,506,491,513
532,504,522,497,555
536,502,530,513,559
557,509,539,524,530
544,507,542,533,496
541,507,545,546,451
530,502,535,540,470
520,498,522,535,492
511,503,513,532,508
493,501,505,534,553
491,505,494,515,550
507,512,492,500,523
501,510,489,502,515
503,511,495,502,506
519,513,495,497,504
506,508,495,489,506
511,506,504,491,501
517,508,512,493,501
536,507,523,505,509
548,507,528,515,522
550,509,543,532,495
545,506,545,541,493
528,502,541,541,513
500,501,533,542,539
478,493,517,533,548
483,499,507,518,537
491,505,502,521,520
506,514,499,523,528
500,519,497,510,507
492,516,493,501,523
493,514,496,501,514
507,508,495,504,470
508,505,496,489,465
520,505,504,499,507
525,499,511,508,515
534,504,522,492,519
543,504,533,514,531
552,503,538,523,516
555,505,543,536,501
535,502,542,540,540
516,500,532,540,542
511,502,522,535,544
512,508,506,521,571
521,509,495,506,566
521,511,490,506,532
519,513,488,503,516
521,512,490,512,504
479,506,492,496,473
407,502,493,498,487
432,509,508,504,471
487,509,514,497,461
464,501,519,503,493
450,497,525,513,528
467,498,542,530,596
489,499,545,531,573
498,499,542,534,526
499,510,546,544,521
482,503,536,537,508
487,503,514,534,466
488,499,496,519,502
517,503,487,507,555
569,518,489,503,561
606,522,488,503,526
580,520,490,496,542
573,522,500,498,498
554,520,504,497,502
505,513,509,496,562
470,505,520,505,573
498,500,525,512,536
538,503,533,522,481
545,506,546,532,438
552,502,546,535,438
547,492,533,525,499
531,492,532,535,487
529,493,520,536,495
539,500,507,523,493
526,503,497,520,531
516,510,493,510,556
501,515,488,510,547
493,516,491,509,510
494,514,492,507,481
503,511,495,508,438
485,509,496,497,482
488,512,513,499,546
499,508,525,499,548
504,508,530,500,499
492,501,535,511,505
472,489,536,523,524
472,493,542,536,533
443,498,542,525,606
442,497,539,527,590
472,495,525,553,605
547,505,512,531,504
573,504,493,508,507
542,498,478,504,483
523,498,476,510,476
503,507,486,517,478
533,512,484,483,476
574,526,501,489,524
597,531,509,492,537
595,519,517,497,606
579,514,528,496,550
520,503,528,503,594
448,495,535,504,545
388,489,540,524,392
433,483,537,530,397
445,487,538,549,437
379,475,524,560,523
369,474,501,531,548
462,495,499,518,520
466,512,505,534,510
414,506,494,539,551
381,509,493,516,514
379,509,487,498,425
413,505,483,498,455
483,508,491,504,513
538,516,508,514,561
654,528,525,515,624
538,500,508,496,570
450,471,503,502,337
400,481,530,526,327
458,495,538,520,431
524,498,540,512,625
697,523,556,527,609
629,515,537,539,496
481,507,516,514,505
453,510,510,524,563
459,520,505,525,566
465,514,490,505,548
474,506,478,481,605
534,494,470,495,537
568,504,476,479,555
522,497,481,486,616
375,470,478,487,741
310,483,503,502,424
309,497,532,541,310
336,499,543,534,401
436,515,558,530,509
597,519,562,525,490
629,508,547,523,526
530,495,528,507,674
488,497,522,527,569
418,503,517,530,550
356,492,494,525,559
357,490,484,527,464
390,481,470,504,449
403,485,464,480,481
558,526,491,487,467
720,535,502,481,508
614,533,516,501,509
664,527,523,531,610
590,504,520,533,532
601,500,528,508,508
458,475,531,522,580
473,490,551,514,575
437,487,540,523,586
410,489,529,490,574
450,494,534,535,508
445,487,511,520,467
496,503,505,519,432
531,516,497,526,493
484,510,490,524,519
355,512,491,519,572
296,504,486,512,500
278,478,471,505,298
331,478,474,496,320
409,486,488,493,458
539,500,505,495,460
594,509,531,510,555
764,541,565,551,556
656,526,559,542,528
594,499,545,527,504
648,498,551,540,577
584,501,554,547,548
518,493,529,522,472
501,506,525,524,587
491,505,508,509,599
526,504,486,495,590
555,503,470,471,613
605,498,469,474,442
557,499,475,504,490
628,518,487,511,460
600,517,493,499,530
605,519,510,504,513
518,506,511,484,529
395,501,521,496,516
396,492,541,523,416
420,495,555,545,437
459,496,557,568,458
479,499,548,551,409
416,482,533,531,473
467,493,526,532,519
460,497,508,543,531
450,497,492,538,453
523,505,480,516,482
556,514,487,527,498
527,527,493,478,666
668,555,513,482,617
756,528,506,490,485
624,502,501,509,451
480,483,501,523,500
514,505,520,502,509
484,499,522,470,556
515,508,549,509,600
578,512,558,542,560
622,497,548,548,517
616,507,548,546,495
529,491,538,551,558
481,486,506,518,572
431,488,483,499,558
368,485,470,492,523
408,501,477,499,470
432,502,482,494,501
476,511,487,494,524
573,519,493,501,535
624,520,498,501,589
606,521,516,510,591
520,504,512,515,508
548,504,527,522,378
569,520,541,531,400
570,515,542,521,506
553,496,531,516,540
534,489,528,535,499
455,494,529,546,474
398,498,535,559,482
383,510,523,563,442
425,506,506,552,499
542,515,493,515,516
615,516,500,541,495
588,503,485,520,480
510,494,478,500,525
472,499,487,499,426
531,522,504,492,513
492,510,503,482,525
548,502,510,490,547
465,500,523,510,485
406,499,534,524,542
397,507,537,525,570
522,503,534,534,551
655,505,538,548,517
640,513,529,545,554
530,500,510,545,543
511,517,508,547,500
504,512,503,554,512
535,506,487,516,538
545,501,487,518,513
536,508,493,508,494
572,513,502,505,486
522,502,500,515,551
453,492,490,474,546
285,467,485,480,521
343,477,498,498,462
455,493,517,518,492
615,523,542,550,424
582,517,543,558,517
596,522,544,551,461
674,522,541,546,524
624,522,534,545,580
459,508,516,538,622
522,507,510,557,515
579,506,498,545,540
625,522,494,527,516
571,522,495,519,478
527,512,493,506,464
447,499,488,489,577
482,506,490,483,552
507,493,493,493,560
517,503,511,518,484
421,494,516,541,505
422,507,532,529,428
541,520,549,534,471
525,509,542,537,498
520,505,535,543,558
551,512,535,535,660
554,499,513,532,619
505,490,494,545,432
505,513,500,545,383
450,495,485,530,474
503,510,486,503,465
485,502,482,489,506
537,511,491,502,515
516,514,499,512,515
531,508,505,523,487
520,499,506,510,438
435,486,508,510,421
412,497,514,508,505
407,494,527,518,549
497,504,546,544,474
569,508,541,544,447
559,506,529,541,532
631,516,533,554,525
600,512,516,540,584
480,495,501,523,615
567,512,505,529,521
544,512,497,528,515
523,514,491,519,526
505,513,493,517,512
559,523,503,521,437
555,527,507,506,504
527,515,512,504,556
583,507,519,524,484
492,482,502,515,531
508,492,515,508,522
572,510,538,526,517
501,500,537,535,469
517,502,534,539,496
541,511,536,557,549
543,508,530,561,523
551,507,512,550,474
509,502,496,524,593
461,502,495,513,544
479,508,495,522,503
496,510,494,515,538
511,515,494,510,569
464,504,491,495,578
474,499,492,496,478
521,510,505,497,504
480,505,511,504,527
451,499,518,519,452
456,507,531,531,448
471,502,532,521,539
560,497,534,549,482
688,517,534,536,435
621,513,533,550,400
530,501,519,538,519
398,503,516,532,570
391,502,502,530,509
417,491,490,529,570
522,519,496,518,644
544,521,492,511,565
598,522,498,507,465
561,508,488,491,489
590,505,492,496,469
574,507,507,510,455
551,509,515,510,465
537,502,517,517,458
479,498,530,539,502
484,507,541,545,525
457,498,538,537,577
535,503,530,535,539
436,483,518,526,533
320,469,500,526,529
296,469,490,526,550
306,488,497,527,558
530,518,499,522,531
736,552,509,528,485
611,532,512,538,478
561,534,504,511,479
586,521,504,506,468
541,505,504,512,517
552,506,510,514,517
590,504,509,492,546
606,508,521,507,466
605,515,537,532,522
571,509,542,544,562
572,505,541,546,524
559,502,530,536,576
524,501,529,559,569
423,497,514,540,542
458,500,499,526,438
440,491,489,507,526
444,502,486,514,489
411,503,484,501,513
588,540,510,518,468
614,538,512,522,428
504,512,506,516,431
438,483,494,495,595
480,482,495,494,552
483,498,515,507,579
540,505,521,510,526
515,503,537,530,409
529,508,541,546,460
567,507,539,550,500
552,500,528,539,528
461,494,517,543,571
533,497,501,519,504
545,512,505,520,497
548,513,492,514,529
519,508,488,507,525
476,505,490,505,528
506,524,501,513,486
532,516,501,512,469
567,509,498,499,478
547,513,508,499,557
534,515,522,513,510
540,502,519,517,507
462,482,522,518,489
441,491,530,533,497
354,491,534,541,558
481,502,533,539,509
489,503,532,543,504
584,504,520,551,481
648,516,513,545,512
597,524,508,534,514
513,504,488,497,590
452,501,489,512,488
504,510,489,512,483
513,510,491,509,516
514,504,490,495,500
539,511,503,494,499
548,511,513,503,485
508,509,523,508,492
497,511,533,519,557
532,511,542,525,571
588,509,538,527,542
491,490,530,536,534
516,510,541,547,570
538,509,532,541,607
501,484,503,534,526
386,493,504,541,442
382,500,491,515,539
336,495,478,486,590
526,510,488,498,521
632,528,501,512,519
539,507,492,507,524
517,501,487,494,538
584,513,506,504,471
513,506,510,513,435
467,502,522,507,461
496,507,529,513,458
619,514,541,532,463
576,513,548,560,494
527,508,543,536,507
492,506,535,531,536
516,502,522,537,507
480,488,498,524,541
433,493,495,529,525
379,499,492,516,582
341,497,486,497,564
470,505,491,507,522
559,525,504,525,472
478,515,502,508,510
501,509,499,488,549
604,521,515,489,491
576,496,512,494,476
496,488,514,508,474
564,511,534,526,452
520,501,537,532,438
558,505,540,544,439
619,511,537,539,546
602,501,523,524,652
550,504,513,530,544
503,500,502,519,535
494,505,500,537,494
431,505,492,530,559
448,512,493,515,522
474,513,492,499,485
548,516,500,507,451
526,512,504,508,452
483,495,499,497,491
470,504,507,495,513
473,501,515,498,535
527,510,529,511,536
562,511,536,524,523
591,506,538,533,522
612,513,537,530,511
572,508,530,539,520
534,500,522,548,511
543,496,507,531,508
512,505,504,527,534
482,503,498,526,550
510,511,491,518,493
521,513,489,505,469
503,513,495,502,507
504,515,500,500,539
532,512,500,495,549
533,511,509,493,623
538,521,524,499,574
513,504,518,496,523
511,496,521,503,496
507,497,536,539,454
501,501,536,534,534
521,500,534,543,557
565,510,533,538,486
468,505,522,537,452
462,506,514,537,461
480,508,505,531,514
491,502,495,520,546
447,493,479,499,536
425,508,489,502,514
463,515,507,506,490
507,513,499,496,504
548,502,497,494,513
503,497,498,487,513
461,501,513,499,537
461,503,521,511,533
510,503,531,527,459
613,515,541,528,465
579,519,548,545,525
551,508,540,540,526
561,495,522,526,506
539,497,512,527,529
510,502,508,525,547
496,511,507,527,517
445,500,487,503,556
476,505,489,509,490
533,514,491,505,440
571,514,497,506,455
527,509,497,501,539
511,501,499,496,521
525,507,508,482,514
537,505,515,481,522
522,506,529,516,472
551,509,540,525,481
554,502,541,531,481
512,503,540,536,543
489,512,540,546,545
482,507,533,537,589
503,498,516,530,530
545,498,497,518,503
500,508,503,529,512
397,510,496,518,526
425,514,494,514,518
565,519,493,494,500
587,501,487,486,520
486,502,498,500,474
496,511,504,495,516
509,502,511,500,499
598,510,524,508,462
589,509,536,518,451
542,508,543,533,484
497,497,540,534,513
466,492,534,531,571
432,490,524,530,587
428,491,515,525,576
482,504,509,525,619
492,507,508,522,597
592,508,494,521,437
539,508,489,506,460
466,514,492,503,512
455,516,499,509,501
482,504,500,502,476
534,502,496,485,471
557,507,502,485,543
539,505,513,493,515
523,502,524,508,473
532,504,536,531,432
574,511,537,524,490
592,517,545,541,503
558,510,539,540,515
497,498,525,529,558
438,491,512,525,535
438,499,505,526,550
543,515,506,527,569
544,517,495,506,548
574,519,499,515,489
523,513,497,511,493
479,506,494,502,492
504,499,491,497,495
532,508,502,489,483
516,502,512,501,479
474,496,516,505,470
487,508,532,516,505
509,505,537,514,544
542,501,538,522,558
553,504,539,536,575
466,496,531,531,545
486,498,527,544,471
539,498,508,538,477
548,510,497,509,521
550,507,493,508,520
511,504,489,504,538
476,508,489,501,491
500,514,497,507,434
513,512,497,500,460
554,516,501,498,517
556,512,509,501,534
546,513,520,508,524
531,511,522,508,511
500,514,530,510,511
483,501,543,519,556
528,500,538,524,538
531,499,531,530,554
537,501,527,535,513
513,498,519,533,503
499,492,503,531,559
536,504,501,525,518
508,508,492,504,527
456,503,490,511,496
421,500,486,497,474
426,510,497,497,457
444,507,498,491,546
575,522,505,492,537
578,510,505,487,485
554,505,517,499,488
557,517,531,515,497
526,512,538,521,524
516,502,538,527,495
542,509,541,535,474
547,499,533,531,506
524,499,529,537,508
470,498,522,543,512
505,504,506,527,534
488,504,497,515,526
451,503,492,518,542
477,512,492,503,546
538,521,499,506,526
569,503,491,500,470
489,512,500,487,511
489,511,509,491,512
476,504,508,485,528
543,496,509,487,517
550,501,524,507,492
509,503,534,522,518
519,504,539,538,500
554,512,539,531,496
549,503,528,526,531
531,508,529,531,515
525,503,517,528,517
513,503,505,521,527
515,507,497,518,527
494,511,498,513,522
494,515,495,505,477
507,517,501,510,505
504,511,502,500,532
465,504,501,494,542
474,502,506,504,499
533,518,519,495,486
537,510,519,502,495
530,507,530,511,466
576,504,534,515,535
569,503,535,526,519
550,502,534,531,523
553,510,535,537,525
569,507,526,531,477
549,498,505,524,437
479,494,492,515,533
470,502,489,500,596
486,507,490,503,579
529,515,493,503,494
513,513,496,496,484
478,508,501,501,481
517,510,501,492,489
515,507,503,487,508
525,503,514,499,494
514,506,527,511,495
503,509,536,519,505
511,511,543,531,521
522,517,550,543,523
501,497,531,534,514
532,497,523,524,512
525,498,511,526,509
499,496,497,516,523
494,501,491,513,539
499,504,490,508,541
516,512,491,504,516
511,512,493,502,492
502,518,498,500,497
491,512,503,502,530
511,515,511,512,529
558,522,520,484,517
556,512,524,498,473
515,501,523,510,491
512,498,529,519,482
527,498,533,525,515
537,501,536,536,487
531,502,533,538,515
517,505,528,532,542
506,498,510,523,543
498,501,503,522,529
491,505,496,517,529
493,509,493,509,532
501,511,491,502,515
502,517,495,502,507
497,512,500,499,507
514,513,501,492,501
531,513,507,493,510
529,509,516,503,520
510,508,521,498,519
509,504,529,509,484
529,504,537,520,505
539,504,540,535,489
540,508,539,540,512
565,509,534,535,521
551,501,518,528,529
483,490,502,521,557
472,504,501,522,500
471,505,494,516,509
496,510,495,513,515
500,512,494,506,496
498,517,504,501,515
488,512,504,498,500
485,507,504,496,503
508,505,507,492,529
513,500,517,498,497
524,508,525,504,512
537,506,531,511,515
539,501,534,520,515
507,502,538,530,517
512,501,537,536,524
553,505,534,536,517
536,502,516,531,528
516,502,510,528,516
507,505,495,516,509
507,507,494,514,515
506,513,495,510,530
506,512,496,504,523
490,511,499,498,498
487,508,501,494,493
472,506,501,493,501
485,507,511,491,514
537,506,519,501,488
536,508,529,512,496
518,510,539,522,525
549,507,540,528,518
559,505,535,534,523
542,498,529,529,515
536,501,527,536,511
508,497,513,529,536
499,501,506,522,554
488,502,493,509,549
505,512,491,512,496
512,511,490,505,499
511,510,495,504,500
511,514,500,497,506
514,515,505,501,499
524,517,509,499,498
533,509,516,489,478
528,502,519,496,516
541,506,531,515,503
541,504,538,525,508
542,504,540,531,524
512,498,539,535,513
518,499,533,536,517
517,499,519,534,538
512,500,506,523,539
500,501,502,519,541
492,505,494,513,532
488,510,495,509,502
498,510,495,505,500
519,517,500,503,518
515,514,505,499,500
520,512,509,490,489
519,505,505,489,515
540,507,514,492,525
537,508,527,506,535
519,506,536,515,517
536,507,541,530,472
551,508,545,537,502
538,503,536,542,518
524,501,529,540,507
495,491,517,528,528
489,500,504,520,527
497,504,496,514,514
496,507,496,514,513
499,509,496,507,512
504,513,496,498,507
507,512,497,495,508
510,510,500,493,509
511,512,503,492,502
516,506,511,496,494
522,504,518,500,496
530,505,527,509,506
536,505,536,522,501
539,505,540,531,501
535,508,542,540,502
517,505,536,537,519
505,505,533,538,537
498,500,516,537,540
506,500,506,524,527
504,503,499,520,523
511,509,493,510,516
524,513,491,501,529
529,513,498,501,512
518,517,502,499,497
488,505,500,494,502
492,502,503,489,513
523,505,515,493,500
527,507,525,504,506
539,507,534,513,504
534,503,537,527,506
532,502,538,531,516
530,504,538,539,509
522,503,532,536,519
514,496,520,531,530
503,498,510,528,539
500,503,502,523,530
498,504,495,514,524
497,509,490,506,521
503,513,492,503,512
510,513,498,503,504
511,511,499,495,498
515,509,502,493,500
521,507,508,494,501
530,506,517,503,502
532,504,523,503,503
535,508,532,516,505
533,505,539,528,510
534,507,541,538,516
529,504,536,539,519
523,503,531,539,526
511,499,518,533,530
503,500,507,528,526
501,502,497,521,523
497,506,492,514,520
508,509,490,505,515
502,508,491,500,511
507,514,499,500,511
510,512,501,495,509
514,511,506,493,508
520,508,513,495,506
525,505,520,500,506
531,505,530,509,504
536,506,537,521,506
533,505,542,529,512
530,505,540,536,514
523,501,534,534,523
529,503,531,535,524
509,503,514,530,537
498,498,502,523,530
500,503,495,517,525
501,509,495,512,518
498,509,492,505,515
506,513,496,504,506
512,511,500,499,506
513,509,500,493,506
515,512,506,494,503
519,506,516,497,502
524,504,521,503,504
533,506,533,515,500
541,503,539,525,503
541,508,541,533,510
534,505,541,539,514
525,503,534,536,521
515,498,521,533,529
502,501,507,526,533
499,503,498,520,528
502,510,496,516,523
505,515,493,511,519
503,510,491,501,509
510,514,498,501,501
513,513,502,497,501
512,510,502,492,498
519,508,509,494,501
523,510,516,499,502
528,505,524,507,500
534,506,533,517,501
537,504,540,531,505
536,506,542,537,510
527,502,540,535,516
524,503,532,538,526
511,499,519,530,532
501,500,505,525,531
501,504,499,519,522
504,508,498,514,515
506,511,493,511,510
504,511,494,503,503
508,515,500,502,499
512,510,500,496,497
515,510,503,492,500
522,510,513,495,500
523,505,520,501,496
529,504,528,516,499
534,507,534,518,505
539,505,540,526,504
534,504,542,535,506
527,504,536,539,516
526,504,533,537,521
508,500,514,530,534
502,503,504,524,529
501,506,498,522,525
498,510,493,509,517
502,511,493,504,509
507,514,497,499,504
509,512,500,498,498
507,510,502,495,502
517,510,508,486,497
511,504,518,500,503
522,503,520,502,500
541,511,529,509,501
542,509,540,526,500
534,505,539,533,507
533,509,541,540,515
525,505,531,540,519
512,501,522,534,524
502,501,511,529,526
500,506,501,520,524
497,504,491,510,525
504,514,492,506,513
502,509,493,504,510
506,513,498,497,502
515,514,502,495,501
514,512,510,494,496
518,507,507,491,491
524,508,515,498,492
530,505,524,507,499
532,506,532,516,508
536,504,536,525,506
538,507,541,536,512
530,505,535,544,516
522,503,530,536,524
510,498,515,530,530
503,499,503,523,529
502,505,499,518,523
507,508,495,514,515
499,510,495,503,510
501,511,494,499,505
509,513,500,502,500
510,512,501,494,494
515,510,507,493,495
520,509,514,495,501
523,505,518,497,506
528,506,527,509,499
534,507,535,521,505
537,506,538,528,508
535,505,537,535,508
526,504,533,537,521
522,506,529,539,524
512,501,514,530,530
506,502,503,523,523
495,505,496,515,521
499,510,493,510,513
503,512,494,505,508
505,513,496,501,501
509,513,501,498,500
512,512,505,495,499
515,509,508,493,498
520,506,514,496,497
524,505,523,502,497
530,506,528,513,499
535,507,537,526,502
534,505,537,531,510
531,504,535,535,513
523,503,529,534,517
518,501,517,530,526
502,499,507,524,531
500,503,500,519,523
500,507,497,515,520
502,509,494,509,517
502,511,494,503,507
507,514,500,503,503
509,511,501,499,497
511,510,504,497,496
515,508,510,498,499
524,506,517,505,497
532,506,525,514,495
538,508,533,519,496
534,507,537,525,498
531,507,538,532,506
522,505,533,527,522
514,504,528,522,528
500,498,513,517,538
495,500,503,518,534
499,504,497,512,525
504,509,495,512,516
507,512,497,511,508
503,508,494,506,504
511,515,503,509,499
511,513,502,510,499
512,511,506,505,496
514,509,511,508,500
518,505,517,505,498
530,508,526,511,501
539,508,533,517,500
539,504,536,521,500
537,507,539,524,505
528,506,533,521,516
516,503,523,517,528
502,499,507,510,532
500,503,501,512,526
499,507,500,517,519
498,509,494,512,511
498,512,494,513,507
502,511,496,512,501
508,513,505,513,499
506,510,501,508,497
511,510,507,508,500
514,508,514,508,498
519,512,520,509,504
528,510,530,512,511
528,511,538,517,514
529,508,540,514,521
521,507,538,518,522
515,505,531,516,523
512,503,522,512,528
503,498,507,508,527
500,504,500,511,516
500,510,497,515,519
501,512,495,518,508
496,511,491,512,511
505,515,497,516,505
507,513,500,516,504
508,511,502,513,497
516,511,509,512,495
521,506,515,510,494
527,508,524,513,490
535,510,529,513,491
539,506,537,512,500
531,506,537,515,509
528,506,535,513,516
520,505,531,513,522
506,501,516,511,535
500,504,503,507,534
493,506,499,511,536
493,508,495,514,536
496,513,495,518,524
505,514,497,521,513
507,514,500,524,494
509,510,499,516,477
512,511,505,514,484
519,509,512,514,492
523,506,519,513,496
526,507,526,514,493
536,505,532,513,500
528,504,536,512,508
526,505,537,514,506
520,504,535,512,518
519,505,529,513,523
503,500,512,507,526
498,503,506,510,528
500,507,497,512,519
505,512,496,518,511
502,512,495,522,507
503,513,496,525,501
509,516,501,520,501
513,512,503,517,505
513,511,508,516,497
523,514,516,516,499
522,507,522,514,499
529,507,529,515,499
529,505,536,513,509
532,507,539,516,514
527,507,541,514,519
521,505,530,513,527
514,501,521,508,527
512,503,513,512,531
498,504,502,511,527
499,510,497,514,521
501,513,496,517,517
501,511,495,517,509
512,513,500,520,495
511,514,503,519,497
507,512,507,513,502
510,509,509,507,504
515,507,516,512,508
520,505,522,508,505
527,507,530,515,505
529,506,536,516,509
526,504,538,515,513
523,504,535,517,517
520,505,529,517,523
508,501,515,512,533
499,504,503,509,532
496,504,497,509,525
498,508,495,513,518
502,509,495,514,512
500,512,495,511,506
502,515,501,512,507
508,512,503,509,501
510,510,506,507,502
517,507,512,505,505
519,504,517,507,503
525,507,528,513,501
530,509,536,519,502
529,506,536,520,509
527,505,537,523,513
522,503,531,522,518
517,503,528,522,523
505,501,513,515,534
500,501,502,513,530
496,505,498,511,527
501,511,497,511,518
503,509,499,506,510
504,513,497,504,508
506,512,498,501,501
515,511,503,504,502
512,507,506,497,500
518,506,515,505,502
523,505,521,506,507
528,507,530,514,504
532,508,540,521,507
531,506,537,528,516
529,505,536,530,515
521,503,530,528,523
518,502,525,527,530
501,498,507,518,533
498,503,502,514,529
498,507,498,509,523
495,509,495,506,514
503,508,495,496,507
504,512,499,496,503
509,511,502,492,500
509,508,502,487,500
509,507,507,488,503
519,506,519,495,505
525,507,526,504,510
529,506,533,516,507
531,505,536,524,513
535,504,540,533,511
529,504,535,538,513
521,502,528,536,516
508,497,515,528,526
498,498,505,519,529
499,502,497,512,524
496,507,496,504,518
497,511,495,499,516
501,512,497,494,516
508,511,502,491,513
507,510,506,488,504
512,510,509,484,502
514,506,514,488,504
519,504,520,494,499
522,503,527,504,488
531,506,540,517,496
529,506,539,526,508
528,503,538,533,508
522,501,532,535,511
512,500,526,532,520
504,497,512,523,532
500,501,501,517,529
506,506,504,513,523
503,514,497,504,515
501,508,494,494,514
506,512,498,492,511
511,513,502,491,510
509,510,506,490,510
507,506,508,484,505
514,506,516,490,496
519,506,522,497,482
528,504,531,508,488
527,507,537,518,500
530,504,539,529,516
527,505,540,534,516
519,503,533,532,524
511,499,524,527,527
501,497,509,521,532
498,502,503,516,526
497,507,499,509,525
500,509,497,505,518
500,508,496,494,508
503,511,499,492,504
507,511,503,487,502
506,509,504,483,503
512,505,509,483,501
516,505,519,490,498
524,506,526,500,498
528,506,535,513,500
529,505,542,524,501
526,502,539,530,518
523,503,537,534,523
517,501,530,532,531
508,498,518,526,537
502,500,510,525,536
499,502,501,515,533
496,506,497,507,523
499,510,497,501,517
502,511,496,495,515
502,511,500,488,503
504,514,503,486,503
513,511,506,485,505
510,504,511,484,502
516,504,520,493,504
525,507,530,505,505
528,507,538,517,507
529,504,542,523,512
524,503,538,532,518
523,501,533,532,521
519,502,529,534,528
504,496,512,523,534
496,499,502,520,534
496,504,499,512,527
499,510,498,506,518
498,510,496,498,512
502,511,497,492,508
508,512,502,496,499
507,508,504,491,501
510,506,508,485,500
514,506,514,489,502
520,504,522,497,503
526,505,530,509,502
528,504,536,519,505
529,505,540,529,511
523,503,537,535,519
519,502,530,535,523
516,503,526,533,528
506,499,509,527,533
500,502,504,516,530
498,506,498,509,527
501,511,497,503,521
502,511,495,496,517
504,511,499,493,505
509,512,503,487,502
509,514,504,486,506
509,507,511,487,507
517,505,518,492,503
515,506,523,502,504
519,504,535,513,503
519,509,538,524,507
521,503,538,533,508
531,506,537,537,520
524,504,532,537,522
512,500,515,529,524
500,498,505,521,526
497,503,499,514,523
500,507,497,508,520
500,513,496,499,513
499,509,494,492,506
505,511,500,492,501
502,507,501,486,500
511,510,505,485,499
525,508,513,489,501
521,505,518,494,503
527,507,529,507,503
529,506,536,519,504
532,505,537,526,509
525,506,537,533,511
518,503,533,536,519
512,502,529,536,524
509,498,510,524,529
502,503,504,519,529
501,508,500,514,524
503,509,495,508,516
506,510,494,497,515
505,512,497,493,514
508,512,500,490,508
508,511,500,487,504
514,509,508,487,503
516,507,517,493,504
522,505,521,499,504
529,505,530,510,501
528,506,536,526,503
525,503,538,527,513
522,504,537,533,515
521,502,535,531,519
523,502,525,528,526
505,499,509,519,532
497,501,503,514,529
496,505,497,509,525
500,510,496,504,518
500,509,496,499,511
503,510,496,497,501
511,511,505,499,498
510,513,504,491,500
512,506,508,491,500
524,509,514,498,494
522,508,522,506,496
526,504,530,514,500
529,504,538,527,506
527,504,537,529,516
524,504,535,527,521
517,502,529,525,525
504,497,515,520,530
500,501,507,516,531
502,507,502,512,525
498,508,497,508,518
494,511,493,502,511
499,511,494,499,507
504,513,499,500,501
507,509,501,497,505
508,509,503,494,499
515,506,510,498,501
523,507,520,504,502
531,509,529,512,502
530,508,536,519,504
525,505,538,521,512
529,505,542,524,516
519,502,533,523,525
514,501,528,523,526
506,501,514,515,534
497,502,504,511,533
498,506,498,513,528
497,509,494,507,518
497,511,494,503,512
500,513,495,503,508
505,513,502,503,504
506,510,503,500,502
510,508,507,501,499
517,508,515,503,503
520,505,521,506,504
525,505,528,510,506
530,510,537,518,511
530,504,538,520,516
526,504,537,521,522
519,501,531,518,529
511,501,524,518,533
499,499,510,511,538
496,503,503,511,531
498,507,496,514,521
495,509,497,507,509
497,508,494,509,503
508,513,500,509,501
506,511,500,503,500
507,509,503,502,500
515,510,508,502,502
514,505,515,503,500
522,505,523,508,502
527,506,532,514,503
530,505,537,520,503
527,502,537,520,513
524,503,537,521,521
522,502,533,519,523
507,497,517,514,532
498,503,506,510,533
496,503,500,509,528
495,507,495,509,522
499,511,496,512,516
501,510,496,509,512
503,512,498,503,508
505,512,502,504,508
503,509,506,502,508
511,506,515,502,506
512,509,521,504,507
516,503,529,508,498
527,505,532,514,498
538,503,537,520,502
531,504,539,522,513
522,502,534,521,521
519,503,529,521,524
504,498,514,513,533
492,499,502,510,533
490,503,500,507,525
496,511,494,509,512
498,511,494,506,509
500,513,496,505,509
511,513,501,506,503
514,512,502,507,501
514,509,508,502,507
516,506,514,508,504
517,500,519,506,505
526,503,532,511,504
531,504,534,516,506
533,504,539,523,512
528,506,539,524,515
524,503,533,522,518
522,502,523,516,527
506,501,510,511,529
498,504,501,509,532
502,504,494,507,523
500,508,493,508,515
498,508,491,504,510
500,512,498,508,504
510,512,503,509,500
507,510,504,506,500
505,509,509,505,503
510,506,517,506,503
520,506,523,506,505
521,506,532,514,505
527,503,537,517,508
526,502,536,520,516
531,506,537,523,518
526,509,532,523,518
507,499,516,514,533
505,501,506,510,538
503,504,503,510,531
506,506,493,509,525
506,509,493,508,518
505,512,494,508,515
509,513,499,513,512
512,508,505,507,500
514,509,506,506,498
514,509,509,504,499
520,505,520,510,498
528,507,527,513,500
527,507,533,519,508
530,505,536,517,510
529,503,537,520,518
525,503,534,525,519
522,506,528,522,522
504,498,512,517,531
497,501,502,509,534
496,505,498,511,525
499,510,496,512,519
498,509,492,509,511
502,511,496,510,507
504,514,500,511,503
507,508,501,505,500
512,507,506,506,501
516,503,513,507,505
519,504,519,508,503
529,508,527,513,504
530,504,535,518,505
529,503,538,520,512
524,504,538,523,517
520,503,532,522,521
516,502,526,519,529
504,499,512,514,536
497,506,502,511,535
500,505,496,511,519
499,507,495,509,514
500,509,493,510,513
502,510,497,509,515
504,511,502,509,513
505,506,503,507,504
514,507,510,505,502
519,506,517,508,494
524,505,525,512,494
530,506,532,517,498
531,503,538,520,502
528,503,536,520,506
526,502,535,522,513
519,502,534,521,524
507,498,520,513,532
503,501,507,510,530
498,503,501,513,526
497,506,494,510,520
502,510,495,512,514
506,511,496,511,510
511,512,500,512,502
510,509,504,507,497
513,508,504,508,498
514,510,510,505,501
516,506,518,508,503
518,508,528,514,505
526,509,535,518,506
528,504,537,519,512
522,504,536,519,523
522,503,535,521,529
520,503,532,520,527
503,499,514,517,535
497,501,504,512,532
496,505,499,514,522
499,508,493,511,508
501,514,493,512,507
505,512,495,517,505
505,512,500,509,499
510,512,503,510,500
511,509,506,508,498
517,507,515,512,500
520,509,518,508,499
531,506,527,513,504
531,506,537,520,516
531,505,539,521,519
528,505,537,524,519
521,504,532,522,527
516,502,525,520,529
503,498,509,513,529
500,502,501,513,524
499,505,496,511,524
500,508,491,512,511
501,512,495,512,511
500,510,496,508,509
509,516,501,509,504
509,510,502,506,504
512,505,507,505,504
522,505,516,508,506
524,506,526,511,502
533,509,532,518,503
533,506,539,520,509
527,504,536,518,521
528,505,535,521,522
522,505,531,520,527
507,500,518,515,535
499,502,507,511,535
495,503,497,511,529
497,508,495,508,521
498,512,495,512,517
501,511,495,512,510
504,512,499,512,500
508,511,502,511,497
518,508,507,507,493
523,506,511,509,493
518,507,520,512,503
515,503,523,511,505
526,505,531,513,508
533,504,536,517,513
530,504,535,524,519
526,504,534,521,524
521,503,528,519,529
506,499,513,514,535
499,501,503,515,531
497,504,498,512,526
499,509,495,513,517
499,510,493,511,516
501,511,496,511,507
504,513,500,512,503
505,511,502,509,500
508,508,505,506,501
512,507,513,507,503
515,506,523,513,504
524,506,529,517,503
524,506,535,519,507
523,504,538,519,516
530,505,538,521,520
523,504,532,519,521
524,503,525,518,525
509,501,511,512,532
504,502,501,511,529
503,507,496,512,521
504,510,494,512,514
504,513,495,513,510
505,509,493,509,500
508,511,499,511,501
507,510,505,510,502
511,506,506,507,498
517,505,516,510,501
516,507,522,514,509
524,507,531,515,510
533,509,539,520,512
528,505,537,518,516
525,504,533,518,520
521,503,530,516,527
507,504,517,511,542
502,504,510,511,538
496,506,500,512,535
496,506,495,514,522
493,508,496,511,510
498,514,496,513,504
503,513,499,512,499
506,510,502,511,500
509,509,505,511,504
519,506,508,507,504
529,505,517,511,501
526,505,525,512,504
532,507,534,516,506
532,505,538,517,506
530,503,535,517,511
525,502,533,517,516
517,500,526,515,515
506,497,512,510,526
500,500,504,510,532
495,507,497,510,530
498,508,495,514,522
499,510,496,513,515
505,512,500,516,509
507,512,499,515,503
510,510,500,511,499
511,507,504,510,498
518,506,514,511,500
519,505,520,509,503
528,504,529,516,508
531,506,537,518,515
529,502,535,515,518
527,506,538,519,522
523,504,532,517,525
517,502,525,514,526
504,499,510,509,531
498,502,502,511,529
499,505,495,512,522
496,509,494,513,514
501,513,492,513,512
506,511,496,514,508
510,511,500,514,499
509,505,502,511,498
513,509,508,510,498
517,505,516,511,497
520,505,524,515,498
526,509,534,519,502
530,506,539,519,504
522,503,535,516,511
520,502,534,517,517
517,500,529,516,520
507,502,515,511,529
495,499,505,511,531
497,503,499,510,528
498,508,500,512,522
497,511,495,517,517
497,511,495,513,510
501,511,497,516,503
507,510,502,511,507
505,506,502,507,502
511,506,510,508,505
530,507,519,514,504
530,507,527,514,502
534,513,534,520,507
533,506,540,523,508
528,504,537,523,513
525,503,534,521,519
518,502,528,519,524
502,498,513,512,537
498,500,503,510,535
499,504,498,511,529
496,510,496,514,522
496,508,494,512,517
495,511,496,510,511
505,513,501,511,507
510,510,502,507,505
510,512,506,505,506
517,506,514,507,503
525,506,521,511,499
533,507,530,516,500
534,506,536,519,505
534,504,537,521,514
530,503,536,521,516
524,502,532,522,522
514,500,524,519,529
499,498,508,514,533
498,502,503,513,529
499,508,498,514,521
501,512,499,515,512
500,509,492,509,506
502,511,495,510,505
509,516,500,509,505
508,510,503,505,501
513,510,506,505,505
518,506,515,506,503
527,508,522,512,505
529,506,532,517,507
531,506,542,520,507
532,505,539,523,514
529,504,536,524,518
520,503,530,524,524
511,499,518,516,534
502,499,506,514,536
496,502,498,510,528
497,506,494,512,523
500,510,495,514,515
502,509,493,510,509
502,511,497,508,508
502,514,499,506,506
508,509,505,503,502
515,511,509,504,503
522,510,518,508,504
528,506,526,517,504
531,506,535,519,506
532,505,538,521,511
523,502,534,517,520
521,503,532,522,526
514,504,530,522,529
505,500,516,516,534
500,502,504,513,534
500,504,497,512,525
504,507,494,511,514
503,509,493,512,510
502,512,495,510,506
506,511,497,508,500
508,511,502,506,504
510,506,505,503,500
518,507,513,507,503
521,508,519,510,507
527,512,529,515,506
533,510,535,519,507
531,505,539,522,512
527,502,536,522,515
520,503,531,522,523
521,503,525,519,526
501,495,511,513,533
498,502,500,511,531
501,506,497,513,526
501,508,495,516,519
504,509,492,507,510
502,512,494,506,512
508,513,499,507,504
509,510,501,505,503
513,508,508,505,504
516,506,514,505,504
522,506,522,509,508
530,507,530,519,505
533,505,537,521,502
529,502,535,524,503
526,501,533,523,515
521,501,528,522,521
511,498,518,518,530
502,499,504,512,531
503,505,498,512,526
495,507,495,511,520
497,510,493,511,514
502,516,498,510,509
506,508,496,508,505
507,507,500,506,500
511,510,504,504,501
514,506,508,504,501
520,506,519,507,499
525,506,526,514,499
531,504,533,519,502
532,503,536,523,508
525,502,536,525,517
522,504,535,526,527
517,505,530,527,527
503,499,514,520,532
499,501,504,517,531
499,504,498,514,523
499,507,495,508,518
500,510,493,508,515
502,512,496,505,514
505,512,498,504,506
509,509,501,502,508
513,508,509,503,505
519,506,510,505,503
524,506,519,507,506
529,506,529,513,502
532,505,535,523,505
532,504,537,528,510
524,503,535,529,517
515,502,529,532,522
511,501,525,530,527
503,499,511,522,534
494,501,500,517,532
492,506,495,510,527
498,510,494,508,516
499,511,494,505,512
504,514,498,501,503
507,512,502,498,499
507,515,501,495,504
512,505,505,497,507
517,506,515,499,499
523,506,522,508,500
530,507,531,517,503
530,506,540,525,503
526,505,537,533,509
524,505,535,535,523
522,504,532,534,530
509,500,518,529,535
501,501,506,524,534
502,504,499,518,530
497,509,495,511,527
498,510,492,505,520
499,510,493,500,512
501,510,495,496,501
506,513,501,496,502
514,511,505,493,500
512,506,508,494,505
523,505,516,498,502
525,507,525,509,503
528,510,531,519,504
535,505,537,529,515
529,505,537,536,515
521,504,530,536,522
518,503,528,540,528
501,502,512,528,541
495,505,503,526,535
496,506,498,519,530
496,509,493,508,521
499,512,494,504,518
503,513,496,501,513
506,514,501,497,506
504,509,500,492,502
509,508,503,492,501
514,506,512,497,507
518,504,518,504,507
522,506,527,514,504
527,503,534,522,502
527,504,535,529,507
520,505,534,534,520
521,505,532,536,521
515,503,525,533,526
503,500,510,523,532
502,503,501,518,530
498,510,496,512,523
498,510,493,507,515
498,511,493,503,512
501,512,495,500,507
513,513,500,499,500
513,510,501,497,499
518,513,509,496,498
519,506,515,502,497
522,504,520,507,498
530,506,531,516,499
536,510,539,527,507
529,506,537,529,517
525,502,534,530,524
522,503,530,535,527
514,500,521,524,532
500,500,505,518,529
498,504,499,514,521
499,512,493,511,516
502,511,494,511,515
504,514,492,502,507
509,510,498,500,504
510,511,500,501,502
510,510,504,499,497
515,508,511,501,502
517,504,515,504,499
524,506,525,512,502
529,506,532,523,504
531,505,537,526,513
528,503,535,528,518
525,504,534,529,523
518,502,528,529,525
505,497,514,517,532
498,499,503,513,532
497,505,499,514,526
497,512,495,511,518
499,513,493,508,512
501,510,495,502,504
508,512,502,503,500
508,509,498,499,500
512,509,504,500,505
520,508,511,500,504
522,505,520,508,507
527,507,529,518,507
530,507,538,524,512
528,505,538,526,516
524,502,536,528,520
520,503,532,532,523
517,503,529,530,525
507,500,513,523,529
501,500,502,513,527
494,505,496,511,527
497,511,495,509,519
501,509,493,507,516
501,509,492,501,509
506,512,500,503,504
506,511,501,500,500
515,510,508,500,504
517,506,515,503,501
522,505,521,506,503
527,505,530,514,500
533,508,536,526,506
527,505,538,530,515
524,502,534,530,520
520,503,529,530,525
509,500,518,525,533
502,499,507,519,535
499,505,501,517,530
497,507,495,510,523
497,509,494,507,515
498,510,494,502,511
503,512,497,501,510
508,511,501,499,505
509,510,504,498,504
515,508,510,499,506
521,505,517,506,509
524,506,525,511,506
529,506,535,521,503
533,506,537,527,509
527,504,535,531,516
522,503,534,536,525
520,504,530,532,529
505,503,514,523,536
499,501,504,521,538
500,505,498,513,531
500,508,495,511,517
502,510,493,506,508
503,511,494,508,505
505,511,497,502,498
511,513,504,501,497
510,508,504,498,503
514,507,509,498,501
520,505,518,505,502
532,507,530,513,503
532,507,535,522,503
532,504,537,525,510
526,501,534,526,518
522,501,532,534,521
518,502,528,528,524
505,499,510,520,532
498,501,500,514,534
496,505,496,510,528
498,510,496,510,517
499,511,495,506,511
503,511,496,508,508
507,512,500,503,502
507,510,505,501,503
509,506,506,500,502
517,506,515,507,503
520,504,522,509,508
525,505,530,517,512
530,506,538,524,520
529,504,538,526,521
527,503,535,527,521
521,505,531,527,523
514,497,518,522,523
503,497,505,518,523
499,503,500,514,523
493,507,496,511,522
495,511,499,512,512
500,510,496,506,505
509,515,495,504,503
510,511,504,502,501
513,507,504,501,497
518,508,510,503,500
521,509,518,505,499
523,504,523,510,504
529,506,534,518,508
535,508,538,525,512
528,504,537,527,520
521,502,534,528,520
516,500,528,526,526
509,496,512,518,536
500,499,503,513,536
496,504,498,510,528
500,511,495,511,518
503,510,495,515,515
506,510,494,504,512
509,511,498,505,504
512,511,501,504,499
508,507,504,501,500
515,506,512,505,499
523,505,519,508,502
525,504,527,514,503
534,505,535,522,504
535,504,539,526,511
529,504,536,527,519
522,505,530,527,522
517,502,526,526,525
504,499,511,517,533
498,503,502,515,531
499,504,496,513,524
497,507,492,508,517
500,509,494,508,512
505,510,494,509,508
506,511,500,504,505
509,509,506,505,503
510,504,507,498,501
519,506,516,507,502
524,505,522,511,502
526,505,530,517,502
528,508,534,522,508
529,502,537,526,514
522,506,534,529,519
519,504,531,528,526
511,501,520,523,533
498,503,507,516,536
494,502,500,513,531
494,506,494,511,523
501,511,494,510,516
500,511,493,507,510
500,512,494,504,503
508,513,500,504,499
513,510,504,503,500
515,507,509,503,498
523,507,518,508,497
529,506,528,513,495
537,508,534,522,502
537,506,540,527,506
531,504,538,530,512
520,500,534,525,524
509,502,529,526,525
498,498,513,520,535
494,500,504,514,538
496,506,498,513,530
496,508,495,511,524
496,509,492,507,517
502,512,496,508,509
504,515,497,506,504
506,510,501,503,500
512,510,507,505,501
515,505,510,502,499
518,503,518,507,501
527,507,528,517,501
531,507,535,521,503
529,505,538,524,509
521,505,534,524,516
521,502,530,525,520
517,501,525,525,524
504,499,512,518,532
496,505,501,513,530
494,505,496,514,526
498,509,495,513,510
499,512,496,510,507
500,511,496,506,500
507,513,501,508,502
507,508,502,504,504
510,511,506,504,507
516,504,515,507,514
521,505,519,509,509
529,504,530,514,503
535,504,534,521,508
529,504,538,528,516
526,502,536,526,522
521,503,531,526,521
512,499,520,520,526
502,499,507,515,526
500,502,498,512,521
497,506,495,512,517
502,510,495,510,512
499,512,495,511,514
502,511,497,508,512
507,510,500,506,511
508,511,505,507,513
513,507,514,506,507
524,507,518,509,499
533,506,525,512,492
532,505,532,519,502
537,504,536,520,508
533,504,539,522,517
524,504,536,523,522
524,504,529,523,521
509,497,514,515,528
501,499,504,513,530
501,505,500,513,525
499,507,495,512,516
498,510,494,511,510
503,510,495,511,506
506,510,496,508,499
510,511,503,509,498
512,508,506,508,497
514,512,511,506,500
523,506,520,510,502
527,507,529,516,502
530,506,536,519,508
530,504,538,521,513
529,503,537,520,520
522,503,532,522,522
518,503,528,521,524
505,500,513,515,534
503,502,506,512,530
501,504,497,511,523
500,509,498,511,518
502,510,494,511,515
505,511,496,510,505
508,511,501,510,504
509,507,504,507,501
515,507,508,507,504
515,506,516,508,501
518,503,522,510,503
526,505,530,516,502
535,506,540,521,507
531,503,538,523,514
522,502,535,521,521
521,501,530,519,524
510,499,521,516,533
500,498,507,512,536
496,501,499,511,529
496,507,495,511,524
498,508,495,511,512
500,509,495,512,508
499,513,493,507,507
508,511,502,509,505
509,508,503,507,502
511,507,509,506,504
525,509,518,510,504
524,507,525,516,502
531,505,532,522,504
534,506,539,521,508
530,507,537,521,515
525,503,533,521,522
519,503,529,520,526
506,499,515,513,535
501,501,504,512,534
498,504,500,515,528
496,507,493,511,522
500,510,493,511,511
503,511,495,511,510
503,511,497,505,504
515,511,501,508,501
512,509,505,506,501
519,508,511,507,504
516,504,517,509,503
524,506,526,511,503
532,506,535,519,505
532,506,537,519,512
528,502,534,519,516
525,503,532,522,519
519,508,525,520,523
503,501,509,510,530
498,501,501,511,531
501,507,498,512,527
500,509,495,513,517
500,510,495,512,509
502,512,496,511,508
506,511,496,508,502
506,509,504,509,505
513,509,507,508,505
517,506,513,507,502
526,507,522,513,503
529,506,531,518,503
530,505,538,521,506
530,505,538,521,511
523,502,532,516,523
518,501,529,518,526
513,499,521,514,531
504,500,509,512,534
498,503,500,511,532
499,505,495,509,520
499,510,494,513,515
501,512,494,512,513
501,510,494,508,506
507,512,501,511,504
509,509,502,508,502
516,508,510,508,509
519,505,521,508,504
522,506,525,514,503
528,506,531,516,508
529,505,537,518,510
530,501,534,517,512
521,502,531,517,520
515,501,527,517,522
506,497,515,510,528
499,500,503,510,528
498,504,499,511,528
497,508,495,513,521
498,509,493,512,515
503,513,495,513,509
504,510,496,515,505
506,508,499,510,498
511,507,505,510,500
518,506,506,509,498
529,506,523,512,499
533,507,529,518,504
536,507,534,517,505
534,504,536,519,508
527,504,534,520,517
523,503,530,515,523
515,502,525,515,523
498,499,511,510,532
497,501,501,510,531
499,507,498,513,524
498,511,492,511,517
498,509,492,509,511
502,512,496,515,507
505,509,498,513,500
510,509,503,512,502
510,507,505,510,498
516,507,516,512,500
520,504,521,512,501
525,506,528,514,502
528,504,535,518,503
530,502,536,517,508
523,501,531,517,515
518,503,530,518,522
513,500,522,515,533
500,502,505,510,534
498,503,500,512,532
497,506,495,513,525
499,511,495,515,519
497,512,494,513,510
499,512,496,512,507
507,513,501,514,507
505,511,502,510,504
514,508,509,509,505
517,505,517,510,503
524,506,524,513,499
530,506,532,517,500
531,504,538,517,505
529,503,536,519,514
523,502,533,518,520
518,502,528,517,524
508,499,512,510,530
499,499,504,510,532
499,505,500,513,528
499,510,495,515,524
498,510,494,514,517
503,512,496,514,510
505,509,497,512,513
508,510,501,513,502
510,512,505,509,498
515,506,511,509,498
521,505,519,510,505
526,506,527,514,506
531,506,535,517,505
530,506,537,518,514
527,503,536,518,518
524,504,532,518,522
519,504,529,517,525
505,501,509,509,530
498,502,502,510,530
499,507,498,512,526
497,509,495,513,519
496,511,491,513,511
503,514,497,514,510
505,512,499,509,504
506,511,503,512,507
508,509,507,509,506
516,511,515,511,506
519,505,521,511,504
524,505,528,514,503
532,507,537,519,507
532,506,539,521,510
530,505,536,518,520
517,504,530,518,522
510,501,520,514,527
503,502,509,511,535
497,505,504,509,528
495,506,495,510,521
496,507,493,510,514
499,512,494,511,511
501,509,496,515,509
504,515,498,508,503
508,512,505,510,502
514,506,508,512,500
517,507,519,510,505
524,506,523,513,502
530,507,534,515,503
530,506,538,519,508
528,505,537,520,511
522,504,534,519,517
519,501,527,515,521
503,497,513,509,535
503,500,503,507,531
500,505,500,512,528
501,508,496,513,520
498,511,496,513,517
500,515,496,510,508
502,510,496,509,507
508,510,503,511,504
509,507,508,507,501
515,506,512,508,507
527,505,522,508,507
522,507,525,512,503
531,505,534,517,501
528,504,537,518,511
527,500,536,523,519
524,502,532,521,517
519,503,530,518,521
503,498,510,509,533
498,501,500,509,531
497,505,497,511,526
500,510,496,513,519
498,511,494,510,513
499,510,495,511,507
505,511,498,511,506
507,510,503,509,504
513,508,508,512,505
516,507,514,508,505
525,507,521,513,506
533,507,528,514,504
535,507,540,518,507
529,504,539,520,513
525,503,535,517,519
520,504,531,517,524
513,503,523,515,528
503,501,509,511,528
498,504,497,510,526
498,509,493,510,522
499,510,493,513,519
500,512,493,516,508
506,513,496,513,506
511,512,504,511,503
508,509,503,509,501
513,506,507,508,502
516,505,516,509,505
521,506,524,512,503
528,508,532,516,505
536,506,536,518,507
530,504,536,518,512
526,503,532,516,518
523,503,529,517,522
508,497,514,508,530
500,500,504,508,530
496,508,499,511,526
497,509,496,513,523
498,511,498,514,516
501,513,494,514,508
504,511,496,512,507
508,511,502,512,502
508,509,505,511,500
513,508,512,516,502
519,504,520,510,499
532,504,526,515,498
531,506,536,518,504
531,508,540,518,514
528,505,535,516,519
521,503,530,514,526
517,503,527,514,526
508,499,513,506,533
499,501,502,509,534
497,505,500,510,533
498,508,494,512,526
497,507,492,513,510
502,510,496,515,504
505,511,500,512,500
507,510,502,512,500
514,508,509,512,502
516,506,514,511,501
521,505,522,512,505
525,506,530,515,505
531,506,537,517,506
532,504,538,517,512
524,500,532,512,522
520,502,531,515,525
514,500,521,512,528
504,497,507,507,533
499,503,500,510,528
497,507,495,513,522
501,510,496,516,518
501,510,494,516,515
503,508,496,514,510
508,512,504,514,508
509,510,508,515,505
515,506,507,507,501
519,506,518,511,504
525,505,524,515,502
533,507,532,518,499
531,510,537,519,505
529,504,537,517,513
523,503,532,515,520
520,503,529,515,523
511,499,515,510,532
501,503,506,510,533
503,505,498,512,525
498,507,493,516,520
499,510,493,514,514
503,513,497,516,508
504,511,496,513,505
508,512,501,513,503
512,510,505,512,506
515,504,510,509,503
522,506,518,512,504
529,506,527,514,503
533,507,535,517,505
531,506,537,517,511
529,502,533,516,514
519,502,531,515,518
514,504,525,516,520
501,499,513,511,530
495,501,502,510,532
495,507,496,511,527
499,509,496,514,520
503,510,494,515,512
502,512,495,514,503
504,511,499,514,502
509,511,502,513,507
512,507,506,510,504
516,507,514,510,509
522,505,520,511,506
529,505,528,515,508
533,506,540,518,510
532,507,539,522,513
526,504,534,517,517
520,504,530,514,525
510,500,521,512,524
503,500,510,512,525
502,505,503,514,523
500,507,501,514,518
499,510,494,513,512
494,508,491,510,512
501,510,494,511,508
509,512,499,513,504
511,511,500,509,501
513,507,508,509,508
516,505,515,511,504
520,505,524,511,503
523,504,531,515,506
529,506,538,518,514
525,505,537,516,522
525,501,534,514,528
522,505,529,521,525
507,505,516,510,533
501,505,505,510,534
499,506,500,513,528
495,509,496,514,521
501,514,498,514,511
501,512,496,517,504
501,507,496,512,504
505,509,501,512,502
515,510,505,512,498
517,506,509,509,499
521,505,519,512,499
527,506,527,514,502
531,505,534,515,501
530,503,537,516,510
529,503,536,516,517
523,502,531,513,521
518,503,527,514,523
505,498,512,509,531
498,500,502,508,531
498,505,498,512,524
497,511,496,514,516
501,510,495,517,510
504,511,497,517,503
503,511,497,514,503
512,510,503,514,506
515,507,511,509,501
520,506,514,511,501
523,508,521,513,505
528,505,530,516,508
534,506,536,518,515
530,504,538,514,518
527,505,532,514,527
523,504,531,515,527
517,502,523,512,531
503,501,507,507,535
495,502,499,510,528
494,504,495,512,524
498,509,493,517,513
499,510,494,515,507
503,511,495,516,505
508,511,500,516,506
512,509,503,519,500
510,506,508,512,501
519,506,517,513,501
525,507,525,516,502
528,507,532,516,505
529,504,537,516,509
531,504,537,515,515
525,502,531,512,522
519,504,525,513,523
506,499,514,507,532
500,499,505,508,532
498,504,498,511,526
504,510,498,514,520
502,512,495,516,515
504,513,496,520,509
501,515,494,513,507
510,513,503,516,506
509,509,504,512,510
513,508,510,511,511
520,504,517,511,506
526,506,526,513,503
533,510,535,517,504
540,506,539,516,502
529,505,536,517,511
522,502,530,515,519
517,502,525,512,525
498,500,509,508,530
496,502,503,510,527
497,507,498,513,523
501,510,495,516,514
505,513,496,520,504
499,512,497,517,508
498,508,494,510,503
510,512,502,512,502
510,508,504,513,510
515,508,518,512,507
519,507,520,510,510
525,507,528,513,508
531,507,536,517,506
529,505,541,517,509
524,503,532,513,514
518,503,530,512,521
515,502,523,513,528
505,501,510,510,532
499,503,499,509,528
497,507,496,512,523
499,510,495,519,515
499,510,494,516,508
506,513,498,516,509
505,509,500,511,505
509,510,502,515,507
511,507,508,509,506
519,507,517,512,503
522,502,523,512,503
529,505,531,516,502
532,505,538,518,507
529,505,534,517,511
523,501,531,514,522
519,500,528,514,526
507,497,516,510,534
502,501,506,509,537
499,508,500,510,528
501,508,492,511,520
503,511,496,516,513
505,511,495,516,504
507,510,496,514,501
508,509,501,514,502
508,514,506,513,500
512,506,510,510,502
523,506,522,509,504
523,507,528,517,507
530,506,537,520,510
533,507,538,519,515
531,504,536,517,519
527,503,534,515,525
520,503,526,515,531
507,500,513,509,537
500,501,502,508,531
500,504,497,511,526
503,511,496,515,518
505,511,496,516,511
505,513,497,517,504
503,513,496,513,501
506,508,502,514,499
510,507,505,513,505
515,506,513,511,502
519,504,521,512,506
524,508,528,515,507
530,505,537,518,505
529,505,539,518,512
523,504,534,514,520
519,502,530,515,526
514,502,523,513,534
507,501,510,507,538
499,504,503,512,534
499,506,496,512,523
501,509,494,515,510
507,512,494,518,504
507,515,496,518,502
503,511,497,513,498
508,510,504,515,505
510,504,507,510,506
519,507,518,513,505
523,507,523,514,504
530,508,532,516,505
529,507,539,516,509
529,505,538,516,515
522,502,532,513,524
520,504,529,515,525
509,499,516,509,533
504,502,505,508,534
500,503,499,510,525
497,506,494,511,518
502,510,495,517,515
503,511,496,518,513
504,509,499,517,503
505,511,501,519,501
507,507,504,513,495
515,506,510,511,500
524,507,520,515,504
528,508,531,514,501
530,507,534,517,503
529,503,541,515,511
528,504,537,517,518
524,503,533,513,525
516,502,527,512,525
504,497,513,508,531
496,501,503,508,528
494,503,498,512,523
498,507,495,515,517
500,510,493,516,512
506,514,497,520,511
507,513,498,514,508
506,508,501,513,503
510,509,506,511,502
514,509,513,510,501
520,505,521,511,504
527,511,528,515,503
533,505,535,515,504
531,504,539,515,515
526,504,535,514,519
523,504,532,514,521
517,503,524,513,524
506,501,511,510,528
497,505,507,514,526
498,506,496,512,526
503,509,495,515,514
504,511,495,517,514
504,511,496,516,512
503,508,500,515,508
506,514,502,511,502
514,506,509,511,507
516,505,516,510,504
525,506,526,512,507
533,507,534,514,509
533,507,538,516,514
533,507,539,517,518
524,504,534,513,527
523,505,532,513,526
510,504,518,508,526
504,501,507,508,533
499,503,501,512,533
497,506,495,513,525
501,512,492,513,522
503,512,496,516,513
506,510,498,517,506
510,508,500,515,487
514,509,505,515,488
516,504,512,513,496
518,503,515,515,501
527,507,526,515,506
533,508,534,516,509
534,507,540,519,508
531,506,541,516,514
523,502,536,514,518
518,503,534,512,521
503,497,515,507,528
494,497,498,509,526
492,504,493,515,523
491,508,492,521,524
496,507,493,513,517
500,508,493,517,507
506,508,495,521,502
504,508,499,514,497
509,510,510,515,497
513,507,516,514,499
518,506,523,514,501
519,506,533,520,504
533,508,535,519,503
540,508,538,514,509
539,507,536,513,510
528,506,533,515,510
516,505,529,514,518
506,501,511,504,528
497,503,504,508,537
497,506,499,512,528
497,511,497,519,516
500,515,499,519,506
511,511,509,516,496
506,510,515,518,502
512,506,513,515,508
516,506,513,513,501
522,508,524,515,501
524,506,523,518,505
531,507,520,512,505
535,506,518,513,500
531,510,537,512,502
526,498,529,510,508
521,502,527,518,511
509,498,514,510,526
504,505,505,507,545
498,504,502,511,542
496,508,498,515,530
499,511,500,516,523
496,511,495,521,518
505,512,497,519,511
510,516,506,519,506
515,511,496,515,502
516,508,512,513,510
522,508,532,516,501
528,509,544,517,492
530,509,551,516,500
529,508,549,515,509
529,505,515,516,513
530,501,517,513,517
524,506,527,515,521
499,501,511,507,534
499,501,501,506,530
500,506,496,512,523
499,513,493,516,513
503,513,490,519,505
504,512,492,519,508
503,510,492,519,511
510,510,499,518,507
514,508,504,516,515
516,504,512,514,523
517,510,520,511,527
522,503,528,520,509
529,506,534,516,503
531,505,532,512,517
528,501,532,510,531
518,503,530,514,539
519,503,529,514,520
508,500,510,513,505
503,506,503,520,504
501,507,495,515,503
500,509,489,515,498
496,509,491,517,507
491,508,495,520,507
503,509,494,520,501
514,512,501,515,487
509,505,506,515,491
520,508,515,517,492
515,510,519,513,499
525,504,526,514,505
528,504,535,516,511
526,508,538,519,520
515,501,531,514,530
513,505,528,514,536
508,501,517,511,542
501,501,504,510,539
501,504,496,508,538
500,504,489,511,530
503,509,490,516,512
509,515,493,522,504
514,514,498,521,498
513,513,500,519,503
510,512,504,521,499
518,511,509,518,510
517,507,518,517,516
513,509,528,528,536
524,509,536,529,529
527,507,536,512,524
529,505,537,517,507
520,501,531,519,520
517,504,526,516,534
521,501,513,513,533
509,498,499,510,518
506,505,498,521,512
496,510,492,522,501
496,512,490,523,503
495,510,496,531,473
495,509,495,525,477
506,512,500,519,469
506,509,506,518,467
517,506,510,516,476
526,504,516,514,495
537,505,525,518,506
535,504,534,518,508
537,506,534,513,523
531,505,531,514,524
522,505,530,518,527
515,505,525,522,532
498,500,509,520,545
502,503,498,508,525
498,508,501,514,552
500,512,506,520,526
507,516,506,521,513
518,515,512,522,501
518,512,492,520,499
523,510,488,517,503
521,507,501,515,508
523,504,512,514,506
521,507,522,517,503
519,505,531,525,504
527,503,539,527,494
541,509,531,519,504
529,505,529,518,527
516,507,525,517,545
504,506,521,515,572
496,503,509,512,586
495,506,500,519,564
493,507,493,519,551
508,508,488,518,521
515,507,494,522,479
530,511,490,520,477
517,514,495,519,502
491,511,503,520,521
487,511,513,521,499
507,512,524,523,500
524,507,526,522,451
549,507,530,523,404
545,500,534,523,471
531,499,536,527,525
522,500,528,523,514
529,507,529,522,498
501,503,509,511,552
478,501,501,508,575
485,503,493,507,561
499,507,492,513,506
506,508,488,515,502
511,512,489,520,485
508,510,495,517,480
509,510,499,520,497
502,506,502,516,508
493,504,509,520,526
499,506,520,523,516
522,511,536,522,499
523,506,538,519,524
546,507,537,515,500
538,504,534,514,512
524,503,529,512,543
515,502,526,514,566
497,492,507,517,554
473,495,496,508,559
466,502,489,509,527
489,509,490,518,524
490,517,496,526,544
482,517,500,527,531
494,511,500,529,523
526,511,503,525,518
532,516,508,514,488
530,507,513,511,478
523,504,520,516,514
505,504,530,522,525
513,509,542,525,492
514,505,542,526,504
533,501,531,516,491
544,501,530,514,486
510,495,513,510,517
516,499,504,514,510
509,502,498,522,529
514,511,500,508,546
523,519,496,518,536
538,517,497,522,510
527,514,498,520,503
479,504,500,520,469
494,511,505,520,479
529,514,518,523,530
517,511,524,518,588
504,510,529,513,571
495,507,535,518,566
523,503,533,514,518
496,494,533,515,496
483,488,522,517,500
471,492,520,511,497
480,493,512,507,490
497,494,504,517,531
510,507,500,512,536
491,512,495,509,504
482,509,488,513,467
491,509,494,520,531
522,509,494,519,480
501,513,505,520,417
483,502,499,519,430
522,503,509,519,464
545,514,517,501,524
523,506,534,512,492
510,496,534,516,529
529,502,541,526,501
492,506,540,523,552
496,510,537,534,520
498,504,533,534,497
445,495,504,506,606
465,490,486,496,575
521,495,481,497,536
533,504,484,507,504
521,507,490,526,510
552,521,501,517,496
566,518,498,498,493
555,519,505,507,531
537,511,503,487,565
549,509,515,498,526
523,499,517,499,605
528,505,531,509,574
499,501,537,500,579
468,500,540,530,486
500,497,534,532,435
528,503,535,544,425
543,505,528,545,522
526,504,511,528,592
487,504,498,518,543
491,505,488,512,535
493,499,484,509,521
448,502,486,493,421
461,507,490,491,434
508,505,491,490,461
486,494,487,486,495
453,486,494,492,534
470,487,508,501,511
494,507,531,504,467
466,513,541,510,525
507,507,542,516,539
498,496,537,526,543
497,500,536,535,506
470,497,529,535,501
405,477,511,531,522
388,478,489,521,560
488,493,484,511,599
472,499,483,496,568
393,498,482,496,581
426,506,488,494,546
452,515,491,488,523
404,514,498,488,501
479,528,519,502,452
465,519,526,506,481
406,495,520,499,497
427,487,524,519,470
431,488,531,516,495
368,479,522,500,585
350,472,522,518,512
584,492,533,544,458
649,506,531,533,521
565,492,502,502,489
567,507,501,505,447
576,515,501,500,547
528,525,498,494,618
507,526,505,520,557
346,516,510,543,539
351,509,503,501,598
284,483,489,488,602
288,466,477,469,567
545,490,500,486,530
718,509,512,484,386
787,524,542,516,327
647,516,552,534,493
531,503,548,532,493
474,502,548,520,549
487,509,554,532,603
488,490,529,528,494
462,488,503,501,490
520,494,492,497,588
547,503,487,499,540
451,493,472,492,493
329,482,474,504,402
249,491,488,521,450
306,486,482,491,497
377,506,489,455,483
519,515,509,471,517
622,530,537,511,580
654,526,548,505,569
551,519,545,504,637
380,492,543,514,646
436,496,544,523,575
665,512,545,550,429
604,490,525,525,475
599,496,514,514,489
582,501,502,503,574
495,497,485,480,566
529,501,483,492,461
633,516,493,502,452
604,539,502,504,549
506,520,494,498,567
500,505,491,482,549
523,507,494,483,537
454,503,511,492,416
463,503,521,500,418
516,511,540,520,439
602,500,548,535,460
646,492,543,539,467
555,492,540,538,480
463,494,539,536,550
413,474,517,524,538
366,481,505,504,534
473,513,502,516,565
527,525,505,507,571
374,510,494,503,553
411,499,487,495,563
453,505,495,495,520
507,498,485,486,518
685,535,496,468,423
739,538,515,491,418
744,518,516,495,447
598,491,515,508,492
541,503,536,517,521
509,501,541,507,611
543,513,551,523,614
620,506,533,507,597
640,501,530,527,522
509,485,519,529,491
449,491,514,530,422
390,482,498,527,513
285,488,487,514,555
342,492,479,499,501
421,502,483,498,477
568,523,506,519,454
596,513,505,512,422
532,502,507,496,513
468,487,495,468,591
531,505,513,476,524
589,498,517,488,550
695,509,535,523,501
677,528,555,536,457
552,528,563,540,485
430,499,541,528,567
467,490,524,526,468
541,494,502,510,487
521,501,503,509,528
488,503,496,517,479
437,485,483,502,526
445,492,482,502,536
490,515,489,502,481
509,517,498,484,514
563,519,500,478,515
633,521,505,488,506
586,516,515,497,512
525,504,523,519,535
485,510,530,514,565
472,520,549,539,523
509,505,542,536,489
516,487,526,516,515
493,490,525,541,366
508,503,530,552,464
516,498,509,523,559
527,493,495,507,577
535,504,491,512,582
551,513,490,497,553
540,511,489,493,543
539,522,501,497,605
501,519,501,489,527
538,517,504,496,506
541,506,505,489,479
548,517,519,499,458
523,516,532,517,429
498,504,529,519,381
507,500,529,518,456
513,489,523,514,592
512,496,526,523,666
532,521,537,542,543
553,504,518,534,506
511,486,492,508,528
498,496,491,526,416
464,498,496,543,514
541,519,503,524,445
497,509,497,512,491
507,505,487,469,604
522,501,500,505,548
533,516,506,485,538
530,514,509,492,505
539,515,519,500,502
529,511,526,510,483
511,504,530,514,506
498,494,532,530,484
534,502,530,528,545
553,503,526,530,539
453,488,527,545,550
424,490,506,520,570
466,497,497,521,476
451,496,491,524,534
516,502,484,501,530
521,514,493,512,466
510,511,492,507,517
538,511,492,498,510
524,510,500,494,516
526,514,505,504,471
543,517,519,508,452
500,503,516,507,483
514,510,529,514,514
572,516,539,511,572
551,507,537,527,544
582,507,535,534,558
525,495,527,537,526
534,505,528,540,512
451,502,512,532,560
488,513,513,542,509
593,520,503,512,576
545,513,490,495,596
464,492,477,484,544
411,494,485,498,478
487,498,490,507,383
536,499,493,489,522
571,508,502,492,544
469,516,524,508,527
462,510,525,515,451
416,494,527,518,429
508,495,527,517,424
460,486,526,518,536
440,486,524,525,566
518,512,531,544,521
516,507,521,543,537
558,506,512,538,471
524,506,508,540,461
498,505,500,527,522
552,510,492,504,584
651,519,492,501,492
580,512,495,513,426
450,509,501,509,452
337,497,504,495,535
351,499,509,487,568
502,520,527,496,508
542,508,530,517,476
542,507,532,524,539
506,508,537,518,516
518,500,532,525,504
546,491,519,514,569
507,488,510,513,594
509,498,509,536,515
526,505,508,536,481
608,513,499,523,465
571,506,487,514,508
536,510,491,504,569
602,522,499,512,523
581,518,501,501,505
514,510,500,498,489
490,508,508,496,520
493,512,521,513,456
461,506,524,522,541
515,515,524,500,577
592,515,532,497,531
584,505,530,522,535
610,514,536,536,486
507,496,524,531,574
446,491,513,527,497
415,485,495,516,491
420,495,495,517,558
428,505,499,517,574
525,521,502,519,535
572,523,504,526,443
538,515,497,506,501
508,507,499,497,567
505,512,507,505,479
471,506,512,509,498
497,513,517,486,547
610,516,521,498,585
565,505,522,499,686
518,499,533,521,532
477,491,530,528,497
477,489,532,547,388
490,495,531,559,401
401,492,517,549,488
444,504,515,544,574
514,521,513,536,531
623,532,510,514,413
553,506,486,501,383
509,502,483,488,531
550,506,484,477,610
602,518,494,489,540
551,510,500,495,518
499,500,505,480,494
493,501,513,494,473
548,510,524,517,412
511,512,533,519,484
536,512,539,530,555
633,514,545,548,511
542,501,537,543,548
408,488,531,543,521
356,484,511,532,527
405,489,494,515,560
537,501,492,524,514
585,514,493,505,500
519,517,498,510,503
509,524,503,514,496
553,516,494,497,509
536,506,494,493,499
533,506,497,487,529
526,503,508,491,528
440,498,520,510,492
400,493,521,511,513
459,498,538,524,574
501,509,543,529,593
644,514,540,536,543
635,521,541,544,506
566,504,524,524,540
502,494,507,529,504
464,487,496,529,498
519,501,493,515,513
439,500,488,511,534
462,507,491,504,542
536,533,510,515,499
524,527,512,510,520
494,510,506,497,516
497,494,500,490,477
445,490,505,495,466
535,504,518,508,489
573,517,529,512,489
536,520,547,529,522
510,518,555,550,490
581,511,545,557,440
537,501,530,539,556
539,504,519,528,547
513,492,500,521,562
551,504,489,507,529
537,503,483,505,470
494,504,484,499,518
475,509,488,503,535
483,502,491,505,565
457,494,490,514,472
426,503,500,490,525
455,504,510,492,500
623,517,521,501,476
599,522,525,501,529
518,514,531,508,545
502,515,542,530,529
554,517,549,553,497
565,516,546,559,474
510,504,537,561,505
481,505,520,536,549
548,508,505,519,578
569,508,495,511,559
520,499,480,490,576
461,486,477,498,421
516,512,494,512,422
516,504,492,497,517
487,505,498,486,524
514,513,508,505,518
528,514,518,511,501
532,505,515,506,514
556,516,528,518,418
547,516,537,504,452
525,513,544,523,547
464,508,545,540,543
466,491,528,537,544
483,490,517,529,590
475,494,509,527,590
459,497,504,528,585
225,473,482,505,567
214,470,472,504,487
537,528,495,500,460
729,545,506,505,493
648,519,497,505,508
574,516,498,492,491
553,513,509,504,399
540,509,518,502,434
511,503,518,500,521
590,508,528,525,478
595,511,536,521,486
582,511,536,526,522
537,506,535,527,567
571,509,531,534,545
538,497,521,541,534
514,493,506,530,549
456,506,502,520,528
418,511,499,525,511
556,516,496,510,514
545,509,492,502,500
503,500,490,496,488
512,505,494,494,504
519,506,498,496,534
528,503,505,497,512
532,510,516,502,528
521,507,523,515,532
499,517,539,517,530
460,513,549,539,511
455,499,544,549,530
529,500,532,531,575
540,489,520,531,547
477,490,509,527,512
517,505,506,527,490
522,511,502,531,493
533,515,493,517,474
551,513,491,504,484
526,516,494,495,537
452,503,495,490,515
437,498,494,489,501
436,486,498,489,508
462,495,511,516,464
498,513,527,520,469
499,504,527,520,455
500,509,532,503,595
515,504,533,523,495
601,516,543,548,455
652,509,536,537,497
602,512,531,534,546
520,497,508,520,603
504,498,499,517,567
528,522,511,527,488
576,533,514,529,483
553,530,509,535,542
560,518,499,481,566
490,495,487,474,537
482,496,499,500,422
472,490,501,501,473
491,501,512,503,487
490,500,518,497,557
515,505,530,502,497
528,503,533,512,530
545,505,536,532,463
534,505,536,531,513
485,497,532,535,556
457,501,526,526,571
427,498,509,526,537
482,497,500,533,500
578,511,492,511,504
566,519,493,511,532
545,515,493,499,503
507,505,492,496,496
468,502,494,495,497
513,511,506,494,494
524,514,511,502,509
508,505,517,505,511
543,505,517,505,516
580,517,536,516,468
561,508,546,528,482
512,505,544,540,543
532,508,531,530,561
541,503,529,540,541
444,484,508,533,595
388,496,501,521,587
412,503,503,518,513
405,499,498,509,545
462,501,487,498,608
562,524,503,503,543
585,512,491,486,492
568,512,499,489,482
545,513,509,502,429
547,512,515,511,418
534,507,518,512,430
499,498,522,514,441
420,491,524,507,517
435,498,533,523,544
556,524,550,544,525
620,517,543,553,481
534,500,530,543,508
414,485,507,526,567
504,488,491,509,562
591,514,497,517,550
563,522,495,517,489
527,517,498,514,480
486,503,492,503,475
485,496,487,491,542
547,510,495,488,509
552,515,510,497,506
544,515,520,500,551
525,505,531,513,548
479,504,527,515,535
479,500,535,526,452
509,511,543,534,436
435,513,547,535,555
400,510,539,539,582
478,493,520,539,534
517,482,498,526,527
538,498,498,521,497
474,503,494,509,485
599,515,492,507,491
587,517,489,501,501
559,517,496,502,480
539,514,492,486,520
544,512,503,493,512
529,514,511,494,501
533,507,517,501,480
514,501,524,529,490
545,513,534,501,515
536,510,542,522,527
549,506,544,538,538
540,501,534,533,551
551,505,528,526,538
511,495,517,522,507
478,501,507,528,502
494,507,502,528,522
492,502,495,525,512
509,506,490,504,541
495,513,498,506,512
500,512,495,490,512
510,511,497,485,501
542,512,501,487,521
532,507,510,491,532
514,501,517,500,493
516,497,522,509,486
495,496,530,521,469
525,502,536,528,520
544,505,537,535,552
548,504,534,531,556
523,505,532,530,536
449,497,517,532,566
435,498,503,526,536
474,506,502,527,496
491,503,492,516,486
489,499,481,495,528
545,514,491,483,505
521,517,500,493,500
448,503,499,492,483
470,502,507,489,492
546,507,514,492,525
590,516,524,509,434
540,511,530,513,509
518,508,541,525,521
517,504,542,533,521
502,501,539,544,524
531,503,534,552,525
546,502,516,525,523
565,509,512,532,444
531,507,503,526,481
547,513,499,514,573
527,512,495,508,556
495,508,493,498,558
409,502,493,494,569
411,502,493,489,553
457,511,502,505,556
490,512,513,490,522
518,511,524,509,431
554,514,534,521,476
523,502,530,517,488
545,506,537,526,489
586,506,540,537,502
555,498,526,525,602
552,506,523,526,516
551,502,512,531,504
531,500,506,527,458
505,498,499,514,489
517,504,492,512,531
489,504,493,514,523
513,521,498,503,518
501,520,507,505,495
445,497,497,492,496
364,485,495,489,513
441,497,509,495,541
596,521,523,506,499
594,514,530,519,496
563,510,530,515,465
568,505,535,540,486
590,515,539,531,483
533,502,530,529,510
519,499,529,537,561
504,497,513,525,548
487,495,499,535,556
466,496,494,519,539
489,509,490,495,500
471,503,492,507,509
546,514,500,516,476
530,519,498,497,516
506,508,501,493,515
446,505,508,501,519
489,508,515,496,506
534,510,520,502,461
534,510,530,510,467
559,504,532,515,515
546,502,536,525,548
532,502,531,532,528
488,497,524,540,542
500,501,520,537,535
545,508,512,526,517
511,511,505,519,545
483,506,497,514,540
513,510,493,508,512
528,512,495,504,489
530,513,497,500,496
516,516,499,495,493
507,505,500,490,512
532,517,512,496,518
556,516,522,498,509
538,510,523,508,510
517,503,530,517,504
533,505,540,532,510
529,502,537,535,508
514,496,527,530,542
514,503,534,544,575
509,500,520,532,578
497,491,497,527,508
497,496,490,516,477
508,511,491,501,551
490,513,489,503,502
507,516,496,499,506
506,515,496,494,503
526,514,501,491,503
554,517,506,493,509
536,510,508,490,502
513,503,520,500,503
506,509,533,519,491
497,513,542,530,487
532,509,543,534,474
546,498,533,534,482
540,496,525,534,508
513,505,526,537,525
494,502,513,531,533
484,500,505,527,525
513,501,496,518,507
495,510,494,514,530
485,509,493,510,501
505,512,498,502,524
511,508,497,494,512
509,506,501,489,506
512,507,506,488,506
528,507,513,494,484
519,502,519,506,468
549,509,532,516,471
551,507,533,520,510
544,504,534,521,553
520,504,536,533,535
501,500,529,536,519
507,498,521,535,520
474,496,512,529,539
471,499,502,526,536
479,507,494,510,524
496,508,490,505,538
525,516,496,499,503
521,517,502,496,502
496,507,498,489,517
503,507,502,492,510
522,508,510,495,504
536,512,523,501,500
536,507,525,507,479
519,500,535,521,495
524,506,538,523,524
526,505,538,532,528
527,501,531,539,512
536,507,536,529,519
516,498,519,529,538
504,499,504,524,528
507,506,498,515,524
509,512,501,515,518
511,511,496,508,513
495,507,498,511,504
504,513,497,498,502
508,509,498,488,522
507,508,505,489,496
518,511,512,492,501
534,511,520,497,504
541,511,529,509,499
537,508,534,519,506
532,508,539,527,506
545,510,541,537,508
528,498,527,530,521
508,498,526,540,520
490,496,509,527,534
481,499,502,517,536
490,503,498,517,524
506,511,497,514,511
499,512,497,509,513
497,513,499,502,502
510,507,496,493,499
508,506,497,490,495
513,509,507,495,505
510,506,513,492,507
532,507,517,498,501
535,506,530,514,497
536,507,540,528,505
545,509,538,529,507
542,506,536,538,503
529,501,530,535,512
523,501,522,533,530
496,497,509,527,537
486,500,501,521,536
487,503,497,522,531
494,508,496,519,513
508,518,497,498,509
505,514,499,498,507
506,509,498,491,509
510,509,502,491,500
518,509,510,498,503
519,508,519,500,502
526,507,524,505,508
534,507,532,516,502
539,506,538,525,511
537,507,541,534,514
527,505,540,533,529
518,504,532,539,526
510,500,516,533,530
503,499,506,525,525
497,501,497,517,534
504,508,495,510,519
508,511,496,505,510
510,510,496,502,491
514,509,499,498,476
505,506,498,491,503
507,509,505,491,509
513,506,516,498,516
524,507,523,500,508
532,508,531,510,503
538,509,539,522,502
537,507,540,527,510
536,508,542,535,521
525,502,532,537,524
524,506,531,540,524
512,501,517,531,532
500,501,504,523,535
495,503,500,522,530
500,509,497,511,519
503,511,492,505,515
508,514,500,505,512
509,511,501,492,504
511,509,503,495,499
522,512,508,490,501
528,510,516,499,501
530,508,523,506,503
535,508,532,514,501
539,509,539,524,504
534,506,541,531,516
534,510,539,539,519
531,503,532,536,521
524,501,524,541,522
507,499,514,528,526
502,502,503,522,523
495,509,496,513,527
500,511,497,509,520
502,512,497,507,513
510,512,501,499,502
507,514,500,494,504
516,515,506,494,502
516,508,510,492,501
525,506,516,497,498
525,507,526,507,500
531,506,534,521,503
532,507,543,534,510
539,512,538,533,520
538,507,538,533,509
521,503,533,538,520
517,497,515,528,532
506,498,504,527,528
502,505,501,517,522
505,509,500,515,518
501,510,495,505,511
508,514,499,504,496
510,510,501,499,495
511,507,499,491,491
512,508,504,492,499
517,506,511,495,502
525,509,522,502,505
532,509,529,510,510
534,509,537,522,510
535,508,540,531,512
539,508,541,537,522
525,505,534,537,526
524,505,529,538,526
511,500,515,533,534
506,502,506,523,532
502,508,499,520,525
499,508,497,517,518
506,513,496,505,509
514,516,501,506,497
508,512,504,498,497
513,511,503,495,502
515,513,508,497,500
523,511,513,500,497
524,507,522,506,505
532,508,531,518,504
537,508,538,524,505
535,506,540,529,511
538,510,539,535,516
524,503,530,531,522
519,501,525,534,527
508,500,510,523,531
502,504,503,520,526
499,506,497,515,516
503,509,495,514,509
508,505,493,508,500
511,512,498,509,494
507,511,499,507,502
512,511,504,510,498
519,512,514,508,501
525,513,520,512,501
528,507,525,516,499
532,507,532,522,500
538,507,539,523,508
534,508,540,526,512
526,507,531,521,521
521,503,529,521,526
511,499,516,516,531
504,501,508,515,529
505,507,503,517,523
502,508,500,515,518
500,511,494,517,508
506,513,496,518,506
507,511,499,518,501
509,510,500,515,499
517,512,508,518,498
518,507,510,512,497
525,507,520,512,500
533,508,528,516,500
533,508,535,517,501
536,508,540,517,513
535,510,541,519,514
524,504,533,512,525
521,506,530,510,531
511,500,513,506,531
503,501,504,510,527
500,511,499,515,525
499,511,497,519,520
511,509,493,523,499
522,513,499,527,488
508,513,501,524,491
506,511,503,521,497
515,511,510,520,499
521,508,516,517,498
526,508,522,517,499
532,509,532,516,502
541,509,538,511,504
538,508,539,510,508
532,507,537,508,515
523,502,529,502,523
520,503,525,504,526
509,502,510,503,534
500,504,501,508,529
501,507,496,515,518
504,512,497,523,512
507,514,498,528,508
510,516,502,531,497
505,513,500,525,498
510,510,502,527,499
515,509,510,517,504
523,511,521,515,498
527,508,526,514,504
533,509,532,514,502
535,507,539,513,506
535,509,541,508,511
530,505,534,502,521
526,504,532,499,523
511,502,519,498,530
503,506,510,505,532
503,513,502,512,523
506,510,496,517,517
502,513,496,523,511
503,516,498,527,505
513,513,502,534,498
512,509,499,525,496
512,511,507,525,494
518,509,512,519,496
524,509,521,516,499
529,511,529,515,502
535,510,536,512,503
532,511,537,506,509
533,507,537,504,517
523,504,531,500,528
520,506,528,502,526
507,501,514,500,530
499,504,507,506,530
499,507,499,514,522
507,510,496,522,514
508,514,498,529,506
507,518,501,533,500
508,514,501,529,500
509,514,501,523,504
512,510,513,525,500
518,508,514,517,497
522,507,520,516,499
532,507,528,512,500
536,507,535,509,502
533,506,536,506,511
527,508,536,504,526
522,505,528,501,530
516,508,525,502,535
502,502,510,500,536
500,503,501,504,528
498,507,497,515,522
502,513,497,524,512
503,515,496,529,503
506,513,500,530,499
507,513,502,528,500
514,513,506,527,500
515,509,509,520,499
518,509,518,519,499
526,509,528,517,503
533,511,533,516,505
537,511,537,510,510
530,509,539,507,515
526,507,534,504,520
517,505,527,497,528
508,502,517,499,534
504,503,507,507,534
505,506,501,512,528
500,510,498,520,518
503,513,497,527,510
505,513,497,530,500
508,513,502,531,490
508,510,500,527,496
514,512,507,528,495
521,508,516,523,496
522,507,518,518,496
528,507,526,516,498
533,508,533,514,507
533,507,535,508,513
532,509,538,506,518
522,506,530,501,524
518,506,526,502,528
506,501,512,499,536
502,504,500,504,534
500,508,499,514,526
502,512,500,525,514
502,510,494,526,504
503,513,498,533,495
507,515,502,530,492
513,512,504,526,494
512,514,511,524,497
515,509,513,519,502
526,509,521,516,498
531,510,529,515,498
532,509,534,514,503
532,506,540,507,507
530,506,535,505,514
516,502,525,497,526
512,502,521,499,528
504,500,509,498,530
498,504,501,508,529
493,507,495,515,522
499,511,495,524,512
505,511,493,526,504
506,514,497,530,495
508,512,500,529,499
511,512,506,529,498
511,510,509,528,500
518,504,514,516,499
522,507,519,513,501
533,508,532,511,503
532,508,537,509,510
528,506,537,505,517
526,504,530,500,522
517,501,522,498,526
507,500,513,500,531
502,501,505,502,531
500,506,500,510,527
497,512,494,517,518
497,509,494,524,511
500,512,499,527,501
506,514,500,530,496
507,511,501,527,498
510,510,506,525,496
514,507,509,519,500
520,507,518,516,503
526,507,526,514,507
528,508,536,510,508
530,506,537,506,516
530,507,538,507,519
519,503,530,499,528
514,503,526,499,526
502,498,510,495,532
497,501,502,506,530
494,505,498,509,529
495,509,496,518,517
497,510,496,524,512
503,512,498,528,501
509,513,501,528,496
506,510,499,524,499
512,508,506,520,492
518,508,513,517,498
522,506,522,515,502
531,511,531,513,502
531,509,538,510,505
531,509,537,506,511
525,506,533,502,516
516,499,526,494,527
515,503,523,497,527
504,499,507,496,531
497,502,501,504,529
498,507,497,514,523
499,507,495,521,515
501,511,495,523,507
508,515,503,527,503
507,511,501,526,503
511,510,503,524,499
515,508,509,520,501
513,506,519,517,507
522,507,520,512,504
528,507,531,509,504
532,506,536,506,504
529,506,538,502,512
525,502,533,503,520
520,500,529,494,525
510,500,516,494,532
502,501,507,500,533
499,503,501,509,529
494,506,494,513,522
497,510,495,520,516
503,512,496,529,507
505,510,499,525,499
507,509,499,521,502
510,508,501,521,494
520,507,512,517,497
530,505,523,518,493
522,504,527,513,498
529,508,535,510,503
526,504,537,501,518
523,503,538,502,521
519,501,531,498,531
515,502,526,496,531
504,497,514,497,534
496,500,502,498,532
495,504,499,507,524
496,509,497,516,519
497,509,496,525,515
497,515,497,522,503
503,514,505,526,501
505,508,501,519,503
511,510,509,519,504
513,506,513,513,504
519,511,522,509,509
525,508,532,510,513
529,507,541,506,514
529,504,539,506,515
529,505,539,501,514
516,499,529,497,521
517,502,523,497,520
507,501,514,496,530
496,508,502,501,528
498,507,498,510,519
499,511,497,517,515
496,511,496,519,507
506,513,500,523,498
510,511,502,523,497
504,506,502,517,495
514,506,509,516,495
521,507,522,517,499
520,505,527,509,506
525,505,531,508,510
530,506,538,503,513
530,505,540,503,515
524,504,534,499,521
515,499,526,496,527
506,499,521,494,531
500,505,507,498,531
498,505,504,507,526
498,508,496,512,518
499,512,496,522,513
498,511,497,519,508
503,513,501,523,507
505,513,499,518,501
513,512,507,520,501
514,507,511,512,500
520,505,518,511,504
527,506,525,509,502
530,508,535,510,506
533,506,539,507,510
529,506,538,504,515
521,499,530,498,525
517,503,527,500,526
505,500,514,498,534
498,502,505,502,537
493,504,497,506,528
496,509,496,515,519
500,511,497,519,513
503,516,498,522,501
508,513,502,523,499
504,510,497,512,497
513,508,507,517,501
511,505,512,513,500
515,509,522,511,505
528,506,529,513,503
530,507,536,507,507
528,511,537,505,515
527,507,543,505,517
519,506,530,502,528
514,504,525,504,530
501,500,513,498,536
495,501,502,503,535
494,505,497,510,525
497,509,497,517,518
503,511,498,523,510
510,515,504,529,499
505,510,501,522,494
503,511,501,516,499
508,502,504,510,500
521,504,517,514,499
524,507,525,513,503
522,509,531,510,513
529,505,539,507,511
531,507,540,505,517
521,505,534,502,524
515,502,526,498,528
507,500,518,499,532
500,501,507,501,532
496,504,502,508,527
495,506,496,516,523
500,509,495,517,514
506,512,498,523,507
505,514,502,524,506
503,507,499,517,505
508,510,506,518,508
510,506,509,512,507
520,507,520,512,506
524,507,527,512,503
530,507,533,510,499
533,506,538,512,507
532,509,538,509,516
523,507,531,505,523
514,500,525,501,525
503,499,513,498,531
498,504,502,502,532
495,505,500,507,526
497,508,494,519,516
505,510,496,523,508
503,512,498,523,504
508,514,501,523,500
506,509,501,519,503
510,508,507,518,501
513,506,515,513,503
518,504,519,511,506
527,509,531,514,507
531,509,537,513,509
530,506,538,509,517
528,506,537,508,517
519,506,528,503,524
516,501,526,501,521
503,500,512,505,530
497,502,506,508,529
496,505,496,511,521
498,509,496,518,515
501,511,497,521,510
504,516,498,523,501
506,511,501,521,506
505,506,500,518,501
516,507,508,516,501
517,507,516,514,500
519,510,522,511,503
526,505,531,512,504
529,505,536,509,507
529,505,537,507,513
524,504,535,506,519
518,500,529,500,527
507,500,519,501,537
504,500,509,501,536
496,504,504,511,531
496,506,495,512,522
498,510,497,519,516
504,512,497,523,500
509,514,501,527,489
505,508,499,518,492
513,510,506,521,493
513,506,510,515,497
520,505,520,514,501
530,505,528,513,507
532,508,535,518,510
530,506,538,509,514
531,506,537,509,518
525,503,532,505,521
516,501,529,509,526
504,498,515,505,532
496,501,503,504,530
496,506,500,509,523
500,510,499,519,506
500,511,495,519,499
507,513,498,530,496
509,510,500,524,496
508,509,501,521,501
513,510,512,522,504
514,506,514,516,502
518,507,519,511,507
528,507,528,512,503
532,504,535,510,503
528,502,536,507,509
528,505,537,505,517
518,501,528,503,530
514,503,525,504,530
504,502,512,503,535
497,502,503,504,532
496,505,496,511,527
499,511,496,519,518
496,510,495,525,513
503,511,500,527,503
513,511,502,524,501
506,508,502,519,505
508,507,509,518,503
514,506,517,518,504
520,505,522,514,505
531,506,531,513,503
535,505,535,510,508
533,506,537,508,514
525,505,534,507,519
514,500,527,502,524
510,499,517,503,532
506,498,508,506,529
499,501,499,512,522
494,505,496,516,520
499,509,496,521,514
496,509,493,518,513
500,513,499,523,507
506,509,499,519,504
513,509,504,520,498
512,506,509,517,497
520,508,520,516,503
523,508,530,516,507
529,506,531,511,506
531,504,534,511,508
531,509,536,508,513
520,502,535,506,523
514,501,526,501,528
505,497,514,503,534
498,502,504,505,535
496,505,499,511,528
496,508,495,517,518
499,511,496,519,511
504,511,498,527,507
502,510,499,525,499
506,507,500,520,502
512,506,507,524,503
517,504,512,515,501
518,505,520,514,501
530,507,528,515,502
530,507,534,513,506
527,504,537,508,514
527,502,535,507,515
518,500,528,504,526
514,502,525,505,529
501,499,512,502,532
496,501,501,506,532
498,506,498,514,527
499,509,496,519,515
498,509,494,525,507
504,513,499,527,504
506,510,499,522,500
506,510,500,518,503
512,507,509,520,501
518,506,515,515,499
525,507,524,517,501
528,507,531,514,505
530,506,537,512,504
532,504,536,508,512
525,503,534,507,526
519,501,529,503,528
509,498,517,501,535
499,502,504,502,534
494,502,500,508,526
497,508,497,517,517
498,509,494,519,510
503,511,495,523,505
507,514,500,525,505
507,509,500,522,507
510,508,504,521,501
515,505,513,520,501
513,508,519,515,505
524,508,527,515,504
529,508,532,515,502
536,509,538,512,506
532,507,539,511,516
523,504,533,507,528
517,503,526,501,540
502,498,513,500,541
499,502,505,505,533
499,504,498,510,519
498,508,495,518,514
503,512,495,521,507
506,511,497,524,500
505,512,501,523,497
506,509,501,521,502
512,507,505,519,494
520,505,514,517,500
520,505,520,512,498
529,506,528,514,498
532,511,535,513,508
530,505,542,508,512
530,506,538,509,518
524,501,530,504,526
515,502,528,504,529
503,499,510,502,532
498,502,502,506,529
498,506,498,514,523
499,509,496,520,513
500,509,493,522,509
510,515,498,526,503
508,511,501,524,498
507,507,501,520,501
511,506,508,518,500
517,506,516,517,500
522,506,522,516,503
528,506,531,516,502
532,507,537,514,507
531,508,539,512,514
529,505,534,506,521
518,501,527,502,529
512,500,522,503,533
502,500,508,506,535
500,503,501,512,527
496,505,497,514,519
501,509,495,521,512
501,511,494,525,504
506,513,499,528,496
505,512,500,525,499
506,508,505,520,500
510,505,508,515,506
517,505,516,513,503
524,506,526,515,501
531,507,531,515,503
539,505,535,511,508
529,505,538,510,516
521,503,532,510,525
516,501,529,504,530
506,499,514,503,537
496,500,505,503,533
497,504,499,512,525
502,510,496,519,517
504,511,495,524,511
501,511,496,524,502
505,511,499,523,499
507,508,500,520,501
509,508,504,518,498
515,509,512,516,499
519,505,519,516,504
524,505,525,513,501
530,504,534,512,506
530,505,537,510,509
527,505,536,508,517
519,500,527,505,528
513,501,524,505,526
503,500,511,504,533
499,505,503,509,530
497,504,495,514,516
493,509,490,518,513
500,512,497,525,510
502,517,496,524,501
508,511,499,522,495
507,508,500,519,501
510,511,507,517,498
519,508,516,517,502
523,505,523,514,503
525,505,534,514,502
529,506,537,514,509
534,510,539,513,517
529,505,536,508,522
519,502,527,504,527
514,501,518,504,535
507,504,507,507,533
500,507,500,512,530
498,506,495,514,518
495,511,495,520,513
502,513,495,522,507
506,513,498,523,497
506,510,499,520,497
508,508,504,520,498
513,506,508,516,497
520,506,518,515,501
525,507,525,517,513
530,507,533,514,515
531,505,536,511,514
530,505,537,510,519
525,503,532,507,523
518,501,525,506,531
510,497,513,502,534
501,498,502,505,528
502,505,497,510,522
495,510,495,517,516
501,511,494,521,507
505,513,497,524,498
509,513,501,525,495
506,508,500,523,502
511,505,504,518,498
516,508,513,516,508
521,506,525,515,507
526,507,528,514,508
532,507,536,512,510
530,505,540,510,516
527,504,537,510,520
520,503,530,506,527
520,507,525,507,527
506,499,510,504,528
499,501,501,507,527
500,507,497,514,524
500,508,498,519,515
499,508,493,520,510
504,512,498,524,503
510,513,501,524,500
507,507,499,518,498
513,508,507,518,497
518,504,514,516,500
520,504,521,513,504
528,504,533,514,497
537,502,534,513,504
533,503,536,509,514
522,504,535,509,521
516,504,525,504,528
510,501,519,503,533
501,498,506,503,532
499,504,500,509,529
495,508,494,514,521
497,508,493,518,512
501,511,495,522,501
506,513,499,524,499
510,509,498,521,501
505,507,501,515,499
514,507,509,516,500
519,509,521,516,501
523,508,522,513,502
526,509,530,513,505
530,503,536,512,509
532,505,538,514,514
523,502,532,509,521
513,500,523,506,524
506,498,513,505,528
501,500,504,509,529
494,504,500,511,531
497,508,494,514,525
497,510,492,516,515
501,512,496,521,507
505,514,501,524,502
505,509,500,517,500
510,509,504,516,497
513,506,512,515,500
520,504,516,511,500
526,506,529,514,501
532,505,535,512,504
527,504,534,511,515
524,505,535,512,519
522,502,533,509,524
513,502,524,508,530
506,501,510,509,539
500,502,500,508,536
498,505,496,512,525
501,510,495,518,516
504,514,494,520,509
502,512,497,520,503
506,513,501,519,498
506,504,499,514,502
511,507,506,513,500
518,505,514,513,502
520,505,521,513,503
528,510,528,514,503
529,507,537,515,511
531,507,539,514,516
529,506,536,514,520
518,500,529,509,526
511,499,518,507,531
504,500,507,507,532
500,508,502,512,530
497,506,495,513,519
498,509,496,517,512
504,510,495,520,507
505,514,499,522,500
506,511,501,517,504
503,507,501,512,502
511,504,507,511,502
519,506,517,514,499
524,506,524,517,504
527,505,531,515,503
529,506,535,512,508
529,503,536,513,516
525,500,531,511,519
515,501,523,509,529
507,499,514,506,538
504,503,506,509,537
499,504,501,512,529
498,507,494,515,515
501,511,495,519,508
502,512,496,520,505
506,513,500,520,497
508,510,500,517,502
507,508,503,514,501
514,508,511,512,501
521,507,520,514,504
526,506,528,518,506
531,507,536,520,510
530,504,536,515,517
527,504,537,518,517
522,501,530,511,522
521,500,522,510,525
509,500,511,508,530
503,500,500,510,527
499,506,497,513,522
497,510,494,515,517
503,514,493,519,511
503,512,497,521,501
506,512,500,519,499
504,511,499,514,503
512,508,506,513,502
517,506,512,511,501
520,506,521,512,503
529,507,530,515,503
534,506,537,516,504
533,507,540,516,510
525,509,536,513,519
521,502,529,511,528
511,500,520,507,538
500,500,506,505,537
500,503,500,512,530
500,505,497,516,524
497,508,493,517,516
500,513,495,519,509
506,518,497,521,503
503,510,498,520,501
506,509,501,515,501
511,507,507,513,501
520,508,518,514,503
524,512,523,514,505
530,508,532,516,509
532,506,537,515,511
532,506,537,515,511
525,503,533,513,520
516,501,525,510,526
507,500,512,506,533
499,501,504,508,535
495,506,499,512,533
495,508,495,516,521
498,512,495,519,512
501,517,495,521,505
507,511,498,520,491
508,509,499,515,487
512,508,505,515,493
516,507,510,513,497
521,506,520,513,503
527,505,528,521,505
535,506,539,516,506
533,504,541,516,512
536,506,538,519,513
521,502,531,514,520
514,499,523,512,525
506,499,512,507,534
496,502,503,508,528
498,504,496,512,521
502,509,495,516,515
501,510,495,519,513
505,515,496,519,502
511,511,505,521,503
506,507,499,513,505
508,508,512,514,503
516,504,514,512,502
522,503,521,510,500
527,506,530,514,501
530,506,536,516,504
530,504,537,517,509
526,505,535,516,514
523,501,527,512,521
514,500,521,510,526
505,500,507,507,532
497,503,501,510,533
498,506,496,513,522
499,510,496,516,515
499,511,495,518,508
505,513,499,520,500
506,509,499,515,501
507,507,500,511,503
513,506,508,513,503
518,506,518,513,503
524,506,525,514,505
530,507,533,517,506
537,505,538,516,510
530,506,540,518,514
528,506,533,514,520
519,499,525,511,528
507,495,514,507,533
498,501,506,508,537
502,506,500,516,529
500,511,495,516,521
497,510,494,516,512
506,511,494,518,503
505,516,499,518,504
505,507,498,512,500
509,507,503,513,498
518,506,512,512,503
524,502,517,511,499
523,506,526,513,505
528,506,535,516,504
530,504,535,513,511
530,505,538,517,515
520,503,531,514,529
514,503,524,510,534
503,497,508,506,534
498,500,502,509,532
501,507,498,513,524
499,510,497,516,517
499,508,493,516,509
505,513,497,519,503
507,512,501,520,501
506,508,500,513,503
511,507,507,513,501
517,507,515,513,503
522,505,525,514,506
527,505,528,513,508
531,505,537,516,509
527,506,539,518,518
529,508,537,519,521
520,502,529,512,528
514,501,522,510,535
502,499,509,508,535
496,505,499,508,526
498,506,494,513,522
500,513,493,517,514
499,508,492,517,505
504,514,497,518,500
506,511,506,517,501
502,507,501,514,505
515,508,514,516,502
518,505,518,514,505
524,506,524,514,502
529,505,532,514,499
531,504,535,513,501
528,504,537,515,512
524,503,533,509,520
517,501,526,509,528
506,499,514,506,533
501,500,505,508,533
498,504,499,508,533
494,506,493,511,527
497,510,494,516,517
499,512,497,519,511
505,511,499,518,500
507,508,499,515,496
524,507,506,515,490
528,506,512,516,495
523,507,524,513,496
515,507,524,512,500
527,505,533,514,501
529,503,536,516,505
526,504,536,513,515
519,501,530,509,528
512,500,523,508,535
502,498,512,506,534
499,500,501,507,532
499,505,498,513,527
497,510,499,515,519
499,509,494,517,509
505,513,498,520,498
508,512,502,521,497
507,508,500,512,501
513,505,505,511,501
520,506,514,512,501
521,506,524,514,505
523,504,528,513,504
526,507,534,514,506
532,503,536,514,512
525,503,534,513,517
519,500,526,510,524
514,498,517,509,529
504,500,510,509,535
494,505,505,509,527
495,504,493,511,518
499,513,494,515,509
499,510,495,517,506
504,513,500,520,503
505,510,500,515,498
506,509,501,513,505
514,506,507,511,504
522,506,516,512,500
524,507,525,515,503
525,506,533,517,511
530,506,538,517,515
528,510,537,516,519
522,504,534,513,522
519,502,527,514,528
507,498,518,511,533
498,498,504,506,531
497,504,499,512,526
502,508,499,514,519
498,509,495,518,516
501,512,497,520,503
507,514,501,520,500
509,509,501,515,498
510,506,503,514,502
514,507,510,512,500
519,510,518,513,503
525,507,526,514,506
529,506,535,515,506
530,503,536,517,511
529,505,537,515,517
524,502,531,512,520
514,499,527,514,523
506,500,513,507,533
498,501,502,508,531
497,505,497,512,522
499,513,495,518,514
500,510,493,518,508
510,514,497,522,502
507,512,499,522,498
506,510,501,516,501
514,506,507,516,495
518,507,515,515,500
518,504,518,510,504
524,505,528,516,504
534,509,534,514,507
529,504,537,514,514
526,504,537,517,520
519,501,528,512,524
513,498,519,508,531
503,499,508,506,537
500,505,499,508,534
499,507,497,513,525
496,507,492,514,510
497,510,494,517,505
504,514,498,520,500
506,509,504,517,495
507,509,501,513,498
512,507,506,512,501
520,507,518,514,499
522,506,524,516,504
527,505,531,515,503
531,503,537,516,508
534,504,538,516,517
529,502,535,515,517
519,501,526,512,522
506,499,518,510,531
500,501,506,507,537
497,504,500,509,533
494,507,494,514,523
497,510,494,517,516
501,512,496,519,513
507,513,500,523,506
507,510,500,517,499
508,512,503,513,497
514,506,510,512,498
521,507,520,514,500
526,507,527,515,500
530,507,535,520,504
531,504,539,519,513
529,506,538,517,518
521,504,533,514,523
514,501,525,509,531
504,498,510,506,531
499,502,502,508,531
503,508,497,514,525
500,508,495,515,512
500,514,495,518,507
503,512,497,521,501
509,513,500,520,497
509,509,500,514,499
513,509,507,515,499
518,506,513,512,497
519,506,520,513,501
524,505,529,516,504
532,505,537,512,507
531,503,535,516,514
530,506,533,513,513
518,502,528,513,523
509,500,521,509,535
500,499,509,506,539
499,506,502,511,533
496,508,496,517,523
497,511,495,519,514
499,510,493,517,504
505,513,498,518,499
507,513,501,517,502
507,506,499,512,500
515,508,509,513,502
518,504,515,511,498
524,506,523,513,503
528,510,530,515,505
536,505,537,518,506
534,504,537,518,508
518,508,532,515,519
516,501,526,516,524
507,498,512,506,535
498,501,505,507,536
497,506,500,510,530
497,509,495,516,521
497,511,494,517,512
495,515,493,516,506
504,513,498,517,501
505,510,499,515,502
508,507,502,512,501
514,506,510,511,501
517,509,518,511,503
525,507,528,515,505
529,506,535,517,508
530,505,538,517,514
530,507,539,517,519
524,505,534,515,526
516,502,528,512,532
504,499,511,507,533
497,501,502,509,532
499,506,499,515,524
502,511,497,522,518
499,511,494,521,514
505,516,496,519,502
506,511,499,519,503
503,508,500,512,505
509,510,507,513,504
516,503,513,510,500
527,505,520,514,503
526,507,534,515,506
529,507,536,519,512
529,503,539,516,519
528,504,537,517,522
521,503,530,514,526
511,504,520,510,528
499,499,508,507,530
497,502,501,510,530
496,506,495,513,521
498,510,495,517,513
498,512,495,516,506
504,511,496,518,499
510,512,501,517,497
516,510,502,514,500
513,509,512,515,497
513,504,515,511,499
521,505,522,513,503
527,507,532,517,503
529,506,537,515,507
528,504,538,516,514
523,503,533,512,521
515,500,525,509,526
507,498,514,507,535
501,501,506,508,537
496,505,500,509,534
498,508,495,514,526
500,513,496,518,516
498,512,494,517,511
505,513,499,520,503
506,510,499,515,502
507,508,502,511,503
513,507,508,511,499
520,511,518,513,497
529,509,528,517,495
533,509,535,518,502
532,506,538,516,517
529,507,538,521,518
522,504,532,514,526
514,502,522,510,529
504,499,511,507,531
500,502,503,509,534
498,504,497,511,528
498,511,496,515,515
502,512,495,518,510
506,513,497,519,501
508,513,500,518,500
506,509,498,510,501
511,513,505,513,498
516,507,513,511,503
521,506,519,510,505
529,507,528,514,503
533,505,535,516,506
529,502,536,514,519
527,504,535,515,522
521,503,530,516,528
510,501,521,507,537
499,498,508,506,534
498,504,500,510,527
498,507,497,515,524
499,508,494,518,515
501,510,495,518,505
506,515,500,519,499
507,511,501,516,496
508,506,500,511,496
514,505,507,509,500
519,505,515,510,502
523,507,524,513,504
528,509,532,515,506
527,507,538,516,514
525,506,539,517,518
524,505,536,514,522
519,503,528,512,527
506,503,517,507,532
496,503,504,507,531
502,505,498,510,526
500,506,495,515,523
497,509,493,517,511
502,513,495,521,505
509,512,498,519,498
507,509,499,514,496
508,509,504,511,497
515,507,511,511,499
522,506,518,512,503
525,507,523,513,501
531,507,534,517,504
528,504,536,518,509
531,504,536,514,515
524,502,532,510,522
515,501,524,514,530
504,503,512,507,534
499,502,502,507,531
497,505,498,510,523
502,510,500,514,515
505,511,496,517,510
504,513,497,517,503
504,516,502,515,501
507,509,500,512,502
512,508,505,510,499
517,506,513,511,499
527,509,520,513,502
529,506,529,514,503
530,504,534,515,505
529,502,538,516,512
527,503,537,516,519
521,501,530,513,524
514,500,521,509,531
506,500,510,508,537
500,501,501,510,527
500,506,496,512,520
502,509,495,517,518
505,509,494,517,505
505,514,499,518,504
504,512,500,516,508
505,507,500,509,505
514,506,512,512,499
517,505,519,509,494
524,506,523,514,498
527,504,530,515,503
527,503,535,513,508
530,504,538,516,516
525,502,535,520,522
518,501,528,516,529
506,499,519,508,535
500,499,506,508,533
496,504,500,512,532
500,508,492,512,520
501,510,493,515,509
503,513,496,518,507
502,514,498,516,505
507,511,500,514,503
506,506,503,508,498
513,506,508,511,498
517,509,517,511,503
525,509,525,513,500
529,505,533,515,503
531,505,538,517,515
531,507,540,519,518
529,505,537,515,523
518,502,528,515,528
506,498,514,514,535
503,500,503,508,527
499,506,497,513,521
498,509,496,519,517
498,511,493,515,510
504,515,497,518,507
508,510,499,517,503
510,510,501,513,507
509,508,501,509,506
516,507,515,510,506
524,503,519,510,504
522,506,528,514,504
528,513,536,517,504
533,506,537,518,507
528,505,537,518,514
522,503,530,516,523
517,501,524,514,537
507,504,510,511,537
497,501,499,509,527
497,505,496,512,519
499,511,496,517,510
502,509,493,516,501
513,514,500,517,495
513,515,500,516,498
507,508,500,509,504
514,508,508,511,504
520,506,516,512,501
522,506,521,512,503
527,506,529,515,506
530,510,537,519,508
529,505,538,521,515
526,504,535,520,521
518,501,528,517,527
508,498,517,513,540
501,501,507,511,537
500,502,497,511,527
502,508,495,515,518
500,509,493,518,516
500,511,491,510,506
509,514,500,515,502
508,512,501,511,502
505,507,499,506,499
514,508,511,510,501
520,505,516,508,500
524,506,526,513,504
531,507,535,518,508
533,506,537,520,511
527,510,538,520,519
521,504,533,518,526
514,502,526,516,531
509,502,512,511,536
500,500,505,510,530
496,506,498,513,525
497,510,495,514,519
498,511,494,514,511
504,511,497,515,504
508,511,498,513,499
506,509,501,513,504
507,508,509,511,500
514,505,511,508,500
521,505,520,512,504
526,509,527,514,503
531,506,537,519,507
531,505,538,519,516
527,506,537,521,521
524,503,532,517,526
515,500,523,515,533
505,500,511,512,537
502,508,501,512,537
496,505,495,514,526
500,512,496,516,514
500,511,496,512,504
507,514,499,515,499
506,513,500,512,497
510,508,500,508,503
516,509,509,508,498
521,503,516,511,499
523,506,522,510,504
529,507,530,515,506
532,505,536,517,510
528,505,539,520,517
523,504,536,520,514
519,501,530,518,523
506,500,517,513,536
500,501,507,509,533
496,504,499,510,524
499,509,496,514,518
498,510,493,513,511
503,511,494,515,504
505,511,498,515,497
510,512,501,514,498
506,506,504,508,501
517,507,511,510,500
520,504,519,513,501
523,511,525,514,503
527,512,534,518,506
532,505,537,518,512
532,503,538,518,514
521,503,533,516,523
514,502,525,514,531
506,500,514,511,540
498,500,503,509,536
497,505,499,512,526
496,510,496,514,518
499,515,494,516,513
503,509,496,515,500
510,515,499,517,499
505,509,500,512,496
510,508,508,509,499
517,507,512,511,499
520,506,519,511,503
526,504,528,516,501
533,505,535,518,504
531,503,537,517,514
528,503,535,518,518
519,501,530,517,523
513,502,523,513,527
505,500,511,509,533
496,504,498,508,527
497,506,495,513,522
499,513,496,514,512
500,510,492,514,507
507,514,498,518,501
508,512,499,514,499
510,510,501,512,500
511,507,506,510,503
517,507,519,512,505
519,505,523,515,509
526,507,530,516,509
531,506,537,516,510
528,503,537,519,513
526,501,532,515,518
520,500,527,512,530
512,500,517,509,535
505,503,508,511,533
500,503,497,511,525
499,506,494,513,514
501,510,497,518,504
502,509,491,513,501
509,513,497,517,496
512,510,501,515,497
510,507,500,509,505
516,506,509,510,504
520,506,517,510,504
525,506,524,513,503
530,505,533,515,504
536,504,534,517,511
530,503,536,517,519
523,502,532,515,525
516,503,524,513,535
506,503,511,510,537
500,501,504,511,534
497,503,494,511,523
497,511,493,513,515
502,510,492,515,508
504,512,495,515,504
506,510,497,514,497
511,509,502,512,498
511,505,503,508,500
517,506,516,512,498
520,505,520,512,501
527,506,528,517,506
534,508,538,519,504
537,505,537,516,513
529,505,536,517,517
522,501,529,515,523
515,501,522,513,531
503,501,511,510,535
498,502,501,511,529
497,505,495,513,521
499,510,494,515,513
499,512,494,517,512
504,512,496,516,501
509,511,503,515,501
506,506,498,508,502
515,507,506,510,499
521,509,513,509,498
523,505,522,513,505
526,507,533,515,509
527,506,536,516,515
527,505,541,515,518
525,503,535,517,523
519,503,529,515,531
507,498,516,509,538
500,501,506,509,535
502,504,504,511,525
498,510,494,515,519
498,509,491,514,507
501,512,493,515,503
506,513,497,520,501
505,510,500,513,500
504,508,502,513,505
511,511,510,510,499
517,505,516,510,502
522,505,525,512,505
529,508,533,517,505
530,506,538,519,511
531,506,537,518,516
527,504,534,515,524
520,505,526,513,531
505,498,513,507,539
499,501,504,509,533
504,506,498,512,524
498,507,493,513,516
499,515,492,515,511
505,512,496,519,505
505,512,498,516,501
506,513,501,512,500
510,508,504,511,500
514,506,511,509,502
519,506,521,509,505
526,504,528,518,506
531,506,536,517,506
532,505,537,518,511
528,504,537,519,519
520,502,531,514,521
513,500,527,511,521
503,506,510,508,534
498,504,505,509,531
497,505,496,509,526
499,509,494,514,522
498,509,491,513,515
504,512,496,517,506
505,509,498,515,503
505,507,499,512,501
514,506,505,514,503
518,507,514,512,503
528,507,522,513,506
524,509,532,514,508
533,506,536,516,507
529,506,537,520,519
525,506,536,515,528
519,503,529,512,533
510,499,522,512,537
503,500,510,507,534
493,505,499,510,533
497,508,495,514,521
499,508,491,513,506
505,513,494,517,509
506,512,499,519,501
511,512,502,518,497
505,507,501,512,493
513,506,508,511,495
520,505,521,514,494
526,506,525,513,504
530,506,532,516,508
533,506,537,516,511
533,506,537,517,514
523,503,532,517,522
516,502,525,512,525
507,496,513,509,533
499,499,501,509,529
497,506,499,512,528
496,508,494,514,518
498,510,492,516,508
504,513,497,520,504
503,513,497,516,497
511,511,501,518,499
511,507,502,511,499
516,506,513,513,500
521,505,519,512,502
528,506,528,515,502
533,506,537,518,507
531,506,538,517,515
530,505,538,518,519
522,503,536,517,524
516,499,523,513,528
506,499,511,510,531
505,502,501,512,528
503,507,498,516,519
494,511,497,520,519
500,509,494,511,513
503,512,496,517,505
507,512,499,516,501
506,508,500,513,502
511,508,511,511,500
519,504,512,510,498
528,506,521,510,499
529,507,532,517,506
530,507,539,520,510
532,506,536,516,514
526,502,533,514,519
523,500,528,512,521
507,499,518,509,535
501,501,508,509,539
