CH1,CH2,CH3,CH4,CH5
510.0,518.0,544.0,493.0,633.0
505.0,513.0,543.0,497.0,637.0
514.0,502.0,535.0,504.0,515.0
524.0,496.0,522.0,511.0,440.0
531.0,498.0,519.0,521.0,451.0
534.0,495.0,507.0,529.0,486.0
534.0,500.0,504.0,538.0,462.0
525.0,498.0,491.0,539.0,432.0
523.0,494.0,485.0,539.0,402.0
521.0,497.0,481.0,532.0,434.0
506.0,489.0,476.0,516.0,473.0
502.0,500.0,488.0,505.0,516.0
494.0,512.0,508.0,506.0,548.0
498.0,521.0,528.0,499.0,600.0
501.0,521.0,541.0,504.0,557.0
503.0,514.0,540.0,489.0,593.0
503.0,515.0,541.0,492.0,555.0
511.0,515.0,541.0,493.0,546.0
509.0,510.0,539.0,495.0,565.0
509.0,507.0,535.0,508.0,549.0
508.0,496.0,525.0,514.0,538.0
523.0,497.0,514.0,520.0,477.0
518.0,493.0,505.0,540.0,446.0
518.0,495.0,494.0,535.0,437.0
521.0,498.0,488.0,542.0,428.0
516.0,497.0,484.0,528.0,479.0
505.0,499.0,481.0,523.0,461.0
502.0,493.0,478.0,512.0,441.0
508.0,502.0,491.0,502.0,490.0
511.0,516.0,515.0,499.0,537.0
514.0,528.0,537.0,497.0,574.0
505.0,522.0,541.0,493.0,592.0
509.0,520.0,546.0,495.0,612.0
516.0,519.0,547.0,499.0,594.0
495.0,513.0,543.0,497.0,604.0
486.0,505.0,538.0,503.0,553.0
490.0,505.0,536.0,520.0,418.0
524.0,501.0,523.0,517.0,469.0
537.0,495.0,509.0,523.0,492.0
534.0,495.0,501.0,533.0,476.0
537.0,492.0,490.0,537.0,425.0
531.0,493.0,482.0,538.0,406.0
519.0,491.0,473.0,528.0,408.0
505.0,488.0,470.0,520.0,429.0
494.0,498.0,483.0,515.0,468.0
494.0,513.0,506.0,502.0,560.0
500.0,523.0,522.0,491.0,625.0
503.0,521.0,536.0,488.0,639.0
511.0,520.0,539.0,489.0,554.0
507.0,514.0,542.0,488.0,552.0
507.0,517.0,546.0,499.0,524.0
510.0,515.0,546.0,501.0,539.0
512.0,505.0,540.0,503.0,541.0
520.0,507.0,532.0,510.0,525.0
524.0,500.0,522.0,521.0,488.0
526.0,493.0,506.0,529.0,452.0
528.0,494.0,497.0,537.0,443.0
524.0,495.0,492.0,540.0,441.0
517.0,492.0,484.0,537.0,435.0
510.0,495.0,481.0,533.0,442.0
491.0,489.0,476.0,518.0,471.0
485.0,497.0,486.0,506.0,507.0
485.0,512.0,506.0,501.0,540.0
489.0,523.0,526.0,492.0,589.0
510.0,527.0,541.0,492.0,596.0
509.0,519.0,542.0,492.0,586.0
499.0,517.0,547.0,493.0,587.0
491.0,509.0,542.0,493.0,586.0
473.0,505.0,542.0,494.0,582.0
480.0,503.0,538.0,503.0,552.0
521.0,500.0,529.0,516.0,509.0
516.0,498.0,521.0,530.0,466.0
538.0,490.0,502.0,538.0,415.0
560.0,495.0,497.0,544.0,402.0
556.0,495.0,489.0,547.0,407.0
528.0,492.0,481.0,529.0,455.0
516.0,492.0,481.0,528.0,450.0
500.0,493.0,479.0,515.0,472.0
496.0,503.0,491.0,502.0,513.0
511.0,516.0,514.0,495.0,538.0
509.0,525.0,536.0,490.0,579.0
510.0,522.0,545.0,492.0,592.0
510.0,514.0,541.0,490.0,613.0
496.0,516.0,548.0,495.0,624.0
493.0,514.0,549.0,502.0,574.0
492.0,512.0,546.0,511.0,530.0
517.0,505.0,537.0,511.0,532.0
531.0,498.0,526.0,509.0,526.0
540.0,495.0,515.0,527.0,512.0
538.0,494.0,502.0,532.0,455.0
527.0,492.0,489.0,532.0,444.0
526.0,493.0,488.0,543.0,414.0
519.0,494.0,482.0,533.0,444.0
503.0,487.0,472.0,524.0,447.0
503.0,495.0,481.0,507.0,450.0
499.0,505.0,498.0,504.0,505.0
501.0,521.0,523.0,495.0,551.0
509.0,526.0,541.0,490.0,586.0
503.0,516.0,543.0,496.0,597.0
501.0,511.0,544.0,495.0,587.0
510.0,516.0,549.0,490.0,571.0
513.0,516.0,549.0,495.0,589.0
510.0,507.0,544.0,504.0,582.0
514.0,503.0,534.0,509.0,548.0
519.0,499.0,522.0,519.0,473.0
520.0,490.0,509.0,532.0,456.0
526.0,497.0,503.0,543.0,457.0
531.0,497.0,494.0,541.0,413.0
530.0,493.0,482.0,542.0,389.0
517.0,494.0,483.0,537.0,407.0
498.0,492.0,473.0,516.0,437.0
485.0,498.0,485.0,502.0,498.0
492.0,509.0,503.0,493.0,546.0
489.0,519.0,526.0,491.0,587.0
506.0,524.0,543.0,496.0,595.0
513.0,523.0,547.0,493.0,573.0
516.0,518.0,548.0,491.0,572.0
517.0,514.0,546.0,494.0,576.0
522.0,510.0,543.0,498.0,564.0
517.0,505.0,539.0,505.0,559.0
511.0,502.0,529.0,512.0,533.0
518.0,497.0,521.0,524.0,478.0
525.0,493.0,503.0,533.0,453.0
521.0,494.0,495.0,538.0,437.0
521.0,493.0,486.0,538.0,424.0
520.0,495.0,482.0,534.0,419.0
509.0,494.0,482.0,536.0,433.0
494.0,495.0,479.0,516.0,474.0
486.0,503.0,492.0,505.0,529.0
489.0,514.0,513.0,497.0,571.0
499.0,526.0,536.0,495.0,574.0
504.0,524.0,543.0,494.0,562.0
504.0,517.0,543.0,487.0,587.0
509.0,518.0,545.0,490.0,571.0
503.0,510.0,545.0,495.0,575.0
512.0,510.0,544.0,501.0,554.0
513.0,505.0,537.0,508.0,536.0
511.0,498.0,524.0,513.0,521.0
519.0,496.0,513.0,527.0,479.0
526.0,495.0,503.0,541.0,412.0
530.0,496.0,490.0,539.0,410.0
524.0,493.0,482.0,533.0,423.0
507.0,495.0,480.0,532.0,451.0
497.0,490.0,475.0,526.0,453.0
493.0,495.0,481.0,516.0,472.0
500.0,505.0,498.0,501.0,521.0
509.0,521.0,521.0,495.0,572.0
503.0,526.0,537.0,494.0,590.0
511.0,520.0,541.0,496.0,585.0
500.0,517.0,548.0,496.0,587.0
489.0,514.0,546.0,495.0,608.0
491.0,516.0,545.0,496.0,612.0
494.0,506.0,540.0,499.0,585.0
517.0,498.0,530.0,512.0,488.0
544.0,495.0,517.0,518.0,490.0
541.0,494.0,505.0,535.0,455.0
535.0,495.0,498.0,550.0,398.0
528.0,492.0,484.0,542.0,398.0
515.0,492.0,477.0,532.0,429.0
519.0,497.0,480.0,529.0,430.0
500.0,490.0,470.0,517.0,456.0
500.0,498.0,484.0,508.0,503.0
498.0,512.0,504.0,500.0,543.0
494.0,521.0,525.0,495.0,581.0
502.0,525.0,540.0,491.0,576.0
514.0,518.0,540.0,492.0,588.0
514.0,516.0,541.0,495.0,589.0
515.0,515.0,543.0,497.0,572.0
516.0,514.0,542.0,500.0,557.0
517.0,504.0,534.0,510.0,531.0
513.0,499.0,522.0,514.0,500.0
522.0,493.0,510.0,524.0,466.0
533.0,491.0,499.0,533.0,428.0
537.0,493.0,490.0,539.0,405.0
529.0,490.0,481.0,539.0,417.0
505.0,488.0,473.0,533.0,445.0
498.0,491.0,476.0,530.0,463.0
497.0,497.0,475.0,516.0,487.0
493.0,502.0,490.0,507.0,523.0
492.0,518.0,510.0,499.0,554.0
493.0,525.0,529.0,492.0,598.0
498.0,523.0,536.0,491.0,603.0
504.0,514.0,534.0,488.0,599.0
510.0,515.0,538.0,491.0,594.0
508.0,515.0,538.0,494.0,598.0
520.0,511.0,538.0,499.0,582.0
513.0,507.0,533.0,512.0,538.0
521.0,502.0,523.0,519.0,500.0
533.0,495.0,506.0,527.0,465.0
532.0,493.0,495.0,539.0,438.0
529.0,495.0,487.0,543.0,425.0
515.0,492.0,479.0,539.0,422.0
491.0,487.0,472.0,535.0,445.0
470.0,482.0,465.0,523.0,445.0
440.0,491.0,473.0,514.0,482.0
429.0,504.0,488.0,507.0,518.0
462.0,519.0,512.0,500.0,543.0
482.0,526.0,527.0,488.0,588.0
550.0,521.0,532.0,493.0,572.0
560.0,521.0,532.0,491.0,566.0
540.0,520.0,539.0,494.0,589.0
533.0,517.0,540.0,495.0,583.0
544.0,512.0,534.0,497.0,560.0
536.0,504.0,526.0,504.0,516.0
536.0,500.0,517.0,520.0,496.0
535.0,493.0,504.0,533.0,451.0
534.0,493.0,494.0,538.0,437.0
530.0,490.0,482.0,537.0,437.0
539.0,491.0,474.0,535.0,413.0
527.0,492.0,472.0,532.0,436.0
505.0,489.0,465.0,524.0,427.0
500.0,499.0,478.0,509.0,485.0
497.0,510.0,497.0,500.0,537.0
503.0,527.0,517.0,496.0,581.0
499.0,527.0,532.0,491.0,592.0
504.0,522.0,535.0,491.0,585.0
514.0,520.0,537.0,490.0,577.0
512.0,520.0,539.0,492.0,591.0
507.0,516.0,539.0,499.0,574.0
496.0,506.0,532.0,506.0,567.0
506.0,502.0,524.0,512.0,522.0
527.0,498.0,513.0,526.0,475.0
539.0,495.0,503.0,537.0,454.0
533.0,495.0,489.0,541.0,419.0
523.0,489.0,477.0,541.0,393.0
514.0,488.0,473.0,543.0,411.0
508.0,492.0,470.0,533.0,420.0
504.0,493.0,469.0,520.0,436.0
503.0,505.0,482.0,508.0,484.0
498.0,515.0,502.0,493.0,559.0
502.0,526.0,523.0,491.0,592.0
508.0,526.0,531.0,491.0,585.0
506.0,519.0,534.0,493.0,584.0
511.0,519.0,539.0,498.0,584.0
512.0,517.0,536.0,495.0,584.0
512.0,512.0,535.0,498.0,566.0
518.0,504.0,530.0,508.0,556.0
516.0,498.0,517.0,520.0,528.0
520.0,494.0,506.0,529.0,488.0
526.0,492.0,494.0,537.0,447.0
524.0,498.0,490.0,542.0,431.0
513.0,491.0,479.0,540.0,419.0
505.0,493.0,472.0,536.0,425.0
502.0,488.0,465.0,526.0,432.0
500.0,497.0,471.0,514.0,468.0
495.0,508.0,490.0,504.0,522.0
494.0,521.0,507.0,494.0,570.0
502.0,528.0,530.0,492.0,601.0
506.0,525.0,533.0,492.0,596.0
507.0,519.0,535.0,491.0,592.0
516.0,521.0,537.0,494.0,585.0
517.0,521.0,540.0,499.0,581.0
512.0,513.0,535.0,502.0,578.0
517.0,504.0,528.0,510.0,540.0
517.0,499.0,520.0,524.0,503.0
516.0,494.0,508.0,534.0,467.0
520.0,490.0,494.0,538.0,441.0
515.0,493.0,485.0,541.0,425.0
524.0,490.0,476.0,539.0,416.0
525.0,492.0,473.0,536.0,408.0
511.0,488.0,467.0,523.0,441.0
501.0,497.0,475.0,508.0,486.0
492.0,508.0,496.0,501.0,534.0
494.0,520.0,516.0,493.0,578.0
499.0,523.0,530.0,494.0,597.0
500.0,519.0,534.0,490.0,599.0
496.0,519.0,537.0,489.0,599.0
509.0,521.0,540.0,494.0,591.0
518.0,516.0,542.0,498.0,567.0
520.0,508.0,533.0,504.0,541.0
511.0,503.0,522.0,513.0,527.0
516.0,498.0,515.0,524.0,488.0
517.0,492.0,501.0,533.0,448.0
516.0,491.0,492.0,537.0,433.0
521.0,489.0,482.0,540.0,426.0
525.0,492.0,478.0,539.0,417.0
528.0,492.0,474.0,530.0,432.0
508.0,493.0,470.0,520.0,476.0
502.0,501.0,482.0,505.0,505.0
498.0,518.0,501.0,499.0,535.0
494.0,528.0,526.0,496.0,559.0
497.0,522.0,531.0,493.0,573.0
510.0,520.0,533.0,493.0,589.0
511.0,520.0,538.0,495.0,592.0
513.0,518.0,540.0,495.0,597.0
508.0,510.0,535.0,497.0,584.0
511.0,506.0,528.0,503.0,548.0
517.0,499.0,520.0,515.0,515.0
523.0,494.0,509.0,527.0,473.0
525.0,492.0,497.0,539.0,437.0
530.0,494.0,493.0,543.0,412.0
522.0,486.0,482.0,540.0,413.0
517.0,489.0,479.0,539.0,413.0
499.0,487.0,472.0,528.0,429.0
493.0,496.0,479.0,513.0,467.0
491.0,507.0,491.0,501.0,506.0
490.0,520.0,512.0,501.0,555.0
498.0,528.0,527.0,491.0,595.0
502.0,522.0,531.0,490.0,591.0
508.0,516.0,527.0,489.0,608.0
507.0,515.0,530.0,493.0,602.0
505.0,517.0,532.0,494.0,576.0
509.0,510.0,530.0,501.0,563.0
517.0,504.0,522.0,511.0,531.0
515.0,499.0,519.0,525.0,491.0
515.0,493.0,512.0,531.0,455.0
520.0,494.0,506.0,541.0,433.0
527.0,494.0,501.0,542.0,419.0
522.0,487.0,492.0,537.0,427.0
516.0,488.0,489.0,531.0,448.0
513.0,487.0,480.0,518.0,472.0
505.0,501.0,489.0,511.0,492.0
497.0,513.0,501.0,503.0,533.0
498.0,526.0,514.0,491.0,576.0
499.0,526.0,522.0,492.0,579.0
508.0,523.0,526.0,493.0,577.0
508.0,518.0,524.0,493.0,586.0
505.0,515.0,523.0,495.0,575.0
506.0,516.0,524.0,499.0,567.0
500.0,505.0,523.0,504.0,547.0
489.0,499.0,519.0,510.0,535.0
514.0,499.0,520.0,525.0,485.0
526.0,492.0,516.0,539.0,439.0
529.0,491.0,512.0,543.0,422.0
526.0,490.0,505.0,543.0,417.0
509.0,487.0,500.0,540.0,417.0
500.0,489.0,491.0,530.0,420.0
492.0,489.0,486.0,515.0,461.0
503.0,505.0,492.0,504.0,505.0
506.0,520.0,502.0,495.0,550.0
503.0,529.0,514.0,495.0,592.0
504.0,525.0,519.0,491.0,595.0
520.0,521.0,518.0,491.0,579.0
530.0,520.0,518.0,493.0,569.0
522.0,516.0,519.0,490.0,584.0
519.0,513.0,524.0,498.0,577.0
520.0,506.0,522.0,507.0,545.0
520.0,502.0,519.0,517.0,518.0
525.0,494.0,518.0,527.0,474.0
530.0,491.0,516.0,537.0,439.0
531.0,493.0,514.0,540.0,419.0
523.0,488.0,508.0,539.0,420.0
520.0,492.0,505.0,534.0,424.0
514.0,486.0,496.0,525.0,442.0
492.0,495.0,491.0,513.0,480.0
494.0,511.0,498.0,504.0,522.0
499.0,523.0,505.0,493.0,559.0
509.0,530.0,512.0,490.0,584.0
507.0,523.0,513.0,491.0,592.0
502.0,519.0,513.0,488.0,598.0
504.0,521.0,519.0,495.0,589.0
515.0,517.0,514.0,498.0,577.0
520.0,507.0,515.0,501.0,551.0
513.0,502.0,518.0,512.0,524.0
519.0,497.0,520.0,521.0,496.0
533.0,493.0,517.0,531.0,457.0
501.0,512.0,527.0,496.0,598.0
509.0,512.0,528.0,493.0,593.0
516.0,509.0,530.0,500.0,587.0
516.0,505.0,529.0,502.0,568.0
515.0,500.0,520.0,509.0,533.0
520.0,498.0,521.0,525.0,488.0
526.0,499.0,513.0,536.0,438.0
524.0,497.0,506.0,538.0,422.0
522.0,500.0,502.0,541.0,412.0
522.0,494.0,491.0,536.0,412.0
527.0,493.0,487.0,527.0,416.0
508.0,493.0,483.0,521.0,450.0
492.0,500.0,488.0,510.0,499.0
501.0,515.0,505.0,501.0,543.0
502.0,522.0,520.0,499.0,588.0
498.0,518.0,526.0,492.0,603.0
507.0,519.0,528.0,495.0,597.0
516.0,516.0,532.0,498.0,595.0
514.0,512.0,526.0,491.0,589.0
507.0,508.0,530.0,497.0,579.0
511.0,505.0,526.0,504.0,555.0
521.0,502.0,522.0,513.0,518.0
524.0,496.0,516.0,527.0,475.0
531.0,497.0,511.0,537.0,433.0
527.0,502.0,508.0,542.0,419.0
523.0,499.0,501.0,542.0,414.0
517.0,495.0,489.0,532.0,416.0
509.0,495.0,489.0,531.0,422.0
494.0,496.0,484.0,515.0,467.0
493.0,505.0,492.0,505.0,509.0
497.0,517.0,506.0,499.0,556.0
508.0,523.0,523.0,499.0,595.0
511.0,519.0,524.0,492.0,598.0
513.0,517.0,531.0,495.0,595.0
508.0,514.0,531.0,492.0,598.0
502.0,507.0,527.0,494.0,596.0
503.0,508.0,529.0,499.0,575.0
509.0,502.0,527.0,509.0,541.0
515.0,500.0,521.0,516.0,503.0
535.0,494.0,515.0,530.0,461.0
533.0,499.0,512.0,541.0,430.0
529.0,499.0,506.0,544.0,411.0
523.0,496.0,493.0,538.0,407.0
517.0,494.0,489.0,534.0,416.0
510.0,491.0,484.0,525.0,431.0
501.0,499.0,487.0,514.0,476.0
497.0,509.0,499.0,503.0,535.0
496.0,517.0,513.0,493.0,572.0
503.0,523.0,529.0,493.0,596.0
503.0,517.0,533.0,496.0,595.0
508.0,516.0,528.0,495.0,593.0
507.0,512.0,526.0,492.0,596.0
507.0,508.0,530.0,495.0,592.0
509.0,505.0,530.0,502.0,571.0
516.0,501.0,523.0,510.0,534.0
525.0,501.0,522.0,524.0,495.0
522.0,495.0,512.0,533.0,451.0
520.0,497.0,508.0,540.0,427.0
520.0,500.0,503.0,542.0,412.0
515.0,491.0,495.0,538.0,410.0
502.0,491.0,487.0,531.0,417.0
504.0,494.0,483.0,519.0,449.0
506.0,502.0,493.0,507.0,494.0
503.0,512.0,507.0,502.0,540.0
503.0,520.0,521.0,494.0,583.0
504.0,520.0,527.0,496.0,595.0
504.0,515.0,529.0,494.0,593.0
506.0,514.0,529.0,492.0,594.0
514.0,510.0,530.0,495.0,592.0
519.0,510.0,527.0,497.0,584.0
518.0,505.0,525.0,503.0,551.0
522.0,501.0,521.0,514.0,514.0
529.0,502.0,519.0,527.0,471.0
531.0,496.0,510.0,536.0,437.0
530.0,500.0,505.0,541.0,416.0
527.0,501.0,501.0,542.0,408.0
517.0,492.0,488.0,533.0,416.0
509.0,492.0,487.0,531.0,429.0
495.0,494.0,485.0,514.0,466.0
496.0,504.0,492.0,505.0,513.0
499.0,515.0,508.0,498.0,553.0
501.0,521.0,523.0,495.0,593.0
507.0,518.0,523.0,491.0,597.0
512.0,516.0,529.0,495.0,593.0
509.0,511.0,531.0,498.0,595.0
502.0,509.0,531.0,491.0,597.0
505.0,506.0,528.0,499.0,574.0
514.0,504.0,524.0,507.0,542.0
517.0,500.0,521.0,516.0,504.0
527.0,497.0,517.0,527.0,458.0
530.0,498.0,511.0,539.0,426.0
525.0,497.0,506.0,541.0,414.0
522.0,494.0,497.0,540.0,410.0
510.0,491.0,489.0,534.0,414.0
504.0,492.0,488.0,525.0,436.0
500.0,496.0,487.0,512.0,478.0
489.0,507.0,498.0,503.0,527.0
493.0,515.0,512.0,496.0,572.0
499.0,519.0,525.0,494.0,602.0
504.0,516.0,527.0,492.0,597.0
511.0,517.0,531.0,496.0,592.0
503.0,509.0,529.0,493.0,594.0
504.0,509.0,527.0,494.0,590.0
506.0,502.0,525.0,499.0,566.0
507.0,502.0,524.0,510.0,533.0
516.0,499.0,520.0,517.0,491.0
531.0,494.0,513.0,534.0,446.0
536.0,497.0,506.0,539.0,421.0
531.0,499.0,503.0,540.0,407.0
523.0,494.0,494.0,537.0,410.0
507.0,493.0,486.0,530.0,419.0
496.0,490.0,482.0,520.0,451.0
495.0,503.0,490.0,508.0,496.0
494.0,512.0,504.0,499.0,541.0
494.0,521.0,522.0,496.0,589.0
498.0,518.0,526.0,493.0,599.0
506.0,517.0,530.0,496.0,594.0
505.0,513.0,532.0,494.0,596.0
502.0,509.0,528.0,490.0,597.0
514.0,508.0,531.0,497.0,580.0
524.0,507.0,528.0,505.0,549.0
523.0,500.0,520.0,513.0,510.0
530.0,497.0,519.0,527.0,465.0
530.0,495.0,512.0,537.0,434.0
527.0,499.0,506.0,540.0,421.0
526.0,497.0,500.0,541.0,412.0
518.0,494.0,491.0,535.0,418.0
507.0,492.0,487.0,529.0,427.0
494.0,496.0,488.0,516.0,472.0
492.0,503.0,498.0,506.0,514.0
499.0,517.0,508.0,500.0,548.0
498.0,519.0,523.0,493.0,590.0
505.0,517.0,526.0,491.0,594.0
510.0,514.0,528.0,494.0,591.0
509.0,512.0,532.0,493.0,590.0
506.0,508.0,527.0,493.0,593.0
508.0,506.0,527.0,495.0,573.0
517.0,504.0,528.0,508.0,542.0
520.0,500.0,521.0,516.0,505.0
531.0,497.0,515.0,531.0,460.0
530.0,498.0,512.0,540.0,427.0
526.0,500.0,502.0,540.0,411.0
527.0,499.0,499.0,538.0,406.0
522.0,494.0,490.0,533.0,402.0
505.0,490.0,482.0,522.0,428.0
495.0,500.0,486.0,513.0,474.0
494.0,507.0,499.0,505.0,525.0
499.0,518.0,512.0,497.0,571.0
504.0,524.0,524.0,494.0,602.0
508.0,515.0,529.0,495.0,599.0
510.0,514.0,530.0,495.0,594.0
506.0,509.0,529.0,494.0,599.0
511.0,509.0,530.0,493.0,593.0
512.0,506.0,526.0,501.0,567.0
512.0,501.0,525.0,511.0,532.0
517.0,501.0,520.0,521.0,490.0
521.0,497.0,512.0,534.0,443.0
521.0,497.0,504.0,539.0,417.0
520.0,500.0,504.0,544.0,404.0
518.0,497.0,494.0,536.0,407.0
517.0,493.0,489.0,531.0,419.0
509.0,492.0,482.0,516.0,452.0
502.0,503.0,490.0,509.0,498.0
501.0,514.0,505.0,501.0,543.0
502.0,521.0,519.0,497.0,584.0
504.0,519.0,530.0,495.0,599.0
511.0,517.0,529.0,495.0,593.0
509.0,515.0,530.0,496.0,593.0
504.0,509.0,527.0,490.0,594.0
507.0,506.0,528.0,496.0,581.0
511.0,505.0,525.0,504.0,549.0
515.0,502.0,523.0,515.0,513.0
521.0,496.0,514.0,526.0,471.0
525.0,495.0,511.0,543.0,435.0
532.0,499.0,507.0,541.0,417.0
523.0,496.0,500.0,539.0,412.0
514.0,495.0,493.0,533.0,415.0
513.0,492.0,485.0,525.0,422.0
503.0,496.0,486.0,517.0,464.0
491.0,507.0,495.0,502.0,515.0
504.0,514.0,507.0,497.0,559.0
511.0,525.0,522.0,494.0,597.0
509.0,518.0,528.0,495.0,601.0
509.0,516.0,529.0,494.0,600.0
513.0,515.0,530.0,494.0,595.0
510.0,508.0,528.0,496.0,592.0
502.0,506.0,529.0,504.0,572.0
513.0,504.0,527.0,511.0,535.0
521.0,501.0,520.0,519.0,494.0
528.0,498.0,514.0,529.0,454.0
528.0,501.0,511.0,541.0,425.0
529.0,498.0,503.0,542.0,410.0
518.0,495.0,496.0,537.0,416.0
513.0,492.0,487.0,530.0,423.0
504.0,488.0,480.0,522.0,438.0
497.0,497.0,487.0,513.0,482.0
492.0,509.0,500.0,504.0,528.0
497.0,519.0,515.0,500.0,575.0
508.0,523.0,524.0,493.0,599.0
509.0,517.0,525.0,494.0,597.0
509.0,516.0,529.0,496.0,590.0
503.0,511.0,530.0,493.0,592.0
500.0,506.0,527.0,495.0,590.0
504.0,504.0,525.0,501.0,569.0
514.0,501.0,521.0,509.0,531.0
523.0,503.0,518.0,522.0,494.0
527.0,494.0,511.0,532.0,446.0
528.0,499.0,505.0,540.0,425.0
531.0,501.0,504.0,544.0,411.0
520.0,497.0,493.0,536.0,412.0
507.0,493.0,487.0,531.0,423.0
497.0,494.0,481.0,519.0,455.0
491.0,499.0,487.0,508.0,497.0
498.0,511.0,502.0,500.0,543.0
507.0,522.0,517.0,497.0,584.0
505.0,519.0,531.0,495.0,599.0
508.0,515.0,529.0,493.0,598.0
510.0,515.0,532.0,497.0,598.0
508.0,509.0,527.0,494.0,602.0
509.0,510.0,530.0,498.0,584.0
513.0,504.0,525.0,506.0,550.0
521.0,502.0,521.0,513.0,511.0
523.0,497.0,518.0,528.0,468.0
527.0,498.0,511.0,538.0,430.0
528.0,497.0,506.0,542.0,421.0
528.0,498.0,499.0,540.0,406.0
515.0,493.0,488.0,536.0,414.0
510.0,493.0,484.0,530.0,425.0
494.0,495.0,484.0,517.0,472.0
486.0,502.0,494.0,506.0,512.0
491.0,511.0,508.0,500.0,551.0
491.0,519.0,519.0,495.0,594.0
499.0,515.0,525.0,493.0,594.0
518.0,515.0,530.0,496.0,591.0
517.0,513.0,531.0,494.0,591.0
507.0,506.0,525.0,493.0,599.0
507.0,504.0,527.0,497.0,574.0
517.0,503.0,525.0,506.0,535.0
526.0,500.0,517.0,519.0,502.0
534.0,499.0,519.0,532.0,456.0
535.0,501.0,507.0,539.0,433.0
531.0,503.0,505.0,543.0,420.0
522.0,497.0,493.0,539.0,410.0
513.0,496.0,488.0,533.0,417.0
505.0,494.0,482.0,523.0,437.0
491.0,496.0,486.0,511.0,482.0
489.0,507.0,501.0,503.0,533.0
494.0,514.0,514.0,499.0,572.0
505.0,519.0,525.0,494.0,596.0
511.0,513.0,527.0,498.0,591.0
514.0,513.0,528.0,495.0,591.0
512.0,507.0,527.0,492.0,598.0
509.0,507.0,527.0,496.0,595.0
510.0,503.0,526.0,503.0,569.0
516.0,500.0,523.0,509.0,527.0
521.0,499.0,521.0,523.0,493.0
527.0,499.0,513.0,534.0,443.0
520.0,500.0,507.0,539.0,414.0
518.0,501.0,503.0,543.0,405.0
509.0,496.0,493.0,538.0,413.0
504.0,498.0,490.0,533.0,421.0
495.0,493.0,485.0,519.0,458.0
491.0,501.0,490.0,507.0,502.0
512.0,513.0,501.0,501.0,542.0
515.0,519.0,519.0,495.0,578.0
513.0,517.0,524.0,493.0,589.0
517.0,514.0,529.0,496.0,581.0
515.0,512.0,529.0,496.0,589.0
514.0,508.0,525.0,493.0,594.0
506.0,507.0,529.0,495.0,583.0
512.0,503.0,526.0,505.0,549.0
520.0,501.0,523.0,515.0,518.0
518.0,499.0,514.0,522.0,479.0
526.0,499.0,510.0,535.0,441.0
524.0,499.0,506.0,542.0,423.0
525.0,502.0,501.0,539.0,408.0
516.0,497.0,493.0,535.0,413.0
506.0,494.0,487.0,524.0,426.0
496.0,496.0,485.0,516.0,465.0
494.0,505.0,498.0,507.0,512.0
497.0,513.0,509.0,496.0,552.0
498.0,519.0,524.0,496.0,595.0
505.0,513.0,524.0,492.0,597.0
510.0,513.0,529.0,496.0,594.0
503.0,509.0,525.0,492.0,599.0
506.0,507.0,527.0,493.0,598.0
512.0,505.0,527.0,498.0,575.0
521.0,504.0,526.0,509.0,539.0
525.0,501.0,518.0,515.0,500.0
527.0,500.0,514.0,529.0,457.0
524.0,498.0,510.0,539.0,431.0
534.0,503.0,507.0,540.0,411.0
528.0,499.0,497.0,540.0,406.0
512.0,495.0,489.0,530.0,417.0
497.0,489.0,480.0,521.0,437.0
486.0,498.0,489.0,512.0,481.0
489.0,506.0,498.0,504.0,530.0
486.0,514.0,514.0,495.0,577.0
496.0,519.0,523.0,493.0,601.0
507.0,514.0,527.0,495.0,597.0
506.0,513.0,529.0,494.0,591.0
502.0,509.0,529.0,498.0,593.0
511.0,508.0,528.0,497.0,591.0
516.0,506.0,527.0,498.0,564.0
525.0,503.0,523.0,512.0,528.0
531.0,502.0,520.0,518.0,483.0
536.0,500.0,518.0,536.0,439.0
534.0,502.0,508.0,541.0,420.0
533.0,504.0,503.0,543.0,413.0
525.0,500.0,495.0,537.0,409.0
514.0,494.0,488.0,531.0,423.0
502.0,494.0,484.0,517.0,454.0
494.0,500.0,487.0,506.0,498.0
495.0,509.0,507.0,502.0,544.0
502.0,519.0,519.0,497.0,586.0
502.0,511.0,523.0,491.0,605.0
507.0,513.0,528.0,495.0,599.0
508.0,510.0,530.0,493.0,598.0
505.0,507.0,527.0,492.0,597.0
505.0,507.0,526.0,495.0,584.0
514.0,505.0,522.0,502.0,551.0
518.0,502.0,521.0,514.0,517.0
525.0,501.0,516.0,525.0,478.0
530.0,499.0,512.0,536.0,434.0
525.0,499.0,507.0,540.0,422.0
521.0,502.0,503.0,541.0,409.0
512.0,497.0,490.0,536.0,416.0
508.0,494.0,486.0,529.0,423.0
495.0,495.0,486.0,515.0,465.0
496.0,504.0,497.0,508.0,508.0
497.0,513.0,509.0,498.0,555.0
498.0,520.0,525.0,495.0,609.0
496.0,513.0,521.0,490.0,606.0
506.0,513.0,529.0,494.0,599.0
516.0,510.0,528.0,495.0,591.0
516.0,511.0,528.0,493.0,588.0
517.0,506.0,524.0,498.0,569.0
520.0,505.0,526.0,508.0,533.0
526.0,501.0,521.0,514.0,501.0
528.0,499.0,516.0,530.0,458.0
526.0,498.0,510.0,539.0,431.0
528.0,507.0,507.0,544.0,414.0
523.0,502.0,500.0,540.0,411.0
514.0,498.0,492.0,530.0,417.0
502.0,493.0,482.0,520.0,442.0
499.0,497.0,485.0,510.0,479.0
498.0,505.0,498.0,502.0,525.0
496.0,513.0,511.0,497.0,576.0
502.0,514.0,524.0,493.0,597.0
508.0,511.0,526.0,492.0,596.0
512.0,515.0,530.0,494.0,591.0
512.0,512.0,527.0,493.0,597.0
511.0,511.0,528.0,495.0,590.0
515.0,505.0,527.0,500.0,563.0
518.0,503.0,519.0,509.0,528.0
521.0,502.0,522.0,522.0,494.0
526.0,498.0,512.0,531.0,449.0
526.0,503.0,510.0,539.0,426.0
524.0,501.0,501.0,541.0,418.0
521.0,499.0,495.0,534.0,410.0
511.0,493.0,488.0,530.0,415.0
504.0,495.0,484.0,520.0,451.0
496.0,501.0,489.0,509.0,497.0
495.0,509.0,502.0,500.0,534.0
499.0,518.0,519.0,492.0,576.0
502.0,515.0,526.0,494.0,597.0
508.0,510.0,528.0,495.0,594.0
503.0,509.0,527.0,494.0,600.0
509.0,508.0,530.0,493.0,594.0
512.0,509.0,529.0,496.0,581.0
512.0,503.0,525.0,504.0,553.0
520.0,501.0,521.0,514.0,502.0
529.0,502.0,519.0,529.0,458.0
524.0,499.0,512.0,537.0,430.0
524.0,505.0,510.0,544.0,413.0
521.0,500.0,501.0,540.0,414.0
521.0,501.0,495.0,534.0,415.0
512.0,496.0,485.0,528.0,420.0
494.0,493.0,486.0,515.0,463.0
492.0,503.0,495.0,502.0,514.0
491.0,509.0,507.0,495.0,561.0
503.0,520.0,521.0,492.0,598.0
507.0,512.0,524.0,489.0,601.0
513.0,513.0,528.0,492.0,597.0
508.0,509.0,527.0,492.0,597.0
505.0,509.0,528.0,493.0,594.0
506.0,508.0,528.0,500.0,577.0
516.0,502.0,523.0,508.0,543.0
526.0,502.0,521.0,515.0,513.0
522.0,498.0,515.0,529.0,470.0
525.0,503.0,512.0,538.0,435.0
524.0,502.0,507.0,540.0,412.0
516.0,503.0,500.0,539.0,411.0
504.0,498.0,491.0,533.0,419.0
500.0,494.0,487.0,521.0,444.0
505.0,498.0,489.0,512.0,479.0
503.0,506.0,498.0,499.0,524.0
504.0,517.0,512.0,497.0,568.0
503.0,519.0,524.0,494.0,599.0
505.0,513.0,526.0,492.0,596.0
506.0,509.0,529.0,490.0,591.0
505.0,509.0,530.0,496.0,592.0
508.0,508.0,529.0,495.0,588.0
513.0,504.0,527.0,501.0,561.0
518.0,500.0,521.0,509.0,528.0
527.0,502.0,520.0,522.0,488.0
528.0,497.0,513.0,535.0,439.0
524.0,500.0,508.0,538.0,420.0
525.0,504.0,503.0,540.0,408.0
532.0,503.0,497.0,539.0,410.0
519.0,497.0,488.0,528.0,423.0
507.0,493.0,484.0,518.0,457.0
500.0,501.0,490.0,506.0,500.0
497.0,510.0,505.0,501.0,549.0
498.0,519.0,520.0,494.0,592.0
503.0,514.0,524.0,493.0,602.0
509.0,516.0,530.0,495.0,596.0
509.0,513.0,527.0,492.0,594.0
506.0,507.0,530.0,493.0,595.0
511.0,510.0,529.0,496.0,583.0
511.0,503.0,523.0,504.0,553.0
517.0,499.0,521.0,513.0,514.0
525.0,498.0,514.0,526.0,466.0
531.0,501.0,512.0,539.0,426.0
530.0,502.0,506.0,542.0,412.0
526.0,500.0,499.0,538.0,405.0
515.0,497.0,494.0,536.0,415.0
505.0,495.0,487.0,530.0,429.0
495.0,497.0,484.0,515.0,468.0
493.0,503.0,495.0,506.0,512.0
497.0,513.0,508.0,499.0,557.0
498.0,521.0,522.0,494.0,595.0
509.0,513.0,525.0,494.0,594.0
508.0,509.0,527.0,494.0,597.0
508.0,511.0,528.0,494.0,595.0
508.0,506.0,526.0,493.0,591.0
509.0,505.0,527.0,497.0,571.0
517.0,505.0,524.0,508.0,539.0
520.0,501.0,518.0,515.0,504.0
526.0,501.0,515.0,531.0,457.0
533.0,501.0,511.0,545.0,426.0
531.0,504.0,508.0,539.0,411.0
523.0,500.0,499.0,540.0,411.0
516.0,499.0,490.0,534.0,413.0
503.0,494.0,483.0,522.0,440.0
495.0,497.0,488.0,515.0,481.0
500.0,511.0,499.0,502.0,527.0
499.0,515.0,514.0,497.0,573.0
499.0,518.0,520.0,493.0,600.0
497.0,512.0,526.0,493.0,603.0
501.0,514.0,529.0,495.0,598.0
508.0,511.0,531.0,496.0,595.0
508.0,505.0,528.0,495.0,594.0
511.0,508.0,526.0,502.0,561.0
517.0,502.0,524.0,512.0,526.0
525.0,499.0,518.0,522.0,484.0
528.0,498.0,508.0,531.0,439.0
529.0,502.0,508.0,539.0,420.0
524.0,502.0,504.0,544.0,416.0
521.0,499.0,496.0,537.0,409.0
515.0,495.0,489.0,531.0,420.0
497.0,493.0,482.0,516.0,460.0
487.0,501.0,488.0,508.0,506.0
491.0,510.0,505.0,501.0,539.0
492.0,516.0,518.0,493.0,574.0
500.0,516.0,525.0,492.0,580.0
508.0,514.0,528.0,494.0,576.0
510.0,509.0,529.0,494.0,587.0
511.0,509.0,527.0,490.0,591.0
505.0,507.0,528.0,495.0,590.0
510.0,503.0,523.0,501.0,555.0
509.0,499.0,516.0,512.0,517.0
514.0,500.0,518.0,526.0,478.0
544.0,502.0,511.0,535.0,433.0
548.0,506.0,504.0,540.0,415.0
535.0,502.0,501.0,541.0,412.0
525.0,499.0,494.0,533.0,414.0
516.0,494.0,486.0,527.0,424.0
504.0,495.0,484.0,513.0,466.0
498.0,504.0,494.0,503.0,516.0
501.0,511.0,507.0,498.0,556.0
502.0,516.0,520.0,493.0,594.0
506.0,514.0,524.0,492.0,592.0
506.0,513.0,525.0,493.0,587.0
505.0,510.0,530.0,495.0,591.0
501.0,506.0,526.0,491.0,591.0
503.0,504.0,522.0,496.0,573.0
511.0,503.0,523.0,507.0,540.0
517.0,501.0,516.0,516.0,503.0
530.0,497.0,514.0,531.0,461.0
535.0,502.0,511.0,540.0,424.0
535.0,503.0,506.0,542.0,409.0
526.0,500.0,498.0,536.0,407.0
514.0,496.0,489.0,533.0,417.0
491.0,490.0,483.0,522.0,444.0
493.0,500.0,488.0,512.0,479.0
496.0,507.0,498.0,500.0,527.0
493.0,514.0,514.0,493.0,572.0
496.0,520.0,526.0,493.0,599.0
501.0,512.0,527.0,497.0,597.0
512.0,513.0,529.0,496.0,591.0
512.0,510.0,528.0,495.0,592.0
512.0,509.0,527.0,494.0,587.0
516.0,505.0,526.0,499.0,559.0
522.0,502.0,519.0,513.0,526.0
531.0,501.0,519.0,519.0,482.0
529.0,499.0,509.0,531.0,443.0
526.0,502.0,509.0,537.0,421.0
526.0,502.0,504.0,544.0,411.0
522.0,498.0,495.0,535.0,409.0
511.0,496.0,487.0,530.0,424.0
497.0,493.0,484.0,516.0,452.0
495.0,501.0,491.0,506.0,496.0
496.0,509.0,503.0,502.0,539.0
500.0,517.0,520.0,496.0,584.0
504.0,515.0,526.0,494.0,601.0
507.0,512.0,525.0,497.0,597.0
513.0,513.0,530.0,496.0,594.0
507.0,507.0,527.0,493.0,595.0
507.0,506.0,528.0,499.0,583.0
510.0,504.0,526.0,503.0,550.0
516.0,498.0,519.0,514.0,517.0
525.0,502.0,517.0,527.0,470.0
530.0,497.0,509.0,535.0,433.0
531.0,504.0,508.0,539.0,421.0
527.0,500.0,500.0,542.0,417.0
517.0,501.0,495.0,538.0,416.0
513.0,495.0,486.0,527.0,426.0
500.0,496.0,487.0,517.0,466.0
501.0,504.0,497.0,508.0,506.0
497.0,513.0,506.0,499.0,551.0
500.0,520.0,523.0,490.0,590.0
501.0,514.0,527.0,491.0,595.0
500.0,512.0,527.0,494.0,601.0
499.0,508.0,527.0,491.0,601.0
499.0,508.0,525.0,494.0,598.0
505.0,505.0,526.0,500.0,580.0
518.0,507.0,525.0,509.0,544.0
522.0,501.0,519.0,520.0,500.0
531.0,500.0,515.0,531.0,452.0
533.0,503.0,511.0,540.0,427.0
527.0,503.0,507.0,542.0,403.0
521.0,500.0,496.0,538.0,401.0
520.0,497.0,491.0,532.0,409.0
503.0,489.0,482.0,521.0,437.0
495.0,498.0,490.0,514.0,479.0
498.0,505.0,500.0,505.0,527.0
502.0,514.0,512.0,497.0,573.0
506.0,519.0,525.0,492.0,593.0
507.0,510.0,524.0,493.0,594.0
507.0,512.0,527.0,492.0,598.0
507.0,511.0,530.0,495.0,596.0
507.0,505.0,527.0,489.0,592.0
507.0,504.0,526.0,501.0,563.0
513.0,503.0,522.0,511.0,532.0
520.0,502.0,520.0,522.0,491.0
529.0,498.0,512.0,535.0,450.0
530.0,500.0,509.0,541.0,421.0
528.0,503.0,504.0,541.0,407.0
523.0,496.0,495.0,541.0,407.0
517.0,496.0,486.0,530.0,413.0
506.0,496.0,485.0,517.0,451.0
495.0,498.0,489.0,506.0,498.0
490.0,509.0,500.0,499.0,544.0
490.0,514.0,519.0,500.0,592.0
493.0,514.0,527.0,492.0,604.0
502.0,514.0,529.0,493.0,601.0
503.0,510.0,527.0,493.0,597.0
508.0,509.0,528.0,493.0,592.0
512.0,505.0,526.0,496.0,576.0
522.0,505.0,525.0,504.0,546.0
523.0,499.0,520.0,512.0,515.0
528.0,500.0,517.0,525.0,469.0
527.0,499.0,510.0,537.0,436.0
533.0,504.0,508.0,541.0,412.0
530.0,504.0,503.0,540.0,407.0
518.0,500.0,494.0,535.0,412.0
507.0,494.0,486.0,528.0,426.0
500.0,496.0,486.0,512.0,463.0
497.0,504.0,496.0,503.0,514.0
499.0,511.0,507.0,498.0,555.0
505.0,517.0,522.0,496.0,602.0
509.0,512.0,525.0,490.0,601.0
509.0,514.0,531.0,497.0,596.0
506.0,512.0,530.0,491.0,596.0
507.0,505.0,527.0,493.0,589.0
514.0,505.0,527.0,501.0,566.0
516.0,502.0,522.0,509.0,534.0
522.0,501.0,522.0,521.0,492.0
529.0,501.0,517.0,532.0,447.0
524.0,501.0,511.0,542.0,427.0
525.0,505.0,506.0,541.0,411.0
513.0,499.0,498.0,536.0,418.0
513.0,500.0,493.0,533.0,421.0
500.0,491.0,485.0,521.0,442.0
496.0,497.0,489.0,511.0,483.0
491.0,506.0,500.0,499.0,537.0
495.0,509.0,509.0,492.0,583.0
511.0,518.0,523.0,492.0,600.0
508.0,509.0,526.0,492.0,597.0
512.0,513.0,531.0,494.0,589.0
510.0,508.0,528.0,495.0,586.0
511.0,504.0,527.0,496.0,585.0
513.0,501.0,525.0,501.0,565.0
516.0,504.0,522.0,510.0,529.0
519.0,500.0,519.0,523.0,489.0
526.0,500.0,515.0,534.0,441.0
528.0,502.0,510.0,541.0,427.0
529.0,504.0,504.0,541.0,406.0
516.0,497.0,495.0,537.0,408.0
504.0,494.0,492.0,529.0,424.0
504.0,495.0,481.0,514.0,454.0
498.0,501.0,488.0,505.0,499.0
493.0,509.0,504.0,501.0,545.0
494.0,516.0,520.0,497.0,588.0
497.0,515.0,526.0,492.0,600.0
502.0,511.0,529.0,494.0,598.0
508.0,513.0,529.0,494.0,596.0
515.0,507.0,527.0,490.0,590.0
513.0,506.0,527.0,497.0,584.0
511.0,501.0,525.0,508.0,555.0
519.0,502.0,520.0,514.0,511.0
527.0,504.0,518.0,528.0,467.0
530.0,501.0,509.0,536.0,431.0
531.0,505.0,508.0,542.0,416.0
530.0,505.0,502.0,543.0,406.0
520.0,498.0,494.0,531.0,411.0
511.0,492.0,486.0,526.0,429.0
498.0,493.0,486.0,515.0,466.0
492.0,502.0,495.0,505.0,514.0
494.0,510.0,508.0,498.0,556.0
497.0,518.0,523.0,492.0,595.0
500.0,513.0,525.0,492.0,595.0
504.0,512.0,528.0,493.0,588.0
508.0,510.0,528.0,495.0,589.0
518.0,507.0,526.0,494.0,595.0
515.0,504.0,527.0,499.0,576.0
519.0,504.0,522.0,506.0,539.0
521.0,501.0,523.0,520.0,502.0
525.0,500.0,516.0,531.0,458.0
532.0,504.0,511.0,539.0,429.0
531.0,505.0,509.0,544.0,415.0
521.0,502.0,499.0,537.0,412.0
514.0,495.0,492.0,535.0,424.0
506.0,490.0,484.0,517.0,442.0
498.0,495.0,488.0,511.0,479.0
498.0,506.0,501.0,504.0,524.0
500.0,511.0,513.0,500.0,570.0
501.0,517.0,525.0,494.0,596.0
506.0,511.0,526.0,497.0,599.0
506.0,512.0,530.0,495.0,592.0
513.0,510.0,526.0,494.0,593.0
509.0,505.0,526.0,494.0,587.0
508.0,503.0,525.0,497.0,560.0
515.0,500.0,521.0,509.0,523.0
517.0,500.0,519.0,523.0,489.0
524.0,502.0,511.0,533.0,448.0
528.0,503.0,510.0,536.0,427.0
528.0,502.0,503.0,541.0,414.0
521.0,500.0,496.0,536.0,416.0
514.0,495.0,490.0,531.0,423.0
497.0,495.0,487.0,519.0,450.0
489.0,501.0,491.0,507.0,500.0
489.0,506.0,500.0,497.0,548.0
493.0,514.0,517.0,495.0,589.0
496.0,514.0,524.0,497.0,594.0
498.0,514.0,527.0,496.0,589.0
502.0,512.0,527.0,495.0,595.0
512.0,510.0,528.0,495.0,591.0
512.0,505.0,526.0,496.0,575.0
518.0,504.0,525.0,507.0,539.0
519.0,500.0,520.0,518.0,503.0
527.0,500.0,515.0,526.0,466.0
524.0,501.0,511.0,538.0,444.0
522.0,506.0,510.0,542.0,420.0
520.0,504.0,503.0,541.0,425.0
513.0,500.0,493.0,532.0,423.0
507.0,493.0,485.0,523.0,427.0
503.0,493.0,485.0,513.0,462.0
498.0,502.0,492.0,502.0,515.0
496.0,508.0,507.0,499.0,563.0
508.0,518.0,522.0,493.0,598.0
506.0,510.0,522.0,493.0,600.0
513.0,515.0,528.0,491.0,594.0
508.0,507.0,526.0,493.0,600.0
511.0,509.0,527.0,491.0,593.0
512.0,506.0,526.0,497.0,573.0
517.0,504.0,525.0,509.0,541.0
522.0,502.0,519.0,518.0,502.0
529.0,502.0,514.0,531.0,458.0
529.0,502.0,511.0,546.0,428.0
529.0,504.0,507.0,538.0,414.0
525.0,502.0,496.0,538.0,411.0
517.0,498.0,491.0,534.0,418.0
503.0,492.0,482.0,520.0,440.0
499.0,498.0,491.0,511.0,481.0
496.0,506.0,501.0,503.0,523.0
497.0,508.0,512.0,496.0,572.0
506.0,517.0,524.0,494.0,594.0
505.0,511.0,524.0,491.0,594.0
506.0,509.0,527.0,494.0,597.0
509.0,511.0,529.0,494.0,595.0
506.0,502.0,526.0,495.0,592.0
508.0,504.0,522.0,500.0,577.0
514.0,500.0,519.0,509.0,534.0
520.0,501.0,521.0,523.0,492.0
526.0,501.0,514.0,535.0,443.0
531.0,504.0,508.0,541.0,422.0
530.0,505.0,504.0,542.0,408.0
525.0,501.0,494.0,536.0,409.0
515.0,496.0,489.0,527.0,421.0
503.0,494.0,484.0,512.0,461.0
493.0,500.0,492.0,506.0,504.0
495.0,509.0,503.0,500.0,549.0
498.0,514.0,518.0,498.0,592.0
506.0,514.0,524.0,494.0,598.0
513.0,512.0,526.0,496.0,596.0
509.0,511.0,528.0,495.0,592.0
505.0,507.0,527.0,494.0,597.0
506.0,506.0,527.0,492.0,585.0
513.0,502.0,524.0,505.0,554.0
517.0,500.0,520.0,512.0,513.0
526.0,505.0,519.0,526.0,471.0
528.0,505.0,513.0,537.0,435.0
523.0,502.0,507.0,541.0,416.0
519.0,502.0,504.0,539.0,413.0
513.0,499.0,494.0,534.0,419.0
501.0,495.0,488.0,524.0,431.0
491.0,492.0,483.0,512.0,468.0
493.0,503.0,498.0,503.0,516.0
503.0,511.0,509.0,499.0,560.0
503.0,515.0,521.0,490.0,596.0
501.0,509.0,522.0,493.0,603.0
515.0,510.0,528.0,493.0,594.0
516.0,512.0,528.0,494.0,593.0
514.0,507.0,525.0,494.0,591.0
514.0,504.0,526.0,499.0,576.0
516.0,504.0,524.0,505.0,539.0
519.0,502.0,522.0,519.0,505.0
523.0,498.0,515.0,531.0,457.0
530.0,505.0,510.0,539.0,427.0
530.0,508.0,509.0,543.0,411.0
521.0,502.0,499.0,539.0,410.0
516.0,500.0,495.0,535.0,415.0
501.0,493.0,487.0,521.0,449.0
497.0,499.0,487.0,510.0,488.0
495.0,505.0,498.0,499.0,535.0
496.0,512.0,512.0,493.0,580.0
503.0,516.0,524.0,493.0,602.0
503.0,510.0,524.0,494.0,600.0
509.0,510.0,528.0,493.0,598.0
508.0,511.0,531.0,496.0,599.0
509.0,508.0,527.0,496.0,591.0
509.0,507.0,525.0,501.0,566.0
515.0,502.0,521.0,511.0,530.0
522.0,502.0,516.0,521.0,484.0
527.0,499.0,512.0,537.0,436.0
524.0,502.0,510.0,539.0,418.0
525.0,503.0,506.0,542.0,410.0
518.0,498.0,495.0,533.0,410.0
517.0,496.0,491.0,532.0,416.0
503.0,493.0,483.0,520.0,453.0
499.0,498.0,492.0,508.0,497.0
499.0,508.0,506.0,501.0,543.0
496.0,517.0,518.0,494.0,593.0
503.0,511.0,522.0,486.0,603.0
509.0,509.0,528.0,493.0,601.0
509.0,511.0,527.0,493.0,599.0
506.0,513.0,526.0,494.0,594.0
509.0,505.0,527.0,496.0,584.0
511.0,504.0,526.0,502.0,550.0
513.0,502.0,518.0,512.0,514.0
521.0,503.0,518.0,525.0,470.0
524.0,499.0,512.0,536.0,431.0
524.0,501.0,507.0,539.0,418.0
523.0,503.0,500.0,539.0,408.0
513.0,499.0,496.0,534.0,412.0
505.0,497.0,486.0,526.0,428.0
495.0,495.0,484.0,512.0,476.0
499.0,503.0,494.0,501.0,523.0
503.0,515.0,511.0,499.0,558.0
504.0,519.0,525.0,493.0,593.0
506.0,511.0,523.0,492.0,593.0
506.0,511.0,529.0,494.0,594.0
511.0,510.0,528.0,493.0,592.0
512.0,509.0,524.0,493.0,594.0
512.0,504.0,526.0,499.0,575.0
515.0,504.0,523.0,506.0,535.0
518.0,500.0,520.0,515.0,505.0
526.0,500.0,513.0,525.0,462.0
527.0,502.0,512.0,541.0,434.0
532.0,504.0,508.0,542.0,415.0
523.0,502.0,503.0,538.0,410.0
516.0,499.0,494.0,531.0,415.0
501.0,496.0,485.0,520.0,438.0
497.0,497.0,489.0,510.0,481.0
496.0,505.0,501.0,500.0,531.0
498.0,512.0,513.0,495.0,583.0
503.0,516.0,528.0,493.0,601.0
508.0,512.0,524.0,493.0,593.0
506.0,512.0,529.0,492.0,591.0
507.0,509.0,529.0,500.0,592.0
509.0,507.0,528.0,495.0,587.0
507.0,504.0,523.0,499.0,564.0
512.0,501.0,523.0,510.0,531.0
522.0,503.0,519.0,522.0,487.0
529.0,502.0,513.0,535.0,441.0
527.0,504.0,508.0,541.0,422.0
527.0,505.0,506.0,541.0,410.0
520.0,501.0,497.0,533.0,411.0
514.0,496.0,492.0,533.0,417.0
503.0,495.0,483.0,516.0,447.0
502.0,500.0,494.0,507.0,492.0
497.0,509.0,506.0,504.0,542.0
498.0,514.0,519.0,499.0,583.0
504.0,514.0,527.0,491.0,599.0
502.0,511.0,523.0,490.0,602.0
506.0,510.0,528.0,493.0,602.0
513.0,510.0,529.0,495.0,592.0
511.0,506.0,528.0,498.0,579.0
508.0,505.0,527.0,505.0,550.0
514.0,503.0,520.0,513.0,515.0
522.0,501.0,517.0,525.0,475.0
528.0,502.0,513.0,538.0,434.0
527.0,502.0,508.0,537.0,417.0
527.0,503.0,503.0,542.0,410.0
517.0,500.0,497.0,533.0,410.0
508.0,497.0,488.0,525.0,426.0
495.0,496.0,487.0,517.0,470.0
493.0,501.0,496.0,506.0,518.0
495.0,512.0,508.0,498.0,563.0
497.0,516.0,521.0,493.0,596.0
503.0,509.0,526.0,494.0,597.0
507.0,513.0,529.0,493.0,595.0
506.0,510.0,530.0,497.0,592.0
514.0,508.0,528.0,496.0,586.0
516.0,506.0,526.0,498.0,565.0
522.0,504.0,527.0,510.0,533.0
518.0,500.0,521.0,517.0,499.0
522.0,501.0,518.0,531.0,462.0
531.0,505.0,511.0,540.0,429.0
532.0,508.0,508.0,542.0,413.0
522.0,502.0,499.0,538.0,412.0
514.0,500.0,492.0,533.0,415.0
503.0,493.0,482.0,520.0,438.0
498.0,498.0,490.0,515.0,483.0
500.0,505.0,500.0,501.0,531.0
498.0,513.0,512.0,494.0,576.0
502.0,515.0,526.0,494.0,597.0
505.0,513.0,527.0,491.0,597.0
510.0,513.0,528.0,494.0,593.0
510.0,509.0,530.0,496.0,590.0
506.0,506.0,527.0,493.0,594.0
510.0,505.0,527.0,498.0,565.0
519.0,502.0,523.0,513.0,524.0
522.0,501.0,518.0,523.0,483.0
527.0,502.0,518.0,536.0,441.0
526.0,504.0,509.0,537.0,423.0
528.0,506.0,505.0,541.0,411.0
517.0,499.0,495.0,538.0,412.0
517.0,499.0,493.0,530.0,421.0
502.0,494.0,485.0,517.0,458.0
494.0,500.0,493.0,507.0,500.0
494.0,509.0,507.0,499.0,543.0
500.0,517.0,519.0,495.0,588.0
502.0,510.0,524.0,492.0,602.0
506.0,511.0,529.0,495.0,596.0
509.0,511.0,525.0,492.0,595.0
506.0,511.0,530.0,494.0,588.0
509.0,506.0,529.0,499.0,570.0
507.0,505.0,528.0,507.0,543.0
513.0,503.0,525.0,514.0,510.0
521.0,499.0,518.0,527.0,474.0
542.0,500.0,509.0,536.0,431.0
535.0,501.0,509.0,544.0,415.0
531.0,502.0,504.0,544.0,397.0
528.0,498.0,496.0,537.0,403.0
512.0,497.0,487.0,524.0,423.0
496.0,499.0,490.0,515.0,467.0
489.0,501.0,496.0,502.0,521.0
495.0,510.0,509.0,495.0,573.0
507.0,518.0,524.0,489.0,603.0
512.0,514.0,527.0,494.0,592.0
507.0,512.0,527.0,494.0,589.0
506.0,510.0,533.0,493.0,588.0
504.0,508.0,528.0,492.0,586.0
506.0,503.0,527.0,497.0,576.0
513.0,502.0,523.0,502.0,546.0
526.0,502.0,521.0,517.0,503.0
527.0,499.0,518.0,530.0,463.0
528.0,502.0,512.0,538.0,435.0
529.0,504.0,507.0,541.0,418.0
524.0,500.0,495.0,536.0,411.0
518.0,502.0,495.0,534.0,415.0
503.0,491.0,484.0,521.0,444.0
495.0,495.0,488.0,510.0,489.0
500.0,509.0,501.0,502.0,538.0
502.0,516.0,518.0,496.0,580.0
499.0,516.0,525.0,491.0,602.0
500.0,514.0,528.0,494.0,598.0
508.0,511.0,529.0,491.0,592.0
510.0,508.0,529.0,495.0,592.0
509.0,507.0,528.0,497.0,581.0
514.0,501.0,525.0,501.0,556.0
516.0,501.0,519.0,506.0,529.0
523.0,496.0,517.0,519.0,480.0
529.0,501.0,515.0,537.0,435.0
533.0,507.0,515.0,545.0,419.0
521.0,504.0,509.0,546.0,414.0
517.0,502.0,499.0,538.0,416.0
518.0,498.0,495.0,530.0,422.0
502.0,495.0,490.0,518.0,454.0
491.0,502.0,496.0,506.0,505.0
495.0,507.0,508.0,500.0,548.0
497.0,515.0,518.0,494.0,587.0
500.0,512.0,528.0,494.0,598.0
506.0,511.0,529.0,494.0,598.0
506.0,505.0,528.0,494.0,600.0
507.0,510.0,525.0,498.0,594.0
506.0,507.0,528.0,503.0,578.0
515.0,504.0,524.0,503.0,547.0
521.0,502.0,521.0,511.0,509.0
522.0,500.0,518.0,525.0,470.0
526.0,501.0,514.0,539.0,432.0
525.0,503.0,512.0,544.0,423.0
528.0,502.0,509.0,539.0,412.0
521.0,496.0,505.0,536.0,412.0
512.0,497.0,500.0,528.0,422.0
495.0,497.0,500.0,513.0,470.0
496.0,499.0,496.0,506.0,516.0
499.0,512.0,495.0,502.0,559.0
502.0,517.0,519.0,496.0,596.0
504.0,510.0,521.0,491.0,605.0
505.0,505.0,523.0,496.0,602.0
510.0,507.0,529.0,498.0,597.0
516.0,509.0,536.0,497.0,590.0
513.0,506.0,539.0,512.0,573.0
511.0,504.0,524.0,507.0,540.0
512.0,500.0,520.0,513.0,507.0
526.0,497.0,523.0,519.0,455.0
527.0,492.0,505.0,532.0,426.0
532.0,497.0,493.0,541.0,401.0
525.0,502.0,500.0,539.0,396.0
512.0,502.0,497.0,533.0,404.0
493.0,491.0,480.0,516.0,449.0
490.0,498.0,487.0,509.0,490.0
496.0,509.0,497.0,503.0,535.0
501.0,519.0,514.0,495.0,580.0
502.0,515.0,525.0,497.0,600.0
505.0,513.0,525.0,494.0,599.0
509.0,511.0,524.0,495.0,597.0
511.0,513.0,524.0,497.0,593.0
507.0,510.0,527.0,493.0,590.0
513.0,502.0,525.0,501.0,566.0
520.0,500.0,520.0,508.0,525.0
526.0,503.0,521.0,526.0,485.0
529.0,502.0,512.0,537.0,446.0
526.0,503.0,509.0,538.0,420.0
528.0,503.0,507.0,544.0,403.0
516.0,498.0,501.0,536.0,411.0
515.0,505.0,501.0,533.0,412.0
502.0,495.0,487.0,518.0,453.0
504.0,507.0,494.0,511.0,491.0
506.0,514.0,506.0,501.0,542.0
494.0,516.0,523.0,490.0,595.0
498.0,510.0,533.0,496.0,605.0
508.0,511.0,536.0,495.0,594.0
511.0,508.0,535.0,495.0,599.0
508.0,505.0,523.0,497.0,589.0
507.0,503.0,514.0,492.0,586.0
514.0,501.0,523.0,501.0,551.0
516.0,496.0,517.0,508.0,516.0
525.0,501.0,511.0,522.0,468.0
523.0,510.0,494.0,533.0,431.0
525.0,510.0,494.0,537.0,417.0
514.0,501.0,481.0,539.0,411.0
510.0,498.0,481.0,533.0,418.0
519.0,499.0,483.0,522.0,431.0
509.0,499.0,487.0,514.0,462.0
494.0,504.0,511.0,507.0,510.0
502.0,511.0,522.0,501.0,556.0
499.0,511.0,530.0,494.0,594.0
496.0,510.0,530.0,498.0,595.0
505.0,516.0,539.0,496.0,600.0
512.0,512.0,535.0,498.0,596.0
507.0,509.0,540.0,496.0,589.0
510.0,506.0,536.0,499.0,573.0
521.0,507.0,532.0,511.0,534.0
529.0,505.0,530.0,522.0,487.0
527.0,505.0,526.0,538.0,434.0
531.0,511.0,523.0,544.0,412.0
524.0,502.0,516.0,544.0,422.0
522.0,496.0,506.0,533.0,420.0
521.0,494.0,495.0,530.0,418.0
500.0,488.0,480.0,517.0,448.0
498.0,490.0,490.0,507.0,486.0
495.0,495.0,493.0,496.0,528.0
498.0,502.0,503.0,486.0,571.0
497.0,503.0,511.0,475.0,604.0
498.0,510.0,514.0,469.0,601.0
503.0,511.0,538.0,494.0,597.0
511.0,503.0,544.0,507.0,589.0
511.0,484.0,541.0,512.0,583.0
507.0,475.0,530.0,502.0,562.0
515.0,483.0,530.0,504.0,522.0
524.0,486.0,522.0,518.0,481.0
525.0,479.0,491.0,538.0,440.0
524.0,499.0,478.0,531.0,428.0
519.0,520.0,514.0,536.0,416.0
518.0,522.0,515.0,540.0,402.0
515.0,523.0,512.0,544.0,409.0
507.0,516.0,502.0,525.0,444.0
492.0,505.0,496.0,507.0,499.0
493.0,516.0,509.0,503.0,546.0
506.0,524.0,525.0,499.0,586.0
505.0,519.0,530.0,495.0,604.0
506.0,514.0,531.0,495.0,595.0
518.0,519.0,534.0,497.0,591.0
521.0,519.0,542.0,498.0,590.0
514.0,522.0,550.0,498.0,579.0
504.0,513.0,551.0,507.0,549.0
515.0,507.0,549.0,520.0,507.0
522.0,500.0,536.0,529.0,469.0
522.0,490.0,497.0,538.0,438.0
528.0,488.0,500.0,544.0,418.0
525.0,489.0,495.0,542.0,407.0
517.0,494.0,490.0,532.0,408.0
508.0,506.0,469.0,521.0,427.0
496.0,525.0,481.0,506.0,464.0
492.0,531.0,486.0,491.0,507.0
493.0,535.0,500.0,492.0,552.0
498.0,530.0,517.0,485.0,592.0
503.0,515.0,518.0,491.0,595.0
508.0,510.0,533.0,496.0,600.0
513.0,519.0,536.0,497.0,596.0
510.0,519.0,535.0,507.0,595.0
511.0,512.0,535.0,508.0,573.0
513.0,502.0,531.0,513.0,535.0
521.0,505.0,521.0,513.0,503.0
530.0,509.0,515.0,521.0,455.0
528.0,506.0,517.0,542.0,423.0
528.0,513.0,525.0,553.0,403.0
513.0,507.0,514.0,539.0,419.0
510.0,504.0,506.0,534.0,417.0
494.0,494.0,494.0,518.0,448.0
497.0,490.0,502.0,508.0,475.0
509.0,493.0,513.0,507.0,520.0
500.0,501.0,531.0,507.0,570.0
499.0,506.0,536.0,505.0,591.0
494.0,493.0,532.0,497.0,596.0
501.0,496.0,534.0,496.0,595.0
510.0,512.0,543.0,493.0,587.0
502.0,517.0,544.0,478.0,598.0
502.0,510.0,539.0,488.0,578.0
509.0,504.0,525.0,512.0,532.0
519.0,517.0,526.0,524.0,491.0
532.0,517.0,524.0,546.0,442.0
526.0,504.0,516.0,553.0,417.0
526.0,499.0,506.0,544.0,399.0
520.0,500.0,519.0,541.0,396.0
511.0,489.0,517.0,551.0,397.0
496.0,474.0,507.0,527.0,444.0
485.0,466.0,508.0,494.0,504.0
496.0,471.0,490.0,492.0,538.0
489.0,487.0,518.0,494.0,587.0
502.0,501.0,536.0,505.0,608.0
517.0,534.0,541.0,497.0,592.0
505.0,500.0,536.0,509.0,592.0
505.0,505.0,533.0,496.0,595.0
501.0,510.0,523.0,467.0,593.0
506.0,523.0,533.0,483.0,562.0
522.0,494.0,531.0,498.0,517.0
541.0,467.0,472.0,533.0,466.0
544.0,465.0,455.0,544.0,418.0
538.0,476.0,477.0,549.0,404.0
510.0,447.0,467.0,539.0,413.0
484.0,457.0,482.0,533.0,440.0
497.0,529.0,529.0,535.0,425.0
512.0,571.0,556.0,532.0,444.0
509.0,563.0,534.0,494.0,505.0
501.0,536.0,516.0,493.0,555.0
490.0,531.0,516.0,498.0,595.0
506.0,532.0,523.0,490.0,601.0
506.0,515.0,542.0,500.0,607.0
500.0,509.0,552.0,510.0,604.0
508.0,503.0,553.0,499.0,605.0
517.0,488.0,540.0,492.0,572.0
511.0,479.0,531.0,505.0,539.0
509.0,479.0,556.0,515.0,501.0
513.0,468.0,542.0,528.0,451.0
519.0,483.0,523.0,538.0,426.0
529.0,523.0,530.0,543.0,405.0
524.0,499.0,503.0,523.0,420.0
510.0,472.0,481.0,518.0,420.0
507.0,474.0,465.0,492.0,434.0
514.0,493.0,493.0,447.0,480.0
516.0,490.0,527.0,488.0,526.0
505.0,487.0,538.0,521.0,572.0
507.0,495.0,549.0,531.0,598.0
506.0,499.0,519.0,531.0,587.0
494.0,531.0,513.0,493.0,597.0
494.0,568.0,543.0,484.0,598.0
504.0,562.0,547.0,501.0,598.0
507.0,523.0,548.0,517.0,569.0
523.0,509.0,549.0,525.0,522.0
519.0,511.0,562.0,552.0,477.0
520.0,515.0,561.0,546.0,442.0
520.0,507.0,534.0,541.0,429.0
530.0,508.0,544.0,540.0,404.0
521.0,515.0,543.0,565.0,386.0
517.0,516.0,519.0,551.0,396.0
495.0,504.0,529.0,530.0,445.0
473.0,495.0,559.0,532.0,496.0
475.0,527.0,560.0,524.0,551.0
498.0,533.0,520.0,473.0,600.0
504.0,508.0,475.0,452.0,613.0
511.0,492.0,482.0,474.0,608.0
525.0,491.0,528.0,493.0,592.0
522.0,481.0,536.0,502.0,578.0
512.0,469.0,538.0,492.0,561.0
509.0,485.0,539.0,499.0,542.0
514.0,522.0,537.0,508.0,517.0
525.0,520.0,518.0,520.0,456.0
534.0,538.0,521.0,540.0,401.0
525.0,525.0,521.0,555.0,397.0
516.0,515.0,529.0,560.0,412.0
529.0,522.0,527.0,532.0,410.0
506.0,480.0,502.0,522.0,435.0
480.0,465.0,486.0,505.0,489.0
488.0,483.0,502.0,483.0,534.0
481.0,471.0,498.0,476.0,585.0
494.0,508.0,535.0,477.0,606.0
500.0,541.0,535.0,481.0,602.0
516.0,563.0,559.0,496.0,590.0
507.0,533.0,537.0,504.0,589.0
502.0,503.0,546.0,502.0,590.0
511.0,488.0,548.0,507.0,559.0
522.0,491.0,570.0,520.0,514.0
504.0,463.0,527.0,531.0,505.0
513.0,473.0,514.0,535.0,473.0
518.0,468.0,501.0,527.0,430.0
527.0,478.0,508.0,533.0,413.0
504.0,474.0,490.0,508.0,427.0
512.0,497.0,512.0,512.0,424.0
495.0,508.0,514.0,515.0,448.0
501.0,521.0,535.0,530.0,475.0
503.0,535.0,562.0,532.0,521.0
504.0,506.0,571.0,500.0,574.0
486.0,502.0,558.0,452.0,608.0
511.0,513.0,492.0,462.0,600.0
530.0,533.0,497.0,499.0,580.0
522.0,526.0,524.0,532.0,590.0
491.0,524.0,519.0,532.0,592.0
502.0,532.0,513.0,538.0,561.0
523.0,497.0,514.0,538.0,517.0
526.0,486.0,519.0,557.0,476.0
528.0,448.0,520.0,504.0,449.0
519.0,435.0,518.0,458.0,422.0
509.0,433.0,545.0,477.0,421.0
495.0,407.0,508.0,504.0,433.0
504.0,459.0,507.0,501.0,423.0
515.0,528.0,515.0,541.0,436.0
504.0,554.0,562.0,547.0,487.0
495.0,528.0,599.0,544.0,549.0
507.0,524.0,589.0,534.0,584.0
511.0,506.0,497.0,564.0,581.0
484.0,425.0,470.0,497.0,607.0
485.0,407.0,449.0,436.0,611.0
507.0,492.0,544.0,484.0,594.0
529.0,516.0,614.0,540.0,558.0
546.0,531.0,575.0,518.0,516.0
517.0,523.0,584.0,512.0,495.0
519.0,514.0,569.0,495.0,477.0
520.0,544.0,612.0,495.0,433.0
526.0,564.0,642.0,513.0,399.0
524.0,542.0,593.0,557.0,400.0
551.0,547.0,547.0,558.0,367.0
529.0,562.0,480.0,526.0,398.0
505.0,557.0,522.0,544.0,472.0
505.0,525.0,500.0,554.0,511.0
499.0,489.0,453.0,496.0,552.0
486.0,492.0,499.0,500.0,621.0
504.0,498.0,534.0,474.0,596.0
512.0,501.0,587.0,521.0,587.0
508.0,454.0,566.0,466.0,592.0
496.0,390.0,447.0,439.0,598.0
492.0,398.0,447.0,490.0,591.0
513.0,466.0,463.0,536.0,538.0
508.0,475.0,407.0,482.0,509.0
530.0,520.0,479.0,512.0,448.0
543.0,500.0,504.0,556.0,402.0
562.0,430.0,523.0,579.0,369.0
522.0,402.0,532.0,556.0,373.0
499.0,431.0,535.0,535.0,402.0
489.0,435.0,549.0,514.0,437.0
513.0,579.0,590.0,491.0,461.0
501.0,592.0,640.0,498.0,517.0
472.0,572.0,481.0,542.0,599.0
501.0,591.0,492.0,494.0,628.0
501.0,524.0,426.0,496.0,627.0
510.0,489.0,434.0,472.0,606.0
522.0,556.0,472.0,483.0,577.0
513.0,532.0,493.0,499.0,574.0
527.0,500.0,523.0,510.0,543.0
518.0,514.0,512.0,524.0,498.0
521.0,547.0,537.0,549.0,445.0
523.0,511.0,469.0,566.0,409.0
503.0,502.0,410.0,561.0,432.0
533.0,491.0,432.0,507.0,398.0
517.0,478.0,429.0,501.0,411.0
501.0,515.0,477.0,519.0,429.0
487.0,525.0,547.0,554.0,461.0
485.0,546.0,545.0,524.0,502.0
500.0,539.0,533.0,497.0,552.0
499.0,513.0,531.0,525.0,599.0
513.0,463.0,520.0,537.0,606.0
518.0,521.0,618.0,528.0,597.0
512.0,551.0,603.0,467.0,591.0
511.0,575.0,615.0,432.0,578.0
513.0,490.0,545.0,463.0,572.0
529.0,480.0,496.0,521.0,537.0
507.0,466.0,504.0,462.0,514.0
513.0,516.0,613.0,482.0,453.0
517.0,583.0,595.0,557.0,437.0
508.0,549.0,504.0,614.0,415.0
521.0,530.0,485.0,579.0,417.0
519.0,524.0,554.0,586.0,415.0
515.0,525.0,596.0,551.0,427.0
495.0,500.0,480.0,521.0,470.0
492.0,509.0,359.0,506.0,520.0
488.0,517.0,399.0,497.0,570.0
496.0,520.0,425.0,479.0,609.0
508.0,494.0,469.0,479.0,610.0
505.0,498.0,507.0,518.0,607.0
509.0,487.0,499.0,505.0,592.0
506.0,458.0,496.0,490.0,591.0
503.0,478.0,518.0,500.0,569.0
513.0,485.0,525.0,491.0,548.0
525.0,484.0,485.0,502.0,501.0
521.0,452.0,471.0,514.0,442.0
535.0,515.0,499.0,557.0,405.0
523.0,485.0,485.0,552.0,396.0
494.0,456.0,494.0,556.0,418.0
493.0,500.0,521.0,529.0,414.0
501.0,500.0,493.0,513.0,443.0
492.0,510.0,447.0,493.0,491.0
496.0,532.0,515.0,474.0,529.0
502.0,541.0,515.0,480.0,583.0
506.0,519.0,492.0,509.0,593.0
517.0,529.0,495.0,520.0,590.0
515.0,525.0,495.0,502.0,595.0
501.0,507.0,529.0,492.0,608.0
492.0,517.0,547.0,500.0,606.0
508.0,501.0,530.0,495.0,560.0
515.0,483.0,496.0,505.0,518.0
519.0,490.0,585.0,559.0,466.0
521.0,419.0,552.0,530.0,434.0
520.0,391.0,445.0,539.0,423.0
524.0,417.0,426.0,439.0,416.0
514.0,431.0,490.0,501.0,397.0
526.0,578.0,593.0,579.0,385.0
509.0,576.0,551.0,583.0,440.0
512.0,529.0,462.0,561.0,496.0
509.0,573.0,523.0,563.0,529.0
508.0,560.0,549.0,503.0,574.0
497.0,490.0,548.0,436.0,616.0
500.0,468.0,515.0,478.0,601.0
492.0,500.0,553.0,483.0,609.0
510.0,532.0,532.0,513.0,609.0
504.0,509.0,479.0,507.0,586.0
510.0,508.0,488.0,477.0,546.0
508.0,471.0,512.0,449.0,515.0
527.0,470.0,487.0,484.0,451.0
530.0,451.0,460.0,568.0,423.0
531.0,481.0,521.0,607.0,405.0
525.0,487.0,481.0,578.0,393.0
515.0,458.0,444.0,516.0,421.0
483.0,503.0,486.0,521.0,448.0
514.0,576.0,548.0,497.0,462.0
494.0,526.0,533.0,405.0,535.0
486.0,529.0,540.0,477.0,585.0
498.0,517.0,506.0,522.0,618.0
508.0,551.0,407.0,514.0,601.0
512.0,549.0,484.0,529.0,593.0
512.0,514.0,497.0,539.0,593.0
513.0,496.0,495.0,508.0,584.0
510.0,453.0,478.0,486.0,561.0
500.0,455.0,491.0,497.0,517.0
522.0,537.0,524.0,529.0,472.0
550.0,607.0,522.0,537.0,414.0
553.0,574.0,533.0,549.0,384.0
526.0,562.0,539.0,556.0,393.0
516.0,539.0,513.0,531.0,411.0
516.0,518.0,473.0,524.0,427.0
506.0,517.0,469.0,529.0,448.0
507.0,510.0,491.0,539.0,474.0
481.0,474.0,502.0,489.0,546.0
487.0,522.0,521.0,485.0,590.0
499.0,539.0,502.0,487.0,597.0
512.0,522.0,480.0,475.0,600.0
499.0,479.0,502.0,464.0,601.0
504.0,520.0,557.0,489.0,571.0
516.0,517.0,566.0,498.0,566.0
511.0,477.0,546.0,486.0,548.0
509.0,463.0,506.0,454.0,515.0
528.0,519.0,540.0,514.0,471.0
530.0,502.0,496.0,613.0,434.0
523.0,505.0,532.0,619.0,424.0
514.0,488.0,517.0,588.0,418.0
515.0,537.0,472.0,540.0,427.0
517.0,518.0,446.0,495.0,427.0
502.0,497.0,474.0,495.0,454.0
492.0,480.0,480.0,509.0,493.0
481.0,461.0,511.0,510.0,552.0
489.0,485.0,545.0,466.0,598.0
506.0,520.0,550.0,470.0,612.0
508.0,558.0,538.0,499.0,611.0
513.0,545.0,513.0,485.0,604.0
511.0,495.0,519.0,516.0,601.0
505.0,474.0,526.0,509.0,583.0
512.0,489.0,484.0,486.0,550.0
521.0,461.0,550.0,460.0,508.0
533.0,503.0,596.0,531.0,443.0
527.0,505.0,527.0,570.0,408.0
536.0,534.0,531.0,558.0,396.0
527.0,519.0,541.0,577.0,393.0
507.0,508.0,489.0,566.0,420.0
487.0,492.0,444.0,496.0,442.0
479.0,483.0,408.0,490.0,490.0
501.0,497.0,445.0,493.0,524.0
513.0,524.0,517.0,491.0,551.0
508.0,489.0,516.0,461.0,592.0
504.0,436.0,501.0,478.0,597.0
506.0,432.0,498.0,482.0,591.0
508.0,495.0,577.0,506.0,593.0
514.0,567.0,655.0,589.0,573.0
487.0,572.0,644.0,601.0,562.0
516.0,511.0,631.0,444.0,544.0
515.0,453.0,583.0,440.0,516.0
513.0,458.0,441.0,499.0,464.0
516.0,470.0,385.0,551.0,423.0
536.0,529.0,417.0,558.0,403.0
529.0,548.0,512.0,567.0,394.0
523.0,565.0,515.0,539.0,384.0
513.0,508.0,434.0,507.0,422.0
484.0,509.0,441.0,479.0,500.0
498.0,545.0,490.0,491.0,538.0
508.0,542.0,503.0,499.0,581.0
514.0,538.0,528.0,488.0,602.0
509.0,512.0,540.0,495.0,606.0
504.0,517.0,530.0,535.0,607.0
497.0,484.0,467.0,480.0,615.0
505.0,497.0,473.0,421.0,601.0
524.0,521.0,528.0,539.0,549.0
532.0,526.0,527.0,533.0,514.0
520.0,503.0,532.0,556.0,475.0
520.0,462.0,538.0,569.0,433.0
534.0,451.0,505.0,559.0,398.0
530.0,500.0,482.0,535.0,391.0
517.0,492.0,487.0,472.0,419.0
513.0,500.0,503.0,519.0,403.0
501.0,497.0,483.0,562.0,446.0
490.0,460.0,506.0,502.0,495.0
479.0,472.0,548.0,459.0,554.0
520.0,548.0,550.0,485.0,564.0
516.0,572.0,543.0,499.0,581.0
499.0,537.0,526.0,483.0,594.0
496.0,537.0,543.0,498.0,591.0
490.0,503.0,454.0,477.0,624.0
498.0,493.0,497.0,470.0,611.0
518.0,448.0,540.0,502.0,544.0
518.0,443.0,547.0,513.0,516.0
512.0,435.0,544.0,484.0,486.0
526.0,485.0,479.0,494.0,438.0
543.0,563.0,491.0,527.0,411.0
517.0,552.0,478.0,557.0,408.0
513.0,523.0,469.0,602.0,407.0
494.0,525.0,489.0,501.0,449.0
495.0,514.0,471.0,468.0,479.0
498.0,560.0,517.0,540.0,517.0
498.0,546.0,521.0,551.0,563.0
502.0,536.0,523.0,526.0,591.0
506.0,515.0,552.0,533.0,586.0
504.0,471.0,541.0,505.0,595.0
505.0,451.0,532.0,494.0,596.0
498.0,433.0,525.0,508.0,595.0
499.0,520.0,539.0,509.0,563.0
527.0,533.0,535.0,516.0,520.0
531.0,550.0,539.0,497.0,489.0
525.0,510.0,516.0,511.0,452.0
519.0,522.0,505.0,531.0,419.0
526.0,516.0,475.0,498.0,411.0
525.0,512.0,526.0,519.0,421.0
512.0,515.0,609.0,541.0,423.0
499.0,505.0,578.0,497.0,452.0
485.0,462.0,422.0,426.0,502.0
499.0,480.0,468.0,487.0,532.0
496.0,478.0,503.0,542.0,582.0
511.0,513.0,527.0,533.0,589.0
522.0,558.0,553.0,509.0,597.0
519.0,531.0,494.0,482.0,591.0
515.0,528.0,531.0,522.0,587.0
500.0,479.0,562.0,557.0,587.0
496.0,514.0,621.0,520.0,558.0
516.0,516.0,662.0,523.0,516.0
532.0,548.0,461.0,495.0,484.0
529.0,493.0,439.0,528.0,426.0
531.0,458.0,492.0,532.0,402.0
526.0,428.0,522.0,549.0,400.0
525.0,496.0,495.0,527.0,392.0
513.0,559.0,523.0,503.0,415.0
495.0,525.0,463.0,493.0,463.0
495.0,527.0,443.0,501.0,519.0
497.0,513.0,491.0,516.0,569.0
501.0,489.0,507.0,533.0,605.0
521.0,449.0,482.0,488.0,571.0
506.0,462.0,503.0,494.0,587.0
511.0,578.0,557.0,506.0,579.0
511.0,532.0,526.0,505.0,582.0
511.0,521.0,531.0,475.0,563.0
517.0,538.0,514.0,508.0,539.0
524.0,522.0,506.0,506.0,498.0
524.0,498.0,519.0,522.0,466.0
521.0,485.0,525.0,533.0,434.0
521.0,487.0,525.0,538.0,437.0
513.0,503.0,501.0,533.0,432.0
511.0,504.0,507.0,536.0,422.0
522.0,519.0,495.0,534.0,407.0
500.0,517.0,470.0,541.0,461.0
490.0,499.0,512.0,555.0,500.0
503.0,500.0,515.0,496.0,553.0
518.0,479.0,482.0,460.0,591.0
498.0,486.0,556.0,429.0,599.0
489.0,490.0,565.0,470.0,602.0
510.0,513.0,532.0,460.0,616.0
503.0,506.0,525.0,467.0,610.0
512.0,539.0,492.0,503.0,581.0
521.0,516.0,529.0,528.0,532.0
519.0,507.0,559.0,547.0,491.0
540.0,507.0,500.0,545.0,442.0
531.0,501.0,503.0,538.0,440.0
516.0,435.0,494.0,526.0,415.0
513.0,437.0,506.0,572.0,421.0
513.0,495.0,567.0,594.0,428.0
501.0,545.0,563.0,462.0,457.0
488.0,528.0,500.0,471.0,506.0
505.0,509.0,577.0,512.0,533.0
504.0,451.0,518.0,524.0,567.0
491.0,440.0,512.0,491.0,612.0
484.0,468.0,457.0,476.0,613.0
513.0,543.0,503.0,484.0,598.0
529.0,552.0,498.0,479.0,582.0
526.0,532.0,516.0,491.0,563.0
507.0,507.0,519.0,528.0,552.0
515.0,478.0,509.0,508.0,522.0
518.0,492.0,562.0,532.0,488.0
541.0,532.0,622.0,557.0,425.0
548.0,550.0,581.0,551.0,399.0
526.0,507.0,491.0,545.0,417.0
499.0,495.0,485.0,508.0,432.0
515.0,493.0,488.0,502.0,407.0
492.0,465.0,443.0,582.0,454.0
484.0,505.0,436.0,487.0,525.0
498.0,585.0,476.0,441.0,555.0
509.0,546.0,502.0,465.0,589.0
516.0,511.0,512.0,531.0,596.0
511.0,496.0,506.0,542.0,587.0
500.0,491.0,526.0,530.0,586.0
504.0,537.0,532.0,513.0,587.0
501.0,549.0,509.0,446.0,604.0
514.0,523.0,522.0,506.0,548.0
522.0,529.0,568.0,528.0,507.0
532.0,530.0,581.0,562.0,464.0
531.0,512.0,523.0,545.0,435.0
515.0,497.0,471.0,493.0,435.0
525.0,489.0,445.0,484.0,407.0
528.0,476.0,461.0,529.0,396.0
507.0,465.0,481.0,548.0,420.0
498.0,486.0,470.0,532.0,460.0
493.0,466.0,528.0,506.0,516.0
482.0,469.0,537.0,489.0,571.0
500.0,544.0,530.0,499.0,595.0
499.0,539.0,522.0,528.0,619.0
512.0,533.0,511.0,503.0,613.0
517.0,516.0,544.0,450.0,594.0
505.0,503.0,520.0,443.0,592.0
503.0,509.0,529.0,516.0,577.0
515.0,518.0,543.0,521.0,539.0
538.0,530.0,491.0,525.0,492.0
529.0,516.0,511.0,556.0,443.0
525.0,490.0,511.0,550.0,419.0
521.0,480.0,499.0,543.0,415.0
514.0,483.0,505.0,546.0,409.0
529.0,490.0,515.0,523.0,404.0
498.0,453.0,494.0,524.0,451.0
495.0,453.0,454.0,496.0,485.0
497.0,481.0,484.0,494.0,531.0
496.0,530.0,532.0,522.0,566.0
507.0,601.0,588.0,505.0,606.0
516.0,560.0,566.0,533.0,594.0
499.0,518.0,551.0,517.0,609.0
503.0,504.0,521.0,495.0,603.0
491.0,463.0,491.0,467.0,605.0
499.0,464.0,544.0,476.0,562.0
521.0,477.0,509.0,499.0,528.0
527.0,478.0,490.0,519.0,490.0
538.0,543.0,522.0,535.0,442.0
547.0,529.0,518.0,540.0,405.0
528.0,505.0,487.0,531.0,406.0
514.0,489.0,512.0,545.0,413.0
507.0,468.0,505.0,531.0,418.0
491.0,471.0,488.0,506.0,457.0
487.0,483.0,451.0,490.0,510.0
493.0,559.0,519.0,512.0,553.0
500.0,552.0,542.0,509.0,588.0
508.0,562.0,526.0,520.0,599.0
525.0,535.0,553.0,501.0,579.0
517.0,507.0,572.0,482.0,580.0
504.0,496.0,589.0,484.0,603.0
533.0,500.0,541.0,482.0,555.0
517.0,508.0,530.0,469.0,550.0
518.0,496.0,551.0,541.0,517.0
534.0,514.0,541.0,551.0,457.0
534.0,529.0,618.0,574.0,412.0
528.0,501.0,677.0,564.0,405.0
497.0,466.0,505.0,541.0,444.0
506.0,484.0,384.0,481.0,434.0
503.0,498.0,444.0,467.0,439.0
509.0,552.0,440.0,497.0,452.0
505.0,523.0,444.0,527.0,492.0
496.0,502.0,455.0,518.0,555.0
503.0,487.0,496.0,485.0,590.0
496.0,489.0,487.0,487.0,595.0
511.0,459.0,475.0,505.0,586.0
522.0,512.0,532.0,504.0,587.0
511.0,489.0,504.0,501.0,603.0
514.0,520.0,558.0,514.0,584.0
510.0,526.0,610.0,504.0,546.0
517.0,519.0,542.0,472.0,503.0
529.0,521.0,564.0,597.0,446.0
523.0,502.0,506.0,615.0,432.0
519.0,496.0,472.0,565.0,442.0
515.0,479.0,458.0,522.0,420.0
517.0,502.0,516.0,470.0,413.0
509.0,503.0,477.0,501.0,427.0
504.0,525.0,485.0,516.0,474.0
495.0,488.0,480.0,492.0,534.0
494.0,501.0,523.0,482.0,581.0
499.0,506.0,541.0,503.0,592.0
487.0,469.0,503.0,492.0,608.0
513.0,525.0,497.0,473.0,580.0
511.0,528.0,510.0,484.0,606.0
524.0,557.0,520.0,496.0,578.0
520.0,532.0,520.0,497.0,541.0
517.0,498.0,512.0,507.0,516.0
528.0,497.0,516.0,540.0,472.0
529.0,515.0,503.0,523.0,424.0
522.0,494.0,499.0,520.0,428.0
529.0,500.0,541.0,545.0,415.0
514.0,505.0,528.0,549.0,421.0
500.0,484.0,455.0,532.0,427.0
494.0,481.0,474.0,505.0,467.0
491.0,470.0,555.0,512.0,506.0
501.0,484.0,586.0,500.0,536.0
502.0,478.0,542.0,452.0,581.0
500.0,542.0,531.0,484.0,581.0
518.0,561.0,609.0,544.0,585.0
518.0,503.0,586.0,520.0,579.0
512.0,537.0,522.0,488.0,591.0
504.0,498.0,414.0,487.0,579.0
508.0,494.0,456.0,491.0,547.0
521.0,535.0,494.0,523.0,534.0
525.0,542.0,557.0,542.0,485.0
517.0,533.0,577.0,550.0,450.0
519.0,507.0,500.0,496.0,437.0
529.0,502.0,471.0,513.0,412.0
516.0,492.0,466.0,553.0,407.0
510.0,494.0,482.0,550.0,423.0
502.0,487.0,483.0,533.0,462.0
500.0,501.0,476.0,511.0,525.0
493.0,522.0,480.0,509.0,573.0
510.0,539.0,583.0,513.0,574.0
504.0,516.0,601.0,521.0,596.0
505.0,509.0,552.0,487.0,606.0
514.0,510.0,524.0,503.0,603.0
504.0,498.0,470.0,491.0,594.0
518.0,501.0,496.0,495.0,558.0
511.0,509.0,525.0,491.0,537.0
515.0,511.0,508.0,504.0,509.0
527.0,500.0,491.0,558.0,466.0
520.0,501.0,493.0,581.0,442.0
534.0,500.0,482.0,547.0,412.0
518.0,511.0,517.0,529.0,413.0
510.0,500.0,538.0,505.0,423.0
498.0,485.0,494.0,495.0,462.0
493.0,518.0,580.0,537.0,496.0
493.0,485.0,555.0,504.0,524.0
482.0,483.0,506.0,464.0,594.0
505.0,523.0,560.0,492.0,603.0
516.0,530.0,505.0,514.0,607.0
513.0,513.0,501.0,469.0,592.0
509.0,489.0,472.0,464.0,586.0
518.0,503.0,506.0,477.0,590.0
510.0,488.0,497.0,502.0,565.0
530.0,545.0,510.0,523.0,513.0
535.0,523.0,539.0,531.0,470.0
522.0,481.0,529.0,525.0,432.0
516.0,456.0,484.0,542.0,419.0
524.0,462.0,496.0,532.0,417.0
517.0,425.0,482.0,544.0,419.0
517.0,437.0,486.0,558.0,413.0
499.0,433.0,482.0,529.0,456.0
491.0,580.0,522.0,499.0,508.0
502.0,608.0,509.0,492.0,554.0
498.0,561.0,500.0,486.0,601.0
506.0,522.0,529.0,481.0,591.0
503.0,510.0,521.0,497.0,605.0
519.0,546.0,514.0,506.0,590.0
512.0,518.0,514.0,455.0,589.0
506.0,509.0,550.0,434.0,590.0
516.0,513.0,590.0,495.0,541.0
510.0,486.0,509.0,521.0,535.0
522.0,530.0,503.0,552.0,468.0
528.0,528.0,511.0,580.0,431.0
536.0,526.0,514.0,599.0,421.0
528.0,520.0,501.0,599.0,414.0
521.0,500.0,537.0,586.0,405.0
505.0,482.0,483.0,549.0,426.0
500.0,476.0,448.0,476.0,488.0
489.0,478.0,503.0,442.0,538.0
499.0,498.0,495.0,472.0,570.0
511.0,489.0,513.0,495.0,604.0
517.0,531.0,536.0,498.0,592.0
503.0,559.0,515.0,415.0,610.0
511.0,519.0,545.0,463.0,594.0
523.0,520.0,710.0,545.0,570.0
509.0,537.0,714.0,520.0,567.0
514.0,506.0,583.0,480.0,536.0
519.0,458.0,400.0,458.0,510.0
519.0,457.0,550.0,515.0,447.0
514.0,456.0,484.0,598.0,416.0
521.0,518.0,430.0,554.0,400.0
518.0,500.0,410.0,531.0,403.0
512.0,499.0,420.0,507.0,423.0
507.0,507.0,462.0,536.0,446.0
502.0,492.0,448.0,516.0,480.0
489.0,478.0,484.0,479.0,543.0
495.0,568.0,521.0,508.0,588.0
501.0,528.0,517.0,483.0,611.0
503.0,526.0,558.0,493.0,599.0
497.0,522.0,542.0,478.0,602.0
507.0,523.0,529.0,512.0,602.0
509.0,520.0,505.0,513.0,598.0
518.0,513.0,503.0,508.0,549.0
517.0,496.0,502.0,514.0,517.0
524.0,475.0,511.0,544.0,470.0
520.0,486.0,527.0,566.0,431.0
522.0,485.0,497.0,545.0,417.0
527.0,517.0,495.0,536.0,406.0
525.0,520.0,513.0,540.0,402.0
512.0,523.0,546.0,556.0,434.0
499.0,490.0,560.0,565.0,471.0
493.0,509.0,522.0,556.0,509.0
496.0,498.0,458.0,460.0,566.0
501.0,497.0,540.0,455.0,592.0
492.0,491.0,554.0,452.0,604.0
502.0,474.0,508.0,478.0,597.0
508.0,502.0,469.0,507.0,600.0
503.0,483.0,466.0,500.0,600.0
510.0,492.0,522.0,489.0,574.0
518.0,538.0,545.0,476.0,539.0
517.0,496.0,535.0,501.0,518.0
528.0,510.0,531.0,547.0,479.0
542.0,532.0,523.0,545.0,430.0
512.0,513.0,442.0,516.0,420.0
519.0,509.0,485.0,493.0,413.0
521.0,518.0,511.0,525.0,417.0
511.0,490.0,479.0,544.0,436.0
492.0,479.0,471.0,537.0,481.0
491.0,475.0,477.0,510.0,513.0
498.0,552.0,504.0,500.0,551.0
503.0,550.0,533.0,477.0,591.0
507.0,504.0,530.0,453.0,606.0
513.0,504.0,541.0,493.0,584.0
497.0,496.0,528.0,516.0,597.0
510.0,518.0,501.0,478.0,602.0
524.0,526.0,541.0,500.0,568.0
520.0,518.0,507.0,529.0,526.0
521.0,505.0,508.0,535.0,486.0
526.0,505.0,515.0,537.0,448.0
526.0,514.0,506.0,541.0,431.0
520.0,504.0,508.0,540.0,429.0
516.0,502.0,508.0,548.0,410.0
508.0,489.0,501.0,542.0,413.0
492.0,468.0,496.0,519.0,457.0
498.0,493.0,496.0,510.0,491.0
505.0,519.0,487.0,498.0,536.0
506.0,528.0,527.0,506.0,579.0
495.0,516.0,511.0,495.0,602.0
505.0,517.0,515.0,471.0,603.0
509.0,511.0,531.0,497.0,599.0
511.0,491.0,539.0,493.0,588.0
511.0,473.0,533.0,492.0,574.0
505.0,480.0,504.0,499.0,562.0
516.0,513.0,534.0,518.0,515.0
526.0,525.0,556.0,550.0,454.0
521.0,473.0,492.0,521.0,442.0
534.0,466.0,484.0,516.0,412.0
533.0,543.0,520.0,545.0,405.0
532.0,533.0,547.0,551.0,402.0
517.0,502.0,564.0,521.0,426.0
495.0,484.0,475.0,523.0,478.0
492.0,489.0,422.0,531.0,522.0
503.0,506.0,466.0,513.0,545.0
494.0,492.0,513.0,479.0,606.0
504.0,504.0,517.0,487.0,600.0
504.0,518.0,520.0,492.0,592.0
516.0,544.0,527.0,485.0,596.0
500.0,514.0,528.0,499.0,589.0
510.0,514.0,526.0,503.0,570.0
513.0,525.0,534.0,519.0,558.0
522.0,516.0,552.0,523.0,514.0
525.0,508.0,557.0,535.0,465.0
529.0,514.0,517.0,520.0,436.0
527.0,507.0,488.0,537.0,420.0
523.0,502.0,470.0,536.0,400.0
519.0,508.0,482.0,540.0,404.0
507.0,499.0,498.0,537.0,433.0
506.0,494.0,492.0,512.0,476.0
501.0,499.0,483.0,491.0,517.0
493.0,508.0,496.0,488.0,565.0
501.0,517.0,519.0,485.0,607.0
498.0,508.0,518.0,484.0,609.0
503.0,513.0,520.0,489.0,601.0
511.0,508.0,527.0,495.0,591.0
503.0,513.0,527.0,496.0,595.0
505.0,510.0,526.0,502.0,565.0
508.0,503.0,524.0,507.0,544.0
520.0,509.0,521.0,523.0,496.0
528.0,509.0,519.0,535.0,449.0
525.0,510.0,512.0,540.0,427.0
522.0,504.0,506.0,547.0,411.0
520.0,502.0,498.0,541.0,406.0
511.0,499.0,490.0,533.0,416.0
505.0,494.0,483.0,522.0,444.0
496.0,498.0,487.0,509.0,486.0
490.0,506.0,503.0,505.0,537.0
505.0,513.0,510.0,485.0,574.0
507.0,506.0,517.0,467.0,607.0
504.0,484.0,524.0,497.0,604.0
506.0,482.0,518.0,509.0,598.0
509.0,511.0,520.0,496.0,593.0
511.0,517.0,530.0,489.0,582.0
509.0,517.0,533.0,493.0,560.0
518.0,518.0,528.0,511.0,524.0
524.0,510.0,529.0,525.0,481.0
528.0,506.0,517.0,541.0,435.0
526.0,512.0,506.0,545.0,423.0
519.0,507.0,508.0,545.0,412.0
522.0,506.0,499.0,540.0,411.0
517.0,504.0,492.0,528.0,416.0
497.0,498.0,489.0,515.0,456.0
486.0,502.0,495.0,509.0,505.0
483.0,496.0,502.0,518.0,539.0
507.0,516.0,513.0,489.0,588.0
508.0,518.0,524.0,478.0,608.0
502.0,511.0,523.0,472.0,607.0
509.0,511.0,530.0,470.0,598.0
509.0,511.0,531.0,484.0,593.0
510.0,510.0,525.0,527.0,587.0
514.0,507.0,524.0,521.0,548.0
521.0,500.0,516.0,522.0,508.0
526.0,500.0,511.0,517.0,464.0
535.0,514.0,518.0,550.0,422.0
529.0,514.0,514.0,546.0,414.0
522.0,503.0,502.0,529.0,409.0
512.0,497.0,494.0,531.0,409.0
503.0,496.0,489.0,523.0,436.0
492.0,496.0,492.0,518.0,477.0
499.0,506.0,495.0,497.0,517.0
496.0,509.0,508.0,494.0,563.0
494.0,515.0,522.0,488.0,598.0
491.0,512.0,523.0,493.0,599.0
488.0,510.0,526.0,490.0,603.0
484.0,504.0,523.0,487.0,605.0
489.0,506.0,527.0,492.0,591.0
494.0,502.0,524.0,501.0,568.0
496.0,503.0,521.0,505.0,541.0
501.0,504.0,520.0,521.0,500.0
514.0,503.0,516.0,534.0,453.0
530.0,505.0,514.0,538.0,435.0
534.0,507.0,509.0,540.0,416.0
521.0,506.0,504.0,541.0,411.0
532.0,503.0,500.0,536.0,413.0
535.0,498.0,488.0,519.0,440.0
527.0,502.0,491.0,508.0,481.0
517.0,506.0,501.0,502.0,531.0
520.0,515.0,515.0,495.0,579.0
523.0,518.0,525.0,494.0,601.0
519.0,512.0,523.0,492.0,594.0
520.0,511.0,528.0,496.0,601.0
524.0,512.0,529.0,491.0,594.0
517.0,508.0,527.0,488.0,592.0
520.0,504.0,525.0,499.0,561.0
522.0,505.0,521.0,509.0,524.0
527.0,504.0,523.0,527.0,479.0
529.0,502.0,521.0,538.0,436.0
531.0,507.0,511.0,542.0,412.0
523.0,502.0,505.0,542.0,404.0
518.0,498.0,499.0,535.0,404.0
518.0,499.0,494.0,532.0,425.0
501.0,496.0,491.0,516.0,465.0
497.0,500.0,496.0,505.0,515.0
494.0,508.0,505.0,498.0,563.0
498.0,514.0,516.0,490.0,605.0
503.0,511.0,525.0,491.0,605.0
515.0,510.0,526.0,490.0,599.0
516.0,510.0,529.0,492.0,594.0
514.0,509.0,528.0,493.0,593.0
513.0,505.0,527.0,497.0,578.0
518.0,503.0,527.0,506.0,546.0
520.0,498.0,522.0,516.0,498.0
521.0,502.0,518.0,527.0,455.0
522.0,508.0,518.0,540.0,414.0
521.0,507.0,515.0,543.0,406.0
512.0,507.0,508.0,543.0,406.0
512.0,502.0,504.0,538.0,412.0
501.0,498.0,494.0,526.0,445.0
490.0,498.0,492.0,512.0,499.0
487.0,503.0,497.0,503.0,538.0
482.0,508.0,512.0,497.0,580.0
492.0,511.0,525.0,492.0,613.0
494.0,506.0,525.0,488.0,612.0
495.0,507.0,527.0,493.0,603.0
495.0,507.0,534.0,495.0,599.0
496.0,503.0,528.0,495.0,605.0
490.0,498.0,529.0,502.0,579.0
506.0,501.0,523.0,501.0,535.0
534.0,504.0,525.0,515.0,489.0
541.0,502.0,520.0,533.0,442.0
533.0,504.0,517.0,541.0,428.0
522.0,499.0,509.0,541.0,435.0
509.0,502.0,505.0,541.0,436.0
508.0,499.0,501.0,534.0,440.0
505.0,500.0,491.0,517.0,460.0
495.0,500.0,498.0,510.0,500.0
492.0,504.0,508.0,501.0,531.0
499.0,513.0,519.0,491.0,576.0
501.0,512.0,526.0,489.0,583.0
503.0,506.0,526.0,492.0,577.0
503.0,506.0,529.0,489.0,580.0
511.0,506.0,529.0,490.0,575.0
512.0,505.0,531.0,494.0,558.0
509.0,500.0,530.0,503.0,535.0
514.0,498.0,528.0,512.0,505.0
518.0,497.0,523.0,521.0,468.0
529.0,502.0,517.0,533.0,432.0
542.0,508.0,516.0,540.0,417.0
552.0,513.0,514.0,542.0,409.0
531.0,506.0,509.0,540.0,415.0
507.0,497.0,500.0,534.0,433.0
493.0,492.0,492.0,514.0,474.0
483.0,498.0,500.0,506.0,529.0
483.0,501.0,508.0,495.0,572.0
497.0,510.0,520.0,490.0,600.0
520.0,512.0,527.0,490.0,596.0
528.0,507.0,529.0,492.0,590.0
541.0,510.0,534.0,497.0,580.0
531.0,512.0,529.0,490.0,581.0
522.0,504.0,531.0,496.0,563.0
528.0,506.0,533.0,509.0,527.0
538.0,506.0,531.0,518.0,483.0
539.0,503.0,526.0,530.0,451.0
532.0,503.0,520.0,538.0,432.0
537.0,507.0,520.0,541.0,432.0
535.0,503.0,510.0,542.0,425.0
527.0,503.0,504.0,534.0,425.0
516.0,500.0,497.0,527.0,450.0
504.0,499.0,497.0,517.0,484.0
505.0,503.0,504.0,503.0,517.0
507.0,506.0,512.0,496.0,555.0
512.0,513.0,520.0,490.0,595.0
506.0,507.0,525.0,494.0,600.0
512.0,506.0,528.0,488.0,606.0
513.0,511.0,529.0,487.0,605.0
503.0,506.0,531.0,495.0,602.0
505.0,501.0,529.0,498.0,586.0
515.0,506.0,529.0,508.0,546.0
524.0,508.0,525.0,517.0,500.0
535.0,506.0,523.0,534.0,455.0
536.0,508.0,520.0,539.0,434.0
535.0,505.0,512.0,540.0,422.0
530.0,501.0,504.0,535.0,412.0
528.0,499.0,498.0,533.0,408.0
513.0,491.0,490.0,520.0,435.0
500.0,497.0,493.0,509.0,487.0
501.0,502.0,502.0,499.0,529.0
496.0,505.0,516.0,495.0,577.0
504.0,514.0,526.0,495.0,588.0
506.0,508.0,526.0,495.0,577.0
501.0,507.0,527.0,491.0,593.0
496.0,503.0,524.0,488.0,595.0
510.0,507.0,530.0,494.0,589.0
506.0,504.0,529.0,502.0,578.0
502.0,500.0,525.0,510.0,555.0
511.0,503.0,523.0,526.0,511.0
514.0,504.0,519.0,539.0,460.0
521.0,505.0,515.0,545.0,437.0
509.0,506.0,509.0,545.0,417.0
503.0,500.0,502.0,539.0,418.0
505.0,500.0,499.0,537.0,416.0
492.0,498.0,494.0,521.0,451.0
494.0,501.0,498.0,511.0,488.0
501.0,506.0,507.0,500.0,532.0
496.0,513.0,519.0,490.0,597.0
502.0,506.0,520.0,490.0,608.0
510.0,501.0,519.0,488.0,606.0
510.0,504.0,529.0,490.0,605.0
510.0,505.0,524.0,487.0,597.0
510.0,503.0,522.0,493.0,576.0
516.0,502.0,522.0,499.0,548.0
529.0,501.0,521.0,513.0,518.0
534.0,501.0,518.0,528.0,480.0
528.0,507.0,518.0,540.0,447.0
518.0,507.0,511.0,542.0,429.0
508.0,505.0,507.0,543.0,416.0
503.0,503.0,502.0,535.0,407.0
500.0,497.0,490.0,528.0,417.0
485.0,494.0,488.0,516.0,457.0
489.0,498.0,497.0,509.0,495.0
496.0,507.0,507.0,501.0,564.0
505.0,516.0,520.0,494.0,608.0
511.0,507.0,519.0,488.0,612.0
524.0,505.0,519.0,488.0,610.0
535.0,510.0,525.0,493.0,587.0
529.0,510.0,527.0,496.0,590.0
518.0,503.0,522.0,497.0,558.0
515.0,499.0,522.0,509.0,514.0
524.0,503.0,521.0,522.0,482.0
537.0,501.0,516.0,533.0,447.0
542.0,506.0,515.0,538.0,426.0
533.0,505.0,509.0,540.0,411.0
524.0,504.0,505.0,537.0,404.0
515.0,501.0,498.0,538.0,412.0
502.0,497.0,489.0,521.0,441.0
495.0,498.0,492.0,506.0,482.0
499.0,505.0,500.0,504.0,512.0
500.0,513.0,514.0,497.0,563.0
493.0,513.0,517.0,489.0,618.0
495.0,505.0,518.0,490.0,614.0
501.0,502.0,520.0,492.0,595.0
506.0,507.0,519.0,492.0,588.0
506.0,502.0,521.0,489.0,589.0
517.0,502.0,520.0,502.0,582.0
529.0,504.0,521.0,511.0,543.0
532.0,505.0,522.0,527.0,500.0
524.0,505.0,518.0,538.0,451.0
525.0,508.0,514.0,545.0,425.0
519.0,509.0,507.0,541.0,415.0
516.0,500.0,495.0,533.0,409.0
516.0,499.0,493.0,531.0,410.0
499.0,494.0,486.0,513.0,452.0
494.0,498.0,493.0,504.0,505.0
500.0,505.0,500.0,497.0,554.0
514.0,512.0,509.0,489.0,596.0
514.0,513.0,516.0,490.0,605.0
508.0,507.0,519.0,491.0,603.0
507.0,509.0,520.0,490.0,600.0
512.0,508.0,523.0,491.0,585.0
528.0,507.0,518.0,496.0,563.0
526.0,503.0,518.0,503.0,537.0
532.0,501.0,516.0,517.0,501.0
529.0,502.0,516.0,527.0,464.0
529.0,500.0,510.0,538.0,449.0
528.0,507.0,509.0,540.0,438.0
518.0,502.0,503.0,539.0,431.0
503.0,501.0,500.0,534.0,446.0
490.0,497.0,490.0,526.0,464.0
488.0,501.0,492.0,512.0,492.0
487.0,506.0,493.0,501.0,535.0
498.0,514.0,508.0,495.0,577.0
513.0,518.0,516.0,491.0,603.0
514.0,511.0,516.0,492.0,592.0
521.0,507.0,516.0,489.0,584.0
520.0,508.0,518.0,493.0,581.0
515.0,508.0,520.0,493.0,574.0
508.0,502.0,519.0,497.0,553.0
511.0,499.0,517.0,509.0,505.0
508.0,500.0,517.0,525.0,469.0
524.0,507.0,517.0,543.0,419.0
532.0,512.0,512.0,544.0,403.0
525.0,512.0,510.0,546.0,411.0
516.0,504.0,498.0,539.0,420.0
522.0,504.0,494.0,534.0,417.0
520.0,495.0,484.0,521.0,435.0
512.0,496.0,484.0,510.0,503.0
500.0,505.0,496.0,501.0,552.0
490.0,509.0,503.0,491.0,595.0
496.0,506.0,515.0,492.0,599.0
502.0,505.0,514.0,485.0,609.0
502.0,506.0,516.0,490.0,617.0
513.0,509.0,518.0,495.0,589.0
527.0,507.0,520.0,496.0,581.0
522.0,503.0,516.0,505.0,555.0
521.0,502.0,513.0,504.0,535.0
525.0,504.0,514.0,519.0,502.0
531.0,509.0,512.0,533.0,455.0
528.0,510.0,508.0,540.0,427.0
529.0,505.0,497.0,537.0,403.0
525.0,502.0,492.0,536.0,405.0
521.0,501.0,486.0,530.0,420.0
504.0,493.0,476.0,511.0,458.0
499.0,495.0,484.0,504.0,512.0
500.0,504.0,498.0,502.0,555.0
509.0,510.0,510.0,496.0,591.0
518.0,512.0,515.0,493.0,579.0
520.0,510.0,511.0,489.0,574.0
523.0,511.0,515.0,490.0,586.0
516.0,507.0,516.0,490.0,584.0
516.0,505.0,516.0,496.0,567.0
518.0,501.0,515.0,504.0,537.0
517.0,502.0,513.0,519.0,504.0
512.0,495.0,507.0,529.0,468.0
523.0,504.0,506.0,541.0,418.0
529.0,507.0,505.0,544.0,404.0
521.0,504.0,497.0,539.0,408.0
521.0,502.0,491.0,532.0,417.0
502.0,495.0,480.0,521.0,440.0
495.0,498.0,483.0,511.0,481.0
494.0,506.0,490.0,502.0,546.0
495.0,515.0,501.0,497.0,606.0
492.0,515.0,512.0,491.0,626.0
491.0,509.0,513.0,490.0,613.0
492.0,506.0,511.0,491.0,593.0
506.0,508.0,517.0,496.0,578.0
511.0,509.0,519.0,496.0,579.0
511.0,506.0,518.0,500.0,553.0
510.0,502.0,511.0,508.0,516.0
518.0,505.0,510.0,518.0,490.0
533.0,504.0,507.0,530.0,442.0
531.0,507.0,503.0,540.0,414.0
526.0,505.0,500.0,543.0,409.0
514.0,503.0,491.0,538.0,417.0
523.0,500.0,486.0,533.0,418.0
522.0,495.0,479.0,519.0,451.0
502.0,498.0,481.0,509.0,509.0
490.0,506.0,493.0,500.0,557.0
487.0,514.0,505.0,496.0,595.0
486.0,519.0,515.0,495.0,611.0
482.0,518.0,520.0,495.0,616.0
484.0,515.0,519.0,496.0,609.0
504.0,513.0,518.0,495.0,579.0
508.0,510.0,513.0,497.0,568.0
499.0,503.0,513.0,502.0,538.0
503.0,494.0,507.0,512.0,501.0
509.0,496.0,506.0,527.0,476.0
521.0,503.0,502.0,533.0,468.0
517.0,507.0,503.0,540.0,474.0
510.0,503.0,494.0,535.0,454.0
515.0,498.0,487.0,530.0,420.0
548.0,502.0,486.0,533.0,398.0
510.0,496.0,478.0,519.0,457.0
462.0,496.0,481.0,503.0,518.0
456.0,501.0,489.0,498.0,544.0
462.0,505.0,499.0,491.0,601.0
488.0,506.0,508.0,488.0,598.0
522.0,505.0,509.0,492.0,601.0
532.0,509.0,514.0,488.0,600.0
534.0,507.0,513.0,491.0,601.0
541.0,508.0,512.0,494.0,600.0
552.0,514.0,518.0,510.0,570.0
547.0,516.0,515.0,522.0,542.0
506.0,509.0,517.0,537.0,497.0
501.0,508.0,511.0,545.0,425.0
524.0,506.0,501.0,541.0,383.0
541.0,497.0,488.0,538.0,371.0
550.0,495.0,481.0,537.0,367.0
535.0,487.0,475.0,520.0,404.0
499.0,491.0,475.0,508.0,483.0
467.0,500.0,483.0,498.0,557.0
455.0,503.0,498.0,497.0,599.0
466.0,512.0,512.0,498.0,597.0
483.0,505.0,510.0,493.0,597.0
517.0,505.0,508.0,488.0,575.0
564.0,509.0,517.0,495.0,552.0
584.0,515.0,518.0,498.0,520.0
551.0,510.0,517.0,503.0,499.0
554.0,510.0,516.0,517.0,478.0
549.0,504.0,513.0,529.0,454.0
549.0,502.0,506.0,534.0,446.0
547.0,502.0,498.0,530.0,451.0
545.0,502.0,497.0,538.0,442.0
542.0,503.0,492.0,535.0,421.0
526.0,498.0,486.0,529.0,426.0
497.0,492.0,478.0,524.0,464.0
508.0,497.0,480.0,508.0,498.0
503.0,498.0,488.0,500.0,538.0
496.0,510.0,502.0,496.0,586.0
503.0,512.0,512.0,494.0,586.0
508.0,509.0,512.0,493.0,579.0
498.0,506.0,513.0,494.0,603.0
500.0,504.0,513.0,496.0,604.0
506.0,505.0,515.0,498.0,576.0
505.0,500.0,511.0,504.0,545.0
505.0,504.0,511.0,512.0,520.0
514.0,500.0,508.0,527.0,466.0
528.0,504.0,504.0,534.0,457.0
525.0,505.0,503.0,539.0,443.0
521.0,506.0,497.0,539.0,425.0
516.0,503.0,492.0,537.0,425.0
517.0,497.0,482.0,531.0,423.0
507.0,489.0,477.0,512.0,452.0
511.0,499.0,484.0,504.0,499.0
512.0,504.0,494.0,497.0,549.0
507.0,509.0,506.0,494.0,599.0
507.0,506.0,510.0,493.0,601.0
503.0,505.0,512.0,494.0,607.0
504.0,509.0,515.0,494.0,596.0
496.0,504.0,515.0,491.0,588.0
508.0,502.0,513.0,496.0,572.0
513.0,502.0,513.0,503.0,538.0
518.0,500.0,509.0,515.0,513.0
524.0,503.0,507.0,526.0,466.0
530.0,506.0,507.0,539.0,439.0
525.0,505.0,503.0,539.0,432.0
519.0,502.0,496.0,536.0,411.0
518.0,500.0,489.0,533.0,402.0
504.0,491.0,478.0,521.0,434.0
495.0,493.0,481.0,511.0,466.0
494.0,500.0,489.0,502.0,511.0
495.0,506.0,498.0,496.0,579.0
498.0,513.0,513.0,493.0,604.0
494.0,507.0,515.0,495.0,606.0
496.0,507.0,515.0,496.0,597.0
491.0,505.0,515.0,494.0,606.0
492.0,508.0,515.0,493.0,610.0
503.0,505.0,515.0,497.0,545.0
508.0,505.0,517.0,511.0,505.0
511.0,507.0,513.0,522.0,486.0
520.0,502.0,508.0,534.0,435.0
538.0,507.0,503.0,541.0,407.0
545.0,505.0,498.0,541.0,394.0
539.0,499.0,492.0,537.0,408.0
536.0,499.0,485.0,530.0,400.0
526.0,495.0,478.0,515.0,462.0
506.0,494.0,480.0,504.0,542.0
493.0,502.0,489.0,497.0,575.0
492.0,508.0,504.0,497.0,605.0
498.0,513.0,512.0,489.0,621.0
502.0,511.0,516.0,495.0,607.0
489.0,500.0,506.0,486.0,598.0
493.0,498.0,512.0,495.0,580.0
510.0,504.0,517.0,501.0,562.0
517.0,502.0,510.0,501.0,536.0
518.0,500.0,510.0,513.0,503.0
519.0,503.0,513.0,524.0,478.0
519.0,506.0,509.0,538.0,444.0
523.0,509.0,505.0,541.0,442.0
515.0,501.0,497.0,545.0,427.0
517.0,497.0,489.0,537.0,421.0
517.0,497.0,484.0,529.0,427.0
488.0,494.0,480.0,513.0,468.0
497.0,498.0,484.0,500.0,490.0
510.0,507.0,496.0,500.0,529.0
514.0,515.0,509.0,494.0,572.0
516.0,506.0,508.0,492.0,583.0
521.0,503.0,505.0,489.0,578.0
525.0,503.0,511.0,489.0,600.0
520.0,503.0,511.0,492.0,590.0
516.0,501.0,511.0,494.0,561.0
516.0,502.0,510.0,505.0,524.0
517.0,499.0,507.0,517.0,482.0
515.0,503.0,509.0,531.0,465.0
520.0,503.0,504.0,538.0,461.0
531.0,507.0,502.0,539.0,432.0
532.0,504.0,493.0,539.0,420.0
527.0,502.0,484.0,533.0,424.0
508.0,491.0,478.0,524.0,430.0
496.0,494.0,477.0,512.0,464.0
496.0,497.0,486.0,503.0,522.0
494.0,506.0,499.0,500.0,571.0
509.0,513.0,510.0,494.0,591.0
504.0,506.0,511.0,494.0,592.0
511.0,507.0,511.0,492.0,594.0
513.0,507.0,513.0,491.0,594.0
506.0,503.0,514.0,494.0,580.0
509.0,506.0,512.0,500.0,563.0
503.0,501.0,511.0,507.0,541.0
510.0,502.0,510.0,515.0,507.0
520.0,502.0,506.0,530.0,449.0
529.0,501.0,501.0,530.0,421.0
537.0,507.0,499.0,541.0,413.0
533.0,503.0,492.0,537.0,418.0
516.0,499.0,486.0,534.0,427.0
500.0,494.0,478.0,520.0,456.0
497.0,495.0,481.0,510.0,489.0
495.0,505.0,490.0,501.0,543.0
504.0,512.0,502.0,493.0,588.0
525.0,513.0,510.0,490.0,604.0
526.0,508.0,513.0,490.0,605.0
518.0,501.0,510.0,490.0,584.0
503.0,500.0,512.0,494.0,574.0
499.0,510.0,521.0,505.0,567.0
504.0,506.0,518.0,505.0,552.0
503.0,502.0,514.0,511.0,542.0
512.0,504.0,509.0,524.0,492.0
527.0,504.0,508.0,535.0,443.0
524.0,505.0,504.0,539.0,424.0
523.0,504.0,499.0,542.0,407.0
520.0,500.0,490.0,536.0,414.0
506.0,503.0,491.0,531.0,432.0
486.0,493.0,481.0,515.0,482.0
489.0,499.0,484.0,506.0,520.0
480.0,502.0,498.0,505.0,534.0
485.0,512.0,510.0,496.0,581.0
492.0,506.0,512.0,496.0,600.0
501.0,506.0,514.0,494.0,597.0
515.0,504.0,514.0,494.0,597.0
535.0,508.0,516.0,494.0,578.0
532.0,507.0,516.0,495.0,561.0
528.0,505.0,514.0,505.0,528.0
527.0,503.0,512.0,516.0,490.0
532.0,506.0,511.0,531.0,451.0
536.0,506.0,510.0,537.0,427.0
527.0,507.0,506.0,543.0,421.0
526.0,504.0,494.0,536.0,431.0
523.0,500.0,493.0,534.0,427.0
513.0,493.0,482.0,523.0,437.0
506.0,494.0,482.0,510.0,471.0
507.0,502.0,490.0,502.0,519.0
509.0,510.0,505.0,500.0,566.0
506.0,512.0,512.0,492.0,593.0
502.0,507.0,516.0,496.0,595.0
505.0,507.0,519.0,492.0,600.0
503.0,507.0,519.0,495.0,608.0
506.0,509.0,519.0,496.0,598.0
517.0,506.0,518.0,498.0,576.0
530.0,509.0,517.0,510.0,539.0
544.0,505.0,516.0,522.0,502.0
542.0,502.0,510.0,529.0,459.0
539.0,504.0,504.0,537.0,430.0
525.0,499.0,501.0,541.0,404.0
518.0,498.0,495.0,537.0,397.0
507.0,497.0,490.0,534.0,395.0
491.0,492.0,483.0,520.0,435.0
490.0,495.0,486.0,508.0,493.0
486.0,502.0,496.0,500.0,544.0
488.0,509.0,511.0,497.0,577.0
500.0,510.0,516.0,494.0,587.0
507.0,506.0,517.0,492.0,583.0
506.0,502.0,515.0,489.0,595.0
511.0,507.0,520.0,497.0,585.0
510.0,508.0,519.0,498.0,574.0
512.0,505.0,519.0,506.0,544.0
515.0,505.0,514.0,514.0,511.0
530.0,505.0,514.0,526.0,467.0
536.0,504.0,509.0,537.0,433.0
530.0,504.0,505.0,543.0,427.0
527.0,503.0,497.0,539.0,415.0
523.0,500.0,494.0,533.0,413.0
512.0,499.0,489.0,532.0,430.0
498.0,495.0,483.0,518.0,476.0
489.0,499.0,485.0,503.0,513.0
485.0,506.0,501.0,498.0,554.0
492.0,508.0,511.0,491.0,597.0
504.0,509.0,514.0,492.0,597.0
514.0,509.0,515.0,494.0,601.0
509.0,508.0,519.0,493.0,602.0
508.0,509.0,521.0,494.0,599.0
522.0,508.0,519.0,501.0,572.0
525.0,503.0,518.0,509.0,522.0
528.0,502.0,512.0,517.0,491.0
533.0,503.0,509.0,526.0,473.0
527.0,502.0,504.0,534.0,448.0
517.0,506.0,506.0,540.0,435.0
514.0,504.0,499.0,539.0,429.0
509.0,501.0,495.0,537.0,422.0
499.0,491.0,487.0,524.0,457.0
497.0,494.0,482.0,510.0,484.0
492.0,502.0,494.0,506.0,538.0
493.0,508.0,505.0,500.0,573.0
494.0,514.0,519.0,497.0,563.0
505.0,510.0,521.0,495.0,568.0
508.0,504.0,518.0,495.0,581.0
514.0,504.0,519.0,491.0,589.0
510.0,507.0,521.0,495.0,594.0
512.0,506.0,519.0,500.0,558.0
512.0,504.0,516.0,508.0,524.0
508.0,501.0,515.0,522.0,497.0
515.0,499.0,510.0,534.0,457.0
541.0,506.0,509.0,543.0,420.0
533.0,502.0,504.0,542.0,417.0
527.0,501.0,492.0,534.0,419.0
519.0,501.0,490.0,530.0,425.0
499.0,494.0,484.0,516.0,458.0
497.0,494.0,487.0,507.0,492.0
495.0,502.0,495.0,499.0,538.0
498.0,508.0,509.0,491.0,578.0
499.0,506.0,516.0,496.0,592.0
504.0,508.0,519.0,494.0,589.0
504.0,505.0,518.0,491.0,588.0
507.0,506.0,521.0,496.0,578.0
513.0,505.0,522.0,497.0,571.0
515.0,504.0,517.0,504.0,554.0
520.0,504.0,519.0,516.0,516.0
525.0,504.0,514.0,526.0,478.0
522.0,504.0,510.0,535.0,446.0
531.0,506.0,508.0,542.0,425.0
526.0,503.0,499.0,539.0,416.0
521.0,503.0,496.0,537.0,420.0
507.0,498.0,491.0,531.0,431.0
494.0,494.0,484.0,509.0,466.0
492.0,498.0,489.0,505.0,512.0
495.0,507.0,503.0,500.0,554.0
501.0,512.0,516.0,490.0,591.0
510.0,510.0,517.0,493.0,593.0
515.0,507.0,519.0,494.0,586.0
511.0,505.0,521.0,493.0,583.0
507.0,505.0,521.0,495.0,575.0
506.0,503.0,520.0,496.0,566.0
515.0,505.0,523.0,506.0,542.0
515.0,504.0,515.0,517.0,518.0
521.0,506.0,514.0,530.0,471.0
522.0,509.0,513.0,537.0,438.0
519.0,507.0,508.0,542.0,424.0
526.0,501.0,493.0,534.0,415.0
519.0,502.0,493.0,531.0,422.0
496.0,493.0,484.0,518.0,436.0
490.0,495.0,486.0,510.0,479.0
489.0,501.0,496.0,504.0,525.0
496.0,510.0,506.0,496.0,574.0
508.0,511.0,518.0,498.0,599.0
508.0,509.0,520.0,493.0,592.0
512.0,505.0,519.0,490.0,597.0
521.0,507.0,522.0,490.0,587.0
522.0,507.0,523.0,493.0,577.0
514.0,503.0,521.0,506.0,557.0
519.0,504.0,517.0,509.0,527.0
522.0,505.0,517.0,523.0,484.0
527.0,504.0,512.0,533.0,440.0
529.0,506.0,508.0,538.0,425.0
525.0,506.0,506.0,541.0,419.0
520.0,503.0,497.0,537.0,431.0
516.0,505.0,494.0,531.0,435.0
507.0,495.0,487.0,518.0,458.0
510.0,498.0,488.0,510.0,489.0
508.0,502.0,498.0,498.0,528.0
499.0,509.0,511.0,497.0,564.0
497.0,509.0,520.0,494.0,593.0
513.0,510.0,521.0,494.0,587.0
511.0,505.0,520.0,495.0,590.0
508.0,508.0,524.0,492.0,588.0
514.0,508.0,526.0,496.0,576.0
515.0,504.0,521.0,503.0,547.0
517.0,507.0,519.0,514.0,513.0
521.0,505.0,515.0,524.0,476.0
523.0,507.0,512.0,536.0,455.0
525.0,508.0,509.0,540.0,444.0
523.0,504.0,498.0,536.0,429.0
514.0,501.0,493.0,537.0,417.0
511.0,498.0,490.0,531.0,410.0
499.0,492.0,484.0,513.0,458.0
503.0,499.0,492.0,504.0,501.0
496.0,502.0,501.0,497.0,544.0
491.0,513.0,518.0,494.0,586.0
497.0,509.0,522.0,495.0,583.0
497.0,506.0,522.0,498.0,575.0
505.0,506.0,523.0,493.0,588.0
510.0,509.0,523.0,495.0,571.0
506.0,504.0,521.0,499.0,582.0
516.0,505.0,520.0,504.0,540.0
529.0,504.0,518.0,515.0,507.0
533.0,505.0,510.0,528.0,462.0
532.0,506.0,509.0,539.0,435.0
527.0,507.0,508.0,542.0,430.0
519.0,498.0,495.0,535.0,427.0
518.0,503.0,492.0,533.0,422.0
507.0,496.0,485.0,523.0,444.0
498.0,500.0,487.0,511.0,483.0
494.0,505.0,496.0,502.0,530.0
496.0,508.0,507.0,495.0,578.0
510.0,512.0,519.0,499.0,601.0
522.0,509.0,521.0,493.0,586.0
519.0,510.0,525.0,496.0,576.0
513.0,510.0,525.0,496.0,580.0
501.0,507.0,526.0,502.0,586.0
499.0,501.0,523.0,503.0,553.0
517.0,503.0,519.0,509.0,535.0
526.0,504.0,517.0,519.0,498.0
530.0,507.0,512.0,533.0,455.0
526.0,506.0,511.0,540.0,432.0
528.0,505.0,503.0,542.0,404.0
522.0,504.0,496.0,538.0,380.0
514.0,502.0,494.0,533.0,415.0
490.0,489.0,483.0,517.0,476.0
492.0,497.0,489.0,505.0,500.0
496.0,503.0,501.0,497.0,537.0
503.0,509.0,513.0,492.0,581.0
506.0,512.0,522.0,493.0,596.0
509.0,509.0,522.0,493.0,595.0
506.0,503.0,525.0,494.0,595.0
508.0,508.0,526.0,493.0,590.0
508.0,507.0,527.0,499.0,577.0
509.0,503.0,524.0,509.0,542.0
519.0,505.0,518.0,515.0,518.0
528.0,502.0,514.0,526.0,470.0
528.0,503.0,512.0,538.0,439.0
531.0,506.0,509.0,545.0,423.0
525.0,505.0,500.0,539.0,416.0
520.0,501.0,495.0,536.0,414.0
509.0,497.0,492.0,533.0,428.0
493.0,492.0,486.0,516.0,468.0
490.0,498.0,495.0,503.0,519.0
496.0,505.0,506.0,497.0,566.0
504.0,512.0,521.0,491.0,597.0
509.0,510.0,522.0,493.0,599.0
518.0,508.0,525.0,498.0,587.0
517.0,506.0,524.0,496.0,581.0
511.0,507.0,525.0,497.0,574.0
491.0,501.0,525.0,500.0,574.0
511.0,505.0,521.0,507.0,546.0
521.0,504.0,518.0,515.0,502.0
525.0,502.0,516.0,532.0,460.0
529.0,507.0,513.0,537.0,432.0
530.0,506.0,507.0,539.0,419.0
522.0,499.0,498.0,536.0,418.0
516.0,501.0,494.0,535.0,421.0
507.0,495.0,485.0,523.0,438.0
499.0,497.0,490.0,514.0,475.0
498.0,503.0,498.0,506.0,516.0
497.0,505.0,511.0,499.0,559.0
500.0,512.0,520.0,494.0,593.0
503.0,508.0,523.0,489.0,596.0
505.0,508.0,525.0,494.0,594.0
510.0,507.0,526.0,492.0,591.0
512.0,509.0,529.0,496.0,585.0
511.0,503.0,523.0,501.0,558.0
507.0,502.0,524.0,511.0,533.0
518.0,503.0,519.0,523.0,496.0
527.0,501.0,514.0,534.0,454.0
532.0,506.0,509.0,541.0,429.0
524.0,506.0,504.0,537.0,417.0
524.0,502.0,496.0,535.0,417.0
512.0,498.0,494.0,535.0,426.0
497.0,493.0,486.0,520.0,459.0
493.0,498.0,490.0,507.0,500.0
490.0,502.0,500.0,501.0,540.0
498.0,509.0,515.0,499.0,581.0
501.0,513.0,524.0,497.0,594.0
498.0,513.0,525.0,498.0,597.0
499.0,509.0,526.0,494.0,596.0
494.0,507.0,527.0,499.0,587.0
495.0,506.0,526.0,494.0,584.0
510.0,506.0,524.0,503.0,551.0
526.0,504.0,517.0,511.0,514.0
542.0,503.0,515.0,524.0,476.0
546.0,503.0,508.0,535.0,439.0
536.0,505.0,504.0,538.0,419.0
528.0,504.0,500.0,538.0,412.0
517.0,502.0,496.0,534.0,416.0
509.0,498.0,491.0,531.0,429.0
495.0,495.0,487.0,514.0,470.0
497.0,500.0,491.0,504.0,515.0
501.0,503.0,504.0,498.0,558.0
505.0,512.0,516.0,495.0,589.0
512.0,509.0,522.0,495.0,569.0
514.0,510.0,525.0,494.0,587.0
508.0,507.0,525.0,492.0,593.0
508.0,511.0,528.0,499.0,580.0
507.0,507.0,527.0,500.0,566.0
517.0,505.0,523.0,510.0,536.0
519.0,504.0,518.0,517.0,503.0
525.0,505.0,516.0,531.0,465.0
532.0,504.0,512.0,538.0,430.0
536.0,509.0,507.0,543.0,409.0
527.0,503.0,499.0,541.0,400.0
517.0,499.0,495.0,530.0,429.0
507.0,489.0,481.0,520.0,443.0
495.0,494.0,486.0,510.0,480.0
491.0,501.0,494.0,501.0,523.0
494.0,505.0,512.0,499.0,566.0
495.0,510.0,523.0,495.0,602.0
498.0,509.0,525.0,491.0,588.0
496.0,507.0,529.0,494.0,590.0
502.0,507.0,526.0,493.0,583.0
521.0,508.0,529.0,505.0,577.0
533.0,509.0,526.0,505.0,559.0
520.0,507.0,524.0,512.0,536.0
513.0,505.0,520.0,524.0,503.0
529.0,504.0,515.0,536.0,444.0
529.0,503.0,508.0,541.0,418.0
521.0,505.0,506.0,540.0,406.0
506.0,500.0,497.0,531.0,416.0
513.0,498.0,489.0,529.0,421.0
508.0,491.0,484.0,516.0,457.0
493.0,497.0,491.0,505.0,500.0
500.0,504.0,503.0,497.0,545.0
507.0,512.0,516.0,493.0,583.0
505.0,511.0,524.0,491.0,600.0
506.0,511.0,526.0,494.0,593.0
509.0,507.0,524.0,492.0,590.0
512.0,509.0,527.0,496.0,592.0
511.0,506.0,527.0,503.0,576.0
520.0,505.0,524.0,505.0,542.0
530.0,505.0,519.0,513.0,509.0
528.0,506.0,519.0,523.0,473.0
528.0,504.0,511.0,537.0,439.0
520.0,504.0,509.0,540.0,414.0
524.0,505.0,500.0,540.0,407.0
515.0,502.0,493.0,536.0,410.0
513.0,500.0,492.0,532.0,421.0
499.0,494.0,487.0,516.0,474.0
497.0,498.0,492.0,503.0,529.0
501.0,504.0,507.0,499.0,561.0
502.0,511.0,520.0,496.0,600.0
504.0,508.0,524.0,492.0,599.0
507.0,509.0,531.0,496.0,596.0
507.0,508.0,529.0,493.0,589.0
506.0,508.0,529.0,498.0,574.0
505.0,504.0,526.0,498.0,564.0
516.0,507.0,524.0,507.0,538.0
518.0,504.0,521.0,517.0,501.0
526.0,506.0,514.0,530.0,461.0
527.0,507.0,511.0,539.0,427.0
527.0,507.0,507.0,543.0,418.0
522.0,503.0,498.0,539.0,421.0
512.0,501.0,495.0,533.0,420.0
504.0,492.0,484.0,522.0,437.0
499.0,496.0,489.0,513.0,481.0
493.0,501.0,497.0,499.0,530.0
496.0,508.0,512.0,497.0,571.0
502.0,512.0,521.0,492.0,599.0
503.0,510.0,525.0,493.0,596.0
501.0,511.0,525.0,494.0,592.0
499.0,505.0,524.0,493.0,587.0
499.0,508.0,530.0,499.0,581.0
506.0,503.0,524.0,502.0,556.0
525.0,505.0,522.0,512.0,526.0
532.0,504.0,521.0,522.0,491.0
538.0,507.0,514.0,534.0,453.0
532.0,505.0,509.0,537.0,431.0
533.0,503.0,502.0,541.0,414.0
523.0,502.0,497.0,536.0,418.0
516.0,500.0,493.0,532.0,428.0
495.0,494.0,485.0,516.0,462.0
491.0,497.0,491.0,506.0,490.0
496.0,507.0,502.0,502.0,540.0
502.0,510.0,515.0,497.0,587.0
506.0,514.0,525.0,495.0,594.0
507.0,505.0,526.0,495.0,590.0
508.0,505.0,524.0,492.0,585.0
503.0,508.0,527.0,495.0,585.0
505.0,507.0,529.0,498.0,586.0
511.0,503.0,524.0,504.0,557.0
520.0,505.0,521.0,515.0,501.0
530.0,507.0,519.0,526.0,466.0
534.0,505.0,513.0,535.0,432.0
533.0,509.0,508.0,541.0,420.0
526.0,505.0,499.0,539.0,413.0
522.0,504.0,497.0,537.0,416.0
513.0,500.0,492.0,530.0,425.0
497.0,493.0,487.0,513.0,468.0
493.0,499.0,495.0,504.0,516.0
494.0,507.0,510.0,502.0,557.0
496.0,513.0,522.0,494.0,588.0
500.0,509.0,524.0,491.0,593.0
506.0,508.0,527.0,489.0,585.0
508.0,506.0,523.0,491.0,585.0
510.0,508.0,525.0,495.0,572.0
517.0,510.0,527.0,499.0,556.0
514.0,506.0,524.0,508.0,533.0
518.0,506.0,520.0,517.0,503.0
515.0,503.0,518.0,528.0,492.0
526.0,505.0,513.0,539.0,445.0
527.0,507.0,508.0,541.0,421.0
520.0,504.0,500.0,537.0,422.0
515.0,502.0,495.0,534.0,428.0
508.0,496.0,488.0,520.0,449.0
499.0,498.0,487.0,508.0,483.0
496.0,502.0,497.0,502.0,521.0
491.0,506.0,511.0,497.0,561.0
495.0,510.0,523.0,497.0,587.0
507.0,510.0,526.0,493.0,588.0
512.0,508.0,524.0,490.0,587.0
511.0,508.0,526.0,492.0,588.0
510.0,508.0,530.0,494.0,594.0
513.0,501.0,525.0,500.0,572.0
523.0,503.0,520.0,509.0,536.0
529.0,504.0,520.0,523.0,493.0
531.0,505.0,517.0,531.0,452.0
537.0,509.0,509.0,539.0,431.0
532.0,509.0,508.0,544.0,425.0
517.0,499.0,494.0,534.0,428.0
514.0,501.0,490.0,529.0,437.0
502.0,495.0,487.0,517.0,460.0
496.0,499.0,491.0,504.0,492.0
504.0,500.0,500.0,497.0,525.0
501.0,508.0,515.0,494.0,568.0
501.0,514.0,529.0,499.0,571.0
508.0,510.0,528.0,498.0,567.0
505.0,504.0,527.0,494.0,588.0
509.0,510.0,528.0,494.0,585.0
506.0,507.0,525.0,496.0,581.0
506.0,501.0,521.0,500.0,560.0
520.0,504.0,520.0,510.0,527.0
524.0,503.0,517.0,525.0,486.0
526.0,506.0,513.0,535.0,442.0
530.0,505.0,507.0,539.0,434.0
529.0,502.0,500.0,538.0,428.0
514.0,501.0,496.0,534.0,431.0
513.0,502.0,493.0,527.0,433.0
500.0,500.0,489.0,517.0,475.0
497.0,503.0,495.0,506.0,520.0
490.0,505.0,507.0,496.0,551.0
501.0,512.0,521.0,492.0,569.0
503.0,508.0,525.0,498.0,586.0
509.0,508.0,527.0,491.0,580.0
508.0,507.0,523.0,492.0,588.0
513.0,509.0,528.0,494.0,587.0
510.0,504.0,526.0,497.0,571.0
523.0,505.0,522.0,505.0,537.0
529.0,505.0,519.0,517.0,504.0
526.0,506.0,518.0,529.0,469.0
518.0,504.0,512.0,539.0,435.0
522.0,507.0,510.0,544.0,408.0
516.0,500.0,497.0,533.0,417.0
508.0,497.0,492.0,534.0,424.0
495.0,495.0,486.0,520.0,447.0
490.0,496.0,489.0,511.0,489.0
488.0,502.0,500.0,502.0,530.0
494.0,507.0,511.0,498.0,569.0
503.0,510.0,523.0,492.0,590.0
511.0,508.0,525.0,497.0,587.0
514.0,509.0,527.0,492.0,584.0
513.0,506.0,527.0,495.0,585.0
513.0,508.0,526.0,496.0,582.0
513.0,506.0,527.0,498.0,557.0
520.0,506.0,524.0,511.0,529.0
524.0,502.0,518.0,522.0,497.0
530.0,506.0,515.0,534.0,449.0
528.0,503.0,509.0,539.0,431.0
528.0,508.0,504.0,542.0,425.0
517.0,499.0,494.0,534.0,423.0
516.0,499.0,491.0,530.0,427.0
500.0,495.0,485.0,519.0,464.0
491.0,499.0,491.0,509.0,494.0
494.0,505.0,502.0,500.0,540.0
498.0,511.0,515.0,494.0,578.0
503.0,513.0,524.0,494.0,592.0
513.0,510.0,525.0,496.0,588.0
505.0,506.0,524.0,491.0,592.0
505.0,507.0,528.0,494.0,589.0
507.0,507.0,528.0,498.0,574.0
511.0,502.0,523.0,501.0,553.0
518.0,504.0,520.0,513.0,518.0
523.0,503.0,514.0,527.0,480.0
530.0,504.0,511.0,536.0,446.0
529.0,506.0,507.0,540.0,430.0
523.0,504.0,497.0,538.0,420.0
509.0,501.0,495.0,535.0,430.0
501.0,500.0,492.0,532.0,439.0
487.0,497.0,486.0,514.0,474.0
484.0,500.0,497.0,508.0,512.0
496.0,507.0,507.0,497.0,546.0
502.0,510.0,520.0,494.0,589.0
504.0,508.0,524.0,489.0,592.0
513.0,510.0,527.0,495.0,592.0
508.0,503.0,523.0,491.0,599.0
512.0,508.0,529.0,495.0,586.0
520.0,505.0,526.0,497.0,573.0
522.0,505.0,524.0,506.0,549.0
528.0,503.0,522.0,515.0,521.0
531.0,505.0,516.0,526.0,480.0
533.0,504.0,510.0,540.0,423.0
529.0,508.0,507.0,543.0,405.0
527.0,502.0,500.0,540.0,404.0
527.0,503.0,495.0,536.0,409.0
502.0,494.0,485.0,523.0,438.0
499.0,496.0,486.0,511.0,480.0
502.0,503.0,499.0,500.0,527.0
495.0,508.0,512.0,494.0,569.0
503.0,514.0,521.0,490.0,587.0
509.0,507.0,525.0,493.0,587.0
502.0,508.0,523.0,489.0,595.0
499.0,509.0,528.0,492.0,596.0
500.0,507.0,529.0,495.0,594.0
507.0,505.0,525.0,504.0,561.0
522.0,503.0,522.0,513.0,523.0
533.0,507.0,520.0,525.0,476.0
539.0,507.0,516.0,538.0,439.0
539.0,508.0,510.0,538.0,408.0
535.0,507.0,502.0,541.0,410.0
519.0,498.0,494.0,530.0,416.0
509.0,498.0,487.0,527.0,432.0
498.0,493.0,485.0,515.0,465.0
493.0,500.0,490.0,507.0,502.0
497.0,505.0,501.0,500.0,541.0
502.0,512.0,516.0,495.0,583.0
501.0,515.0,525.0,494.0,600.0
507.0,513.0,527.0,494.0,590.0
504.0,506.0,526.0,490.0,594.0
512.0,510.0,529.0,497.0,589.0
512.0,506.0,526.0,495.0,575.0
512.0,506.0,525.0,503.0,555.0
522.0,504.0,521.0,510.0,516.0
529.0,505.0,516.0,526.0,474.0
535.0,504.0,509.0,537.0,434.0
523.0,506.0,507.0,538.0,422.0
516.0,503.0,500.0,535.0,418.0
509.0,499.0,494.0,533.0,416.0
506.0,495.0,487.0,528.0,429.0
495.0,497.0,485.0,515.0,469.0
485.0,496.0,490.0,501.0,520.0
490.0,507.0,504.0,496.0,557.0
503.0,515.0,520.0,492.0,590.0
501.0,510.0,522.0,492.0,601.0
498.0,510.0,528.0,494.0,605.0
490.0,507.0,526.0,491.0,613.0
517.0,513.0,529.0,493.0,596.0
519.0,508.0,528.0,497.0,571.0
516.0,503.0,523.0,507.0,530.0
519.0,501.0,519.0,517.0,490.0
533.0,505.0,515.0,529.0,454.0
537.0,506.0,511.0,538.0,437.0
529.0,504.0,508.0,540.0,423.0
523.0,501.0,494.0,534.0,420.0
522.0,501.0,497.0,533.0,420.0
505.0,494.0,486.0,520.0,443.0
495.0,497.0,486.0,512.0,487.0
498.0,503.0,501.0,504.0,527.0
496.0,509.0,515.0,497.0,565.0
509.0,515.0,523.0,491.0,594.0
514.0,507.0,526.0,493.0,594.0
514.0,509.0,527.0,494.0,588.0
515.0,508.0,528.0,494.0,581.0
514.0,509.0,531.0,497.0,577.0
512.0,504.0,527.0,501.0,558.0
514.0,504.0,520.0,508.0,526.0
520.0,507.0,522.0,523.0,492.0
527.0,505.0,516.0,531.0,453.0
528.0,504.0,509.0,540.0,433.0
527.0,507.0,506.0,540.0,422.0
515.0,500.0,493.0,534.0,421.0
515.0,502.0,495.0,533.0,421.0
499.0,494.0,486.0,521.0,458.0
497.0,501.0,492.0,508.0,500.0
493.0,505.0,503.0,498.0,540.0
499.0,513.0,515.0,495.0,580.0
501.0,515.0,526.0,494.0,594.0
506.0,510.0,529.0,496.0,585.0
507.0,508.0,527.0,493.0,588.0
510.0,508.0,529.0,492.0,585.0
504.0,505.0,528.0,497.0,588.0
505.0,502.0,524.0,503.0,558.0
516.0,504.0,521.0,514.0,520.0
523.0,504.0,518.0,526.0,480.0
533.0,505.0,512.0,536.0,439.0
532.0,506.0,510.0,542.0,427.0
526.0,503.0,500.0,540.0,428.0
515.0,498.0,494.0,541.0,429.0
507.0,497.0,492.0,533.0,435.0
498.0,496.0,486.0,516.0,470.0
496.0,500.0,495.0,504.0,510.0
497.0,506.0,509.0,498.0,550.0
504.0,514.0,523.0,492.0,590.0
504.0,512.0,524.0,490.0,595.0
519.0,513.0,529.0,494.0,588.0
509.0,506.0,524.0,489.0,595.0
506.0,504.0,528.0,495.0,590.0
506.0,502.0,526.0,500.0,572.0
514.0,504.0,525.0,506.0,529.0
519.0,503.0,522.0,520.0,497.0
525.0,505.0,518.0,531.0,459.0
528.0,504.0,512.0,540.0,427.0
528.0,506.0,509.0,545.0,424.0
514.0,501.0,495.0,538.0,425.0
518.0,500.0,492.0,530.0,423.0
513.0,490.0,482.0,519.0,447.0
495.0,492.0,486.0,509.0,501.0
499.0,504.0,500.0,504.0,538.0
498.0,507.0,511.0,498.0,586.0
498.0,515.0,524.0,493.0,600.0
506.0,510.0,525.0,495.0,577.0
511.0,508.0,527.0,499.0,571.0
503.0,506.0,528.0,497.0,566.0
500.0,507.0,529.0,498.0,576.0
510.0,504.0,526.0,499.0,561.0
514.0,501.0,521.0,510.0,530.0
523.0,506.0,520.0,522.0,489.0
530.0,504.0,514.0,533.0,442.0
533.0,507.0,509.0,538.0,427.0
530.0,506.0,506.0,542.0,416.0
514.0,498.0,493.0,533.0,420.0
512.0,501.0,489.0,529.0,434.0
500.0,497.0,484.0,518.0,459.0
489.0,498.0,490.0,504.0,506.0
494.0,507.0,504.0,500.0,549.0
510.0,513.0,519.0,498.0,588.0
507.0,515.0,524.0,494.0,598.0
511.0,512.0,527.0,495.0,592.0
504.0,507.0,524.0,491.0,592.0
506.0,507.0,524.0,494.0,583.0
511.0,504.0,527.0,498.0,574.0
515.0,506.0,522.0,503.0,551.0
518.0,504.0,521.0,513.0,521.0
525.0,504.0,518.0,525.0,481.0
537.0,505.0,512.0,538.0,435.0
535.0,507.0,510.0,541.0,418.0
522.0,505.0,504.0,541.0,422.0
516.0,501.0,495.0,536.0,427.0
510.0,499.0,493.0,529.0,436.0
499.0,495.0,485.0,515.0,474.0
493.0,497.0,493.0,506.0,508.0
497.0,507.0,507.0,497.0,550.0
499.0,511.0,520.0,488.0,590.0
506.0,511.0,525.0,494.0,604.0
506.0,507.0,525.0,492.0,606.0
501.0,506.0,524.0,491.0,604.0
505.0,508.0,528.0,495.0,576.0
508.0,504.0,524.0,497.0,563.0
522.0,505.0,523.0,505.0,540.0
530.0,504.0,521.0,516.0,510.0
532.0,504.0,513.0,529.0,467.0
529.0,503.0,507.0,538.0,429.0
527.0,506.0,507.0,543.0,405.0
526.0,501.0,496.0,539.0,409.0
523.0,502.0,489.0,532.0,414.0
509.0,496.0,483.0,523.0,444.0
495.0,499.0,490.0,512.0,486.0
485.0,503.0,497.0,500.0,543.0
488.0,510.0,510.0,495.0,575.0
496.0,513.0,525.0,497.0,589.0
505.0,511.0,528.0,494.0,583.0
508.0,508.0,528.0,492.0,588.0
504.0,503.0,525.0,495.0,594.0
505.0,505.0,527.0,495.0,584.0
505.0,502.0,524.0,501.0,562.0
515.0,505.0,524.0,509.0,528.0
521.0,506.0,521.0,520.0,491.0
522.0,504.0,512.0,533.0,451.0
534.0,509.0,510.0,541.0,426.0
529.0,508.0,503.0,541.0,415.0
515.0,497.0,493.0,536.0,420.0
521.0,497.0,491.0,533.0,423.0
506.0,494.0,482.0,517.0,462.0
499.0,496.0,489.0,507.0,500.0
497.0,503.0,502.0,502.0,541.0
500.0,511.0,514.0,497.0,580.0
507.0,513.0,524.0,494.0,583.0
507.0,509.0,527.0,495.0,587.0
512.0,505.0,524.0,491.0,587.0
506.0,506.0,525.0,492.0,588.0
506.0,511.0,531.0,498.0,586.0
501.0,505.0,527.0,505.0,559.0
513.0,501.0,521.0,517.0,526.0
526.0,502.0,515.0,525.0,481.0
529.0,506.0,513.0,536.0,441.0
532.0,508.0,510.0,541.0,424.0
532.0,510.0,503.0,539.0,429.0
512.0,501.0,494.0,531.0,441.0
506.0,501.0,492.0,530.0,442.0
494.0,496.0,487.0,514.0,476.0
487.0,496.0,491.0,501.0,525.0
488.0,505.0,507.0,497.0,550.0
493.0,511.0,522.0,492.0,572.0
501.0,507.0,524.0,492.0,584.0
504.0,508.0,527.0,493.0,587.0
511.0,508.0,525.0,491.0,586.0
520.0,508.0,529.0,497.0,577.0
521.0,508.0,528.0,500.0,555.0
520.0,502.0,522.0,507.0,534.0
521.0,501.0,519.0,517.0,497.0
529.0,505.0,516.0,529.0,456.0
538.0,506.0,514.0,537.0,428.0
537.0,508.0,508.0,538.0,411.0
522.0,501.0,497.0,536.0,413.0
515.0,498.0,491.0,532.0,430.0
496.0,491.0,484.0,523.0,452.0
495.0,498.0,489.0,510.0,486.0
493.0,503.0,501.0,500.0,531.0
496.0,511.0,513.0,497.0,576.0
500.0,514.0,522.0,495.0,598.0
505.0,511.0,526.0,494.0,593.0
506.0,508.0,528.0,493.0,594.0
503.0,506.0,526.0,492.0,592.0
507.0,507.0,526.0,494.0,585.0
504.0,503.0,526.0,498.0,560.0
512.0,504.0,526.0,513.0,525.0
524.0,503.0,520.0,522.0,487.0
527.0,505.0,516.0,534.0,453.0
531.0,509.0,511.0,539.0,430.0
528.0,507.0,505.0,541.0,422.0
518.0,497.0,494.0,534.0,423.0
526.0,500.0,492.0,527.0,420.0
520.0,495.0,483.0,514.0,451.0
503.0,496.0,490.0,508.0,498.0
500.0,505.0,500.0,500.0,538.0
493.0,509.0,515.0,494.0,572.0
498.0,508.0,524.0,492.0,596.0
508.0,511.0,529.0,493.0,586.0
501.0,507.0,527.0,495.0,589.0
507.0,507.0,528.0,493.0,587.0
508.0,505.0,526.0,496.0,573.0
517.0,504.0,521.0,502.0,548.0
523.0,505.0,522.0,513.0,519.0
519.0,503.0,519.0,529.0,480.0
526.0,505.0,513.0,537.0,443.0
525.0,507.0,510.0,542.0,426.0
524.0,504.0,503.0,541.0,425.0
514.0,502.0,494.0,534.0,426.0
512.0,498.0,491.0,529.0,422.0
495.0,496.0,487.0,513.0,466.0
487.0,502.0,496.0,506.0,511.0
491.0,509.0,510.0,500.0,554.0
494.0,513.0,519.0,493.0,594.0
494.0,509.0,524.0,492.0,598.0
504.0,507.0,530.0,496.0,596.0
515.0,506.0,525.0,493.0,594.0
517.0,509.0,528.0,495.0,585.0
514.0,505.0,529.0,498.0,569.0
518.0,504.0,525.0,506.0,533.0
524.0,503.0,519.0,519.0,501.0
527.0,502.0,514.0,530.0,457.0
536.0,504.0,510.0,538.0,425.0
531.0,508.0,510.0,543.0,417.0
522.0,501.0,495.0,535.0,420.0
513.0,499.0,491.0,532.0,425.0
504.0,496.0,487.0,522.0,450.0
491.0,498.0,490.0,512.0,485.0
492.0,500.0,498.0,503.0,532.0
494.0,507.0,511.0,495.0,565.0
502.0,513.0,525.0,492.0,594.0
508.0,509.0,524.0,493.0,594.0
516.0,510.0,526.0,494.0,586.0
511.0,506.0,526.0,492.0,593.0
515.0,509.0,530.0,497.0,582.0
515.0,505.0,525.0,499.0,557.0
517.0,506.0,524.0,512.0,523.0
522.0,505.0,519.0,520.0,482.0
528.0,504.0,519.0,535.0,443.0
526.0,506.0,510.0,542.0,426.0
528.0,507.0,505.0,543.0,418.0
516.0,501.0,495.0,534.0,427.0
510.0,503.0,493.0,532.0,433.0
503.0,496.0,486.0,519.0,463.0
497.0,499.0,492.0,510.0,503.0
498.0,504.0,501.0,500.0,543.0
506.0,514.0,517.0,495.0,579.0
500.0,507.0,522.0,494.0,592.0
503.0,509.0,527.0,496.0,586.0
504.0,506.0,527.0,491.0,586.0
506.0,506.0,528.0,499.0,588.0
509.0,505.0,529.0,500.0,575.0
506.0,501.0,526.0,506.0,551.0
519.0,503.0,521.0,516.0,520.0
523.0,507.0,519.0,528.0,476.0
521.0,505.0,509.0,534.0,437.0
515.0,509.0,509.0,538.0,421.0
519.0,504.0,505.0,540.0,407.0
515.0,501.0,492.0,534.0,411.0
512.0,499.0,490.0,531.0,419.0
495.0,495.0,487.0,514.0,462.0
494.0,500.0,492.0,503.0,518.0
503.0,505.0,506.0,495.0,561.0
508.0,508.0,520.0,492.0,594.0
512.0,512.0,524.0,491.0,594.0
512.0,510.0,530.0,495.0,581.0
507.0,506.0,526.0,493.0,580.0
518.0,506.0,528.0,496.0,570.0
513.0,504.0,526.0,497.0,560.0
517.0,505.0,523.0,508.0,535.0
518.0,504.0,519.0,517.0,500.0
522.0,502.0,515.0,529.0,459.0
527.0,505.0,513.0,536.0,429.0
523.0,509.0,510.0,543.0,418.0
511.0,502.0,496.0,534.0,424.0
499.0,502.0,493.0,531.0,435.0
499.0,496.0,484.0,518.0,455.0
503.0,499.0,488.0,510.0,495.0
500.0,502.0,503.0,502.0,535.0
501.0,505.0,509.0,495.0,572.0
508.0,510.0,524.0,494.0,585.0
506.0,508.0,527.0,494.0,585.0
511.0,509.0,530.0,494.0,590.0
506.0,504.0,525.0,488.0,584.0
512.0,506.0,529.0,500.0,576.0
510.0,502.0,526.0,502.0,555.0
516.0,504.0,524.0,510.0,521.0
526.0,506.0,521.0,522.0,486.0
527.0,505.0,515.0,536.0,444.0
528.0,508.0,509.0,540.0,428.0
533.0,508.0,506.0,540.0,413.0
522.0,499.0,494.0,534.0,420.0
519.0,502.0,493.0,532.0,427.0
504.0,495.0,488.0,517.0,459.0
500.0,499.0,490.0,506.0,501.0
501.0,507.0,501.0,499.0,543.0
503.0,511.0,518.0,495.0,583.0
506.0,514.0,526.0,492.0,588.0
503.0,510.0,525.0,493.0,589.0
506.0,506.0,528.0,494.0,593.0
501.0,505.0,525.0,496.0,586.0
506.0,507.0,527.0,498.0,576.0
509.0,505.0,528.0,506.0,549.0
514.0,504.0,522.0,516.0,516.0
523.0,503.0,519.0,531.0,473.0
534.0,505.0,511.0,536.0,430.0
535.0,509.0,511.0,544.0,413.0
528.0,503.0,502.0,539.0,415.0
515.0,496.0,493.0,531.0,424.0
512.0,498.0,491.0,529.0,430.0
501.0,498.0,491.0,514.0,472.0
500.0,503.0,498.0,506.0,516.0
502.0,506.0,508.0,498.0,554.0
504.0,514.0,522.0,494.0,585.0
506.0,510.0,524.0,489.0,589.0
506.0,510.0,526.0,494.0,580.0
493.0,505.0,527.0,495.0,593.0
503.0,508.0,528.0,496.0,595.0
507.0,506.0,527.0,501.0,569.0
510.0,506.0,526.0,510.0,540.0
507.0,503.0,521.0,518.0,499.0
526.0,503.0,516.0,529.0,455.0
529.0,506.0,513.0,537.0,433.0
525.0,508.0,508.0,544.0,425.0
522.0,502.0,499.0,535.0,421.0
523.0,500.0,492.0,534.0,424.0
506.0,494.0,487.0,518.0,448.0
499.0,494.0,489.0,510.0,480.0
493.0,499.0,498.0,501.0,530.0
497.0,507.0,511.0,495.0,573.0
501.0,512.0,522.0,493.0,592.0
500.0,509.0,526.0,495.0,593.0
503.0,509.0,529.0,491.0,594.0
502.0,507.0,527.0,491.0,595.0
517.0,506.0,526.0,495.0,584.0
514.0,502.0,525.0,503.0,552.0
521.0,503.0,519.0,508.0,523.0
523.0,506.0,518.0,521.0,485.0
523.0,501.0,513.0,532.0,447.0
535.0,508.0,517.0,540.0,423.0
538.0,510.0,507.0,541.0,413.0
524.0,502.0,496.0,533.0,418.0
517.0,497.0,491.0,531.0,427.0
501.0,493.0,485.0,518.0,458.0
497.0,498.0,492.0,506.0,495.0
496.0,503.0,503.0,499.0,541.0
499.0,510.0,517.0,494.0,582.0
501.0,512.0,523.0,492.0,594.0
507.0,511.0,527.0,496.0,588.0
505.0,509.0,526.0,495.0,588.0
501.0,507.0,526.0,493.0,587.0
512.0,508.0,530.0,495.0,572.0
518.0,504.0,523.0,505.0,540.0
521.0,504.0,521.0,514.0,510.0
525.0,501.0,518.0,526.0,471.0
528.0,505.0,512.0,535.0,442.0
526.0,503.0,508.0,539.0,428.0
533.0,506.0,501.0,540.0,413.0
520.0,497.0,492.0,533.0,423.0
512.0,499.0,492.0,525.0,431.0
495.0,495.0,487.0,518.0,472.0
498.0,502.0,497.0,507.0,508.0
491.0,509.0,507.0,497.0,558.0
501.0,516.0,522.0,493.0,593.0
503.0,511.0,525.0,489.0,593.0
510.0,509.0,527.0,491.0,585.0
506.0,508.0,525.0,490.0,594.0
508.0,502.0,526.0,494.0,583.0
509.0,505.0,527.0,497.0,568.0
514.0,504.0,522.0,508.0,544.0
516.0,503.0,520.0,515.0,512.0
523.0,504.0,518.0,533.0,465.0
533.0,507.0,512.0,535.0,433.0
536.0,508.0,509.0,542.0,416.0
523.0,503.0,498.0,536.0,415.0
516.0,500.0,492.0,532.0,420.0
503.0,494.0,483.0,520.0,449.0
490.0,495.0,486.0,510.0,486.0
486.0,501.0,498.0,504.0,534.0
489.0,509.0,517.0,496.0,572.0
503.0,512.0,522.0,491.0,591.0
515.0,508.0,522.0,493.0,584.0
512.0,513.0,530.0,495.0,596.0
501.0,506.0,525.0,493.0,605.0
506.0,510.0,531.0,498.0,588.0
503.0,506.0,529.0,503.0,575.0
508.0,503.0,523.0,507.0,532.0
508.0,502.0,521.0,525.0,488.0
523.0,503.0,516.0,536.0,441.0
532.0,506.0,510.0,539.0,421.0
531.0,506.0,510.0,543.0,413.0
521.0,499.0,492.0,533.0,415.0
523.0,501.0,492.0,531.0,413.0
507.0,494.0,484.0,517.0,450.0
494.0,497.0,491.0,505.0,497.0
493.0,503.0,504.0,499.0,542.0
499.0,512.0,517.0,493.0,580.0
503.0,511.0,520.0,490.0,595.0
510.0,512.0,527.0,494.0,591.0
508.0,508.0,525.0,493.0,586.0
505.0,504.0,524.0,493.0,585.0
509.0,506.0,528.0,498.0,576.0
513.0,504.0,522.0,503.0,545.0
519.0,505.0,524.0,514.0,516.0
531.0,508.0,522.0,528.0,469.0
536.0,508.0,513.0,535.0,433.0
538.0,507.0,508.0,537.0,418.0
530.0,505.0,504.0,537.0,411.0
513.0,498.0,491.0,532.0,424.0
506.0,498.0,492.0,530.0,420.0
497.0,496.0,488.0,516.0,466.0
489.0,500.0,495.0,505.0,518.0
492.0,507.0,508.0,500.0,560.0
495.0,512.0,521.0,490.0,595.0
498.0,510.0,526.0,495.0,597.0
508.0,510.0,528.0,496.0,587.0
508.0,506.0,522.0,491.0,587.0
507.0,506.0,524.0,495.0,586.0
507.0,503.0,523.0,499.0,565.0
514.0,507.0,523.0,508.0,536.0
522.0,503.0,520.0,520.0,504.0
531.0,504.0,516.0,533.0,466.0
531.0,506.0,513.0,537.0,433.0
531.0,508.0,508.0,543.0,415.0
521.0,503.0,498.0,537.0,417.0
515.0,499.0,494.0,531.0,416.0
508.0,492.0,485.0,521.0,437.0
494.0,494.0,487.0,511.0,487.0
497.0,502.0,499.0,504.0,531.0
501.0,505.0,509.0,495.0,581.0
510.0,514.0,523.0,491.0,604.0
513.0,508.0,525.0,496.0,600.0
516.0,511.0,525.0,494.0,593.0
506.0,505.0,522.0,491.0,597.0
505.0,506.0,529.0,499.0,581.0
508.0,504.0,523.0,502.0,544.0
510.0,503.0,522.0,508.0,521.0
520.0,505.0,518.0,521.0,488.0
531.0,504.0,515.0,536.0,447.0
531.0,507.0,511.0,537.0,428.0
530.0,509.0,507.0,543.0,418.0
513.0,500.0,494.0,534.0,423.0
508.0,498.0,493.0,534.0,428.0
502.0,494.0,484.0,516.0,452.0
496.0,499.0,494.0,507.0,502.0
498.0,506.0,502.0,499.0,541.0
503.0,513.0,517.0,496.0,574.0
501.0,511.0,524.0,493.0,594.0
509.0,510.0,524.0,494.0,589.0
504.0,509.0,525.0,492.0,592.0
501.0,504.0,525.0,491.0,590.0
511.0,506.0,527.0,498.0,580.0
516.0,504.0,524.0,505.0,552.0
519.0,503.0,520.0,513.0,522.0
525.0,504.0,517.0,525.0,481.0
532.0,506.0,514.0,535.0,436.0
530.0,508.0,511.0,540.0,418.0
527.0,506.0,505.0,541.0,413.0
514.0,499.0,495.0,530.0,423.0
514.0,497.0,492.0,531.0,429.0
494.0,497.0,488.0,515.0,471.0
493.0,500.0,496.0,504.0,513.0
492.0,506.0,509.0,497.0,559.0
495.0,513.0,519.0,490.0,596.0
501.0,511.0,526.0,494.0,592.0
503.0,512.0,527.0,495.0,591.0
502.0,506.0,526.0,491.0,591.0
514.0,504.0,525.0,497.0,586.0
502.0,507.0,525.0,500.0,576.0
506.0,506.0,524.0,506.0,542.0
522.0,501.0,517.0,514.0,510.0
532.0,503.0,516.0,528.0,466.0
533.0,507.0,510.0,536.0,443.0
529.0,510.0,515.0,542.0,431.0
523.0,505.0,500.0,538.0,424.0
516.0,498.0,489.0,528.0,428.0
502.0,494.0,484.0,518.0,448.0
493.0,497.0,489.0,509.0,484.0
496.0,502.0,500.0,502.0,528.0
494.0,508.0,511.0,493.0,571.0
502.0,513.0,521.0,492.0,599.0
509.0,509.0,524.0,494.0,598.0
513.0,513.0,530.0,494.0,590.0
506.0,506.0,525.0,494.0,590.0
509.0,510.0,529.0,494.0,577.0
521.0,505.0,524.0,503.0,549.0
524.0,503.0,522.0,512.0,527.0
530.0,504.0,519.0,522.0,496.0
537.0,505.0,512.0,534.0,453.0
530.0,505.0,509.0,536.0,429.0
528.0,507.0,505.0,540.0,419.0
518.0,500.0,493.0,530.0,424.0
513.0,499.0,493.0,532.0,420.0
499.0,496.0,486.0,519.0,448.0
493.0,497.0,493.0,508.0,487.0
496.0,505.0,505.0,501.0,535.0
496.0,510.0,518.0,495.0,590.0
498.0,511.0,524.0,490.0,601.0
503.0,509.0,524.0,497.0,591.0
508.0,513.0,528.0,496.0,593.0
506.0,506.0,525.0,492.0,587.0
512.0,508.0,526.0,497.0,572.0
507.0,503.0,524.0,501.0,572.0
512.0,501.0,517.0,509.0,527.0
522.0,501.0,517.0,524.0,481.0
526.0,504.0,511.0,533.0,449.0
516.0,505.0,509.0,537.0,425.0
525.0,507.0,500.0,540.0,421.0
519.0,500.0,493.0,530.0,437.0
517.0,500.0,492.0,527.0,428.0
503.0,499.0,488.0,516.0,471.0
509.0,500.0,497.0,505.0,504.0
506.0,507.0,508.0,495.0,555.0
502.0,514.0,520.0,494.0,581.0
494.0,508.0,526.0,496.0,577.0
500.0,508.0,528.0,496.0,584.0
511.0,508.0,526.0,494.0,589.0
517.0,509.0,526.0,493.0,587.0
515.0,508.0,524.0,500.0,570.0
521.0,506.0,523.0,506.0,537.0
528.0,506.0,520.0,518.0,498.0
534.0,506.0,516.0,533.0,442.0
536.0,506.0,512.0,539.0,421.0
533.0,511.0,508.0,544.0,408.0
522.0,504.0,497.0,536.0,417.0
509.0,496.0,490.0,529.0,427.0
500.0,495.0,486.0,522.0,443.0
495.0,495.0,489.0,512.0,484.0
496.0,502.0,499.0,505.0,527.0
499.0,509.0,512.0,494.0,571.0
500.0,513.0,523.0,495.0,597.0
504.0,511.0,527.0,491.0,592.0
508.0,510.0,530.0,494.0,590.0
506.0,506.0,525.0,492.0,588.0
509.0,507.0,528.0,497.0,577.0
512.0,506.0,524.0,501.0,556.0
515.0,501.0,521.0,511.0,526.0
526.0,506.0,520.0,524.0,489.0
528.0,504.0,515.0,534.0,447.0
525.0,507.0,515.0,540.0,432.0
522.0,509.0,505.0,541.0,415.0
517.0,503.0,496.0,536.0,416.0
510.0,501.0,495.0,530.0,423.0
500.0,496.0,487.0,518.0,455.0
502.0,499.0,492.0,509.0,499.0
502.0,507.0,504.0,499.0,540.0
504.0,513.0,518.0,497.0,577.0
503.0,511.0,525.0,500.0,594.0
503.0,512.0,527.0,495.0,594.0
506.0,510.0,524.0,491.0,591.0
501.0,506.0,529.0,492.0,591.0
507.0,508.0,527.0,497.0,580.0
520.0,507.0,526.0,504.0,550.0
517.0,501.0,521.0,510.0,512.0
527.0,503.0,517.0,526.0,471.0
532.0,504.0,509.0,536.0,435.0
528.0,504.0,508.0,541.0,418.0
526.0,505.0,503.0,539.0,413.0
513.0,498.0,493.0,532.0,425.0
514.0,500.0,490.0,528.0,432.0
501.0,496.0,489.0,516.0,471.0
501.0,503.0,498.0,505.0,513.0
498.0,508.0,507.0,498.0,554.0
501.0,514.0,520.0,496.0,591.0
503.0,509.0,523.0,496.0,589.0
504.0,509.0,527.0,496.0,590.0
502.0,505.0,525.0,493.0,588.0
512.0,508.0,528.0,496.0,582.0
505.0,503.0,525.0,499.0,570.0
512.0,506.0,527.0,510.0,538.0
519.0,504.0,520.0,516.0,505.0
531.0,505.0,515.0,531.0,462.0
530.0,503.0,509.0,537.0,435.0
529.0,508.0,509.0,542.0,422.0
520.0,504.0,498.0,537.0,419.0
509.0,497.0,492.0,534.0,429.0
503.0,495.0,485.0,520.0,446.0
498.0,495.0,490.0,512.0,485.0
493.0,502.0,500.0,501.0,531.0
498.0,508.0,513.0,500.0,575.0
501.0,513.0,522.0,492.0,597.0
508.0,508.0,524.0,490.0,592.0
508.0,508.0,526.0,494.0,590.0
504.0,505.0,526.0,492.0,595.0
507.0,509.0,529.0,499.0,585.0
505.0,504.0,525.0,500.0,559.0
516.0,502.0,520.0,510.0,524.0
526.0,504.0,517.0,522.0,488.0
531.0,503.0,518.0,535.0,448.0
535.0,508.0,510.0,538.0,428.0
534.0,508.0,503.0,540.0,419.0
529.0,502.0,497.0,533.0,421.0
518.0,501.0,491.0,531.0,431.0
495.0,494.0,488.0,518.0,466.0
497.0,497.0,493.0,506.0,496.0
500.0,505.0,504.0,502.0,537.0
498.0,511.0,517.0,493.0,576.0
497.0,509.0,523.0,494.0,592.0
498.0,508.0,528.0,496.0,587.0
500.0,508.0,528.0,494.0,590.0
498.0,504.0,524.0,494.0,593.0
503.0,508.0,525.0,497.0,581.0
507.0,505.0,524.0,503.0,554.0
522.0,502.0,521.0,515.0,516.0
530.0,501.0,517.0,528.0,470.0
533.0,507.0,514.0,536.0,435.0
530.0,506.0,507.0,543.0,418.0
528.0,506.0,500.0,539.0,414.0
515.0,500.0,498.0,532.0,428.0
514.0,499.0,492.0,529.0,435.0
498.0,496.0,488.0,516.0,471.0
487.0,501.0,498.0,506.0,510.0
487.0,510.0,511.0,502.0,541.0
486.0,514.0,524.0,499.0,586.0
496.0,513.0,524.0,495.0,598.0
512.0,507.0,526.0,492.0,602.0
515.0,505.0,526.0,491.0,606.0
519.0,506.0,526.0,493.0,591.0
519.0,500.0,523.0,496.0,581.0
519.0,502.0,523.0,507.0,527.0
520.0,503.0,519.0,521.0,476.0
528.0,505.0,515.0,533.0,451.0
536.0,507.0,513.0,536.0,430.0
535.0,509.0,510.0,542.0,414.0
524.0,504.0,500.0,540.0,410.0
514.0,500.0,491.0,530.0,423.0
498.0,493.0,486.0,518.0,444.0
495.0,494.0,487.0,510.0,484.0
503.0,505.0,498.0,502.0,528.0
504.0,508.0,513.0,496.0,564.0
503.0,511.0,525.0,495.0,590.0
510.0,510.0,526.0,493.0,586.0
507.0,508.0,528.0,492.0,585.0
507.0,505.0,524.0,492.0,589.0
512.0,509.0,532.0,498.0,581.0
514.0,506.0,525.0,503.0,559.0
518.0,502.0,521.0,511.0,522.0
527.0,509.0,521.0,525.0,476.0
530.0,504.0,520.0,535.0,434.0
527.0,501.0,508.0,539.0,422.0
530.0,508.0,505.0,542.0,413.0
522.0,502.0,496.0,538.0,416.0
510.0,499.0,491.0,530.0,425.0
495.0,494.0,487.0,518.0,465.0
493.0,499.0,493.0,507.0,504.0
495.0,505.0,504.0,499.0,544.0
505.0,510.0,518.0,491.0,583.0
506.0,510.0,526.0,493.0,593.0
512.0,511.0,527.0,495.0,586.0
510.0,508.0,527.0,494.0,589.0
511.0,505.0,525.0,495.0,590.0
506.0,505.0,527.0,497.0,575.0
507.0,505.0,524.0,506.0,548.0
515.0,501.0,519.0,514.0,515.0
524.0,503.0,518.0,527.0,471.0
526.0,504.0,513.0,539.0,438.0
529.0,508.0,511.0,540.0,422.0
522.0,505.0,502.0,540.0,418.0
513.0,499.0,491.0,531.0,426.0
507.0,495.0,489.0,525.0,435.0
497.0,495.0,488.0,514.0,474.0
495.0,500.0,497.0,503.0,516.0
495.0,505.0,509.0,498.0,557.0
502.0,514.0,521.0,494.0,589.0
503.0,507.0,521.0,492.0,597.0
508.0,512.0,528.0,496.0,590.0
506.0,506.0,526.0,494.0,587.0
504.0,506.0,527.0,494.0,584.0
507.0,505.0,527.0,496.0,566.0
514.0,506.0,527.0,508.0,536.0
521.0,504.0,520.0,521.0,502.0
528.0,506.0,518.0,532.0,460.0
529.0,507.0,512.0,539.0,431.0
533.0,510.0,509.0,543.0,415.0
523.0,507.0,500.0,539.0,420.0
512.0,497.0,490.0,530.0,422.0
502.0,492.0,486.0,522.0,447.0
495.0,498.0,491.0,513.0,481.0
493.0,505.0,503.0,504.0,525.0
496.0,509.0,511.0,496.0,576.0
507.0,513.0,523.0,493.0,594.0
512.0,510.0,523.0,493.0,591.0
515.0,511.0,527.0,492.0,594.0
508.0,507.0,525.0,489.0,596.0
507.0,508.0,528.0,496.0,587.0
511.0,503.0,524.0,501.0,559.0
518.0,503.0,522.0,512.0,526.0
523.0,506.0,519.0,524.0,491.0
531.0,507.0,516.0,539.0,447.0
525.0,507.0,511.0,542.0,431.0
523.0,508.0,507.0,541.0,417.0
508.0,502.0,498.0,539.0,421.0
503.0,499.0,495.0,531.0,435.0
497.0,492.0,483.0,516.0,464.0
492.0,498.0,489.0,511.0,501.0
496.0,505.0,504.0,500.0,540.0
504.0,513.0,518.0,491.0,573.0
504.0,509.0,523.0,494.0,587.0
509.0,510.0,528.0,494.0,578.0
511.0,509.0,529.0,496.0,578.0
512.0,505.0,524.0,495.0,592.0
509.0,506.0,528.0,497.0,581.0
517.0,504.0,524.0,505.0,553.0
528.0,504.0,521.0,513.0,524.0
533.0,510.0,518.0,528.0,478.0
531.0,507.0,512.0,536.0,442.0
528.0,509.0,507.0,540.0,425.0
520.0,508.0,504.0,541.0,412.0
503.0,497.0,492.0,528.0,413.0
501.0,494.0,486.0,525.0,431.0
495.0,496.0,489.0,512.0,473.0
495.0,500.0,495.0,504.0,514.0
498.0,507.0,509.0,498.0,557.0
510.0,515.0,520.0,495.0,590.0
507.0,508.0,524.0,495.0,592.0
513.0,509.0,525.0,494.0,586.0
509.0,507.0,522.0,492.0,590.0
507.0,503.0,526.0,493.0,587.0
514.0,505.0,526.0,501.0,562.0
520.0,504.0,523.0,508.0,530.0
520.0,502.0,519.0,517.0,497.0
523.0,502.0,515.0,530.0,459.0
527.0,506.0,509.0,536.0,432.0
529.0,506.0,508.0,542.0,421.0
528.0,505.0,503.0,537.0,417.0
514.0,498.0,489.0,529.0,420.0
501.0,493.0,485.0,521.0,443.0
500.0,499.0,491.0,510.0,489.0
492.0,503.0,501.0,502.0,537.0
494.0,509.0,514.0,493.0,571.0
501.0,512.0,525.0,495.0,594.0
508.0,508.0,525.0,493.0,586.0
512.0,513.0,529.0,497.0,586.0
509.0,506.0,524.0,491.0,593.0
514.0,508.0,527.0,496.0,584.0
513.0,505.0,526.0,497.0,565.0
515.0,502.0,523.0,515.0,528.0
523.0,505.0,519.0,522.0,480.0
526.0,504.0,516.0,536.0,439.0
525.0,505.0,509.0,541.0,424.0
530.0,507.0,507.0,542.0,411.0
519.0,501.0,497.0,535.0,426.0
516.0,495.0,490.0,530.0,432.0
506.0,495.0,484.0,517.0,457.0
495.0,498.0,493.0,504.0,505.0
497.0,505.0,505.0,499.0,546.0
498.0,511.0,519.0,493.0,583.0
494.0,507.0,522.0,492.0,594.0
502.0,507.0,529.0,495.0,587.0
506.0,508.0,527.0,494.0,586.0
503.0,504.0,523.0,491.0,587.0
510.0,505.0,527.0,497.0,578.0
513.0,505.0,522.0,503.0,549.0
515.0,506.0,522.0,515.0,517.0
521.0,501.0,516.0,526.0,478.0
529.0,508.0,515.0,536.0,436.0
531.0,509.0,510.0,542.0,420.0
526.0,505.0,504.0,544.0,419.0
519.0,500.0,490.0,532.0,423.0
512.0,498.0,489.0,525.0,428.0
500.0,498.0,488.0,514.0,473.0
497.0,503.0,499.0,505.0,518.0
496.0,506.0,509.0,498.0,560.0
501.0,510.0,522.0,492.0,595.0
500.0,509.0,526.0,495.0,593.0
509.0,511.0,529.0,493.0,587.0
509.0,506.0,524.0,491.0,589.0
507.0,506.0,525.0,494.0,589.0
508.0,505.0,527.0,500.0,566.0
515.0,504.0,521.0,506.0,535.0
517.0,501.0,520.0,522.0,502.0
525.0,505.0,515.0,531.0,459.0
529.0,506.0,509.0,538.0,436.0
530.0,511.0,510.0,544.0,425.0
524.0,504.0,498.0,537.0,418.0
513.0,494.0,493.0,532.0,427.0
503.0,494.0,488.0,522.0,449.0
495.0,500.0,488.0,511.0,472.0
497.0,507.0,501.0,503.0,524.0
503.0,511.0,515.0,495.0,569.0
505.0,514.0,524.0,493.0,595.0
503.0,509.0,523.0,495.0,596.0
504.0,509.0,529.0,496.0,592.0
502.0,507.0,526.0,492.0,602.0
504.0,506.0,527.0,497.0,600.0
514.0,506.0,525.0,500.0,568.0
521.0,504.0,521.0,510.0,522.0
531.0,508.0,520.0,524.0,484.0
530.0,503.0,515.0,535.0,441.0
522.0,505.0,511.0,538.0,421.0
522.0,507.0,505.0,543.0,410.0
517.0,498.0,498.0,538.0,414.0
510.0,501.0,490.0,530.0,425.0
502.0,493.0,486.0,517.0,452.0
494.0,500.0,491.0,508.0,498.0
496.0,506.0,504.0,499.0,549.0
494.0,512.0,516.0,493.0,588.0
498.0,509.0,524.0,489.0,598.0
504.0,509.0,529.0,494.0,594.0
503.0,510.0,527.0,494.0,593.0
516.0,508.0,526.0,494.0,592.0
511.0,506.0,527.0,498.0,580.0
514.0,507.0,523.0,504.0,546.0
524.0,505.0,519.0,515.0,507.0
527.0,505.0,516.0,527.0,470.0
532.0,502.0,509.0,535.0,441.0
533.0,507.0,508.0,539.0,426.0
526.0,505.0,501.0,539.0,414.0
515.0,499.0,491.0,530.0,423.0
508.0,497.0,486.0,525.0,432.0
496.0,497.0,484.0,514.0,473.0
493.0,502.0,497.0,505.0,519.0
498.0,509.0,511.0,498.0,562.0
503.0,513.0,522.0,494.0,590.0
506.0,509.0,522.0,491.0,590.0
512.0,508.0,525.0,493.0,585.0
518.0,509.0,528.0,489.0,586.0
512.0,506.0,523.0,491.0,587.0
513.0,503.0,525.0,501.0,569.0
516.0,504.0,521.0,505.0,535.0
522.0,505.0,521.0,519.0,503.0
527.0,505.0,516.0,529.0,458.0
524.0,504.0,511.0,538.0,429.0
522.0,506.0,508.0,544.0,411.0
519.0,503.0,499.0,537.0,414.0
510.0,496.0,490.0,532.0,422.0
502.0,492.0,485.0,521.0,443.0
497.0,496.0,489.0,512.0,481.0
497.0,499.0,500.0,499.0,526.0
496.0,508.0,514.0,499.0,581.0
502.0,513.0,526.0,494.0,600.0
507.0,510.0,526.0,496.0,588.0
514.0,510.0,529.0,495.0,587.0
510.0,508.0,526.0,495.0,588.0
514.0,509.0,528.0,494.0,582.0
514.0,505.0,526.0,500.0,560.0
518.0,505.0,524.0,511.0,527.0
520.0,502.0,519.0,522.0,488.0
529.0,502.0,514.0,535.0,443.0
529.0,506.0,510.0,540.0,425.0
529.0,505.0,506.0,540.0,420.0
519.0,501.0,497.0,532.0,424.0
511.0,496.0,489.0,529.0,435.0
501.0,495.0,487.0,513.0,460.0
494.0,497.0,491.0,506.0,506.0
496.0,506.0,505.0,499.0,536.0
496.0,512.0,520.0,495.0,571.0
502.0,511.0,525.0,494.0,584.0
505.0,511.0,527.0,493.0,589.0
504.0,509.0,528.0,495.0,599.0
501.0,506.0,527.0,494.0,593.0
506.0,508.0,528.0,496.0,577.0
515.0,506.0,523.0,503.0,546.0
518.0,503.0,519.0,513.0,515.0
526.0,504.0,512.0,524.0,473.0
538.0,506.0,511.0,533.0,433.0
535.0,507.0,510.0,537.0,418.0
525.0,504.0,503.0,539.0,418.0
514.0,497.0,493.0,533.0,423.0
508.0,498.0,488.0,525.0,431.0
497.0,497.0,488.0,513.0,471.0
495.0,501.0,497.0,504.0,518.0
500.0,509.0,509.0,497.0,557.0
500.0,515.0,522.0,490.0,594.0
505.0,512.0,525.0,492.0,591.0
505.0,508.0,528.0,494.0,591.0
509.0,508.0,529.0,490.0,587.0
505.0,504.0,526.0,494.0,588.0
513.0,507.0,528.0,504.0,562.0
516.0,501.0,524.0,509.0,533.0
521.0,503.0,518.0,516.0,498.0
526.0,502.0,515.0,532.0,458.0
530.0,509.0,511.0,538.0,432.0
531.0,508.0,508.0,541.0,420.0
521.0,503.0,496.0,534.0,417.0
512.0,496.0,492.0,530.0,424.0
500.0,491.0,484.0,520.0,446.0
494.0,499.0,490.0,510.0,486.0
495.0,505.0,500.0,502.0,528.0
499.0,510.0,511.0,495.0,573.0
503.0,514.0,523.0,494.0,592.0
509.0,511.0,527.0,493.0,588.0
506.0,512.0,532.0,494.0,589.0
505.0,508.0,527.0,493.0,589.0
508.0,507.0,527.0,494.0,585.0
513.0,506.0,527.0,499.0,558.0
516.0,503.0,526.0,511.0,527.0
522.0,505.0,524.0,522.0,485.0
529.0,502.0,521.0,537.0,441.0
529.0,506.0,512.0,544.0,421.0
521.0,503.0,505.0,543.0,416.0
519.0,501.0,497.0,537.0,417.0
510.0,496.0,491.0,525.0,428.0
499.0,493.0,485.0,514.0,457.0
494.0,498.0,492.0,508.0,505.0
498.0,506.0,510.0,496.0,554.0
499.0,513.0,524.0,492.0,592.0
501.0,511.0,530.0,492.0,598.0
506.0,509.0,520.0,492.0,595.0
507.0,506.0,516.0,492.0,595.0
506.0,505.0,521.0,492.0,593.0
507.0,506.0,526.0,494.0,577.0
510.0,502.0,523.0,508.0,548.0
520.0,504.0,520.0,512.0,514.0
525.0,504.0,516.0,524.0,475.0
533.0,504.0,512.0,538.0,437.0
532.0,508.0,510.0,540.0,425.0
521.0,503.0,503.0,543.0,419.0
514.0,500.0,494.0,533.0,424.0
510.0,496.0,487.0,524.0,435.0
500.0,494.0,486.0,513.0,473.0
492.0,500.0,495.0,503.0,520.0
496.0,508.0,509.0,495.0,554.0
500.0,513.0,526.0,494.0,591.0
507.0,510.0,524.0,493.0,588.0
511.0,510.0,525.0,493.0,586.0
509.0,507.0,527.0,492.0,591.0
508.0,506.0,524.0,492.0,587.0
515.0,506.0,527.0,502.0,563.0
518.0,505.0,528.0,515.0,532.0
519.0,503.0,521.0,525.0,496.0
528.0,505.0,512.0,537.0,452.0
530.0,506.0,512.0,542.0,431.0
528.0,510.0,508.0,549.0,416.0
521.0,502.0,497.0,530.0,418.0
511.0,497.0,491.0,522.0,426.0
501.0,493.0,483.0,514.0,449.0
495.0,498.0,492.0,509.0,490.0
496.0,506.0,500.0,501.0,532.0
496.0,512.0,513.0,491.0,574.0
500.0,511.0,524.0,492.0,594.0
509.0,511.0,526.0,493.0,585.0
510.0,508.0,527.0,494.0,583.0
506.0,505.0,528.0,493.0,583.0
511.0,507.0,529.0,497.0,571.0
513.0,509.0,527.0,501.0,544.0
517.0,503.0,523.0,511.0,516.0
523.0,505.0,521.0,524.0,503.0
528.0,504.0,516.0,537.0,452.0
528.0,508.0,509.0,538.0,427.0
529.0,506.0,504.0,539.0,415.0
524.0,503.0,497.0,536.0,417.0
