CH1,CH2,CH3,CH4
527.0,514.0,503.0,509.0
486.0,517.0,495.0,505.0
477.0,531.0,492.0,507.0
486.0,534.0,488.0,505.0
492.0,529.0,488.0,509.0
492.0,526.0,492.0,516.0
496.0,515.0,501.0,513.0
503.0,504.0,507.0,512.0
513.0,479.0,521.0,517.0
516.0,465.0,523.0,517.0
505.0,463.0,533.0,519.0
510.0,483.0,537.0,519.0
520.0,488.0,529.0,517.0
509.0,504.0,529.0,512.0
506.0,508.0,522.0,511.0
506.0,509.0,513.0,511.0
511.0,508.0,507.0,510.0
512.0,513.0,499.0,506.0
508.0,517.0,492.0,504.0
509.0,524.0,484.0,503.0
500.0,533.0,484.0,512.0
500.0,529.0,495.0,515.0
499.0,511.0,498.0,512.0
499.0,507.0,505.0,512.0
510.0,504.0,513.0,515.0
519.0,487.0,524.0,519.0
513.0,480.0,530.0,521.0
506.0,493.0,537.0,519.0
510.0,501.0,536.0,518.0
514.0,494.0,532.0,515.0
510.0,500.0,524.0,515.0
512.0,503.0,519.0,516.0
516.0,505.0,513.0,509.0
514.0,506.0,502.0,505.0
509.0,511.0,493.0,508.0
508.0,514.0,492.0,510.0
504.0,519.0,486.0,502.0
500.0,525.0,487.0,512.0
496.0,526.0,496.0,514.0
498.0,512.0,502.0,513.0
501.0,523.0,508.0,514.0
514.0,501.0,517.0,520.0
519.0,486.0,525.0,514.0
519.0,487.0,533.0,519.0
518.0,484.0,538.0,518.0
521.0,484.0,533.0,515.0
518.0,487.0,528.0,520.0
513.0,484.0,522.0,519.0
513.0,493.0,518.0,517.0
512.0,499.0,506.0,506.0
510.0,504.0,502.0,516.0
508.0,508.0,496.0,508.0
507.0,522.0,488.0,509.0
509.0,532.0,489.0,508.0
512.0,529.0,490.0,506.0
512.0,520.0,495.0,509.0
516.0,507.0,502.0,514.0
509.0,506.0,504.0,509.0
519.0,490.0,519.0,518.0
519.0,479.0,532.0,526.0
512.0,477.0,535.0,521.0
509.0,477.0,536.0,514.0
513.0,484.0,533.0,509.0
514.0,496.0,529.0,520.0
514.0,502.0,524.0,514.0
514.0,505.0,518.0,513.0
519.0,501.0,508.0,508.0
515.0,507.0,502.0,507.0
512.0,516.0,493.0,507.0
508.0,525.0,489.0,509.0
507.0,533.0,489.0,507.0
506.0,533.0,491.0,507.0
506.0,529.0,496.0,510.0
504.0,521.0,504.0,513.0
504.0,503.0,519.0,516.0
501.0,501.0,524.0,515.0
518.0,473.0,532.0,520.0
519.0,478.0,536.0,516.0
527.0,474.0,534.0,518.0
531.0,473.0,531.0,512.0
524.0,486.0,526.0,512.0
519.0,485.0,521.0,511.0
517.0,482.0,514.0,513.0
513.0,498.0,506.0,510.0
506.0,522.0,498.0,507.0
495.0,527.0,493.0,515.0
489.0,521.0,485.0,512.0
497.0,510.0,482.0,499.0
500.0,531.0,489.0,505.0
493.0,521.0,500.0,512.0
505.0,516.0,506.0,512.0
516.0,504.0,515.0,517.0
522.0,496.0,524.0,518.0
525.0,488.0,532.0,522.0
527.0,489.0,538.0,520.0
523.0,491.0,535.0,523.0
510.0,501.0,529.0,516.0
503.0,504.0,522.0,517.0
506.0,505.0,512.0,516.0
511.0,499.0,504.0,503.0
510.0,493.0,500.0,507.0
498.0,508.0,493.0,507.0
490.0,532.0,490.0,504.0
495.0,549.0,487.0,510.0
498.0,537.0,485.0,517.0
497.0,537.0,490.0,508.0
511.0,534.0,501.0,518.0
517.0,523.0,505.0,507.0
519.0,495.0,511.0,505.0
521.0,482.0,525.0,516.0
522.0,487.0,536.0,528.0
518.0,495.0,540.0,527.0
522.0,493.0,535.0,524.0
520.0,495.0,523.0,514.0
518.0,480.0,517.0,504.0
518.0,496.0,510.0,509.0
520.0,507.0,507.0,510.0
513.0,511.0,497.0,511.0
504.0,515.0,498.0,508.0
506.0,522.0,489.0,502.0
505.0,524.0,486.0,502.0
504.0,518.0,489.0,508.0
509.0,510.0,496.0,509.0
509.0,510.0,503.0,513.0
506.0,496.0,516.0,517.0
508.0,485.0,526.0,521.0
518.0,484.0,531.0,515.0
519.0,498.0,533.0,516.0
522.0,493.0,536.0,521.0
524.0,494.0,532.0,520.0
530.0,490.0,526.0,516.0
538.0,492.0,516.0,512.0
529.0,515.0,509.0,513.0
526.0,514.0,504.0,510.0
517.0,518.0,497.0,506.0
508.0,520.0,492.0,511.0
474.0,534.0,489.0,507.0
471.0,547.0,488.0,511.0
481.0,545.0,489.0,509.0
487.0,526.0,498.0,509.0
491.0,509.0,505.0,512.0
511.0,491.0,516.0,517.0
518.0,469.0,526.0,521.0
521.0,462.0,534.0,521.0
516.0,474.0,535.0,521.0
510.0,473.0,534.0,519.0
509.0,486.0,525.0,515.0
511.0,494.0,523.0,510.0
513.0,508.0,517.0,512.0
509.0,525.0,509.0,511.0
514.0,525.0,494.0,507.0
511.0,534.0,494.0,507.0
509.0,517.0,489.0,507.0
504.0,534.0,485.0,506.0
497.0,535.0,489.0,505.0
498.0,525.0,493.0,507.0
503.0,504.0,501.0,510.0
507.0,501.0,508.0,513.0
508.0,509.0,518.0,521.0
515.0,490.0,528.0,527.0
527.0,480.0,531.0,520.0
520.0,479.0,529.0,511.0
524.0,484.0,532.0,517.0
523.0,476.0,531.0,521.0
519.0,486.0,523.0,518.0
515.0,526.0,517.0,519.0
513.0,513.0,512.0,514.0
508.0,526.0,499.0,509.0
507.0,523.0,495.0,504.0
505.0,531.0,489.0,513.0
501.0,535.0,490.0,516.0
499.0,531.0,490.0,508.0
501.0,526.0,493.0,508.0
504.0,521.0,507.0,511.0
509.0,498.0,512.0,517.0
517.0,488.0,524.0,513.0
522.0,481.0,531.0,518.0
520.0,477.0,540.0,521.0
517.0,481.0,539.0,520.0
517.0,487.0,533.0,521.0
514.0,490.0,523.0,507.0
515.0,498.0,514.0,503.0
509.0,502.0,511.0,515.0
510.0,504.0,506.0,515.0
509.0,520.0,498.0,512.0
509.0,527.0,491.0,512.0
506.0,528.0,488.0,515.0
499.0,532.0,488.0,510.0
499.0,529.0,492.0,512.0
502.0,520.0,498.0,517.0
502.0,521.0,501.0,508.0
514.0,498.0,517.0,511.0
516.0,482.0,527.0,515.0
520.0,481.0,535.0,517.0
523.0,481.0,547.0,521.0
524.0,486.0,535.0,528.0
522.0,493.0,533.0,523.0
518.0,502.0,521.0,516.0
513.0,502.0,514.0,514.0
518.0,503.0,513.0,515.0
515.0,513.0,506.0,520.0
513.0,514.0,498.0,515.0
507.0,524.0,492.0,513.0
503.0,530.0,490.0,509.0
502.0,531.0,491.0,509.0
500.0,530.0,492.0,514.0
502.0,517.0,498.0,501.0
507.0,495.0,509.0,514.0
516.0,488.0,517.0,491.0
520.0,484.0,528.0,513.0
521.0,480.0,536.0,522.0
520.0,486.0,536.0,523.0
520.0,490.0,538.0,529.0
517.0,499.0,525.0,519.0
514.0,497.0,515.0,506.0
514.0,499.0,507.0,501.0
516.0,504.0,511.0,510.0
513.0,513.0,485.0,513.0
507.0,513.0,490.0,509.0
503.0,516.0,492.0,512.0
499.0,532.0,489.0,508.0
499.0,525.0,490.0,510.0
494.0,518.0,495.0,501.0
501.0,517.0,502.0,508.0
514.0,510.0,512.0,511.0
521.0,496.0,523.0,515.0
523.0,477.0,532.0,520.0
521.0,473.0,535.0,519.0
523.0,478.0,532.0,517.0
514.0,481.0,537.0,516.0
512.0,488.0,523.0,513.0
511.0,497.0,526.0,523.0
512.0,517.0,511.0,513.0
516.0,522.0,503.0,505.0
508.0,536.0,496.0,513.0
509.0,535.0,491.0,508.0
506.0,520.0,484.0,504.0
500.0,515.0,487.0,504.0
497.0,513.0,493.0,506.0
495.0,524.0,501.0,508.0
501.0,506.0,509.0,510.0
513.0,478.0,514.0,512.0
520.0,483.0,528.0,517.0
523.0,498.0,533.0,518.0
521.0,506.0,539.0,519.0
521.0,486.0,534.0,518.0
521.0,480.0,528.0,518.0
521.0,484.0,523.0,514.0
522.0,486.0,514.0,511.0
521.0,494.0,510.0,515.0
518.0,513.0,499.0,515.0
518.0,524.0,495.0,509.0
504.0,533.0,492.0,516.0
504.0,533.0,484.0,502.0
503.0,535.0,489.0,510.0
500.0,517.0,496.0,505.0
499.0,501.0,502.0,508.0
501.0,515.0,508.0,511.0
516.0,496.0,523.0,511.0
520.0,479.0,528.0,522.0
520.0,479.0,528.0,514.0
517.0,480.0,537.0,514.0
520.0,475.0,536.0,518.0
519.0,482.0,529.0,521.0
518.0,491.0,522.0,517.0
513.0,504.0,518.0,519.0
521.0,489.0,503.0,503.0
510.0,494.0,501.0,508.0
503.0,505.0,497.0,508.0
502.0,529.0,485.0,507.0
497.0,552.0,492.0,532.0
507.0,536.0,485.0,497.0
497.0,535.0,485.0,476.0
502.0,496.0,506.0,504.0
508.0,480.0,518.0,537.0
513.0,494.0,525.0,541.0
511.0,489.0,529.0,516.0
516.0,493.0,539.0,515.0
515.0,493.0,539.0,518.0
512.0,495.0,533.0,520.0
512.0,508.0,525.0,520.0
515.0,511.0,516.0,519.0
514.0,521.0,512.0,517.0
515.0,515.0,502.0,513.0
510.0,531.0,496.0,509.0
506.0,533.0,490.0,508.0
505.0,512.0,486.0,507.0
501.0,533.0,488.0,507.0
498.0,537.0,489.0,498.0
498.0,524.0,498.0,507.0
500.0,521.0,509.0,522.0
515.0,491.0,522.0,521.0
519.0,481.0,529.0,517.0
522.0,473.0,534.0,519.0
519.0,480.0,540.0,523.0
520.0,486.0,536.0,523.0
523.0,504.0,525.0,511.0
516.0,522.0,519.0,509.0
512.0,507.0,518.0,521.0
518.0,489.0,509.0,516.0
515.0,505.0,500.0,510.0
514.0,511.0,494.0,509.0
508.0,521.0,491.0,506.0
505.0,533.0,487.0,504.0
498.0,532.0,487.0,508.0
503.0,524.0,492.0,508.0
502.0,516.0,503.0,509.0
504.0,511.0,508.0,510.0
513.0,489.0,519.0,512.0
516.0,492.0,531.0,519.0
521.0,481.0,538.0,520.0
524.0,477.0,537.0,519.0
521.0,481.0,533.0,523.0
517.0,488.0,528.0,519.0
516.0,497.0,521.0,515.0
515.0,502.0,509.0,512.0
512.0,506.0,505.0,513.0
509.0,523.0,495.0,511.0
506.0,532.0,490.0,510.0
505.0,523.0,488.0,504.0
504.0,523.0,487.0,503.0
501.0,531.0,490.0,500.0
502.0,518.0,496.0,507.0
505.0,501.0,504.0,498.0
512.0,490.0,514.0,511.0
518.0,479.0,525.0,520.0
526.0,479.0,535.0,519.0
522.0,487.0,538.0,515.0
522.0,459.0,534.0,518.0
528.0,460.0,530.0,521.0
525.0,455.0,524.0,520.0
533.0,487.0,514.0,516.0
522.0,525.0,512.0,516.0
510.0,532.0,503.0,512.0
503.0,515.0,495.0,510.0
504.0,494.0,491.0,506.0
505.0,498.0,487.0,501.0
501.0,505.0,490.0,506.0
500.0,501.0,490.0,505.0
495.0,543.0,501.0,509.0
490.0,562.0,503.0,501.0
505.0,536.0,520.0,513.0
517.0,522.0,530.0,517.0
514.0,500.0,535.0,519.0
518.0,481.0,538.0,519.0
516.0,493.0,534.0,518.0
518.0,506.0,527.0,516.0
518.0,490.0,522.0,516.0
513.0,511.0,516.0,515.0
513.0,519.0,508.0,510.0
510.0,530.0,498.0,510.0
506.0,555.0,494.0,500.0
502.0,547.0,489.0,505.0
500.0,523.0,489.0,506.0
505.0,534.0,490.0,504.0
504.0,513.0,496.0,503.0
502.0,502.0,502.0,504.0
504.0,515.0,508.0,505.0
510.0,493.0,523.0,515.0
515.0,480.0,534.0,520.0
517.0,450.0,532.0,522.0
520.0,440.0,536.0,519.0
521.0,441.0,531.0,519.0
516.0,453.0,527.0,513.0
511.0,477.0,518.0,516.0
510.0,521.0,514.0,512.0
515.0,522.0,502.0,515.0
514.0,551.0,498.0,509.0
505.0,559.0,495.0,508.0
505.0,517.0,488.0,508.0
508.0,513.0,488.0,506.0
499.0,506.0,492.0,508.0
501.0,526.0,498.0,505.0
499.0,542.0,505.0,506.0
501.0,540.0,513.0,509.0
504.0,517.0,525.0,511.0
510.0,519.0,532.0,513.0
508.0,507.0,534.0,513.0
519.0,462.0,536.0,514.0
523.0,470.0,530.0,516.0
519.0,475.0,523.0,513.0
524.0,480.0,517.0,514.0
520.0,494.0,511.0,512.0
519.0,497.0,502.0,508.0
511.0,518.0,494.0,513.0
514.0,533.0,490.0,510.0
505.0,529.0,483.0,508.0
497.0,535.0,488.0,509.0
493.0,552.0,490.0,507.0
499.0,530.0,499.0,507.0
501.0,514.0,510.0,507.0
515.0,493.0,521.0,511.0
514.0,480.0,531.0,511.0
523.0,474.0,535.0,512.0
518.0,474.0,539.0,514.0
519.0,477.0,534.0,512.0
514.0,495.0,526.0,514.0
514.0,513.0,523.0,512.0
516.0,510.0,515.0,514.0
516.0,512.0,507.0,513.0
514.0,514.0,507.0,516.0
513.0,515.0,505.0,512.0
511.0,520.0,490.0,505.0
506.0,526.0,484.0,501.0
506.0,511.0,490.0,495.0
501.0,503.0,489.0,491.0
502.0,496.0,498.0,509.0
503.0,483.0,509.0,510.0
517.0,499.0,521.0,505.0
513.0,507.0,531.0,507.0
516.0,493.0,533.0,507.0
521.0,483.0,534.0,508.0
528.0,487.0,525.0,507.0
522.0,487.0,523.0,506.0
520.0,492.0,517.0,511.0
511.0,520.0,510.0,513.0
509.0,530.0,502.0,512.0
509.0,530.0,496.0,510.0
507.0,525.0,492.0,507.0
504.0,529.0,488.0,506.0
500.0,530.0,490.0,502.0
497.0,530.0,493.0,503.0
500.0,523.0,503.0,503.0
503.0,515.0,511.0,511.0
513.0,502.0,521.0,507.0
519.0,483.0,527.0,505.0
516.0,477.0,535.0,507.0
520.0,483.0,534.0,508.0
514.0,489.0,532.0,508.0
514.0,505.0,521.0,504.0
507.0,516.0,517.0,507.0
511.0,518.0,505.0,506.0
511.0,515.0,496.0,506.0
513.0,493.0,489.0,506.0
510.0,495.0,486.0,510.0
506.0,510.0,485.0,509.0
504.0,522.0,486.0,511.0
500.0,530.0,491.0,510.0
498.0,518.0,499.0,506.0
501.0,501.0,513.0,506.0
501.0,489.0,521.0,504.0
515.0,480.0,532.0,506.0
516.0,510.0,539.0,506.0
511.0,508.0,508.0,517.0
515.0,504.0,511.0,518.0
514.0,509.0,509.0,517.0
513.0,508.0,514.0,516.0
520.0,492.0,516.0,515.0
520.0,506.0,522.0,510.0
516.0,523.0,522.0,506.0
513.0,521.0,521.0,503.0
515.0,500.0,516.0,505.0
514.0,483.0,515.0,502.0
508.0,497.0,510.0,504.0
507.0,502.0,509.0,509.0
511.0,500.0,505.0,504.0
517.0,497.0,504.0,509.0
514.0,500.0,502.0,514.0
509.0,501.0,505.0,517.0
509.0,504.0,508.0,522.0
508.0,508.0,511.0,524.0
505.0,519.0,512.0,522.0
507.0,512.0,517.0,527.0
513.0,497.0,517.0,518.0
517.0,493.0,518.0,514.0
519.0,499.0,521.0,508.0
513.0,496.0,519.0,511.0
509.0,507.0,521.0,505.0
508.0,514.0,519.0,504.0
509.0,510.0,512.0,503.0
505.0,511.0,505.0,505.0
507.0,513.0,506.0,505.0
510.0,503.0,504.0,509.0
508.0,501.0,505.0,513.0
508.0,505.0,504.0,511.0
505.0,510.0,505.0,518.0
506.0,512.0,507.0,523.0
511.0,513.0,510.0,523.0
513.0,509.0,512.0,518.0
513.0,500.0,514.0,520.0
519.0,486.0,515.0,519.0
528.0,491.0,518.0,512.0
521.0,497.0,520.0,510.0
517.0,508.0,516.0,505.0
512.0,513.0,515.0,506.0
509.0,507.0,516.0,503.0
508.0,504.0,515.0,505.0
504.0,509.0,514.0,506.0
507.0,507.0,511.0,505.0
507.0,497.0,510.0,510.0
506.0,491.0,504.0,514.0
501.0,501.0,503.0,515.0
501.0,513.0,504.0,517.0
508.0,514.0,507.0,520.0
511.0,509.0,508.0,523.0
513.0,510.0,513.0,521.0
517.0,505.0,516.0,518.0
528.0,499.0,515.0,513.0
526.0,497.0,516.0,509.0
521.0,499.0,515.0,506.0
516.0,501.0,519.0,507.0
514.0,503.0,518.0,506.0
512.0,508.0,513.0,506.0
504.0,519.0,511.0,508.0
500.0,516.0,508.0,507.0
506.0,510.0,500.0,508.0
512.0,496.0,499.0,509.0
510.0,480.0,505.0,513.0
508.0,489.0,505.0,518.0
504.0,494.0,510.0,522.0
505.0,514.0,512.0,523.0
511.0,509.0,513.0,522.0
512.0,517.0,509.0,511.0
518.0,504.0,512.0,513.0
526.0,493.0,514.0,510.0
525.0,496.0,512.0,505.0
521.0,500.0,517.0,503.0
515.0,498.0,517.0,509.0
509.0,516.0,516.0,504.0
510.0,517.0,514.0,504.0
502.0,523.0,510.0,504.0
500.0,523.0,506.0,504.0
504.0,495.0,502.0,508.0
508.0,502.0,505.0,511.0
507.0,505.0,505.0,517.0
508.0,491.0,507.0,522.0
507.0,509.0,507.0,521.0
508.0,526.0,516.0,523.0
511.0,510.0,512.0,519.0
510.0,498.0,513.0,518.0
518.0,494.0,512.0,516.0
520.0,502.0,517.0,512.0
521.0,499.0,517.0,510.0
518.0,511.0,515.0,507.0
515.0,506.0,515.0,504.0
509.0,517.0,513.0,504.0
508.0,529.0,514.0,506.0
503.0,535.0,514.0,505.0
503.0,528.0,511.0,502.0
505.0,507.0,506.0,505.0
508.0,476.0,502.0,512.0
508.0,503.0,502.0,516.0
505.0,512.0,505.0,518.0
507.0,504.0,508.0,521.0
512.0,499.0,511.0,524.0
512.0,497.0,512.0,520.0
515.0,499.0,516.0,516.0
518.0,497.0,517.0,513.0
517.0,496.0,522.0,510.0
514.0,498.0,521.0,508.0
513.0,504.0,519.0,503.0
511.0,509.0,513.0,507.0
508.0,517.0,514.0,504.0
508.0,524.0,510.0,504.0
509.0,529.0,507.0,503.0
514.0,503.0,507.0,507.0
511.0,506.0,502.0,510.0
510.0,509.0,505.0,517.0
509.0,503.0,504.0,519.0
508.0,510.0,505.0,518.0
509.0,510.0,505.0,520.0
515.0,503.0,511.0,518.0
516.0,502.0,514.0,517.0
521.0,489.0,516.0,516.0
522.0,488.0,515.0,513.0
520.0,492.0,519.0,510.0
519.0,500.0,519.0,507.0
513.0,508.0,518.0,506.0
512.0,511.0,517.0,506.0
510.0,507.0,514.0,506.0
506.0,506.0,512.0,505.0
505.0,507.0,508.0,509.0
509.0,504.0,505.0,502.0
503.0,503.0,505.0,514.0
507.0,507.0,506.0,517.0
506.0,515.0,507.0,521.0
506.0,515.0,506.0,522.0
506.0,514.0,508.0,524.0
509.0,515.0,506.0,515.0
514.0,503.0,513.0,515.0
525.0,490.0,514.0,512.0
524.0,486.0,518.0,513.0
517.0,493.0,520.0,508.0
516.0,497.0,521.0,505.0
511.0,496.0,520.0,503.0
505.0,503.0,516.0,502.0
507.0,500.0,511.0,501.0
502.0,508.0,508.0,505.0
503.0,505.0,504.0,506.0
508.0,509.0,498.0,505.0
508.0,507.0,501.0,513.0
509.0,515.0,504.0,516.0
510.0,517.0,504.0,522.0
509.0,516.0,508.0,523.0
513.0,510.0,510.0,522.0
513.0,508.0,514.0,518.0
511.0,506.0,520.0,520.0
520.0,495.0,524.0,516.0
522.0,494.0,524.0,510.0
521.0,496.0,521.0,508.0
516.0,504.0,519.0,509.0
513.0,512.0,517.0,503.0
510.0,508.0,512.0,503.0
507.0,504.0,508.0,495.0
505.0,506.0,507.0,503.0
507.0,498.0,505.0,508.0
509.0,502.0,506.0,508.0
508.0,506.0,503.0,510.0
505.0,523.0,505.0,518.0
505.0,526.0,508.0,520.0
509.0,518.0,509.0,519.0
514.0,504.0,511.0,516.0
512.0,505.0,515.0,515.0
520.0,495.0,518.0,519.0
524.0,487.0,521.0,514.0
519.0,495.0,521.0,506.0
516.0,489.0,516.0,506.0
511.0,502.0,518.0,505.0
509.0,527.0,515.0,504.0
509.0,509.0,514.0,505.0
502.0,510.0,514.0,506.0
500.0,511.0,505.0,504.0
506.0,501.0,504.0,506.0
507.0,503.0,506.0,512.0
505.0,501.0,508.0,515.0
505.0,524.0,507.0,523.0
504.0,526.0,508.0,523.0
508.0,523.0,511.0,526.0
513.0,525.0,513.0,520.0
512.0,504.0,515.0,517.0
525.0,471.0,516.0,511.0
522.0,483.0,518.0,507.0
521.0,488.0,520.0,504.0
516.0,493.0,524.0,505.0
511.0,500.0,518.0,504.0
506.0,508.0,516.0,504.0
504.0,496.0,517.0,504.0
503.0,512.0,507.0,511.0
503.0,520.0,504.0,505.0
507.0,520.0,501.0,507.0
507.0,525.0,503.0,512.0
506.0,498.0,501.0,517.0
507.0,486.0,506.0,522.0
506.0,498.0,510.0,524.0
513.0,493.0,510.0,525.0
513.0,491.0,516.0,523.0
519.0,489.0,519.0,518.0
523.0,478.0,519.0,517.0
517.0,492.0,526.0,514.0
512.0,500.0,520.0,506.0
508.0,500.0,521.0,500.0
505.0,508.0,515.0,508.0
503.0,508.0,509.0,500.0
502.0,510.0,506.0,504.0
502.0,514.0,506.0,504.0
513.0,501.0,503.0,507.0
516.0,506.0,498.0,509.0
512.0,502.0,504.0,512.0
508.0,497.0,505.0,516.0
509.0,499.0,503.0,520.0
508.0,508.0,508.0,520.0
517.0,503.0,511.0,521.0
510.0,548.0,515.0,519.0
519.0,523.0,516.0,518.0
521.0,506.0,521.0,515.0
518.0,506.0,522.0,507.0
517.0,495.0,520.0,504.0
513.0,504.0,518.0,506.0
510.0,505.0,512.0,498.0
509.0,508.0,509.0,498.0
503.0,507.0,512.0,508.0
503.0,510.0,509.0,507.0
506.0,503.0,504.0,506.0
503.0,506.0,508.0,511.0
503.0,508.0,503.0,514.0
503.0,512.0,510.0,518.0
506.0,514.0,507.0,521.0
515.0,513.0,509.0,521.0
516.0,509.0,512.0,518.0
512.0,508.0,515.0,514.0
523.0,492.0,517.0,511.0
524.0,491.0,516.0,510.0
517.0,499.0,519.0,509.0
511.0,503.0,524.0,506.0
517.0,509.0,518.0,504.0
508.0,512.0,516.0,503.0
510.0,505.0,508.0,504.0
506.0,512.0,509.0,503.0
507.0,503.0,506.0,508.0
506.0,505.0,504.0,508.0
509.0,507.0,503.0,513.0
510.0,508.0,505.0,516.0
506.0,516.0,504.0,519.0
507.0,520.0,506.0,524.0
510.0,516.0,510.0,523.0
514.0,515.0,514.0,520.0
518.0,492.0,514.0,517.0
524.0,482.0,524.0,513.0
525.0,496.0,519.0,508.0
524.0,494.0,520.0,507.0
516.0,497.0,516.0,505.0
511.0,506.0,515.0,503.0
504.0,505.0,518.0,505.0
505.0,499.0,511.0,503.0
503.0,508.0,506.0,505.0
506.0,499.0,508.0,502.0
506.0,503.0,501.0,509.0
507.0,509.0,501.0,511.0
506.0,516.0,508.0,516.0
506.0,517.0,508.0,522.0
505.0,516.0,511.0,523.0
508.0,513.0,510.0,522.0
510.0,519.0,515.0,518.0
511.0,500.0,524.0,517.0
514.0,485.0,520.0,513.0
520.0,448.0,522.0,509.0
518.0,468.0,522.0,506.0
518.0,502.0,519.0,503.0
517.0,529.0,518.0,505.0
513.0,520.0,514.0,504.0
505.0,519.0,504.0,502.0
505.0,512.0,509.0,507.0
510.0,503.0,509.0,510.0
512.0,500.0,505.0,509.0
509.0,512.0,502.0,512.0
505.0,516.0,506.0,526.0
506.0,516.0,505.0,525.0
507.0,513.0,511.0,525.0
510.0,511.0,514.0,523.0
513.0,514.0,517.0,520.0
522.0,491.0,518.0,513.0
518.0,490.0,519.0,512.0
520.0,499.0,522.0,507.0
515.0,503.0,520.0,506.0
511.0,510.0,517.0,506.0
506.0,514.0,518.0,502.0
508.0,500.0,513.0,504.0
503.0,493.0,510.0,504.0
509.0,478.0,507.0,505.0
510.0,497.0,505.0,505.0
508.0,527.0,505.0,515.0
507.0,527.0,505.0,514.0
506.0,522.0,505.0,521.0
507.0,515.0,509.0,522.0
517.0,495.0,510.0,522.0
515.0,504.0,515.0,518.0
517.0,505.0,513.0,523.0
523.0,493.0,520.0,515.0
525.0,492.0,519.0,512.0
517.0,494.0,520.0,508.0
513.0,502.0,522.0,507.0
507.0,507.0,519.0,507.0
507.0,504.0,515.0,510.0
508.0,499.0,515.0,507.0
506.0,509.0,506.0,504.0
504.0,504.0,508.0,507.0
501.0,510.0,504.0,511.0
504.0,507.0,502.0,514.0
502.0,518.0,507.0,516.0
505.0,523.0,506.0,519.0
507.0,524.0,508.0,520.0
513.0,516.0,509.0,517.0
513.0,508.0,514.0,516.0
521.0,495.0,515.0,513.0
521.0,486.0,516.0,511.0
519.0,488.0,520.0,507.0
517.0,490.0,517.0,507.0
513.0,483.0,519.0,510.0
508.0,515.0,520.0,508.0
510.0,527.0,513.0,502.0
507.0,527.0,506.0,502.0
504.0,526.0,508.0,508.0
510.0,521.0,508.0,512.0
507.0,500.0,509.0,515.0
506.0,497.0,503.0,517.0
499.0,506.0,503.0,520.0
503.0,506.0,507.0,523.0
506.0,503.0,511.0,522.0
512.0,493.0,514.0,518.0
510.0,500.0,515.0,516.0
527.0,486.0,523.0,516.0
530.0,492.0,525.0,512.0
525.0,489.0,518.0,508.0
519.0,502.0,519.0,508.0
518.0,510.0,516.0,502.0
509.0,523.0,513.0,506.0
505.0,510.0,516.0,506.0
504.0,507.0,510.0,505.0
510.0,502.0,506.0,503.0
507.0,502.0,505.0,508.0
508.0,509.0,501.0,511.0
503.0,516.0,503.0,513.0
504.0,523.0,504.0,518.0
505.0,524.0,510.0,518.0
511.0,513.0,510.0,516.0
511.0,512.0,513.0,517.0
512.0,487.0,515.0,518.0
522.0,475.0,516.0,513.0
520.0,494.0,521.0,509.0
520.0,496.0,518.0,507.0
512.0,493.0,515.0,503.0
508.0,504.0,516.0,502.0
500.0,529.0,511.0,504.0
506.0,527.0,510.0,504.0
502.0,514.0,506.0,503.0
509.0,486.0,502.0,508.0
507.0,482.0,502.0,512.0
512.0,497.0,503.0,517.0
513.0,498.0,503.0,520.0
512.0,500.0,506.0,520.0
510.0,505.0,509.0,521.0
518.0,508.0,516.0,519.0
514.0,512.0,518.0,519.0
520.0,494.0,520.0,513.0
522.0,488.0,525.0,513.0
521.0,494.0,522.0,509.0
513.0,502.0,521.0,505.0
508.0,506.0,518.0,504.0
504.0,507.0,516.0,504.0
505.0,502.0,511.0,504.0
505.0,504.0,506.0,504.0
504.0,502.0,506.0,502.0
504.0,504.0,504.0,510.0
506.0,506.0,505.0,512.0
504.0,514.0,506.0,519.0
504.0,511.0,507.0,522.0
509.0,515.0,509.0,523.0
509.0,500.0,511.0,523.0
517.0,496.0,512.0,519.0
513.0,511.0,516.0,515.0
519.0,493.0,520.0,516.0
517.0,499.0,522.0,511.0
518.0,495.0,523.0,508.0
512.0,501.0,524.0,506.0
507.0,505.0,518.0,504.0
501.0,524.0,511.0,502.0
506.0,516.0,506.0,499.0
505.0,523.0,502.0,501.0
508.0,518.0,504.0,504.0
509.0,503.0,501.0,506.0
507.0,495.0,502.0,512.0
507.0,507.0,504.0,517.0
503.0,505.0,505.0,519.0
509.0,507.0,507.0,523.0
510.0,506.0,510.0,519.0
515.0,503.0,512.0,517.0
514.0,494.0,514.0,517.0
521.0,492.0,518.0,513.0
521.0,497.0,520.0,508.0
521.0,495.0,519.0,507.0
515.0,500.0,518.0,500.0
513.0,504.0,512.0,505.0
507.0,508.0,516.0,506.0
510.0,502.0,512.0,503.0
504.0,513.0,505.0,501.0
502.0,506.0,507.0,507.0
505.0,510.0,501.0,510.0
502.0,514.0,510.0,517.0
504.0,522.0,506.0,519.0
506.0,528.0,503.0,522.0
508.0,525.0,510.0,522.0
513.0,504.0,509.0,521.0
514.0,501.0,511.0,517.0
523.0,486.0,519.0,512.0
522.0,482.0,515.0,512.0
520.0,482.0,520.0,508.0
518.0,500.0,520.0,507.0
512.0,504.0,518.0,505.0
510.0,505.0,515.0,505.0
509.0,513.0,510.0,505.0
506.0,521.0,505.0,504.0
505.0,526.0,505.0,502.0
508.0,525.0,505.0,507.0
504.0,502.0,503.0,514.0
506.0,505.0,505.0,518.0
503.0,512.0,505.0,522.0
507.0,508.0,510.0,518.0
511.0,497.0,512.0,519.0
519.0,481.0,517.0,522.0
509.0,505.0,518.0,521.0
519.0,507.0,519.0,514.0
522.0,504.0,520.0,507.0
524.0,499.0,519.0,506.0
514.0,507.0,517.0,504.0
511.0,508.0,515.0,506.0
503.0,514.0,513.0,501.0
506.0,506.0,511.0,503.0
505.0,503.0,509.0,506.0
513.0,498.0,505.0,507.0
513.0,502.0,505.0,509.0
507.0,503.0,504.0,513.0
505.0,516.0,507.0,519.0
505.0,506.0,508.0,522.0
507.0,510.0,513.0,523.0
510.0,514.0,512.0,520.0
512.0,509.0,512.0,519.0
516.0,497.0,517.0,516.0
518.0,495.0,522.0,514.0
519.0,498.0,522.0,511.0
513.0,500.0,522.0,507.0
510.0,500.0,520.0,514.0
507.0,504.0,512.0,504.0
502.0,506.0,510.0,503.0
515.0,502.0,509.0,503.0
501.0,510.0,513.0,506.0
510.0,503.0,507.0,504.0
509.0,510.0,506.0,510.0
509.0,519.0,503.0,513.0
505.0,515.0,500.0,518.0
507.0,513.0,505.0,521.0
506.0,511.0,510.0,524.0
511.0,501.0,510.0,521.0
513.0,503.0,513.0,518.0
521.0,497.0,518.0,513.0
520.0,488.0,521.0,515.0
515.0,488.0,516.0,506.0
512.0,494.0,520.0,505.0
508.0,500.0,523.0,509.0
504.0,503.0,521.0,509.0
502.0,513.0,514.0,508.0
503.0,525.0,510.0,506.0
509.0,527.0,506.0,505.0
512.0,525.0,501.0,506.0
511.0,492.0,501.0,509.0
509.0,499.0,512.0,516.0
505.0,519.0,504.0,515.0
508.0,512.0,508.0,517.0
510.0,511.0,510.0,514.0
518.0,499.0,512.0,518.0
512.0,508.0,514.0,519.0
522.0,493.0,524.0,514.0
524.0,484.0,521.0,511.0
519.0,502.0,521.0,508.0
516.0,523.0,516.0,507.0
509.0,521.0,515.0,507.0
503.0,519.0,513.0,510.0
510.0,493.0,512.0,504.0
504.0,492.0,508.0,505.0
510.0,474.0,507.0,507.0
509.0,485.0,505.0,510.0
513.0,492.0,502.0,509.0
511.0,502.0,504.0,516.0
508.0,507.0,504.0,520.0
509.0,509.0,505.0,522.0
516.0,513.0,512.0,521.0
519.0,514.0,513.0,517.0
523.0,507.0,515.0,517.0
527.0,499.0,517.0,513.0
523.0,492.0,520.0,509.0
517.0,495.0,520.0,504.0
512.0,504.0,520.0,504.0
508.0,512.0,517.0,503.0
503.0,515.0,514.0,504.0
504.0,514.0,511.0,503.0
497.0,517.0,508.0,506.0
506.0,508.0,505.0,508.0
506.0,507.0,504.0,510.0
506.0,511.0,499.0,514.0
507.0,507.0,504.0,518.0
508.0,521.0,506.0,522.0
503.0,520.0,519.0,525.0
511.0,501.0,512.0,522.0
512.0,503.0,517.0,521.0
521.0,494.0,519.0,517.0
521.0,494.0,524.0,516.0
521.0,498.0,520.0,508.0
515.0,503.0,521.0,505.0
512.0,503.0,519.0,504.0
507.0,505.0,512.0,496.0
506.0,501.0,513.0,504.0
504.0,507.0,510.0,504.0
503.0,493.0,508.0,507.0
508.0,494.0,505.0,509.0
507.0,514.0,506.0,512.0
507.0,519.0,500.0,517.0
509.0,521.0,503.0,523.0
511.0,513.0,505.0,524.0
511.0,500.0,510.0,522.0
519.0,492.0,512.0,521.0
515.0,505.0,513.0,518.0
523.0,495.0,521.0,515.0
518.0,502.0,519.0,511.0
513.0,516.0,521.0,504.0
510.0,518.0,518.0,511.0
508.0,514.0,519.0,507.0
508.0,507.0,517.0,510.0
513.0,514.0,515.0,505.0
504.0,508.0,512.0,508.0
509.0,501.0,503.0,506.0
512.0,507.0,500.0,506.0
507.0,505.0,500.0,510.0
505.0,506.0,504.0,521.0
507.0,504.0,505.0,524.0
506.0,509.0,511.0,523.0
514.0,507.0,512.0,521.0
515.0,511.0,514.0,515.0
519.0,499.0,511.0,517.0
525.0,498.0,516.0,513.0
523.0,499.0,521.0,510.0
519.0,497.0,520.0,507.0
512.0,500.0,518.0,507.0
511.0,498.0,516.0,507.0
506.0,509.0,514.0,504.0
512.0,516.0,510.0,506.0
507.0,515.0,514.0,508.0
511.0,505.0,511.0,509.0
510.0,497.0,504.0,510.0
506.0,500.0,506.0,518.0
505.0,518.0,514.0,517.0
509.0,528.0,501.0,516.0
507.0,525.0,506.0,522.0
514.0,510.0,511.0,519.0
517.0,492.0,515.0,517.0
527.0,484.0,517.0,511.0
526.0,484.0,520.0,511.0
524.0,491.0,524.0,508.0
519.0,490.0,521.0,505.0
511.0,498.0,519.0,504.0
501.0,508.0,516.0,504.0
507.0,506.0,512.0,503.0
506.0,508.0,505.0,503.0
508.0,508.0,505.0,506.0
509.0,499.0,500.0,509.0
509.0,498.0,504.0,512.0
508.0,504.0,503.0,516.0
510.0,508.0,506.0,520.0
506.0,507.0,508.0,522.0
503.0,522.0,511.0,521.0
514.0,500.0,513.0,522.0
516.0,504.0,517.0,515.0
528.0,501.0,518.0,514.0
526.0,498.0,520.0,510.0
520.0,498.0,520.0,505.0
517.0,499.0,519.0,502.0
515.0,499.0,517.0,504.0
506.0,511.0,510.0,505.0
505.0,520.0,509.0,504.0
505.0,520.0,509.0,507.0
511.0,510.0,504.0,505.0
511.0,500.0,500.0,508.0
506.0,509.0,503.0,516.0
505.0,523.0,506.0,519.0
506.0,511.0,506.0,524.0
509.0,514.0,508.0,520.0
516.0,506.0,514.0,521.0
517.0,512.0,518.0,516.0
523.0,503.0,523.0,513.0
524.0,503.0,517.0,514.0
522.0,502.0,517.0,513.0
518.0,476.0,519.0,506.0
516.0,493.0,515.0,505.0
508.0,502.0,516.0,505.0
503.0,509.0,511.0,505.0
510.0,501.0,508.0,501.0
505.0,504.0,506.0,507.0
509.0,502.0,505.0,507.0
508.0,513.0,504.0,513.0
508.0,505.0,504.0,517.0
508.0,513.0,504.0,519.0
510.0,514.0,506.0,522.0
511.0,512.0,506.0,520.0
518.0,497.0,511.0,521.0
515.0,502.0,514.0,516.0
523.0,494.0,515.0,515.0
525.0,491.0,516.0,510.0
518.0,489.0,525.0,509.0
517.0,494.0,518.0,506.0
514.0,493.0,517.0,505.0
509.0,508.0,512.0,505.0
506.0,510.0,511.0,504.0
506.0,509.0,508.0,506.0
507.0,510.0,504.0,507.0
508.0,521.0,505.0,509.0
507.0,525.0,504.0,513.0
504.0,508.0,504.0,512.0
501.0,509.0,505.0,515.0
505.0,505.0,511.0,528.0
507.0,489.0,509.0,520.0
514.0,495.0,517.0,523.0
515.0,501.0,519.0,520.0
524.0,500.0,518.0,520.0
528.0,497.0,521.0,512.0
520.0,501.0,519.0,511.0
515.0,501.0,521.0,509.0
512.0,505.0,513.0,507.0
507.0,510.0,512.0,508.0
511.0,498.0,513.0,505.0
508.0,504.0,508.0,507.0
510.0,502.0,505.0,510.0
510.0,508.0,497.0,508.0
508.0,506.0,503.0,515.0
507.0,512.0,505.0,515.0
507.0,520.0,508.0,521.0
507.0,528.0,509.0,519.0
514.0,510.0,509.0,518.0
515.0,500.0,514.0,517.0
522.0,492.0,516.0,516.0
525.0,490.0,514.0,512.0
524.0,492.0,514.0,506.0
519.0,494.0,517.0,505.0
513.0,497.0,514.0,504.0
511.0,501.0,515.0,502.0
507.0,507.0,511.0,503.0
510.0,501.0,514.0,505.0
507.0,509.0,508.0,510.0
513.0,503.0,505.0,507.0
508.0,507.0,503.0,509.0
507.0,508.0,504.0,514.0
505.0,508.0,504.0,519.0
504.0,524.0,505.0,520.0
501.0,516.0,508.0,524.0
513.0,493.0,515.0,520.0
518.0,507.0,511.0,518.0
531.0,504.0,516.0,515.0
524.0,492.0,520.0,510.0
520.0,499.0,526.0,510.0
516.0,508.0,524.0,506.0
509.0,504.0,514.0,504.0
507.0,504.0,516.0,501.0
506.0,508.0,510.0,499.0
510.0,504.0,506.0,503.0
508.0,506.0,505.0,502.0
512.0,505.0,504.0,508.0
509.0,507.0,504.0,512.0
507.0,506.0,507.0,517.0
506.0,508.0,508.0,517.0
506.0,512.0,509.0,522.0
511.0,513.0,511.0,522.0
517.0,498.0,514.0,525.0
517.0,505.0,515.0,517.0
523.0,504.0,518.0,511.0
520.0,504.0,521.0,508.0
515.0,499.0,519.0,506.0
514.0,499.0,517.0,504.0
509.0,511.0,513.0,505.0
504.0,509.0,513.0,505.0
510.0,503.0,511.0,503.0
506.0,501.0,509.0,506.0
511.0,489.0,507.0,506.0
509.0,502.0,501.0,509.0
508.0,505.0,503.0,515.0
504.0,511.0,505.0,518.0
504.0,519.0,507.0,520.0
507.0,518.0,509.0,521.0
512.0,508.0,511.0,520.0
517.0,507.0,515.0,518.0
521.0,489.0,518.0,518.0
525.0,484.0,521.0,515.0
518.0,489.0,522.0,510.0
512.0,496.0,521.0,505.0
512.0,507.0,519.0,505.0
508.0,511.0,515.0,506.0
507.0,512.0,513.0,505.0
509.0,503.0,511.0,504.0
506.0,500.0,508.0,505.0
512.0,494.0,506.0,503.0
508.0,503.0,505.0,513.0
511.0,507.0,507.0,517.0
509.0,513.0,507.0,521.0
508.0,516.0,506.0,518.0
510.0,513.0,514.0,519.0
513.0,507.0,515.0,520.0
512.0,505.0,517.0,519.0
521.0,491.0,517.0,516.0
526.0,486.0,521.0,512.0
523.0,491.0,520.0,515.0
519.0,510.0,521.0,506.0
518.0,504.0,518.0,502.0
515.0,505.0,513.0,504.0
514.0,511.0,515.0,505.0
513.0,514.0,510.0,504.0
505.0,517.0,510.0,508.0
508.0,510.0,500.0,506.0
510.0,513.0,501.0,513.0
501.0,506.0,507.0,515.0
502.0,509.0,507.0,518.0
507.0,507.0,510.0,524.0
502.0,506.0,514.0,522.0
508.0,492.0,514.0,518.0
513.0,495.0,516.0,515.0
519.0,490.0,518.0,512.0
517.0,500.0,521.0,509.0
515.0,503.0,520.0,508.0
512.0,505.0,520.0,507.0
509.0,509.0,516.0,507.0
506.0,516.0,513.0,497.0
504.0,510.0,510.0,499.0
506.0,508.0,512.0,509.0
517.0,504.0,504.0,509.0
522.0,506.0,505.0,510.0
516.0,515.0,506.0,514.0
507.0,523.0,506.0,518.0
508.0,516.0,505.0,522.0
508.0,515.0,508.0,522.0
511.0,504.0,510.0,522.0
505.0,477.0,516.0,520.0
504.0,484.0,519.0,516.0
513.0,478.0,519.0,510.0
513.0,479.0,519.0,510.0
509.0,490.0,521.0,505.0
502.0,511.0,519.0,505.0
498.0,514.0,514.0,506.0
496.0,516.0,511.0,503.0
499.0,506.0,509.0,503.0
504.0,510.0,507.0,505.0
512.0,506.0,504.0,507.0
517.0,507.0,507.0,513.0
513.0,512.0,505.0,520.0
518.0,514.0,504.0,520.0
516.0,520.0,507.0,519.0
513.0,521.0,509.0,523.0
511.0,509.0,510.0,520.0
510.0,505.0,514.0,516.0
516.0,496.0,517.0,515.0
518.0,488.0,518.0,509.0
516.0,496.0,519.0,504.0
515.0,495.0,517.0,507.0
511.0,504.0,517.0,508.0
504.0,517.0,514.0,504.0
504.0,507.0,509.0,505.0
507.0,511.0,509.0,506.0
505.0,507.0,504.0,507.0
507.0,505.0,505.0,511.0
506.0,505.0,505.0,515.0
503.0,512.0,503.0,519.0
501.0,513.0,514.0,523.0
505.0,512.0,509.0,524.0
511.0,511.0,512.0,522.0
520.0,506.0,516.0,520.0
523.0,496.0,514.0,517.0
527.0,491.0,519.0,512.0
525.0,493.0,518.0,508.0
517.0,501.0,520.0,514.0
508.0,505.0,515.0,506.0
505.0,513.0,515.0,505.0
501.0,511.0,511.0,505.0
506.0,495.0,509.0,505.0
504.0,498.0,509.0,507.0
508.0,508.0,505.0,507.0
509.0,501.0,505.0,514.0
508.0,503.0,509.0,517.0
507.0,517.0,504.0,517.0
509.0,531.0,506.0,519.0
508.0,530.0,513.0,525.0
511.0,518.0,514.0,522.0
518.0,491.0,517.0,519.0
521.0,484.0,514.0,511.0
522.0,482.0,522.0,513.0
524.0,483.0,521.0,510.0
522.0,494.0,522.0,506.0
515.0,504.0,519.0,505.0
508.0,509.0,517.0,504.0
505.0,512.0,514.0,502.0
509.0,504.0,510.0,506.0
506.0,517.0,508.0,506.0
515.0,506.0,505.0,508.0
519.0,506.0,507.0,514.0
523.0,505.0,506.0,524.0
524.0,512.0,508.0,523.0
521.0,508.0,506.0,522.0
518.0,511.0,512.0,523.0
532.0,499.0,516.0,519.0
527.0,504.0,520.0,515.0
529.0,490.0,515.0,516.0
522.0,493.0,517.0,510.0
517.0,497.0,521.0,506.0
520.0,504.0,522.0,505.0
514.0,499.0,516.0,504.0
499.0,504.0,516.0,507.0
491.0,506.0,514.0,504.0
482.0,502.0,508.0,506.0
497.0,500.0,505.0,508.0
495.0,510.0,511.0,512.0
498.0,519.0,504.0,515.0
499.0,525.0,507.0,518.0
498.0,524.0,506.0,518.0
497.0,511.0,513.0,520.0
503.0,504.0,512.0,520.0
513.0,498.0,516.0,521.0
518.0,496.0,517.0,518.0
528.0,488.0,519.0,512.0
524.0,490.0,520.0,505.0
520.0,496.0,522.0,505.0
515.0,510.0,519.0,505.0
509.0,509.0,515.0,507.0
498.0,513.0,513.0,506.0
499.0,505.0,514.0,506.0
502.0,508.0,508.0,506.0
511.0,496.0,506.0,509.0
514.0,496.0,508.0,512.0
511.0,502.0,505.0,511.0
506.0,510.0,502.0,516.0
506.0,511.0,508.0,523.0
510.0,514.0,510.0,524.0
501.0,509.0,513.0,517.0
508.0,500.0,517.0,517.0
516.0,494.0,518.0,517.0
519.0,492.0,520.0,510.0
518.0,492.0,520.0,508.0
512.0,502.0,522.0,506.0
508.0,504.0,519.0,506.0
507.0,508.0,517.0,506.0
504.0,510.0,510.0,503.0
507.0,497.0,509.0,504.0
505.0,500.0,510.0,508.0
508.0,499.0,504.0,509.0
507.0,509.0,506.0,513.0
506.0,511.0,504.0,514.0
505.0,510.0,506.0,518.0
506.0,514.0,510.0,523.0
506.0,519.0,511.0,523.0
513.0,508.0,514.0,519.0
511.0,517.0,516.0,519.0
518.0,501.0,521.0,515.0
522.0,496.0,522.0,512.0
524.0,496.0,522.0,508.0
518.0,495.0,521.0,505.0
517.0,501.0,519.0,502.0
510.0,511.0,515.0,503.0
508.0,516.0,511.0,503.0
509.0,510.0,509.0,500.0
508.0,511.0,506.0,505.0
507.0,502.0,507.0,515.0
508.0,498.0,504.0,515.0
508.0,506.0,504.0,519.0
507.0,513.0,508.0,521.0
508.0,511.0,512.0,524.0
509.0,504.0,513.0,524.0
518.0,496.0,515.0,518.0
524.0,492.0,511.0,518.0
526.0,493.0,518.0,514.0
530.0,492.0,521.0,507.0
522.0,493.0,521.0,507.0
525.0,491.0,519.0,503.0
522.0,488.0,521.0,503.0
505.0,511.0,513.0,504.0
497.0,520.0,509.0,503.0
504.0,514.0,508.0,505.0
509.0,505.0,507.0,509.0
507.0,509.0,506.0,511.0
504.0,509.0,502.0,514.0
508.0,507.0,505.0,519.0
507.0,514.0,508.0,522.0
507.0,523.0,511.0,519.0
513.0,514.0,515.0,521.0
513.0,500.0,519.0,519.0
516.0,492.0,518.0,512.0
523.0,498.0,520.0,510.0
523.0,502.0,530.0,510.0
522.0,510.0,523.0,507.0
517.0,507.0,517.0,505.0
510.0,502.0,518.0,507.0
499.0,503.0,513.0,506.0
497.0,501.0,512.0,502.0
496.0,502.0,510.0,503.0
505.0,492.0,504.0,508.0
499.0,502.0,507.0,509.0
502.0,508.0,503.0,513.0
501.0,509.0,507.0,521.0
499.0,508.0,508.0,523.0
498.0,515.0,512.0,518.0
511.0,494.0,511.0,518.0
517.0,498.0,515.0,520.0
517.0,486.0,519.0,514.0
523.0,484.0,522.0,510.0
523.0,503.0,521.0,508.0
518.0,505.0,520.0,507.0
513.0,504.0,516.0,506.0
504.0,515.0,516.0,504.0
502.0,514.0,513.0,502.0
511.0,500.0,508.0,507.0
509.0,505.0,505.0,506.0
506.0,514.0,504.0,510.0
513.0,510.0,503.0,512.0
514.0,517.0,505.0,517.0
515.0,518.0,504.0,520.0
510.0,528.0,512.0,524.0
506.0,516.0,516.0,522.0
515.0,500.0,511.0,518.0
519.0,494.0,519.0,521.0
527.0,490.0,519.0,516.0
522.0,493.0,519.0,508.0
516.0,499.0,520.0,506.0
514.0,504.0,520.0,506.0
509.0,505.0,512.0,503.0
505.0,503.0,513.0,506.0
513.0,498.0,513.0,506.0
503.0,504.0,508.0,506.0
498.0,502.0,504.0,507.0
503.0,509.0,503.0,513.0
497.0,509.0,503.0,516.0
498.0,517.0,506.0,518.0
503.0,513.0,507.0,520.0
506.0,514.0,508.0,521.0
512.0,509.0,513.0,520.0
517.0,502.0,514.0,518.0
520.0,493.0,514.0,516.0
521.0,492.0,521.0,514.0
516.0,494.0,523.0,510.0
512.0,497.0,521.0,505.0
518.0,505.0,516.0,503.0
510.0,514.0,517.0,505.0
508.0,518.0,514.0,505.0
512.0,509.0,512.0,505.0
509.0,509.0,508.0,505.0
507.0,491.0,507.0,505.0
503.0,496.0,505.0,518.0
496.0,510.0,508.0,527.0
506.0,519.0,505.0,520.0
503.0,520.0,507.0,519.0
505.0,518.0,512.0,525.0
518.0,503.0,511.0,520.0
525.0,495.0,516.0,522.0
528.0,484.0,518.0,510.0
524.0,484.0,522.0,507.0
522.0,494.0,524.0,508.0
518.0,500.0,523.0,504.0
506.0,505.0,506.0,495.0
500.0,515.0,513.0,506.0
504.0,505.0,514.0,509.0
514.0,499.0,512.0,509.0
509.0,502.0,506.0,506.0
500.0,505.0,504.0,509.0
504.0,502.0,507.0,513.0
504.0,511.0,500.0,512.0
504.0,515.0,507.0,516.0
507.0,519.0,513.0,528.0
511.0,514.0,513.0,525.0
521.0,502.0,513.0,521.0
520.0,493.0,515.0,518.0
522.0,485.0,518.0,515.0
517.0,484.0,522.0,510.0
510.0,487.0,518.0,508.0
510.0,502.0,521.0,513.0
509.0,502.0,518.0,503.0
499.0,524.0,509.0,496.0
506.0,522.0,516.0,504.0
520.0,504.0,508.0,508.0
512.0,502.0,506.0,506.0
506.0,514.0,503.0,514.0
510.0,510.0,502.0,519.0
510.0,514.0,503.0,523.0
509.0,507.0,509.0,526.0
511.0,504.0,508.0,521.0
516.0,507.0,510.0,522.0
521.0,507.0,511.0,520.0
527.0,504.0,519.0,530.0
525.0,502.0,518.0,518.0
520.0,498.0,521.0,510.0
515.0,493.0,523.0,504.0
509.0,498.0,517.0,497.0
501.0,502.0,519.0,506.0
501.0,503.0,507.0,504.0
509.0,503.0,499.0,506.0
508.0,511.0,518.0,510.0
513.0,504.0,511.0,513.0
506.0,506.0,504.0,517.0
505.0,518.0,513.0,521.0
509.0,517.0,499.0,514.0
517.0,512.0,500.0,531.0
514.0,513.0,515.0,528.0
518.0,506.0,521.0,517.0
518.0,498.0,514.0,512.0
523.0,489.0,512.0,504.0
522.0,491.0,524.0,509.0
516.0,493.0,533.0,515.0
512.0,504.0,522.0,509.0
513.0,501.0,517.0,511.0
506.0,508.0,516.0,502.0
511.0,508.0,505.0,497.0
498.0,503.0,508.0,506.0
496.0,511.0,516.0,512.0
504.0,511.0,496.0,508.0
507.0,521.0,509.0,519.0
504.0,531.0,516.0,523.0
504.0,522.0,510.0,522.0
502.0,511.0,505.0,521.0
502.0,499.0,508.0,520.0
509.0,488.0,506.0,516.0
522.0,491.0,519.0,523.0
525.0,487.0,526.0,517.0
523.0,495.0,511.0,502.0
517.0,498.0,523.0,506.0
515.0,504.0,518.0,506.0
511.0,502.0,522.0,507.0
496.0,512.0,515.0,506.0
497.0,508.0,514.0,503.0
505.0,501.0,506.0,505.0
508.0,499.0,500.0,503.0
507.0,500.0,507.0,508.0
504.0,514.0,507.0,512.0
503.0,516.0,510.0,523.0
506.0,516.0,502.0,519.0
512.0,521.0,509.0,522.0
517.0,511.0,510.0,530.0
521.0,496.0,513.0,521.0
525.0,486.0,517.0,521.0
526.0,495.0,529.0,526.0
518.0,493.0,525.0,523.0
503.0,496.0,506.0,496.0
505.0,500.0,516.0,509.0
501.0,514.0,530.0,506.0
506.0,512.0,520.0,497.0
506.0,503.0,501.0,515.0
511.0,502.0,513.0,526.0
506.0,504.0,508.0,518.0
508.0,511.0,507.0,529.0
506.0,515.0,505.0,508.0
506.0,517.0,505.0,508.0
509.0,515.0,519.0,529.0
507.0,517.0,514.0,529.0
516.0,511.0,503.0,516.0
519.0,502.0,510.0,519.0
522.0,490.0,522.0,515.0
525.0,478.0,528.0,518.0
518.0,493.0,528.0,509.0
515.0,499.0,516.0,488.0
514.0,501.0,504.0,495.0
510.0,508.0,516.0,515.0
514.0,506.0,505.0,507.0
519.0,500.0,526.0,516.0
520.0,501.0,489.0,498.0
517.0,502.0,495.0,503.0
514.0,502.0,514.0,514.0
501.0,510.0,514.0,522.0
497.0,516.0,510.0,528.0
493.0,518.0,507.0,527.0
502.0,521.0,506.0,524.0
509.0,507.0,502.0,525.0
525.0,486.0,517.0,520.0
528.0,485.0,521.0,517.0
525.0,484.0,528.0,507.0
523.0,495.0,530.0,516.0
516.0,498.0,521.0,520.0
510.0,506.0,495.0,502.0
502.0,511.0,501.0,502.0
499.0,509.0,518.0,501.0
505.0,498.0,515.0,489.0
508.0,500.0,499.0,496.0
510.0,498.0,506.0,518.0
507.0,502.0,510.0,523.0
503.0,525.0,506.0,526.0
506.0,518.0,502.0,513.0
505.0,522.0,507.0,518.0
509.0,515.0,515.0,531.0
515.0,508.0,524.0,555.0
525.0,486.0,497.0,501.0
523.0,491.0,507.0,503.0
520.0,497.0,527.0,518.0
519.0,493.0,521.0,494.0
512.0,498.0,517.0,501.0
503.0,501.0,526.0,521.0
499.0,512.0,507.0,492.0
503.0,502.0,504.0,503.0
505.0,495.0,511.0,511.0
516.0,490.0,501.0,498.0
520.0,505.0,506.0,522.0
511.0,512.0,503.0,527.0
511.0,528.0,504.0,523.0
516.0,520.0,511.0,522.0
515.0,529.0,513.0,521.0
518.0,506.0,514.0,522.0
511.0,495.0,525.0,521.0
521.0,492.0,516.0,505.0
522.0,491.0,513.0,528.0
519.0,490.0,518.0,528.0
516.0,492.0,519.0,498.0
509.0,502.0,517.0,487.0
506.0,512.0,517.0,521.0
512.0,506.0,508.0,494.0
510.0,505.0,504.0,484.0
499.0,511.0,511.0,517.0
504.0,503.0,504.0,530.0
508.0,507.0,521.0,541.0
507.0,510.0,476.0,537.0
505.0,514.0,489.0,512.0
505.0,514.0,512.0,509.0
510.0,507.0,526.0,522.0
514.0,504.0,513.0,507.0
519.0,492.0,522.0,516.0
522.0,488.0,519.0,506.0
521.0,494.0,531.0,527.0
517.0,505.0,518.0,506.0
507.0,511.0,495.0,490.0
501.0,517.0,507.0,513.0
502.0,516.0,528.0,504.0
500.0,510.0,526.0,518.0
511.0,494.0,511.0,523.0
505.0,494.0,515.0,516.0
506.0,492.0,509.0,500.0
512.0,506.0,483.0,502.0
513.0,508.0,513.0,544.0
516.0,506.0,511.0,535.0
514.0,506.0,503.0,517.0
519.0,504.0,517.0,537.0
522.0,495.0,514.0,527.0
529.0,487.0,514.0,513.0
517.0,494.0,524.0,529.0
510.0,504.0,511.0,488.0
506.0,508.0,524.0,512.0
502.0,516.0,507.0,505.0
501.0,519.0,510.0,491.0
503.0,503.0,521.0,527.0
513.0,480.0,504.0,534.0
509.0,491.0,508.0,534.0
509.0,499.0,506.0,515.0
514.0,496.0,511.0,477.0
512.0,507.0,479.0,482.0
509.0,518.0,516.0,509.0
513.0,510.0,516.0,542.0
509.0,511.0,527.0,543.0
508.0,516.0,529.0,536.0
518.0,498.0,507.0,514.0
515.0,492.0,520.0,521.0
519.0,496.0,526.0,515.0
517.0,505.0,519.0,500.0
510.0,501.0,524.0,511.0
507.0,496.0,514.0,492.0
504.0,500.0,510.0,491.0
504.0,504.0,517.0,523.0
509.0,490.0,507.0,512.0
509.0,491.0,500.0,505.0
509.0,507.0,498.0,502.0
504.0,527.0,513.0,507.0
503.0,548.0,507.0,518.0
503.0,550.0,493.0,481.0
503.0,536.0,515.0,529.0
505.0,528.0,518.0,542.0
517.0,511.0,513.0,500.0
527.0,476.0,519.0,515.0
530.0,464.0,520.0,520.0
523.0,459.0,518.0,505.0
522.0,476.0,522.0,513.0
515.0,490.0,518.0,484.0
511.0,501.0,508.0,516.0
506.0,504.0,472.0,513.0
509.0,508.0,531.0,508.0
511.0,495.0,519.0,512.0
511.0,501.0,515.0,472.0
514.0,491.0,499.0,513.0
511.0,496.0,423.0,472.0
508.0,501.0,543.0,593.0
513.0,504.0,534.0,561.0
514.0,499.0,517.0,552.0
516.0,494.0,521.0,481.0
520.0,498.0,500.0,492.0
524.0,492.0,510.0,505.0
518.0,494.0,530.0,495.0
518.0,504.0,526.0,499.0
513.0,518.0,518.0,470.0
511.0,530.0,515.0,576.0
502.0,539.0,488.0,495.0
497.0,536.0,503.0,489.0
506.0,515.0,528.0,508.0
510.0,486.0,522.0,487.0
512.0,472.0,498.0,517.0
512.0,477.0,506.0,501.0
511.0,492.0,503.0,536.0
508.0,501.0,503.0,497.0
509.0,513.0,506.0,485.0
511.0,499.0,510.0,543.0
515.0,501.0,517.0,559.0
524.0,491.0,526.0,507.0
528.0,489.0,540.0,510.0
522.0,497.0,505.0,490.0
515.0,505.0,529.0,524.0
510.0,508.0,544.0,481.0
506.0,513.0,504.0,514.0
502.0,516.0,512.0,514.0
501.0,510.0,511.0,517.0
510.0,508.0,516.0,491.0
513.0,497.0,496.0,529.0
511.0,503.0,498.0,552.0
505.0,512.0,475.0,566.0
505.0,500.0,518.0,500.0
507.0,499.0,482.0,431.0
509.0,501.0,552.0,516.0
510.0,506.0,530.0,532.0
516.0,499.0,529.0,508.0
520.0,487.0,513.0,479.0
522.0,487.0,521.0,482.0
519.0,492.0,534.0,504.0
514.0,493.0,538.0,563.0
515.0,490.0,468.0,474.0
509.0,489.0,533.0,475.0
506.0,502.0,525.0,502.0
502.0,509.0,506.0,509.0
506.0,507.0,491.0,489.0
507.0,506.0,497.0,513.0
511.0,500.0,498.0,498.0
502.0,509.0,487.0,532.0
503.0,507.0,522.0,551.0
508.0,508.0,527.0,541.0
504.0,522.0,496.0,469.0
511.0,504.0,498.0,486.0
515.0,506.0,540.0,557.0
526.0,495.0,510.0,516.0
525.0,491.0,532.0,517.0
518.0,489.0,565.0,518.0
517.0,494.0,469.0,493.0
516.0,501.0,476.0,494.0
507.0,516.0,485.0,473.0
505.0,530.0,497.0,456.0
505.0,519.0,571.0,552.0
506.0,511.0,489.0,495.0
505.0,521.0,536.0,563.0
508.0,517.0,543.0,486.0
509.0,479.0,475.0,452.0
512.0,474.0,458.0,511.0
514.0,497.0,548.0,591.0
510.0,511.0,564.0,548.0
516.0,507.0,535.0,510.0
523.0,496.0,526.0,525.0
523.0,493.0,541.0,517.0
523.0,498.0,525.0,491.0
521.0,509.0,517.0,470.0
519.0,512.0,532.0,460.0
516.0,524.0,535.0,501.0
514.0,526.0,514.0,529.0
519.0,515.0,568.0,540.0
508.0,499.0,475.0,434.0
500.0,502.0,444.0,495.0
494.0,529.0,484.0,532.0
498.0,518.0,504.0,531.0
497.0,512.0,533.0,496.0
496.0,534.0,476.0,436.0
492.0,543.0,506.0,553.0
502.0,512.0,508.0,567.0
516.0,452.0,516.0,542.0
520.0,462.0,531.0,526.0
530.0,474.0,524.0,464.0
519.0,478.0,498.0,464.0
512.0,492.0,542.0,511.0
506.0,505.0,499.0,522.0
502.0,533.0,530.0,455.0
497.0,544.0,481.0,397.0
500.0,518.0,464.0,393.0
501.0,515.0,511.0,600.0
508.0,485.0,556.0,655.0
508.0,491.0,566.0,548.0
512.0,508.0,521.0,531.0
503.0,510.0,528.0,507.0
506.0,502.0,527.0,523.0
508.0,525.0,499.0,550.0
511.0,489.0,465.0,502.0
525.0,433.0,499.0,468.0
532.0,463.0,522.0,567.0
527.0,496.0,541.0,586.0
524.0,494.0,531.0,460.0
521.0,506.0,473.0,337.0
515.0,519.0,485.0,435.0
507.0,535.0,612.0,606.0
506.0,527.0,467.0,525.0
506.0,491.0,510.0,520.0
509.0,486.0,521.0,512.0
500.0,501.0,516.0,539.0
508.0,489.0,551.0,572.0
511.0,483.0,462.0,540.0
510.0,481.0,566.0,496.0
510.0,484.0,525.0,503.0
508.0,520.0,486.0,477.0
510.0,522.0,471.0,478.0
512.0,505.0,587.0,592.0
515.0,504.0,582.0,551.0
519.0,492.0,496.0,447.0
521.0,468.0,519.0,497.0
516.0,475.0,528.0,618.0
513.0,504.0,526.0,458.0
501.0,532.0,558.0,523.0
499.0,524.0,563.0,578.0
511.0,475.0,460.0,552.0
512.0,481.0,471.0,511.0
511.0,498.0,519.0,369.0
511.0,500.0,489.0,519.0
511.0,506.0,509.0,604.0
508.0,506.0,571.0,544.0
503.0,518.0,555.0,521.0
507.0,510.0,437.0,390.0
514.0,502.0,479.0,507.0
519.0,505.0,486.0,578.0
521.0,499.0,592.0,557.0
518.0,499.0,499.0,461.0
518.0,483.0,452.0,363.0
515.0,497.0,543.0,619.0
512.0,490.0,547.0,597.0
508.0,491.0,520.0,435.0
505.0,487.0,516.0,526.0
510.0,488.0,558.0,638.0
509.0,504.0,486.0,524.0
503.0,522.0,517.0,529.0
507.0,526.0,484.0,558.0
506.0,527.0,508.0,566.0
511.0,519.0,514.0,506.0
509.0,513.0,492.0,415.0
511.0,509.0,518.0,573.0
513.0,517.0,564.0,594.0
517.0,545.0,582.0,491.0
517.0,533.0,482.0,518.0
518.0,505.0,475.0,533.0
511.0,512.0,482.0,517.0
509.0,483.0,535.0,439.0
516.0,422.0,558.0,480.0
512.0,471.0,599.0,513.0
506.0,489.0,555.0,488.0
509.0,495.0,476.0,510.0
505.0,502.0,478.0,539.0
506.0,541.0,520.0,558.0
510.0,540.0,503.0,496.0
506.0,523.0,463.0,494.0
505.0,500.0,502.0,495.0
507.0,505.0,507.0,534.0
513.0,483.0,507.0,589.0
525.0,464.0,530.0,593.0
513.0,523.0,559.0,473.0
518.0,561.0,443.0,507.0
515.0,513.0,461.0,535.0
510.0,527.0,601.0,560.0
507.0,485.0,571.0,420.0
514.0,462.0,484.0,485.0
508.0,494.0,441.0,496.0
506.0,486.0,563.0,524.0
509.0,473.0,610.0,576.0
508.0,495.0,442.0,560.0
511.0,498.0,489.0,494.0
507.0,502.0,541.0,492.0
506.0,511.0,570.0,506.0
507.0,538.0,563.0,448.0
504.0,533.0,549.0,485.0
515.0,519.0,401.0,442.0
527.0,517.0,428.0,607.0
536.0,505.0,592.0,705.0
541.0,437.0,658.0,583.0
540.0,475.0,498.0,494.0
524.0,508.0,472.0,501.0
529.0,468.0,573.0,515.0
518.0,478.0,556.0,535.0
478.0,509.0,505.0,558.0
471.0,499.0,569.0,504.0
490.0,501.0,481.0,500.0
498.0,506.0,474.0,462.0
501.0,505.0,424.0,464.0
507.0,508.0,489.0,514.0
510.0,522.0,560.0,607.0
503.0,532.0,527.0,455.0
509.0,531.0,487.0,476.0
510.0,518.0,530.0,573.0
518.0,487.0,503.0,540.0
520.0,505.0,608.0,536.0
508.0,531.0,532.0,511.0
500.0,561.0,483.0,542.0
508.0,510.0,495.0,515.0
514.0,482.0,575.0,448.0
519.0,511.0,529.0,512.0
527.0,462.0,459.0,447.0
535.0,451.0,462.0,455.0
533.0,472.0,496.0,480.0
533.0,473.0,501.0,530.0
518.0,482.0,436.0,590.0
499.0,478.0,550.0,522.0
489.0,511.0,532.0,496.0
496.0,526.0,477.0,526.0
490.0,520.0,487.0,485.0
502.0,512.0,500.0,533.0
503.0,528.0,538.0,546.0
502.0,528.0,532.0,526.0
505.0,532.0,572.0,605.0
506.0,538.0,491.0,502.0
509.0,449.0,546.0,496.0
507.0,454.0,540.0,462.0
502.0,494.0,497.0,433.0
506.0,500.0,486.0,507.0
509.0,499.0,463.0,428.0
507.0,491.0,508.0,508.0
500.0,497.0,530.0,596.0
503.0,512.0,516.0,515.0
507.0,533.0,418.0,387.0
510.0,482.0,585.0,519.0
514.0,488.0,582.0,521.0
511.0,542.0,574.0,661.0
517.0,571.0,506.0,547.0
521.0,528.0,511.0,556.0
507.0,559.0,497.0,529.0
500.0,580.0,603.0,516.0
503.0,519.0,583.0,520.0
512.0,435.0,453.0,521.0
508.0,510.0,553.0,465.0
511.0,483.0,523.0,444.0
518.0,445.0,414.0,507.0
518.0,445.0,529.0,543.0
519.0,471.0,463.0,565.0
510.0,516.0,507.0,474.0
508.0,528.0,465.0,525.0
508.0,545.0,550.0,587.0
509.0,558.0,605.0,532.0
512.0,542.0,515.0,423.0
512.0,518.0,514.0,431.0
523.0,510.0,518.0,519.0
525.0,461.0,562.0,626.0
518.0,494.0,524.0,462.0
515.0,515.0,490.0,419.0
504.0,532.0,510.0,624.0
501.0,511.0,534.0,598.0
502.0,522.0,528.0,561.0
502.0,494.0,565.0,552.0
514.0,449.0,572.0,441.0
523.0,401.0,401.0,406.0
520.0,444.0,480.0,574.0
521.0,495.0,570.0,578.0
515.0,486.0,477.0,556.0
511.0,500.0,548.0,549.0
513.0,504.0,531.0,560.0
517.0,500.0,500.0,580.0
528.0,484.0,527.0,309.0
524.0,486.0,684.0,540.0
521.0,496.0,541.0,571.0
520.0,502.0,422.0,515.0
507.0,519.0,526.0,513.0
502.0,533.0,496.0,482.0
495.0,521.0,539.0,479.0
505.0,513.0,420.0,291.0
510.0,518.0,457.0,532.0
506.0,560.0,584.0,672.0
511.0,518.0,625.0,549.0
506.0,572.0,481.0,501.0
508.0,555.0,522.0,527.0
512.0,546.0,486.0,466.0
521.0,481.0,540.0,572.0
537.0,414.0,551.0,540.0
523.0,467.0,484.0,551.0
532.0,507.0,480.0,527.0
531.0,446.0,516.0,494.0
520.0,482.0,511.0,412.0
506.0,496.0,529.0,483.0
506.0,513.0,498.0,582.0
509.0,498.0,537.0,440.0
508.0,461.0,527.0,515.0
514.0,479.0,573.0,589.0
518.0,501.0,477.0,511.0
509.0,500.0,449.0,502.0
508.0,499.0,528.0,553.0
509.0,491.0,556.0,598.0
516.0,475.0,513.0,498.0
508.0,492.0,469.0,504.0
503.0,510.0,567.0,479.0
511.0,507.0,468.0,519.0
513.0,501.0,470.0,531.0
516.0,489.0,550.0,543.0
517.0,500.0,527.0,487.0
521.0,500.0,494.0,348.0
519.0,499.0,530.0,455.0
512.0,520.0,458.0,540.0
503.0,515.0,533.0,469.0
510.0,504.0,398.0,433.0
511.0,520.0,530.0,625.0
514.0,502.0,575.0,517.0
493.0,514.0,595.0,573.0
495.0,525.0,527.0,611.0
489.0,578.0,449.0,559.0
494.0,553.0,519.0,534.0
511.0,477.0,539.0,484.0
512.0,495.0,525.0,479.0
514.0,489.0,540.0,509.0
524.0,465.0,530.0,554.0
529.0,489.0,534.0,536.0
530.0,476.0,538.0,493.0
519.0,486.0,610.0,458.0
510.0,518.0,648.0,546.0
507.0,520.0,434.0,561.0
503.0,507.0,439.0,516.0
513.0,489.0,470.0,508.0
511.0,492.0,524.0,516.0
510.0,500.0,562.0,519.0
509.0,492.0,503.0,506.0
509.0,503.0,468.0,456.0
506.0,521.0,548.0,547.0
507.0,530.0,535.0,578.0
502.0,531.0,471.0,508.0
507.0,529.0,539.0,464.0
511.0,505.0,443.0,327.0
514.0,470.0,491.0,587.0
514.0,501.0,538.0,654.0
515.0,535.0,538.0,556.0
519.0,528.0,603.0,590.0
521.0,514.0,513.0,466.0
510.0,558.0,514.0,526.0
516.0,507.0,499.0,585.0
520.0,445.0,486.0,495.0
516.0,476.0,580.0,520.0
498.0,526.0,517.0,445.0
497.0,497.0,444.0,442.0
502.0,497.0,476.0,545.0
514.0,439.0,509.0,538.0
527.0,460.0,500.0,494.0
529.0,490.0,493.0,472.0
527.0,507.0,505.0,505.0
523.0,518.0,518.0,430.0
522.0,508.0,458.0,390.0
498.0,508.0,552.0,596.0
501.0,495.0,676.0,622.0
516.0,479.0,511.0,539.0
518.0,468.0,496.0,494.0
506.0,491.0,585.0,459.0
509.0,482.0,483.0,525.0
510.0,466.0,412.0,524.0
513.0,515.0,515.0,557.0
511.0,543.0,549.0,513.0
515.0,555.0,510.0,510.0
511.0,547.0,473.0,506.0
504.0,553.0,502.0,477.0
507.0,522.0,480.0,526.0
501.0,519.0,444.0,438.0
514.0,419.0,607.0,553.0
517.0,424.0,547.0,544.0
513.0,496.0,507.0,526.0
516.0,476.0,509.0,471.0
519.0,470.0,535.0,552.0
502.0,483.0,523.0,547.0
501.0,495.0,556.0,474.0
498.0,508.0,480.0,485.0
496.0,512.0,651.0,545.0
497.0,508.0,563.0,528.0
509.0,507.0,532.0,575.0
509.0,515.0,508.0,489.0
506.0,543.0,465.0,454.0
503.0,550.0,484.0,501.0
501.0,559.0,523.0,555.0
502.0,563.0,589.0,487.0
502.0,532.0,436.0,474.0
509.0,495.0,482.0,551.0
524.0,462.0,525.0,554.0
523.0,484.0,471.0,490.0
521.0,491.0,510.0,498.0
516.0,478.0,541.0,541.0
512.0,482.0,520.0,523.0
502.0,492.0,497.0,459.0
502.0,499.0,494.0,470.0
497.0,519.0,493.0,455.0
507.0,483.0,495.0,496.0
510.0,497.0,514.0,493.0
505.0,504.0,581.0,589.0
517.0,467.0,524.0,563.0
514.0,493.0,495.0,526.0
502.0,531.0,501.0,500.0
506.0,514.0,519.0,438.0
515.0,503.0,567.0,516.0
516.0,520.0,446.0,556.0
527.0,473.0,543.0,610.0
517.0,512.0,535.0,481.0
513.0,495.0,497.0,531.0
516.0,473.0,530.0,495.0
515.0,472.0,550.0,518.0
507.0,502.0,527.0,511.0
507.0,510.0,572.0,498.0
502.0,521.0,496.0,467.0
506.0,500.0,494.0,491.0
512.0,472.0,499.0,527.0
514.0,474.0,518.0,487.0
520.0,481.0,426.0,397.0
511.0,519.0,493.0,556.0
508.0,520.0,535.0,571.0
513.0,508.0,531.0,511.0
516.0,493.0,590.0,544.0
524.0,474.0,404.0,487.0
521.0,490.0,470.0,496.0
518.0,486.0,552.0,535.0
512.0,495.0,530.0,536.0
517.0,527.0,567.0,557.0
508.0,548.0,508.0,599.0
503.0,534.0,455.0,497.0
503.0,533.0,451.0,490.0
503.0,511.0,503.0,498.0
514.0,502.0,633.0,440.0
508.0,490.0,439.0,497.0
498.0,536.0,562.0,599.0
501.0,557.0,579.0,537.0
510.0,501.0,516.0,568.0
517.0,489.0,497.0,507.0
513.0,525.0,502.0,506.0
518.0,464.0,532.0,495.0
531.0,471.0,473.0,508.0
531.0,456.0,467.0,365.0
525.0,454.0,543.0,490.0
516.0,502.0,558.0,599.0
508.0,503.0,525.0,576.0
501.0,511.0,521.0,513.0
496.0,568.0,515.0,533.0
504.0,545.0,558.0,520.0
507.0,515.0,534.0,502.0
514.0,494.0,499.0,512.0
522.0,474.0,464.0,446.0
518.0,466.0,517.0,487.0
511.0,500.0,545.0,573.0
512.0,516.0,524.0,482.0
511.0,533.0,607.0,580.0
509.0,532.0,504.0,499.0
512.0,514.0,371.0,500.0
520.0,488.0,549.0,540.0
526.0,461.0,576.0,553.0
525.0,481.0,487.0,483.0
517.0,470.0,489.0,515.0
515.0,520.0,493.0,541.0
510.0,499.0,567.0,518.0
507.0,504.0,524.0,444.0
494.0,513.0,565.0,445.0
500.0,507.0,457.0,548.0
507.0,486.0,489.0,581.0
509.0,488.0,530.0,523.0
503.0,529.0,589.0,489.0
516.0,505.0,448.0,445.0
512.0,560.0,514.0,521.0
502.0,562.0,393.0,462.0
504.0,493.0,721.0,613.0
532.0,421.0,553.0,483.0
521.0,450.0,444.0,543.0
514.0,519.0,523.0,526.0
515.0,534.0,539.0,554.0
513.0,532.0,537.0,527.0
508.0,526.0,511.0,489.0
506.0,483.0,499.0,488.0
503.0,476.0,462.0,465.0
504.0,516.0,525.0,515.0
509.0,507.0,571.0,470.0
516.0,497.0,427.0,455.0
507.0,508.0,490.0,476.0
510.0,504.0,535.0,567.0
519.0,504.0,480.0,538.0
525.0,504.0,516.0,491.0
535.0,496.0,538.0,578.0
530.0,513.0,553.0,545.0
532.0,472.0,520.0,501.0
532.0,482.0,549.0,538.0
528.0,481.0,537.0,517.0
506.0,477.0,480.0,496.0
501.0,491.0,458.0,485.0
500.0,472.0,519.0,464.0
503.0,490.0,504.0,398.0
504.0,492.0,568.0,606.0
510.0,503.0,480.0,589.0
513.0,508.0,441.0,513.0
515.0,502.0,574.0,514.0
506.0,512.0,589.0,527.0
506.0,504.0,469.0,521.0
497.0,522.0,462.0,494.0
492.0,521.0,477.0,466.0
500.0,523.0,578.0,526.0
507.0,518.0,478.0,449.0
514.0,491.0,521.0,588.0
514.0,442.0,529.0,526.0
514.0,470.0,539.0,499.0
510.0,495.0,595.0,518.0
508.0,512.0,497.0,569.0
502.0,523.0,499.0,453.0
499.0,520.0,458.0,461.0
498.0,518.0,530.0,528.0
508.0,510.0,515.0,547.0
519.0,473.0,499.0,518.0
511.0,485.0,519.0,495.0
513.0,512.0,512.0,522.0
509.0,522.0,513.0,436.0
506.0,519.0,510.0,512.0
507.0,528.0,551.0,555.0
494.0,514.0,485.0,523.0
511.0,498.0,500.0,507.0
517.0,505.0,511.0,589.0
519.0,521.0,524.0,539.0
515.0,559.0,545.0,544.0
509.0,559.0,561.0,444.0
505.0,564.0,504.0,387.0
504.0,523.0,518.0,559.0
518.0,437.0,520.0,528.0
511.0,449.0,517.0,456.0
514.0,468.0,510.0,512.0
515.0,501.0,519.0,514.0
507.0,513.0,483.0,509.0
505.0,525.0,504.0,538.0
509.0,497.0,477.0,459.0
506.0,496.0,570.0,610.0
512.0,497.0,608.0,505.0
518.0,477.0,486.0,573.0
527.0,472.0,427.0,490.0
512.0,504.0,485.0,565.0
502.0,536.0,512.0,508.0
503.0,562.0,586.0,549.0
506.0,571.0,475.0,561.0
492.0,590.0,492.0,502.0
496.0,575.0,684.0,456.0
505.0,458.0,458.0,535.0
522.0,372.0,411.0,457.0
527.0,375.0,582.0,559.0
521.0,495.0,521.0,462.0
517.0,537.0,485.0,495.0
510.0,529.0,522.0,546.0
507.0,518.0,504.0,398.0
510.0,517.0,579.0,565.0
512.0,488.0,526.0,579.0
516.0,493.0,531.0,682.0
519.0,487.0,495.0,496.0
514.0,500.0,512.0,459.0
507.0,531.0,528.0,529.0
506.0,498.0,525.0,509.0
509.0,529.0,513.0,443.0
509.0,491.0,468.0,473.0
517.0,444.0,533.0,538.0
522.0,452.0,547.0,528.0
512.0,520.0,442.0,574.0
511.0,489.0,505.0,487.0
515.0,510.0,627.0,486.0
506.0,528.0,480.0,490.0
502.0,534.0,431.0,524.0
509.0,514.0,516.0,467.0
507.0,529.0,479.0,439.0
504.0,572.0,576.0,548.0
514.0,556.0,524.0,568.0
517.0,566.0,505.0,499.0
517.0,552.0,504.0,500.0
534.0,464.0,641.0,499.0
539.0,410.0,588.0,583.0
540.0,418.0,359.0,458.0
536.0,463.0,534.0,515.0
520.0,486.0,453.0,488.0
504.0,491.0,437.0,486.0
492.0,493.0,588.0,588.0
482.0,505.0,545.0,514.0
488.0,513.0,639.0,452.0
494.0,501.0,561.0,532.0
496.0,511.0,463.0,553.0
499.0,485.0,511.0,559.0
510.0,486.0,470.0,508.0
517.0,493.0,471.0,512.0
526.0,481.0,539.0,532.0
542.0,492.0,535.0,490.0
539.0,510.0,468.0,512.0
544.0,499.0,502.0,495.0
529.0,502.0,603.0,568.0
509.0,517.0,433.0,469.0
506.0,510.0,502.0,353.0
477.0,515.0,543.0,500.0
471.0,515.0,492.0,536.0
487.0,486.0,528.0,509.0
500.0,460.0,544.0,493.0
503.0,490.0,546.0,556.0
502.0,518.0,520.0,547.0
510.0,514.0,465.0,501.0
508.0,510.0,526.0,557.0
519.0,502.0,505.0,510.0
518.0,492.0,502.0,520.0
519.0,489.0,528.0,534.0
520.0,491.0,515.0,494.0
510.0,494.0,529.0,518.0
499.0,494.0,548.0,495.0
504.0,488.0,536.0,500.0
499.0,505.0,497.0,573.0
496.0,509.0,500.0,503.0
494.0,519.0,394.0,486.0
496.0,544.0,467.0,491.0
507.0,535.0,564.0,541.0
507.0,495.0,521.0,535.0
514.0,520.0,483.0,494.0
512.0,522.0,533.0,540.0
510.0,522.0,481.0,479.0
512.0,516.0,484.0,510.0
514.0,513.0,530.0,477.0
522.0,515.0,493.0,471.0
520.0,546.0,517.0,518.0
515.0,552.0,609.0,599.0
513.0,512.0,421.0,440.0
504.0,559.0,524.0,536.0
507.0,495.0,625.0,483.0
505.0,467.0,524.0,541.0
509.0,472.0,500.0,518.0
504.0,524.0,531.0,514.0
508.0,529.0,526.0,527.0
507.0,488.0,474.0,556.0
505.0,457.0,487.0,506.0
502.0,474.0,525.0,503.0
512.0,427.0,486.0,586.0
518.0,471.0,509.0,575.0
525.0,518.0,535.0,440.0
524.0,491.0,516.0,504.0
529.0,504.0,545.0,499.0
531.0,489.0,612.0,534.0
523.0,473.0,409.0,471.0
513.0,489.0,530.0,452.0
513.0,488.0,592.0,551.0
511.0,493.0,595.0,512.0
505.0,497.0,489.0,556.0
508.0,508.0,518.0,519.0
510.0,508.0,527.0,526.0
512.0,525.0,440.0,474.0
519.0,506.0,462.0,485.0
512.0,518.0,494.0,507.0
507.0,499.0,568.0,591.0
512.0,502.0,453.0,530.0
510.0,522.0,508.0,503.0
509.0,525.0,527.0,497.0
515.0,500.0,451.0,522.0
519.0,493.0,584.0,534.0
523.0,504.0,508.0,459.0
522.0,509.0,511.0,477.0
513.0,505.0,492.0,495.0
514.0,531.0,584.0,517.0
494.0,586.0,511.0,418.0
501.0,603.0,431.0,588.0
493.0,620.0,555.0,530.0
494.0,609.0,475.0,505.0
512.0,459.0,494.0,500.0
528.0,356.0,474.0,413.0
517.0,427.0,398.0,381.0
513.0,488.0,456.0,554.0
520.0,445.0,548.0,598.0
516.0,484.0,718.0,584.0
510.0,489.0,557.0,559.0
518.0,470.0,495.0,520.0
521.0,482.0,574.0,558.0
521.0,491.0,606.0,518.0
516.0,495.0,474.0,510.0
507.0,514.0,522.0,510.0
513.0,510.0,501.0,509.0
512.0,516.0,528.0,598.0
506.0,510.0,502.0,468.0
511.0,513.0,500.0,468.0
514.0,497.0,473.0,466.0
513.0,483.0,517.0,538.0
511.0,487.0,533.0,509.0
496.0,506.0,486.0,557.0
503.0,515.0,502.0,504.0
512.0,514.0,534.0,518.0
521.0,490.0,504.0,540.0
523.0,488.0,532.0,556.0
526.0,482.0,489.0,443.0
523.0,486.0,555.0,475.0
520.0,497.0,561.0,549.0
502.0,530.0,431.0,440.0
497.0,537.0,535.0,570.0
497.0,524.0,533.0,563.0
503.0,507.0,532.0,479.0
508.0,488.0,468.0,445.0
510.0,500.0,461.0,540.0
513.0,496.0,538.0,540.0
504.0,511.0,542.0,523.0
506.0,533.0,483.0,503.0
506.0,534.0,516.0,539.0
505.0,528.0,492.0,504.0
502.0,542.0,490.0,509.0
502.0,542.0,519.0,519.0
511.0,509.0,477.0,430.0
522.0,503.0,459.0,482.0
533.0,463.0,523.0,582.0
534.0,488.0,561.0,495.0
523.0,543.0,551.0,514.0
523.0,492.0,500.0,500.0
516.0,494.0,488.0,512.0
514.0,484.0,528.0,522.0
502.0,505.0,560.0,482.0
508.0,491.0,470.0,518.0
511.0,534.0,458.0,476.0
510.0,521.0,515.0,464.0
507.0,470.0,505.0,528.0
510.0,454.0,523.0,568.0
510.0,486.0,460.0,502.0
509.0,494.0,540.0,519.0
514.0,490.0,544.0,527.0
520.0,473.0,510.0,485.0
517.0,478.0,548.0,489.0
512.0,487.0,436.0,461.0
518.0,491.0,458.0,602.0
506.0,492.0,555.0,543.0
501.0,521.0,599.0,468.0
502.0,530.0,477.0,500.0
503.0,520.0,549.0,532.0
508.0,524.0,489.0,496.0
505.0,527.0,470.0,467.0
503.0,537.0,551.0,549.0
509.0,502.0,535.0,507.0
504.0,503.0,497.0,517.0
508.0,510.0,478.0,529.0
512.0,502.0,520.0,558.0
519.0,474.0,509.0,441.0
518.0,493.0,435.0,366.0
528.0,493.0,526.0,543.0
523.0,503.0,615.0,579.0
520.0,510.0,504.0,526.0
511.0,534.0,518.0,529.0
509.0,518.0,482.0,512.0
505.0,513.0,539.0,505.0
505.0,494.0,493.0,505.0
512.0,449.0,518.0,510.0
517.0,475.0,504.0,515.0
510.0,500.0,485.0,495.0
509.0,535.0,500.0,522.0
507.0,553.0,481.0,526.0
504.0,547.0,498.0,512.0
507.0,551.0,502.0,540.0
505.0,545.0,519.0,530.0
513.0,480.0,541.0,537.0
525.0,457.0,467.0,455.0
531.0,451.0,524.0,475.0
522.0,484.0,531.0,545.0
518.0,476.0,509.0,509.0
516.0,494.0,508.0,428.0
513.0,485.0,501.0,498.0
506.0,501.0,549.0,567.0
502.0,538.0,485.0,494.0
498.0,541.0,496.0,509.0
506.0,525.0,476.0,500.0
508.0,520.0,514.0,523.0
509.0,520.0,472.0,510.0
503.0,492.0,503.0,529.0
510.0,478.0,516.0,465.0
511.0,504.0,517.0,534.0
513.0,506.0,466.0,539.0
515.0,488.0,507.0,557.0
523.0,475.0,532.0,491.0
521.0,492.0,456.0,527.0
519.0,493.0,550.0,514.0
518.0,498.0,585.0,498.0
517.0,498.0,536.0,503.0
516.0,502.0,531.0,507.0
511.0,509.0,491.0,485.0
505.0,510.0,500.0,494.0
508.0,511.0,525.0,515.0
508.0,501.0,479.0,468.0
503.0,504.0,449.0,409.0
505.0,512.0,531.0,544.0
506.0,518.0,523.0,589.0
505.0,527.0,506.0,536.0
509.0,526.0,504.0,522.0
506.0,531.0,512.0,504.0
505.0,522.0,484.0,506.0
521.0,466.0,498.0,499.0
524.0,462.0,554.0,532.0
516.0,486.0,494.0,502.0
516.0,495.0,519.0,500.0
512.0,495.0,510.0,511.0
512.0,516.0,511.0,502.0
507.0,511.0,508.0,505.0
503.0,515.0,511.0,506.0
506.0,503.0,507.0,509.0
509.0,505.0,501.0,508.0
511.0,507.0,500.0,509.0
509.0,509.0,498.0,511.0
507.0,509.0,492.0,518.0
513.0,512.0,497.0,529.0
511.0,513.0,510.0,505.0
514.0,512.0,506.0,507.0
520.0,506.0,507.0,509.0
525.0,503.0,509.0,508.0
523.0,492.0,512.0,508.0
520.0,489.0,512.0,497.0
515.0,488.0,514.0,497.0
514.0,491.0,512.0,497.0
512.0,504.0,507.0,498.0
508.0,502.0,512.0,499.0
506.0,510.0,482.0,499.0
511.0,498.0,498.0,508.0
509.0,508.0,504.0,505.0
506.0,504.0,501.0,510.0
503.0,520.0,501.0,514.0
508.0,514.0,502.0,517.0
507.0,518.0,505.0,518.0
505.0,523.0,507.0,516.0
510.0,522.0,509.0,515.0
520.0,497.0,513.0,511.0
521.0,488.0,516.0,510.0
519.0,482.0,515.0,501.0
517.0,493.0,516.0,503.0
514.0,488.0,513.0,494.0
509.0,491.0,509.0,497.0
504.0,501.0,503.0,498.0
505.0,514.0,502.0,501.0
509.0,505.0,502.0,502.0
514.0,504.0,498.0,504.0
515.0,507.0,500.0,507.0
512.0,517.0,496.0,509.0
507.0,517.0,501.0,514.0
509.0,514.0,501.0,515.0
511.0,516.0,504.0,517.0
512.0,508.0,505.0,515.0
511.0,506.0,509.0,512.0
521.0,496.0,509.0,507.0
520.0,495.0,513.0,500.0
515.0,496.0,511.0,508.0
513.0,504.0,514.0,497.0
513.0,509.0,513.0,497.0
510.0,509.0,510.0,506.0
504.0,518.0,510.0,501.0
505.0,524.0,506.0,503.0
509.0,512.0,503.0,504.0
510.0,513.0,501.0,507.0
510.0,497.0,498.0,510.0
504.0,506.0,499.0,512.0
504.0,504.0,505.0,514.0
511.0,500.0,502.0,512.0
509.0,506.0,504.0,513.0
515.0,498.0,505.0,509.0
521.0,490.0,508.0,508.0
522.0,488.0,515.0,508.0
517.0,488.0,515.0,511.0
518.0,500.0,515.0,511.0
512.0,514.0,514.0,509.0
506.0,534.0,513.0,508.0
508.0,515.0,509.0,507.0
505.0,523.0,504.0,501.0
507.0,523.0,497.0,500.0
510.0,520.0,493.0,501.0
511.0,505.0,494.0,504.0
514.0,485.0,493.0,504.0
509.0,502.0,497.0,513.0
509.0,499.0,497.0,510.0
513.0,499.0,500.0,513.0
514.0,500.0,506.0,514.0
517.0,524.0,508.0,511.0
519.0,506.0,505.0,507.0
520.0,502.0,507.0,505.0
516.0,503.0,510.0,502.0
519.0,494.0,509.0,500.0
512.0,494.0,504.0,497.0
506.0,499.0,501.0,498.0
505.0,502.0,500.0,498.0
507.0,502.0,499.0,498.0
510.0,496.0,494.0,499.0
512.0,500.0,493.0,499.0
512.0,512.0,491.0,507.0
504.0,526.0,499.0,513.0
501.0,535.0,496.0,517.0
507.0,530.0,501.0,520.0
506.0,537.0,504.0,519.0
508.0,534.0,506.0,515.0
516.0,510.0,505.0,511.0
522.0,486.0,505.0,509.0
525.0,464.0,512.0,507.0
519.0,479.0,514.0,502.0
519.0,496.0,509.0,507.0
513.0,499.0,511.0,506.0
512.0,499.0,503.0,504.0
508.0,503.0,500.0,498.0
502.0,511.0,495.0,498.0
503.0,509.0,493.0,496.0
504.0,506.0,492.0,503.0
505.0,515.0,491.0,507.0
504.0,516.0,494.0,511.0
508.0,521.0,497.0,518.0
510.0,520.0,500.0,519.0
511.0,512.0,500.0,517.0
514.0,535.0,505.0,515.0
519.0,519.0,507.0,513.0
523.0,507.0,508.0,506.0
523.0,501.0,507.0,503.0
517.0,495.0,511.0,505.0
520.0,497.0,507.0,503.0
515.0,502.0,505.0,499.0
507.0,507.0,503.0,502.0
508.0,494.0,499.0,503.0
506.0,494.0,497.0,510.0
507.0,507.0,493.0,510.0
508.0,507.0,494.0,508.0
505.0,509.0,494.0,512.0
501.0,516.0,493.0,513.0
507.0,530.0,494.0,516.0
505.0,522.0,499.0,514.0
505.0,516.0,503.0,517.0
506.0,529.0,504.0,519.0
521.0,525.0,507.0,514.0
528.0,511.0,507.0,512.0
529.0,510.0,509.0,501.0
524.0,506.0,508.0,500.0
516.0,509.0,506.0,500.0
511.0,500.0,506.0,500.0
511.0,501.0,501.0,500.0
507.0,504.0,494.0,498.0
506.0,502.0,492.0,501.0
507.0,510.0,495.0,505.0
509.0,519.0,497.0,512.0
507.0,518.0,493.0,515.0
504.0,519.0,494.0,513.0
502.0,520.0,495.0,515.0
501.0,527.0,497.0,515.0
506.0,525.0,499.0,514.0
517.0,513.0,504.0,511.0
527.0,499.0,505.0,509.0
527.0,501.0,505.0,507.0
522.0,515.0,508.0,503.0
519.0,517.0,505.0,499.0
511.0,524.0,504.0,502.0
509.0,521.0,504.0,504.0
507.0,512.0,502.0,502.0
500.0,505.0,498.0,504.0
504.0,502.0,497.0,507.0
505.0,500.0,492.0,508.0
504.0,510.0,495.0,510.0
502.0,507.0,494.0,517.0
505.0,519.0,498.0,520.0
508.0,501.0,500.0,520.0
512.0,492.0,502.0,517.0
521.0,499.0,503.0,513.0
534.0,499.0,506.0,508.0
534.0,505.0,506.0,507.0
528.0,513.0,507.0,505.0
525.0,512.0,509.0,501.0
516.0,505.0,506.0,502.0
510.0,499.0,502.0,502.0
501.0,509.0,504.0,505.0
498.0,514.0,502.0,505.0
497.0,519.0,502.0,506.0
509.0,514.0,498.0,516.0
512.0,512.0,496.0,522.0
515.0,506.0,497.0,519.0
510.0,478.0,498.0,524.0
514.0,468.0,500.0,525.0
522.0,485.0,505.0,524.0
518.0,513.0,508.0,520.0
517.0,517.0,505.0,515.0
525.0,516.0,508.0,508.0
518.0,522.0,511.0,502.0
514.0,515.0,512.0,501.0
516.0,509.0,506.0,501.0
514.0,519.0,507.0,503.0
508.0,527.0,506.0,503.0
506.0,531.0,501.0,502.0
503.0,518.0,500.0,504.0
506.0,505.0,499.0,505.0
513.0,503.0,496.0,509.0
514.0,484.0,497.0,509.0
518.0,491.0,497.0,514.0
513.0,531.0,496.0,521.0
511.0,537.0,500.0,518.0
511.0,536.0,503.0,517.0
517.0,524.0,504.0,513.0
519.0,516.0,504.0,514.0
523.0,507.0,506.0,512.0
520.0,491.0,510.0,506.0
516.0,481.0,511.0,506.0
512.0,469.0,510.0,503.0
515.0,458.0,513.0,507.0
502.0,493.0,511.0,508.0
488.0,533.0,511.0,509.0
496.0,537.0,507.0,511.0
508.0,565.0,504.0,511.0
499.0,564.0,502.0,515.0
497.0,523.0,502.0,508.0
498.0,513.0,504.0,506.0
508.0,506.0,499.0,515.0
523.0,503.0,498.0,520.0
519.0,531.0,497.0,517.0
520.0,529.0,505.0,515.0
524.0,527.0,505.0,513.0
528.0,494.0,508.0,508.0
524.0,502.0,510.0,506.0
517.0,510.0,513.0,506.0
512.0,526.0,515.0,507.0
507.0,524.0,514.0,509.0
504.0,523.0,511.0,507.0
505.0,514.0,507.0,508.0
503.0,503.0,499.0,507.0
511.0,470.0,500.0,510.0
508.0,487.0,497.0,515.0
507.0,515.0,499.0,516.0
498.0,516.0,500.0,522.0
506.0,493.0,508.0,523.0
519.0,475.0,515.0,524.0
529.0,441.0,518.0,522.0
519.0,478.0,513.0,520.0
523.0,484.0,517.0,518.0
527.0,486.0,517.0,514.0
517.0,496.0,517.0,511.0
511.0,516.0,527.0,513.0
504.0,532.0,512.0,507.0
497.0,538.0,508.0,507.0
499.0,569.0,512.0,510.0
501.0,553.0,511.0,508.0
511.0,500.0,506.0,512.0
508.0,506.0,505.0,517.0
517.0,502.0,505.0,515.0
509.0,516.0,502.0,512.0
501.0,530.0,500.0,509.0
503.0,532.0,497.0,507.0
501.0,529.0,499.0,510.0
503.0,519.0,502.0,508.0
510.0,508.0,507.0,506.0
523.0,494.0,506.0,509.0
528.0,483.0,510.0,507.0
531.0,498.0,511.0,502.0
528.0,502.0,512.0,505.0
527.0,512.0,512.0,494.0
518.0,524.0,512.0,499.0
504.0,531.0,509.0,495.0
498.0,542.0,506.0,500.0
496.0,519.0,502.0,499.0
502.0,458.0,496.0,509.0
513.0,445.0,498.0,508.0
507.0,473.0,508.0,514.0
512.0,496.0,502.0,518.0
514.0,500.0,506.0,521.0
517.0,503.0,511.0,519.0
516.0,507.0,513.0,516.0
519.0,529.0,514.0,515.0
522.0,516.0,516.0,510.0
521.0,497.0,521.0,509.0
516.0,515.0,517.0,508.0
510.0,511.0,516.0,507.0
509.0,499.0,513.0,506.0
508.0,487.0,509.0,503.0
512.0,490.0,509.0,504.0
508.0,503.0,509.0,506.0
505.0,508.0,506.0,511.0
506.0,529.0,503.0,508.0
499.0,573.0,502.0,508.0
497.0,568.0,503.0,515.0
495.0,573.0,504.0,518.0
498.0,561.0,504.0,519.0
513.0,470.0,507.0,516.0
518.0,467.0,511.0,519.0
526.0,463.0,509.0,518.0
525.0,474.0,517.0,518.0
523.0,502.0,526.0,518.0
524.0,533.0,538.0,524.0
520.0,536.0,531.0,524.0
510.0,541.0,523.0,512.0
509.0,477.0,513.0,502.0
510.0,480.0,499.0,493.0
508.0,495.0,494.0,490.0
515.0,496.0,490.0,487.0
511.0,485.0,490.0,487.0
513.0,477.0,491.0,491.0
511.0,480.0,496.0,495.0
512.0,490.0,498.0,507.0
515.0,503.0,501.0,498.0
514.0,543.0,502.0,503.0
519.0,546.0,507.0,504.0
526.0,493.0,513.0,501.0
521.0,486.0,516.0,498.0
522.0,498.0,514.0,495.0
513.0,513.0,514.0,497.0
509.0,524.0,510.0,495.0
503.0,529.0,504.0,499.0
500.0,530.0,502.0,501.0
504.0,520.0,500.0,501.0
508.0,508.0,496.0,509.0
504.0,506.0,499.0,514.0
504.0,509.0,501.0,514.0
503.0,526.0,508.0,519.0
502.0,513.0,517.0,530.0
509.0,482.0,533.0,531.0
515.0,487.0,532.0,523.0
522.0,485.0,536.0,527.0
527.0,480.0,511.0,521.0
529.0,503.0,524.0,514.0
524.0,530.0,517.0,502.0
516.0,529.0,506.0,490.0
507.0,523.0,510.0,483.0
509.0,518.0,503.0,486.0
508.0,507.0,503.0,491.0
505.0,499.0,514.0,497.0
506.0,490.0,509.0,500.0
506.0,486.0,501.0,503.0
503.0,502.0,496.0,504.0
501.0,519.0,501.0,508.0
498.0,510.0,506.0,512.0
501.0,508.0,506.0,520.0
509.0,511.0,510.0,519.0
511.0,527.0,512.0,517.0
517.0,542.0,519.0,511.0
531.0,522.0,516.0,509.0
525.0,507.0,519.0,507.0
515.0,529.0,515.0,498.0
516.0,501.0,515.0,490.0
518.0,493.0,516.0,496.0
514.0,520.0,507.0,497.0
509.0,508.0,507.0,505.0
506.0,521.0,503.0,509.0
509.0,530.0,499.0,508.0
513.0,536.0,496.0,514.0
512.0,528.0,499.0,519.0
506.0,521.0,509.0,529.0
504.0,523.0,516.0,531.0
505.0,489.0,523.0,530.0
509.0,490.0,527.0,531.0
512.0,506.0,524.0,521.0
517.0,494.0,520.0,511.0
519.0,498.0,511.0,498.0
523.0,453.0,514.0,501.0
525.0,462.0,509.0,502.0
516.0,511.0,502.0,510.0
510.0,516.0,501.0,513.0
508.0,486.0,500.0,511.0
505.0,485.0,504.0,509.0
500.0,508.0,520.0,520.0
507.0,508.0,529.0,525.0
514.0,516.0,538.0,533.0
509.0,524.0,541.0,528.0
513.0,496.0,516.0,517.0
511.0,490.0,495.0,504.0
515.0,506.0,495.0,494.0
517.0,531.0,500.0,499.0
514.0,520.0,502.0,502.0
527.0,502.0,508.0,503.0
526.0,498.0,508.0,499.0
519.0,505.0,513.0,499.0
516.0,505.0,512.0,498.0
513.0,503.0,512.0,502.0
508.0,505.0,513.0,501.0
509.0,501.0,507.0,501.0
506.0,512.0,506.0,501.0
504.0,517.0,506.0,505.0
504.0,505.0,502.0,507.0
504.0,506.0,504.0,514.0
502.0,502.0,509.0,518.0
505.0,511.0,513.0,522.0
512.0,541.0,514.0,527.0
509.0,529.0,515.0,523.0
510.0,511.0,515.0,521.0
513.0,511.0,515.0,521.0
522.0,485.0,518.0,514.0
526.0,473.0,521.0,507.0
525.0,494.0,520.0,502.0
514.0,512.0,518.0,507.0
506.0,517.0,517.0,507.0
507.0,513.0,516.0,506.0
504.0,510.0,517.0,507.0
502.0,508.0,514.0,507.0
509.0,499.0,509.0,509.0
506.0,523.0,507.0,510.0
504.0,534.0,504.0,511.0
505.0,541.0,503.0,516.0
509.0,537.0,505.0,520.0
508.0,526.0,509.0,524.0
514.0,470.0,513.0,524.0
514.0,493.0,517.0,521.0
522.0,492.0,516.0,519.0
518.0,505.0,520.0,516.0
520.0,500.0,522.0,512.0
516.0,497.0,519.0,509.0
510.0,506.0,522.0,512.0
507.0,499.0,514.0,507.0
506.0,481.0,514.0,509.0
501.0,504.0,520.0,515.0
499.0,515.0,516.0,513.0
505.0,507.0,507.0,516.0
512.0,504.0,505.0,514.0
510.0,503.0,508.0,519.0
514.0,467.0,506.0,521.0
509.0,511.0,510.0,522.0
508.0,520.0,516.0,525.0
507.0,535.0,523.0,523.0
503.0,520.0,522.0,523.0
516.0,495.0,520.0,513.0
520.0,479.0,517.0,512.0
532.0,485.0,518.0,507.0
519.0,519.0,517.0,503.0
509.0,529.0,513.0,502.0
508.0,532.0,513.0,501.0
505.0,509.0,511.0,502.0
498.0,509.0,509.0,506.0
499.0,493.0,511.0,508.0
503.0,495.0,507.0,517.0
506.0,510.0,514.0,522.0
501.0,501.0,523.0,531.0
501.0,524.0,525.0,537.0
516.0,533.0,519.0,528.0
523.0,516.0,513.0,524.0
514.0,508.0,513.0,516.0
520.0,529.0,509.0,511.0
531.0,501.0,510.0,504.0
524.0,490.0,511.0,502.0
519.0,502.0,512.0,499.0
517.0,508.0,518.0,505.0
514.0,503.0,514.0,505.0
511.0,496.0,511.0,501.0
507.0,484.0,512.0,497.0
504.0,492.0,513.0,502.0
510.0,487.0,514.0,506.0
507.0,497.0,503.0,514.0
506.0,505.0,503.0,517.0
505.0,504.0,502.0,520.0
509.0,506.0,496.0,523.0
512.0,505.0,498.0,525.0
519.0,506.0,508.0,528.0
516.0,515.0,520.0,525.0
527.0,496.0,531.0,528.0
524.0,502.0,536.0,523.0
517.0,512.0,543.0,516.0
510.0,518.0,533.0,508.0
509.0,514.0,516.0,498.0
508.0,513.0,509.0,496.0
508.0,510.0,511.0,501.0
505.0,510.0,512.0,505.0
506.0,504.0,516.0,511.0
508.0,492.0,511.0,510.0
507.0,499.0,499.0,502.0
501.0,500.0,499.0,510.0
500.0,520.0,504.0,517.0
504.0,549.0,510.0,525.0
504.0,560.0,513.0,529.0
507.0,551.0,514.0,520.0
510.0,523.0,513.0,521.0
524.0,457.0,522.0,516.0
526.0,450.0,522.0,512.0
521.0,477.0,524.0,511.0
516.0,490.0,523.0,508.0
509.0,507.0,522.0,502.0
507.0,513.0,519.0,506.0
508.0,501.0,511.0,507.0
504.0,502.0,511.0,507.0
509.0,496.0,508.0,506.0
508.0,500.0,507.0,512.0
509.0,511.0,504.0,516.0
507.0,522.0,501.0,517.0
505.0,530.0,510.0,524.0
507.0,519.0,508.0,526.0
517.0,500.0,513.0,525.0
517.0,506.0,514.0,523.0
513.0,503.0,516.0,521.0
522.0,489.0,521.0,518.0
521.0,492.0,520.0,520.0
514.0,500.0,524.0,510.0
509.0,502.0,523.0,506.0
504.0,503.0,520.0,507.0
505.0,502.0,515.0,508.0
505.0,497.0,515.0,507.0
509.0,506.0,514.0,510.0
512.0,514.0,511.0,513.0
513.0,506.0,507.0,512.0
511.0,523.0,509.0,519.0
504.0,529.0,510.0,524.0
503.0,533.0,511.0,527.0
504.0,523.0,509.0,527.0
516.0,492.0,513.0,525.0
515.0,503.0,518.0,523.0
521.0,493.0,519.0,518.0
524.0,491.0,520.0,520.0
521.0,495.0,523.0,515.0
518.0,499.0,522.0,513.0
517.0,490.0,522.0,511.0
516.0,496.0,519.0,509.0
514.0,501.0,517.0,508.0
515.0,494.0,509.0,507.0
504.0,507.0,511.0,508.0
504.0,501.0,505.0,511.0
503.0,491.0,508.0,515.0
504.0,497.0,508.0,518.0
503.0,520.0,507.0,525.0
505.0,522.0,509.0,526.0
507.0,518.0,510.0,527.0
517.0,513.0,513.0,523.0
515.0,507.0,519.0,525.0
519.0,491.0,526.0,523.0
519.0,503.0,521.0,513.0
517.0,489.0,523.0,512.0
518.0,488.0,522.0,508.0
511.0,511.0,521.0,507.0
507.0,518.0,517.0,507.0
505.0,511.0,512.0,508.0
501.0,511.0,520.0,511.0
506.0,508.0,512.0,511.0
507.0,512.0,510.0,516.0
504.0,522.0,506.0,519.0
500.0,543.0,516.0,522.0
501.0,575.0,506.0,523.0
505.0,540.0,508.0,523.0
511.0,514.0,510.0,527.0
516.0,459.0,513.0,522.0
521.0,452.0,515.0,517.0
530.0,479.0,520.0,514.0
526.0,483.0,524.0,512.0
521.0,484.0,525.0,510.0
511.0,505.0,524.0,508.0
509.0,512.0,520.0,504.0
514.0,505.0,514.0,505.0
509.0,508.0,509.0,505.0
503.0,495.0,509.0,507.0
513.0,492.0,514.0,511.0
514.0,498.0,504.0,514.0
514.0,507.0,505.0,520.0
505.0,537.0,505.0,522.0
501.0,536.0,505.0,527.0
505.0,538.0,508.0,531.0
512.0,520.0,515.0,524.0
516.0,493.0,513.0,522.0
520.0,492.0,524.0,525.0
518.0,502.0,534.0,517.0
515.0,503.0,526.0,508.0
509.0,508.0,525.0,506.0
508.0,515.0,519.0,505.0
503.0,520.0,516.0,505.0
506.0,488.0,512.0,500.0
502.0,502.0,513.0,502.0
500.0,514.0,511.0,505.0
506.0,506.0,506.0,505.0
506.0,505.0,506.0,513.0
503.0,508.0,504.0,517.0
510.0,502.0,507.0,524.0
524.0,507.0,509.0,524.0
519.0,501.0,513.0,521.0
516.0,506.0,512.0,521.0
518.0,505.0,513.0,516.0
529.0,496.0,513.0,515.0
525.0,487.0,518.0,512.0
524.0,488.0,519.0,510.0
515.0,489.0,520.0,509.0
510.0,496.0,522.0,507.0
508.0,502.0,520.0,507.0
508.0,511.0,515.0,506.0
500.0,524.0,508.0,508.0
501.0,534.0,510.0,508.0
507.0,530.0,508.0,514.0
513.0,531.0,509.0,519.0
512.0,535.0,510.0,523.0
513.0,491.0,509.0,522.0
511.0,495.0,515.0,523.0
514.0,498.0,512.0,521.0
515.0,501.0,516.0,517.0
517.0,495.0,518.0,519.0
520.0,487.0,514.0,519.0
519.0,488.0,520.0,515.0
519.0,495.0,517.0,510.0
511.0,497.0,520.0,512.0
506.0,515.0,521.0,509.0
506.0,516.0,520.0,510.0
504.0,514.0,516.0,514.0
502.0,511.0,507.0,507.0
507.0,499.0,515.0,514.0
503.0,500.0,514.0,521.0
504.0,497.0,510.0,515.0
502.0,501.0,502.0,517.0
502.0,502.0,509.0,521.0
506.0,497.0,511.0,531.0
512.0,514.0,510.0,523.0
516.0,506.0,511.0,518.0
526.0,490.0,511.0,516.0
528.0,488.0,510.0,517.0
519.0,501.0,517.0,512.0
516.0,509.0,517.0,508.0
512.0,512.0,520.0,512.0
508.0,520.0,523.0,512.0
511.0,508.0,525.0,513.0
501.0,516.0,527.0,508.0
498.0,512.0,516.0,507.0
508.0,517.0,503.0,505.0
502.0,526.0,500.0,508.0
508.0,545.0,502.0,513.0
501.0,525.0,511.0,521.0
511.0,486.0,509.0,521.0
505.0,498.0,510.0,519.0
507.0,487.0,513.0,521.0
503.0,503.0,515.0,519.0
516.0,496.0,520.0,514.0
518.0,499.0,519.0,504.0
518.0,493.0,519.0,504.0
514.0,496.0,518.0,505.0
514.0,498.0,516.0,506.0
506.0,512.0,514.0,507.0
508.0,512.0,509.0,504.0
504.0,516.0,510.0,504.0
506.0,503.0,508.0,504.0
507.0,506.0,506.0,510.0
507.0,512.0,504.0,511.0
503.0,516.0,508.0,519.0
507.0,518.0,508.0,520.0
505.0,509.0,510.0,521.0
512.0,501.0,511.0,522.0
511.0,504.0,508.0,519.0
512.0,491.0,518.0,519.0
520.0,465.0,520.0,517.0
520.0,463.0,522.0,516.0
516.0,483.0,526.0,511.0
510.0,515.0,522.0,508.0
502.0,529.0,522.0,510.0
509.0,526.0,517.0,510.0
504.0,500.0,517.0,513.0
503.0,504.0,514.0,512.0
505.0,521.0,512.0,519.0
501.0,529.0,515.0,519.0
511.0,492.0,505.0,520.0
507.0,520.0,504.0,519.0
506.0,519.0,503.0,519.0
504.0,522.0,505.0,524.0
511.0,509.0,511.0,520.0
508.0,511.0,518.0,518.0
521.0,490.0,519.0,516.0
524.0,487.0,518.0,514.0
522.0,489.0,520.0,512.0
514.0,504.0,521.0,510.0
511.0,505.0,517.0,504.0
509.0,492.0,514.0,504.0
506.0,494.0,512.0,502.0
506.0,496.0,511.0,509.0
501.0,524.0,517.0,512.0
505.0,530.0,515.0,514.0
504.0,523.0,514.0,519.0
505.0,533.0,511.0,519.0
500.0,525.0,504.0,522.0
506.0,486.0,507.0,522.0
509.0,485.0,509.0,521.0
517.0,500.0,514.0,526.0
513.0,509.0,513.0,521.0
521.0,531.0,520.0,519.0
520.0,539.0,522.0,515.0
513.0,541.0,522.0,509.0
511.0,506.0,516.0,506.0
516.0,449.0,516.0,506.0
506.0,486.0,511.0,502.0
505.0,492.0,510.0,502.0
499.0,503.0,509.0,506.0
499.0,498.0,505.0,509.0
504.0,500.0,506.0,513.0
505.0,507.0,506.0,520.0
509.0,519.0,505.0,522.0
507.0,524.0,505.0,521.0
504.0,523.0,507.0,522.0
506.0,510.0,514.0,521.0
502.0,503.0,518.0,521.0
511.0,490.0,517.0,515.0
521.0,486.0,521.0,515.0
522.0,493.0,519.0,507.0
532.0,504.0,519.0,507.0
527.0,506.0,520.0,506.0
517.0,508.0,518.0,503.0
510.0,512.0,512.0,504.0
511.0,515.0,513.0,503.0
508.0,519.0,511.0,500.0
515.0,508.0,507.0,510.0
513.0,499.0,506.0,515.0
510.0,482.0,510.0,522.0
508.0,486.0,509.0,520.0
509.0,496.0,507.0,524.0
511.0,518.0,513.0,526.0
516.0,517.0,514.0,522.0
507.0,523.0,521.0,521.0
521.0,501.0,520.0,517.0
525.0,487.0,516.0,511.0
520.0,492.0,522.0,512.0
518.0,501.0,521.0,509.0
511.0,505.0,520.0,505.0
506.0,506.0,515.0,504.0
507.0,502.0,510.0,501.0
503.0,512.0,507.0,505.0
505.0,509.0,509.0,505.0
506.0,494.0,507.0,509.0
509.0,499.0,505.0,511.0
507.0,505.0,509.0,517.0
505.0,512.0,509.0,516.0
509.0,520.0,512.0,520.0
506.0,514.0,508.0,518.0
515.0,513.0,515.0,523.0
512.0,519.0,514.0,524.0
519.0,496.0,517.0,516.0
521.0,496.0,519.0,514.0
514.0,501.0,519.0,508.0
515.0,501.0,519.0,507.0
512.0,492.0,517.0,503.0
508.0,499.0,515.0,506.0
510.0,508.0,513.0,509.0
504.0,522.0,506.0,510.0
503.0,526.0,507.0,513.0
507.0,530.0,506.0,513.0
510.0,508.0,511.0,518.0
510.0,497.0,509.0,521.0
507.0,498.0,503.0,520.0
510.0,518.0,508.0,524.0
515.0,493.0,510.0,524.0
510.0,492.0,515.0,525.0
511.0,492.0,516.0,522.0
518.0,487.0,522.0,519.0
523.0,482.0,526.0,517.0
519.0,510.0,522.0,513.0
512.0,508.0,522.0,508.0
509.0,504.0,515.0,502.0
505.0,499.0,511.0,504.0
510.0,492.0,507.0,503.0
504.0,497.0,507.0,503.0
505.0,500.0,507.0,505.0
499.0,510.0,502.0,505.0
500.0,522.0,500.0,514.0
503.0,517.0,506.0,522.0
504.0,510.0,508.0,525.0
508.0,508.0,509.0,522.0
516.0,498.0,519.0,525.0
513.0,501.0,517.0,522.0
515.0,521.0,519.0,518.0
517.0,518.0,517.0,513.0
516.0,523.0,525.0,510.0
526.0,494.0,519.0,510.0
518.0,486.0,517.0,507.0
510.0,502.0,514.0,506.0
509.0,497.0,509.0,507.0
508.0,485.0,505.0,508.0
505.0,487.0,508.0,510.0
510.0,500.0,508.0,511.0
511.0,499.0,510.0,518.0
509.0,515.0,510.0,521.0
502.0,535.0,516.0,527.0
509.0,534.0,518.0,527.0
512.0,522.0,511.0,522.0
517.0,505.0,508.0,518.0
513.0,506.0,512.0,518.0
519.0,495.0,513.0,513.0
519.0,504.0,520.0,509.0
517.0,516.0,518.0,506.0
512.0,524.0,519.0,504.0
511.0,510.0,517.0,500.0
508.0,481.0,511.0,502.0
509.0,493.0,506.0,502.0
503.0,502.0,507.0,500.0
510.0,500.0,504.0,506.0
508.0,501.0,505.0,509.0
508.0,508.0,505.0,520.0
507.0,507.0,510.0,521.0
506.0,503.0,510.0,520.0
505.0,501.0,510.0,522.0
515.0,501.0,512.0,521.0
518.0,498.0,515.0,517.0
522.0,502.0,516.0,516.0
521.0,503.0,520.0,516.0
521.0,485.0,520.0,509.0
517.0,487.0,520.0,511.0
513.0,500.0,519.0,508.0
511.0,503.0,515.0,510.0
506.0,510.0,509.0,510.0
508.0,501.0,510.0,510.0
503.0,508.0,519.0,514.0
509.0,500.0,521.0,516.0
505.0,503.0,518.0,519.0
507.0,501.0,512.0,517.0
504.0,517.0,510.0,520.0
506.0,520.0,506.0,520.0
504.0,526.0,508.0,519.0
511.0,512.0,511.0,519.0
513.0,510.0,511.0,517.0
521.0,497.0,516.0,516.0
520.0,499.0,520.0,510.0
516.0,512.0,521.0,513.0
513.0,513.0,523.0,507.0
509.0,506.0,517.0,504.0
503.0,517.0,513.0,503.0
511.0,504.0,510.0,507.0
506.0,474.0,506.0,506.0
514.0,467.0,503.0,504.0
508.0,493.0,507.0,510.0
508.0,496.0,505.0,515.0
506.0,512.0,503.0,518.0
512.0,532.0,503.0,521.0
511.0,518.0,508.0,525.0
509.0,524.0,512.0,521.0
515.0,496.0,513.0,520.0
509.0,498.0,515.0,517.0
515.0,484.0,517.0,516.0
516.0,481.0,518.0,511.0
515.0,493.0,520.0,509.0
515.0,521.0,517.0,506.0
517.0,522.0,515.0,506.0
510.0,519.0,516.0,506.0
513.0,506.0,511.0,506.0
509.0,503.0,508.0,504.0
509.0,502.0,510.0,512.0
509.0,501.0,509.0,517.0
510.0,512.0,507.0,517.0
508.0,530.0,507.0,522.0
506.0,521.0,507.0,523.0
504.0,512.0,512.0,524.0
513.0,514.0,510.0,522.0
512.0,511.0,513.0,523.0
518.0,498.0,515.0,522.0
524.0,488.0,518.0,514.0
519.0,490.0,520.0,513.0
515.0,497.0,523.0,510.0
510.0,503.0,521.0,506.0
507.0,512.0,518.0,507.0
505.0,514.0,513.0,504.0
508.0,505.0,510.0,505.0
501.0,511.0,507.0,505.0
508.0,501.0,505.0,509.0
504.0,503.0,507.0,516.0
504.0,505.0,506.0,520.0
505.0,509.0,506.0,519.0
506.0,527.0,502.0,517.0
500.0,534.0,509.0,522.0
512.0,508.0,515.0,519.0
511.0,515.0,514.0,516.0
519.0,517.0,514.0,515.0
521.0,496.0,519.0,514.0
520.0,493.0,522.0,509.0
518.0,464.0,522.0,508.0
512.0,493.0,517.0,504.0
509.0,505.0,515.0,502.0
510.0,498.0,513.0,512.0
507.0,503.0,511.0,510.0
508.0,503.0,506.0,514.0
506.0,508.0,504.0,510.0
505.0,506.0,506.0,513.0
507.0,509.0,505.0,520.0
505.0,511.0,504.0,521.0
503.0,507.0,508.0,526.0
505.0,500.0,513.0,524.0
510.0,490.0,513.0,524.0
502.0,497.0,515.0,521.0
509.0,486.0,513.0,515.0
511.0,488.0,517.0,511.0
510.0,496.0,518.0,506.0
511.0,502.0,518.0,510.0
514.0,491.0,516.0,509.0
518.0,520.0,515.0,510.0
515.0,514.0,521.0,506.0
506.0,506.0,512.0,507.0
515.0,512.0,503.0,510.0
517.0,516.0,511.0,516.0
518.0,501.0,501.0,515.0
508.0,511.0,505.0,522.0
508.0,522.0,502.0,524.0
509.0,522.0,507.0,519.0
516.0,517.0,512.0,523.0
513.0,514.0,515.0,519.0
519.0,502.0,519.0,517.0
520.0,506.0,523.0,515.0
522.0,503.0,522.0,511.0
517.0,499.0,522.0,509.0
514.0,505.0,502.0,501.0
509.0,509.0,509.0,504.0
507.0,512.0,512.0,507.0
515.0,507.0,515.0,509.0
505.0,511.0,514.0,511.0
510.0,491.0,518.0,513.0
509.0,496.0,509.0,514.0
508.0,510.0,504.0,515.0
506.0,514.0,502.0,518.0
504.0,518.0,504.0,520.0
500.0,520.0,507.0,522.0
512.0,507.0,506.0,516.0
510.0,511.0,511.0,516.0
517.0,494.0,515.0,514.0
518.0,496.0,520.0,513.0
514.0,501.0,522.0,511.0
518.0,506.0,524.0,508.0
512.0,508.0,521.0,506.0
507.0,505.0,514.0,503.0
509.0,506.0,509.0,503.0
512.0,513.0,508.0,503.0
507.0,515.0,508.0,503.0
508.0,503.0,508.0,507.0
506.0,501.0,514.0,516.0
510.0,511.0,504.0,519.0
505.0,510.0,503.0,521.0
507.0,506.0,506.0,524.0
509.0,509.0,509.0,522.0
517.0,504.0,513.0,521.0
517.0,514.0,519.0,521.0
526.0,500.0,524.0,514.0
523.0,499.0,526.0,511.0
523.0,493.0,519.0,507.0
515.0,497.0,519.0,504.0
511.0,499.0,516.0,503.0
505.0,487.0,511.0,506.0
506.0,514.0,510.0,504.0
505.0,520.0,509.0,505.0
509.0,509.0,509.0,507.0
509.0,499.0,502.0,509.0
508.0,504.0,504.0,513.0
508.0,508.0,504.0,518.0
506.0,507.0,508.0,522.0
507.0,515.0,513.0,523.0
512.0,505.0,515.0,523.0
515.0,503.0,516.0,522.0
518.0,504.0,518.0,516.0
521.0,488.0,516.0,513.0
521.0,488.0,520.0,510.0
517.0,488.0,521.0,508.0
513.0,479.0,520.0,506.0
510.0,494.0,516.0,505.0
508.0,525.0,515.0,507.0
506.0,525.0,512.0,506.0
506.0,514.0,509.0,507.0
508.0,503.0,507.0,513.0
507.0,517.0,504.0,511.0
505.0,516.0,504.0,513.0
504.0,517.0,509.0,520.0
508.0,504.0,509.0,521.0
506.0,506.0,509.0,519.0
511.0,513.0,514.0,518.0
510.0,518.0,510.0,516.0
520.0,524.0,514.0,514.0
525.0,484.0,520.0,511.0
522.0,479.0,522.0,508.0
517.0,503.0,522.0,506.0
511.0,512.0,517.0,504.0
504.0,515.0,512.0,504.0
506.0,498.0,514.0,504.0
503.0,516.0,511.0,506.0
508.0,513.0,513.0,510.0
514.0,501.0,507.0,507.0
507.0,506.0,507.0,520.0
507.0,523.0,509.0,521.0
503.0,520.0,509.0,522.0
501.0,512.0,508.0,525.0
503.0,505.0,509.0,524.0
516.0,494.0,508.0,520.0
518.0,495.0,511.0,519.0
522.0,477.0,516.0,515.0
522.0,483.0,521.0,512.0
517.0,493.0,525.0,513.0
514.0,491.0,527.0,510.0
510.0,491.0,523.0,508.0
506.0,507.0,520.0,505.0
508.0,513.0,515.0,507.0
503.0,516.0,510.0,503.0
508.0,506.0,504.0,512.0
508.0,505.0,504.0,511.0
509.0,504.0,506.0,514.0
505.0,512.0,507.0,519.0
507.0,517.0,507.0,523.0
503.0,517.0,512.0,525.0
512.0,506.0,514.0,521.0
517.0,509.0,517.0,517.0
521.0,501.0,517.0,517.0
522.0,500.0,518.0,509.0
522.0,496.0,521.0,513.0
518.0,496.0,520.0,506.0
510.0,504.0,518.0,506.0
510.0,503.0,511.0,504.0
504.0,504.0,509.0,502.0
506.0,486.0,503.0,503.0
505.0,500.0,507.0,504.0
511.0,503.0,505.0,509.0
511.0,510.0,505.0,510.0
509.0,523.0,506.0,517.0
505.0,530.0,508.0,521.0
507.0,527.0,510.0,522.0
507.0,531.0,510.0,524.0
512.0,509.0,508.0,520.0
514.0,489.0,510.0,518.0
520.0,493.0,516.0,515.0
520.0,486.0,522.0,518.0
522.0,489.0,525.0,513.0
519.0,496.0,527.0,510.0
514.0,494.0,532.0,512.0
511.0,513.0,518.0,505.0
506.0,511.0,510.0,506.0
506.0,499.0,509.0,500.0
501.0,492.0,506.0,503.0
506.0,494.0,504.0,503.0
504.0,505.0,503.0,509.0
501.0,513.0,504.0,514.0
508.0,527.0,503.0,517.0
507.0,524.0,506.0,520.0
508.0,520.0,510.0,521.0
519.0,502.0,514.0,521.0
522.0,508.0,515.0,512.0
527.0,497.0,516.0,516.0
524.0,490.0,521.0,511.0
518.0,500.0,524.0,509.0
509.0,505.0,523.0,508.0
504.0,515.0,520.0,506.0
499.0,525.0,516.0,506.0
503.0,512.0,510.0,512.0
502.0,517.0,509.0,506.0
505.0,515.0,500.0,506.0
509.0,509.0,502.0,513.0
509.0,510.0,506.0,519.0
510.0,503.0,506.0,518.0
515.0,496.0,510.0,524.0
511.0,506.0,512.0,528.0
514.0,505.0,511.0,525.0
518.0,498.0,513.0,523.0
523.0,499.0,519.0,523.0
521.0,495.0,520.0,518.0
521.0,497.0,527.0,514.0
517.0,501.0,522.0,506.0
512.0,502.0,521.0,504.0
510.0,497.0,518.0,504.0
506.0,504.0,514.0,504.0
510.0,502.0,508.0,510.0
504.0,517.0,508.0,507.0
512.0,506.0,500.0,504.0
507.0,507.0,501.0,515.0
508.0,516.0,502.0,517.0
504.0,512.0,511.0,519.0
506.0,518.0,511.0,524.0
505.0,517.0,510.0,521.0
513.0,495.0,515.0,519.0
514.0,511.0,511.0,518.0
522.0,499.0,518.0,513.0
525.0,485.0,520.0,512.0
517.0,502.0,520.0,503.0
520.0,512.0,519.0,504.0
512.0,518.0,519.0,502.0
509.0,515.0,512.0,500.0
511.0,512.0,507.0,503.0
510.0,504.0,507.0,507.0
509.0,488.0,504.0,507.0
511.0,502.0,502.0,510.0
508.0,505.0,502.0,513.0
507.0,504.0,502.0,519.0
506.0,507.0,506.0,522.0
506.0,511.0,514.0,523.0
509.0,516.0,511.0,528.0
516.0,503.0,513.0,520.0
514.0,503.0,518.0,527.0
521.0,490.0,520.0,520.0
522.0,491.0,522.0,515.0
520.0,498.0,527.0,512.0
514.0,500.0,522.0,506.0
511.0,507.0,514.0,501.0
504.0,518.0,512.0,502.0
512.0,510.0,506.0,502.0
503.0,514.0,505.0,504.0
508.0,501.0,503.0,507.0
510.0,516.0,497.0,504.0
508.0,515.0,499.0,513.0
505.0,520.0,505.0,517.0
505.0,507.0,504.0,519.0
503.0,503.0,506.0,521.0
506.0,499.0,510.0,520.0
514.0,492.0,510.0,513.0
521.0,475.0,516.0,517.0
520.0,467.0,518.0,517.0
521.0,485.0,520.0,511.0
522.0,490.0,517.0,511.0
517.0,496.0,516.0,508.0
507.0,509.0,514.0,507.0
503.0,520.0,512.0,507.0
508.0,502.0,509.0,505.0
504.0,507.0,508.0,508.0
512.0,489.0,506.0,513.0
511.0,494.0,504.0,514.0
510.0,503.0,505.0,514.0
507.0,527.0,503.0,518.0
508.0,535.0,507.0,523.0
513.0,513.0,512.0,526.0
520.0,498.0,509.0,524.0
516.0,504.0,512.0,520.0
522.0,485.0,513.0,518.0
521.0,488.0,517.0,510.0
515.0,500.0,517.0,506.0
509.0,506.0,522.0,507.0
505.0,515.0,521.0,503.0
501.0,528.0,510.0,504.0
498.0,525.0,507.0,504.0
504.0,517.0,507.0,503.0
516.0,517.0,510.0,508.0
521.0,503.0,504.0,504.0
513.0,509.0,507.0,511.0
513.0,514.0,504.0,515.0
510.0,512.0,500.0,521.0
510.0,511.0,500.0,522.0
512.0,514.0,506.0,522.0
522.0,501.0,510.0,522.0
521.0,496.0,515.0,522.0
525.0,488.0,519.0,512.0
520.0,491.0,518.0,510.0
516.0,492.0,525.0,508.0
516.0,513.0,522.0,504.0
508.0,523.0,519.0,507.0
506.0,527.0,513.0,503.0
508.0,516.0,506.0,502.0
507.0,514.0,504.0,502.0
508.0,497.0,503.0,507.0
505.0,504.0,502.0,511.0
505.0,525.0,502.0,516.0
501.0,527.0,506.0,521.0
501.0,524.0,507.0,523.0
506.0,500.0,511.0,523.0
518.0,452.0,514.0,523.0
524.0,489.0,517.0,522.0
523.0,507.0,517.0,520.0
526.0,500.0,521.0,517.0
520.0,492.0,530.0,516.0
518.0,494.0,521.0,508.0
512.0,494.0,519.0,502.0
510.0,511.0,517.0,502.0
506.0,514.0,512.0,499.0
511.0,513.0,510.0,502.0
507.0,511.0,506.0,503.0
508.0,501.0,503.0,503.0
503.0,504.0,502.0,513.0
503.0,516.0,503.0,516.0
503.0,517.0,506.0,520.0
509.0,515.0,508.0,522.0
511.0,517.0,512.0,521.0
518.0,500.0,515.0,520.0
517.0,498.0,514.0,520.0
521.0,481.0,518.0,518.0
524.0,472.0,519.0,512.0
520.0,476.0,521.0,508.0
514.0,494.0,520.0,502.0
508.0,500.0,515.0,502.0
503.0,507.0,515.0,500.0
504.0,492.0,513.0,505.0
508.0,507.0,510.0,506.0
504.0,528.0,506.0,510.0
503.0,544.0,506.0,513.0
506.0,538.0,508.0,517.0
514.0,468.0,501.0,518.0
511.0,500.0,504.0,520.0
507.0,512.0,511.0,524.0
508.0,524.0,512.0,526.0
517.0,506.0,520.0,526.0
519.0,498.0,524.0,524.0
522.0,494.0,520.0,518.0
521.0,497.0,519.0,511.0
517.0,497.0,518.0,507.0
512.0,501.0,517.0,499.0
509.0,511.0,514.0,501.0
505.0,518.0,511.0,501.0
508.0,511.0,508.0,498.0
503.0,507.0,512.0,503.0
508.0,499.0,503.0,503.0
507.0,493.0,505.0,509.0
509.0,492.0,500.0,514.0
510.0,503.0,504.0,516.0
510.0,505.0,503.0,521.0
507.0,515.0,508.0,520.0
509.0,510.0,510.0,521.0
517.0,505.0,517.0,521.0
519.0,507.0,521.0,520.0
516.0,509.0,523.0,514.0
517.0,507.0,520.0,516.0
514.0,507.0,517.0,508.0
509.0,487.0,516.0,504.0
503.0,495.0,516.0,504.0
498.0,506.0,519.0,503.0
506.0,503.0,514.0,502.0
502.0,508.0,510.0,506.0
505.0,501.0,506.0,514.0
501.0,504.0,506.0,518.0
503.0,501.0,505.0,519.0
510.0,507.0,503.0,521.0
507.0,512.0,504.0,518.0
510.0,517.0,508.0,516.0
514.0,511.0,513.0,517.0
518.0,518.0,509.0,511.0
524.0,492.0,514.0,516.0
528.0,477.0,518.0,511.0
521.0,484.0,519.0,512.0
512.0,501.0,521.0,512.0
511.0,514.0,513.0,503.0
508.0,513.0,519.0,513.0
508.0,509.0,520.0,513.0
509.0,493.0,520.0,511.0
509.0,510.0,513.0,511.0
510.0,504.0,508.0,513.0
509.0,514.0,502.0,516.0
507.0,518.0,501.0,518.0
508.0,518.0,502.0,519.0
510.0,520.0,504.0,518.0
516.0,516.0,505.0,516.0
518.0,496.0,510.0,514.0
515.0,500.0,511.0,515.0
522.0,494.0,518.0,509.0
520.0,503.0,525.0,507.0
513.0,505.0,524.0,506.0
510.0,506.0,516.0,506.0
506.0,509.0,515.0,505.0
504.0,509.0,514.0,505.0
504.0,500.0,512.0,504.0
508.0,494.0,508.0,506.0
512.0,494.0,505.0,508.0
507.0,498.0,503.0,511.0
504.0,507.0,501.0,511.0
503.0,512.0,503.0,518.0
501.0,514.0,513.0,522.0
509.0,515.0,505.0,520.0
511.0,512.0,511.0,521.0
522.0,496.0,515.0,522.0
525.0,494.0,516.0,515.0
524.0,491.0,520.0,511.0
519.0,495.0,522.0,511.0
517.0,511.0,522.0,503.0
511.0,511.0,518.0,502.0
507.0,509.0,516.0,506.0
504.0,506.0,512.0,503.0
509.0,494.0,513.0,506.0
506.0,494.0,503.0,508.0
511.0,487.0,501.0,512.0
510.0,503.0,501.0,515.0
505.0,493.0,494.0,513.0
504.0,521.0,501.0,519.0
502.0,532.0,506.0,525.0
504.0,523.0,516.0,527.0
513.0,505.0,512.0,522.0
515.0,493.0,524.0,520.0
526.0,483.0,520.0,514.0
527.0,489.0,526.0,510.0
521.0,494.0,521.0,512.0
513.0,505.0,518.0,501.0
507.0,516.0,517.0,502.0
502.0,530.0,514.0,509.0
508.0,505.0,512.0,506.0
507.0,494.0,509.0,507.0
506.0,498.0,504.0,506.0
504.0,515.0,505.0,509.0
503.0,512.0,501.0,512.0
502.0,521.0,503.0,521.0
505.0,526.0,507.0,524.0
507.0,529.0,507.0,525.0
510.0,522.0,510.0,519.0
522.0,484.0,514.0,516.0
519.0,472.0,518.0,518.0
520.0,475.0,518.0,515.0
513.0,501.0,520.0,510.0
513.0,506.0,518.0,507.0
506.0,514.0,517.0,506.0
505.0,515.0,519.0,505.0
502.0,511.0,517.0,506.0
508.0,508.0,511.0,506.0
510.0,516.0,508.0,506.0
509.0,514.0,504.0,510.0
508.0,508.0,499.0,514.0
507.0,517.0,506.0,518.0
502.0,518.0,508.0,521.0
503.0,517.0,509.0,526.0
504.0,505.0,513.0,524.0
509.0,501.0,512.0,516.0
521.0,479.0,511.0,517.0
520.0,485.0,514.0,512.0
524.0,484.0,516.0,510.0
524.0,497.0,517.0,505.0
517.0,502.0,513.0,504.0
516.0,515.0,516.0,504.0
506.0,524.0,515.0,506.0
502.0,522.0,510.0,506.0
508.0,507.0,513.0,505.0
504.0,508.0,513.0,509.0
506.0,510.0,507.0,516.0
509.0,506.0,507.0,519.0
506.0,508.0,506.0,517.0
503.0,514.0,504.0,517.0
505.0,510.0,508.0,520.0
505.0,508.0,510.0,518.0
512.0,494.0,513.0,519.0
514.0,492.0,512.0,518.0
521.0,493.0,516.0,512.0
520.0,501.0,515.0,505.0
514.0,500.0,515.0,499.0
513.0,505.0,518.0,507.0
508.0,508.0,518.0,505.0
504.0,513.0,513.0,502.0
504.0,507.0,509.0,505.0
507.0,505.0,509.0,505.0
507.0,501.0,503.0,511.0
505.0,498.0,504.0,512.0
506.0,502.0,505.0,516.0
505.0,496.0,505.0,515.0
505.0,508.0,504.0,522.0
507.0,508.0,510.0,521.0
509.0,517.0,513.0,520.0
513.0,511.0,513.0,522.0
517.0,502.0,520.0,519.0
522.0,493.0,523.0,523.0
518.0,501.0,525.0,514.0
511.0,499.0,523.0,510.0
514.0,495.0,522.0,506.0
511.0,498.0,512.0,503.0
506.0,525.0,507.0,500.0
508.0,521.0,503.0,501.0
510.0,509.0,506.0,505.0
508.0,493.0,508.0,509.0
509.0,504.0,506.0,514.0
509.0,511.0,499.0,514.0
505.0,517.0,505.0,518.0
506.0,517.0,508.0,521.0
507.0,522.0,511.0,520.0
508.0,518.0,517.0,523.0
517.0,513.0,513.0,520.0
518.0,498.0,516.0,513.0
519.0,495.0,519.0,514.0
515.0,496.0,521.0,510.0
518.0,474.0,523.0,506.0
515.0,488.0,523.0,504.0
510.0,501.0,517.0,509.0
503.0,505.0,513.0,508.0
506.0,502.0,504.0,502.0
505.0,507.0,500.0,507.0
504.0,502.0,501.0,506.0
507.0,502.0,499.0,513.0
502.0,515.0,508.0,520.0
503.0,520.0,512.0,529.0
508.0,521.0,515.0,532.0
510.0,512.0,518.0,527.0
516.0,508.0,515.0,519.0
516.0,504.0,515.0,510.0
521.0,500.0,521.0,513.0
522.0,493.0,526.0,509.0
516.0,488.0,517.0,504.0
513.0,482.0,515.0,503.0
508.0,492.0,512.0,504.0
506.0,505.0,512.0,506.0
504.0,523.0,510.0,504.0
506.0,521.0,508.0,502.0
507.0,517.0,504.0,506.0
507.0,515.0,502.0,509.0
508.0,490.0,500.0,514.0
507.0,490.0,503.0,517.0
506.0,506.0,505.0,516.0
507.0,506.0,507.0,519.0
509.0,509.0,509.0,521.0
519.0,520.0,512.0,526.0
521.0,503.0,517.0,516.0
519.0,493.0,518.0,514.0
519.0,500.0,515.0,509.0
517.0,496.0,518.0,505.0
512.0,493.0,515.0,506.0
511.0,500.0,518.0,509.0
505.0,505.0,517.0,510.0
505.0,498.0,515.0,510.0
507.0,497.0,508.0,509.0
507.0,497.0,504.0,511.0
506.0,503.0,502.0,510.0
505.0,519.0,501.0,512.0
498.0,538.0,499.0,515.0
503.0,536.0,508.0,517.0
503.0,536.0,511.0,521.0
509.0,516.0,512.0,516.0
518.0,504.0,513.0,517.0
524.0,497.0,515.0,513.0
525.0,474.0,516.0,514.0
520.0,495.0,514.0,507.0
515.0,499.0,519.0,504.0
508.0,502.0,520.0,503.0
502.0,507.0,511.0,508.0
504.0,512.0,511.0,504.0
507.0,498.0,509.0,506.0
507.0,499.0,506.0,504.0
507.0,503.0,510.0,510.0
511.0,505.0,505.0,512.0
508.0,514.0,509.0,518.0
507.0,523.0,505.0,521.0
505.0,522.0,507.0,520.0
504.0,518.0,510.0,518.0
512.0,510.0,511.0,525.0
517.0,505.0,515.0,519.0
521.0,510.0,518.0,517.0
520.0,502.0,520.0,511.0
515.0,516.0,521.0,507.0
514.0,501.0,520.0,505.0
516.0,483.0,517.0,506.0
509.0,510.0,513.0,508.0
504.0,517.0,512.0,506.0
509.0,497.0,505.0,504.0
509.0,504.0,504.0,512.0
509.0,505.0,502.0,514.0
507.0,500.0,503.0,518.0
508.0,502.0,503.0,519.0
506.0,497.0,503.0,521.0
508.0,503.0,508.0,523.0
509.0,503.0,511.0,524.0
513.0,494.0,511.0,525.0
519.0,484.0,513.0,521.0
518.0,481.0,518.0,519.0
522.0,487.0,527.0,516.0
518.0,499.0,524.0,508.0
515.0,506.0,520.0,507.0
512.0,503.0,520.0,506.0
505.0,499.0,514.0,503.0
507.0,500.0,508.0,501.0
505.0,499.0,505.0,501.0
509.0,499.0,501.0,506.0
508.0,507.0,502.0,511.0
507.0,495.0,504.0,515.0
506.0,491.0,503.0,518.0
508.0,509.0,502.0,519.0
507.0,520.0,505.0,516.0
509.0,530.0,509.0,516.0
513.0,522.0,512.0,522.0
518.0,507.0,518.0,519.0
512.0,502.0,523.0,514.0
507.0,494.0,524.0,509.0
506.0,506.0,523.0,506.0
502.0,511.0,516.0,509.0
500.0,506.0,512.0,507.0
502.0,504.0,512.0,508.0
517.0,504.0,512.0,513.0
529.0,508.0,510.0,518.0
524.0,509.0,508.0,508.0
515.0,509.0,509.0,519.0
506.0,513.0,505.0,519.0
510.0,513.0,498.0,516.0
510.0,509.0,501.0,518.0
514.0,510.0,506.0,517.0
522.0,503.0,511.0,516.0
523.0,499.0,517.0,515.0
524.0,499.0,519.0,512.0
518.0,505.0,514.0,505.0
513.0,511.0,518.0,507.0
516.0,506.0,517.0,504.0
511.0,510.0,516.0,503.0
507.0,515.0,513.0,504.0
504.0,518.0,512.0,504.0
506.0,516.0,508.0,506.0
507.0,527.0,503.0,507.0
505.0,535.0,504.0,510.0
502.0,535.0,505.0,514.0
504.0,523.0,503.0,518.0
504.0,500.0,505.0,523.0
505.0,489.0,504.0,522.0
509.0,483.0,512.0,522.0
512.0,489.0,516.0,525.0
521.0,487.0,520.0,521.0
526.0,488.0,521.0,516.0
523.0,490.0,520.0,508.0
519.0,498.0,519.0,505.0
513.0,502.0,519.0,507.0
508.0,502.0,513.0,507.0
506.0,511.0,511.0,504.0
504.0,509.0,512.0,504.0
508.0,500.0,514.0,507.0
507.0,499.0,507.0,513.0
502.0,500.0,503.0,512.0
505.0,494.0,498.0,513.0
503.0,495.0,499.0,517.0
509.0,503.0,501.0,515.0
505.0,518.0,504.0,516.0
510.0,521.0,512.0,518.0
520.0,516.0,512.0,518.0
524.0,497.0,514.0,517.0
526.0,490.0,514.0,511.0
524.0,502.0,517.0,510.0
515.0,516.0,518.0,506.0
508.0,497.0,522.0,506.0
506.0,484.0,519.0,503.0
506.0,488.0,512.0,504.0
508.0,490.0,506.0,502.0
505.0,496.0,506.0,511.0
508.0,518.0,507.0,514.0
513.0,528.0,506.0,520.0
513.0,526.0,512.0,525.0
510.0,515.0,504.0,520.0
511.0,520.0,508.0,523.0
507.0,530.0,512.0,521.0
514.0,524.0,510.0,513.0
520.0,502.0,511.0,515.0
522.0,495.0,513.0,511.0
523.0,492.0,517.0,507.0
517.0,505.0,518.0,505.0
513.0,515.0,515.0,501.0
512.0,509.0,514.0,502.0
507.0,511.0,512.0,503.0
507.0,504.0,509.0,506.0
510.0,499.0,506.0,504.0
509.0,490.0,502.0,505.0
507.0,501.0,502.0,509.0
507.0,499.0,503.0,514.0
506.0,500.0,504.0,518.0
507.0,503.0,503.0,522.0
508.0,506.0,507.0,524.0
514.0,494.0,508.0,521.0
518.0,501.0,512.0,521.0
523.0,500.0,512.0,517.0
525.0,509.0,516.0,512.0
519.0,513.0,519.0,510.0
517.0,512.0,520.0,509.0
512.0,502.0,518.0,507.0
508.0,499.0,517.0,505.0
503.0,511.0,514.0,508.0
505.0,503.0,510.0,508.0
507.0,491.0,508.0,512.0
506.0,501.0,507.0,510.0
510.0,503.0,501.0,513.0
511.0,514.0,503.0,517.0
512.0,534.0,502.0,521.0
513.0,496.0,506.0,522.0
512.0,506.0,508.0,524.0
516.0,526.0,511.0,524.0
521.0,507.0,510.0,518.0
525.0,488.0,519.0,514.0
526.0,482.0,519.0,508.0
520.0,491.0,517.0,504.0
518.0,495.0,517.0,504.0
513.0,506.0,514.0,508.0
505.0,517.0,511.0,504.0
505.0,510.0,509.0,503.0
507.0,503.0,510.0,506.0
507.0,506.0,507.0,506.0
505.0,509.0,502.0,513.0
504.0,512.0,511.0,519.0
500.0,514.0,508.0,522.0
505.0,515.0,504.0,520.0
508.0,504.0,506.0,523.0
512.0,509.0,507.0,525.0
515.0,510.0,508.0,523.0
523.0,511.0,514.0,521.0
526.0,510.0,522.0,520.0
520.0,503.0,523.0,514.0
516.0,481.0,525.0,509.0
511.0,492.0,531.0,506.0
509.0,492.0,524.0,505.0
498.0,506.0,513.0,499.0
499.0,500.0,505.0,496.0
505.0,491.0,503.0,500.0
511.0,500.0,502.0,503.0
512.0,514.0,499.0,507.0
511.0,510.0,501.0,511.0
507.0,519.0,502.0,514.0
507.0,515.0,504.0,521.0
507.0,518.0,506.0,524.0
511.0,515.0,509.0,523.0
515.0,505.0,514.0,518.0
522.0,499.0,518.0,517.0
524.0,495.0,516.0,513.0
517.0,497.0,515.0,506.0
511.0,501.0,517.0,507.0
506.0,496.0,517.0,507.0
503.0,501.0,512.0,504.0
498.0,508.0,512.0,505.0
502.0,516.0,509.0,506.0
512.0,527.0,505.0,504.0
514.0,530.0,500.0,505.0
511.0,520.0,503.0,510.0
509.0,509.0,503.0,514.0
505.0,496.0,504.0,519.0
510.0,503.0,506.0,519.0
509.0,511.0,512.0,522.0
512.0,506.0,510.0,516.0
517.0,496.0,512.0,516.0
523.0,479.0,518.0,511.0
524.0,479.0,521.0,514.0
520.0,498.0,522.0,510.0
515.0,511.0,519.0,511.0
512.0,510.0,516.0,507.0
507.0,517.0,515.0,505.0
508.0,518.0,514.0,504.0
506.0,510.0,510.0,506.0
506.0,500.0,506.0,508.0
506.0,496.0,505.0,513.0
508.0,502.0,504.0,512.0
506.0,518.0,509.0,526.0
505.0,532.0,509.0,532.0
507.0,530.0,512.0,531.0
513.0,506.0,513.0,523.0
517.0,503.0,517.0,521.0
520.0,491.0,516.0,516.0
523.0,483.0,516.0,510.0
519.0,479.0,520.0,506.0
516.0,477.0,517.0,504.0
509.0,498.0,520.0,503.0
505.0,507.0,513.0,504.0
503.0,519.0,511.0,499.0
507.0,526.0,509.0,503.0
511.0,509.0,509.0,503.0
511.0,500.0,507.0,504.0
509.0,498.0,502.0,509.0
513.0,493.0,502.0,514.0
513.0,518.0,500.0,517.0
506.0,528.0,504.0,520.0
503.0,530.0,507.0,523.0
507.0,518.0,509.0,521.0
512.0,513.0,515.0,515.0
520.0,498.0,515.0,511.0
523.0,493.0,520.0,516.0
519.0,491.0,522.0,517.0
517.0,486.0,521.0,507.0
513.0,485.0,514.0,501.0
510.0,494.0,515.0,506.0
503.0,511.0,518.0,509.0
505.0,518.0,516.0,507.0
505.0,520.0,512.0,509.0
506.0,513.0,504.0,508.0
509.0,520.0,507.0,515.0
509.0,530.0,510.0,519.0
508.0,528.0,507.0,520.0
506.0,516.0,502.0,520.0
509.0,499.0,513.0,523.0
509.0,500.0,516.0,519.0
518.0,493.0,511.0,514.0
525.0,480.0,513.0,512.0
525.0,481.0,519.0,509.0
518.0,494.0,517.0,506.0
515.0,501.0,519.0,504.0
514.0,503.0,519.0,504.0
506.0,507.0,514.0,499.0
506.0,510.0,508.0,505.0
505.0,513.0,509.0,505.0
508.0,499.0,504.0,508.0
506.0,504.0,504.0,511.0
506.0,510.0,505.0,515.0
505.0,510.0,509.0,519.0
507.0,515.0,505.0,528.0
510.0,504.0,510.0,525.0
509.0,494.0,512.0,523.0
516.0,495.0,512.0,521.0
523.0,493.0,516.0,519.0
524.0,493.0,517.0,513.0
523.0,494.0,514.0,510.0
516.0,502.0,522.0,509.0
510.0,502.0,519.0,506.0
506.0,499.0,519.0,509.0
502.0,503.0,516.0,504.0
503.0,517.0,510.0,507.0
505.0,506.0,503.0,504.0
505.0,499.0,503.0,507.0
506.0,500.0,498.0,508.0
508.0,504.0,501.0,515.0
507.0,521.0,506.0,523.0
508.0,528.0,507.0,526.0
505.0,527.0,512.0,529.0
507.0,518.0,516.0,526.0
513.0,495.0,513.0,527.0
522.0,476.0,515.0,515.0
522.0,484.0,519.0,514.0
516.0,505.0,520.0,511.0
516.0,518.0,524.0,508.0
512.0,519.0,520.0,504.0
505.0,523.0,514.0,501.0
503.0,498.0,509.0,502.0
501.0,468.0,509.0,502.0
506.0,487.0,501.0,501.0
507.0,489.0,502.0,505.0
507.0,499.0,503.0,511.0
504.0,509.0,503.0,516.0
499.0,519.0,500.0,520.0
499.0,520.0,502.0,523.0
508.0,533.0,507.0,521.0
509.0,523.0,509.0,519.0
514.0,511.0,516.0,522.0
521.0,498.0,524.0,519.0
532.0,494.0,525.0,516.0
527.0,488.0,524.0,510.0
521.0,495.0,517.0,504.0
516.0,500.0,516.0,506.0
515.0,502.0,511.0,506.0
507.0,500.0,511.0,508.0
511.0,496.0,507.0,508.0
514.0,499.0,508.0,510.0
510.0,512.0,509.0,513.0
511.0,519.0,512.0,515.0
509.0,532.0,508.0,516.0
505.0,540.0,504.0,519.0
507.0,518.0,506.0,519.0
510.0,508.0,508.0,521.0
511.0,505.0,510.0,517.0
521.0,492.0,512.0,516.0
525.0,479.0,515.0,512.0
523.0,481.0,515.0,507.0
520.0,493.0,518.0,502.0
513.0,505.0,518.0,503.0
507.0,513.0,515.0,500.0
502.0,514.0,512.0,504.0
506.0,494.0,511.0,508.0
512.0,482.0,505.0,508.0
508.0,477.0,507.0,507.0
509.0,466.0,508.0,514.0
510.0,494.0,511.0,518.0
507.0,533.0,510.0,521.0
504.0,532.0,506.0,526.0
506.0,518.0,515.0,527.0
512.0,507.0,517.0,525.0
509.0,507.0,515.0,520.0
516.0,502.0,515.0,520.0
516.0,496.0,513.0,511.0
513.0,497.0,516.0,507.0
508.0,499.0,514.0,505.0
505.0,511.0,515.0,500.0
505.0,519.0,514.0,504.0
514.0,522.0,513.0,500.0
512.0,514.0,508.0,504.0
515.0,510.0,502.0,504.0
516.0,506.0,504.0,509.0
509.0,508.0,502.0,509.0
507.0,499.0,502.0,511.0
509.0,514.0,502.0,515.0
509.0,520.0,505.0,520.0
509.0,526.0,508.0,516.0
514.0,527.0,513.0,521.0
519.0,494.0,515.0,520.0
524.0,495.0,519.0,513.0
520.0,504.0,522.0,513.0
519.0,484.0,519.0,508.0
514.0,491.0,518.0,506.0
510.0,493.0,515.0,502.0
504.0,499.0,513.0,504.0
503.0,505.0,509.0,502.0
511.0,507.0,507.0,504.0
512.0,501.0,513.0,508.0
512.0,501.0,506.0,512.0
507.0,505.0,510.0,519.0
499.0,511.0,509.0,521.0
499.0,518.0,508.0,518.0
507.0,517.0,509.0,524.0
509.0,512.0,511.0,519.0
514.0,504.0,511.0,518.0
522.0,493.0,515.0,515.0
521.0,493.0,516.0,510.0
517.0,502.0,517.0,507.0
514.0,504.0,516.0,504.0
512.0,506.0,517.0,503.0
508.0,506.0,516.0,505.0
505.0,494.0,512.0,504.0
505.0,506.0,509.0,505.0
504.0,503.0,506.0,507.0
510.0,503.0,503.0,509.0
509.0,504.0,503.0,512.0
509.0,510.0,501.0,517.0
509.0,517.0,506.0,523.0
509.0,519.0,505.0,525.0
507.0,515.0,514.0,528.0
514.0,494.0,512.0,529.0
514.0,491.0,511.0,526.0
522.0,480.0,514.0,517.0
523.0,477.0,520.0,514.0
521.0,492.0,522.0,509.0
515.0,499.0,522.0,505.0
509.0,497.0,516.0,497.0
504.0,505.0,509.0,498.0
506.0,500.0,509.0,500.0
505.0,496.0,505.0,499.0
509.0,504.0,507.0,507.0
507.0,518.0,504.0,507.0
508.0,522.0,504.0,514.0
509.0,521.0,505.0,519.0
502.0,521.0,509.0,526.0
507.0,521.0,505.0,522.0
506.0,520.0,514.0,525.0
514.0,514.0,513.0,529.0
519.0,505.0,516.0,520.0
525.0,483.0,516.0,513.0
526.0,482.0,516.0,509.0
519.0,494.0,518.0,507.0
514.0,506.0,518.0,502.0
507.0,509.0,516.0,501.0
501.0,531.0,517.0,508.0
500.0,518.0,513.0,508.0
503.0,507.0,511.0,507.0
511.0,506.0,508.0,507.0
514.0,509.0,500.0,508.0
510.0,508.0,501.0,512.0
508.0,510.0,507.0,519.0
507.0,512.0,506.0,520.0
506.0,511.0,510.0,521.0
509.0,511.0,514.0,528.0
514.0,502.0,514.0,515.0
526.0,488.0,514.0,513.0
531.0,483.0,515.0,509.0
528.0,483.0,519.0,504.0
523.0,488.0,518.0,504.0
517.0,503.0,519.0,506.0
509.0,526.0,517.0,504.0
503.0,516.0,515.0,506.0
506.0,512.0,509.0,505.0
507.0,516.0,500.0,503.0
509.0,527.0,504.0,507.0
504.0,539.0,505.0,511.0
502.0,531.0,506.0,515.0
506.0,498.0,507.0,521.0
504.0,468.0,504.0,522.0
503.0,477.0,508.0,524.0
510.0,481.0,511.0,523.0
511.0,497.0,522.0,520.0
523.0,500.0,514.0,516.0
527.0,507.0,520.0,513.0
527.0,506.0,521.0,509.0
519.0,504.0,519.0,505.0
511.0,495.0,516.0,506.0
509.0,494.0,510.0,503.0
506.0,502.0,509.0,502.0
505.0,503.0,507.0,510.0
508.0,514.0,504.0,505.0
510.0,533.0,504.0,510.0
511.0,532.0,504.0,515.0
510.0,528.0,508.0,518.0
512.0,523.0,505.0,521.0
516.0,494.0,510.0,525.0
513.0,485.0,509.0,525.0
518.0,496.0,510.0,518.0
523.0,488.0,509.0,515.0
526.0,478.0,518.0,514.0
524.0,494.0,519.0,511.0
516.0,503.0,516.0,506.0
512.0,505.0,524.0,504.0
512.0,499.0,523.0,501.0
502.0,509.0,520.0,504.0
502.0,516.0,514.0,508.0
504.0,516.0,505.0,502.0
508.0,497.0,500.0,507.0
508.0,499.0,504.0,511.0
507.0,508.0,501.0,523.0
508.0,511.0,504.0,515.0
507.0,513.0,508.0,520.0
507.0,515.0,507.0,521.0
513.0,506.0,511.0,520.0
512.0,501.0,510.0,518.0
524.0,495.0,515.0,514.0
525.0,501.0,518.0,513.0
517.0,504.0,520.0,508.0
515.0,505.0,522.0,507.0
512.0,507.0,520.0,507.0
510.0,506.0,515.0,505.0
506.0,510.0,515.0,504.0
508.0,509.0,512.0,507.0
506.0,503.0,509.0,507.0
511.0,503.0,507.0,509.0
505.0,514.0,504.0,513.0
503.0,512.0,507.0,517.0
505.0,508.0,504.0,520.0
505.0,500.0,505.0,522.0
510.0,494.0,507.0,522.0
516.0,492.0,511.0,519.0
511.0,507.0,512.0,519.0
517.0,491.0,522.0,516.0
518.0,516.0,521.0,511.0
513.0,514.0,523.0,511.0
508.0,517.0,520.0,508.0
511.0,516.0,518.0,505.0
504.0,505.0,520.0,504.0
505.0,492.0,511.0,503.0
502.0,495.0,510.0,505.0
510.0,488.0,505.0,505.0
513.0,490.0,501.0,510.0
511.0,497.0,500.0,514.0
509.0,509.0,502.0,518.0
509.0,530.0,509.0,522.0
513.0,543.0,510.0,527.0
513.0,540.0,517.0,526.0
513.0,534.0,525.0,524.0
514.0,519.0,515.0,520.0
523.0,484.0,517.0,514.0
520.0,455.0,518.0,510.0
516.0,490.0,521.0,505.0
513.0,496.0,521.0,502.0
509.0,501.0,514.0,501.0
497.0,503.0,514.0,501.0
504.0,498.0,509.0,502.0
500.0,497.0,508.0,505.0
506.0,498.0,506.0,506.0
503.0,502.0,502.0,509.0
500.0,509.0,504.0,514.0
503.0,513.0,501.0,517.0
513.0,517.0,504.0,521.0
514.0,519.0,508.0,520.0
509.0,519.0,512.0,520.0
512.0,500.0,514.0,522.0
522.0,496.0,516.0,515.0
525.0,502.0,521.0,516.0
522.0,503.0,524.0,510.0
517.0,500.0,522.0,511.0
513.0,502.0,516.0,508.0
512.0,499.0,515.0,507.0
507.0,502.0,512.0,508.0
505.0,511.0,508.0,503.0
507.0,510.0,511.0,506.0
505.0,499.0,506.0,505.0
504.0,502.0,506.0,510.0
503.0,503.0,508.0,519.0
504.0,513.0,509.0,528.0
505.0,514.0,510.0,523.0
508.0,521.0,511.0,519.0
510.0,511.0,509.0,514.0
513.0,513.0,513.0,516.0
525.0,493.0,514.0,511.0
523.0,490.0,518.0,508.0
520.0,498.0,519.0,506.0
515.0,511.0,518.0,503.0
513.0,499.0,516.0,505.0
510.0,501.0,514.0,509.0
509.0,505.0,512.0,507.0
506.0,504.0,507.0,506.0
512.0,507.0,511.0,510.0
511.0,509.0,506.0,510.0
511.0,522.0,509.0,515.0
506.0,526.0,510.0,518.0
504.0,515.0,508.0,523.0
508.0,517.0,508.0,519.0
505.0,497.0,509.0,520.0
512.0,503.0,513.0,517.0
516.0,494.0,517.0,513.0
526.0,489.0,516.0,508.0
528.0,482.0,518.0,516.0
523.0,491.0,517.0,505.0
516.0,490.0,519.0,508.0
514.0,502.0,516.0,505.0
510.0,518.0,511.0,504.0
507.0,504.0,508.0,511.0
505.0,502.0,505.0,506.0
510.0,502.0,502.0,508.0
511.0,502.0,501.0,512.0
511.0,499.0,500.0,512.0
507.0,512.0,504.0,517.0
505.0,520.0,507.0,523.0
508.0,518.0,516.0,530.0
512.0,509.0,514.0,521.0
514.0,509.0,513.0,518.0
522.0,500.0,517.0,512.0
525.0,497.0,518.0,511.0
523.0,504.0,519.0,506.0
518.0,505.0,520.0,506.0
515.0,497.0,516.0,507.0
513.0,502.0,515.0,507.0
507.0,502.0,514.0,505.0
507.0,500.0,512.0,509.0
507.0,501.0,514.0,511.0
510.0,507.0,512.0,511.0
511.0,496.0,508.0,513.0
507.0,497.0,507.0,513.0
506.0,498.0,504.0,516.0
510.0,507.0,505.0,518.0
510.0,509.0,507.0,521.0
513.0,508.0,513.0,518.0
513.0,504.0,509.0,515.0
522.0,491.0,515.0,513.0
523.0,489.0,518.0,511.0
515.0,515.0,518.0,504.0
517.0,525.0,515.0,505.0
508.0,523.0,516.0,506.0
505.0,499.0,513.0,502.0
509.0,479.0,511.0,504.0
508.0,505.0,510.0,505.0
511.0,505.0,510.0,504.0
508.0,508.0,504.0,511.0
506.0,510.0,501.0,513.0
506.0,518.0,507.0,515.0
506.0,518.0,507.0,521.0
505.0,505.0,510.0,523.0
508.0,503.0,508.0,522.0
516.0,501.0,515.0,520.0
524.0,494.0,516.0,519.0
531.0,490.0,521.0,517.0
527.0,495.0,521.0,513.0
521.0,505.0,516.0,501.0
514.0,507.0,520.0,506.0
509.0,504.0,517.0,510.0
499.0,514.0,513.0,501.0
498.0,516.0,510.0,498.0
497.0,520.0,510.0,502.0
508.0,513.0,507.0,507.0
511.0,514.0,502.0,508.0
511.0,505.0,502.0,511.0
513.0,493.0,502.0,518.0
511.0,504.0,508.0,523.0
508.0,518.0,510.0,520.0
511.0,516.0,511.0,521.0
513.0,516.0,512.0,520.0
521.0,514.0,517.0,516.0
521.0,501.0,521.0,511.0
525.0,493.0,521.0,509.0
514.0,504.0,519.0,507.0
512.0,513.0,516.0,506.0
510.0,516.0,517.0,506.0
503.0,521.0,514.0,510.0
506.0,514.0,512.0,504.0
505.0,507.0,509.0,511.0
505.0,496.0,517.0,515.0
502.0,498.0,507.0,518.0
505.0,504.0,506.0,520.0
508.0,511.0,507.0,524.0
509.0,500.0,508.0,525.0
510.0,507.0,509.0,524.0
511.0,505.0,514.0,522.0
513.0,514.0,524.0,521.0
525.0,491.0,516.0,519.0
521.0,490.0,515.0,502.0
515.0,499.0,521.0,502.0
506.0,507.0,521.0,507.0
510.0,507.0,515.0,501.0
506.0,508.0,513.0,498.0
505.0,502.0,509.0,501.0
507.0,507.0,509.0,501.0
507.0,508.0,508.0,502.0
512.0,508.0,506.0,505.0
513.0,507.0,500.0,512.0
510.0,514.0,501.0,518.0
507.0,514.0,501.0,516.0
509.0,513.0,507.0,525.0
508.0,520.0,511.0,517.0
514.0,513.0,516.0,516.0
518.0,502.0,516.0,518.0
521.0,491.0,519.0,517.0
522.0,482.0,519.0,512.0
516.0,486.0,520.0,508.0
513.0,493.0,518.0,503.0
513.0,498.0,516.0,502.0
504.0,503.0,512.0,501.0
503.0,507.0,511.0,502.0
503.0,514.0,508.0,505.0
507.0,511.0,504.0,508.0
507.0,506.0,502.0,512.0
507.0,507.0,499.0,514.0
506.0,528.0,501.0,517.0
506.0,540.0,509.0,522.0
501.0,540.0,513.0,524.0
510.0,511.0,510.0,524.0
514.0,474.0,514.0,522.0
520.0,461.0,522.0,517.0
518.0,471.0,519.0,513.0
516.0,475.0,520.0,512.0
510.0,485.0,522.0,507.0
508.0,490.0,518.0,506.0
507.0,502.0,518.0,507.0
498.0,507.0,513.0,505.0
505.0,508.0,508.0,499.0
513.0,514.0,505.0,501.0
523.0,501.0,501.0,505.0
520.0,495.0,503.0,508.0
510.0,517.0,504.0,514.0
510.0,527.0,504.0,520.0
512.0,525.0,508.0,525.0
511.0,527.0,510.0,524.0
513.0,521.0,514.0,524.0
514.0,515.0,515.0,520.0
522.0,503.0,518.0,510.0
524.0,504.0,518.0,508.0
519.0,499.0,518.0,503.0
511.0,500.0,517.0,504.0
510.0,503.0,516.0,501.0
503.0,505.0,518.0,503.0
506.0,507.0,507.0,502.0
506.0,502.0,506.0,501.0
510.0,496.0,503.0,505.0
506.0,504.0,503.0,509.0
506.0,512.0,508.0,514.0
503.0,517.0,504.0,516.0
504.0,512.0,504.0,521.0
508.0,510.0,505.0,522.0
504.0,509.0,505.0,524.0
516.0,505.0,508.0,522.0
520.0,497.0,513.0,517.0
526.0,492.0,516.0,514.0
525.0,491.0,521.0,511.0
522.0,500.0,526.0,509.0
513.0,504.0,530.0,507.0
510.0,498.0,521.0,504.0
505.0,494.0,512.0,501.0
506.0,485.0,508.0,501.0
507.0,495.0,504.0,501.0
509.0,506.0,503.0,505.0
507.0,506.0,503.0,510.0
503.0,518.0,500.0,513.0
505.0,524.0,505.0,519.0
508.0,520.0,507.0,519.0
507.0,520.0,510.0,518.0
507.0,514.0,512.0,526.0
515.0,510.0,515.0,516.0
518.0,498.0,515.0,515.0
521.0,495.0,515.0,510.0
518.0,497.0,520.0,505.0
515.0,509.0,520.0,504.0
510.0,510.0,518.0,506.0
510.0,511.0,516.0,501.0
504.0,516.0,514.0,500.0
505.0,489.0,511.0,503.0
505.0,494.0,508.0,508.0
508.0,498.0,505.0,511.0
507.0,507.0,508.0,517.0
507.0,514.0,509.0,521.0
512.0,511.0,504.0,524.0
511.0,514.0,506.0,525.0
510.0,511.0,511.0,520.0
515.0,506.0,514.0,522.0
515.0,503.0,515.0,518.0
522.0,495.0,518.0,513.0
520.0,496.0,527.0,512.0
514.0,502.0,517.0,504.0
510.0,503.0,523.0,509.0
504.0,494.0,523.0,509.0
502.0,486.0,510.0,499.0
507.0,476.0,509.0,500.0
504.0,505.0,510.0,503.0
505.0,519.0,504.0,510.0
510.0,515.0,499.0,514.0
509.0,506.0,498.0,518.0
504.0,509.0,502.0,521.0
509.0,508.0,505.0,518.0
513.0,513.0,507.0,522.0
514.0,516.0,512.0,521.0
520.0,510.0,514.0,517.0
520.0,495.0,519.0,516.0
523.0,492.0,524.0,510.0
521.0,489.0,521.0,512.0
515.0,497.0,517.0,503.0
512.0,504.0,518.0,502.0
506.0,503.0,515.0,503.0
506.0,509.0,510.0,501.0
505.0,507.0,511.0,500.0
505.0,512.0,508.0,504.0
508.0,504.0,505.0,505.0
506.0,510.0,503.0,511.0
504.0,513.0,504.0,513.0
503.0,521.0,504.0,518.0
506.0,516.0,505.0,521.0
507.0,524.0,506.0,522.0
507.0,508.0,512.0,522.0
511.0,501.0,513.0,517.0
522.0,493.0,516.0,514.0
525.0,461.0,523.0,514.0
521.0,473.0,527.0,513.0
519.0,492.0,519.0,508.0
515.0,505.0,513.0,504.0
504.0,520.0,513.0,504.0
497.0,519.0,513.0,506.0
500.0,511.0,510.0,506.0
505.0,505.0,506.0,511.0
510.0,503.0,508.0,514.0
509.0,498.0,507.0,513.0
507.0,492.0,511.0,521.0
505.0,516.0,513.0,525.0
505.0,519.0,511.0,521.0
507.0,525.0,506.0,515.0
513.0,515.0,510.0,515.0
514.0,506.0,516.0,518.0
521.0,493.0,522.0,514.0
526.0,490.0,521.0,508.0
521.0,492.0,517.0,505.0
518.0,494.0,516.0,500.0
511.0,505.0,519.0,503.0
509.0,514.0,516.0,505.0
506.0,510.0,515.0,504.0
508.0,504.0,510.0,502.0
509.0,499.0,507.0,507.0
510.0,499.0,507.0,513.0
508.0,505.0,507.0,519.0
503.0,509.0,499.0,515.0
509.0,507.0,500.0,520.0
513.0,507.0,509.0,525.0
509.0,505.0,514.0,523.0
515.0,503.0,515.0,518.0
519.0,495.0,516.0,517.0
522.0,491.0,518.0,514.0
523.0,494.0,518.0,506.0
519.0,499.0,520.0,500.0
518.0,502.0,518.0,502.0
517.0,506.0,519.0,506.0
509.0,512.0,515.0,506.0
509.0,511.0,511.0,506.0
506.0,509.0,506.0,506.0
505.0,505.0,504.0,508.0
507.0,510.0,503.0,512.0
506.0,514.0,511.0,516.0
508.0,515.0,503.0,519.0
509.0,522.0,506.0,520.0
509.0,520.0,509.0,522.0
508.0,501.0,512.0,521.0
513.0,496.0,513.0,519.0
522.0,475.0,517.0,516.0
522.0,484.0,522.0,513.0
519.0,490.0,520.0,509.0
517.0,490.0,521.0,508.0
510.0,500.0,518.0,508.0
511.0,499.0,515.0,507.0
507.0,496.0,512.0,513.0
508.0,494.0,510.0,509.0
508.0,497.0,508.0,510.0
511.0,518.0,508.0,511.0
507.0,523.0,497.0,514.0
505.0,523.0,503.0,520.0
506.0,517.0,509.0,521.0
510.0,500.0,512.0,522.0
511.0,482.0,515.0,520.0
516.0,487.0,517.0,521.0
516.0,493.0,515.0,516.0
521.0,486.0,514.0,512.0
522.0,502.0,517.0,507.0
516.0,519.0,520.0,504.0
515.0,518.0,515.0,501.0
509.0,513.0,517.0,507.0
505.0,519.0,512.0,505.0
505.0,518.0,509.0,505.0
502.0,513.0,512.0,506.0
506.0,511.0,507.0,509.0
508.0,506.0,506.0,509.0
506.0,508.0,504.0,516.0
504.0,508.0,503.0,518.0
506.0,501.0,508.0,522.0
508.0,511.0,510.0,523.0
507.0,523.0,511.0,523.0
510.0,501.0,516.0,521.0
513.0,489.0,517.0,515.0
517.0,485.0,519.0,510.0
514.0,485.0,520.0,508.0
515.0,497.0,518.0,505.0
515.0,501.0,519.0,504.0
511.0,511.0,515.0,507.0
510.0,514.0,512.0,512.0
509.0,507.0,514.0,506.0
506.0,509.0,507.0,508.0
511.0,504.0,508.0,509.0
513.0,500.0,507.0,514.0
508.0,505.0,509.0,518.0
508.0,520.0,503.0,521.0
506.0,518.0,503.0,523.0
510.0,518.0,510.0,521.0
514.0,513.0,510.0,521.0
514.0,517.0,512.0,520.0
524.0,492.0,517.0,515.0
522.0,505.0,520.0,510.0
514.0,510.0,526.0,506.0
514.0,510.0,517.0,504.0
512.0,510.0,516.0,504.0
511.0,476.0,515.0,502.0
510.0,480.0,513.0,503.0
511.0,499.0,506.0,501.0
509.0,512.0,509.0,505.0
512.0,518.0,499.0,506.0
511.0,512.0,495.0,511.0
508.0,518.0,503.0,519.0
507.0,525.0,503.0,521.0
512.0,519.0,503.0,524.0
510.0,503.0,510.0,520.0
514.0,491.0,512.0,522.0
517.0,490.0,514.0,520.0
524.0,481.0,517.0,515.0
522.0,484.0,518.0,509.0
519.0,485.0,519.0,509.0
512.0,491.0,520.0,507.0
509.0,505.0,513.0,506.0
506.0,510.0,514.0,504.0
505.0,512.0,511.0,503.0
502.0,511.0,507.0,506.0
507.0,501.0,509.0,509.0
511.0,511.0,505.0,511.0
517.0,514.0,505.0,516.0
510.0,518.0,505.0,521.0
507.0,514.0,503.0,521.0
511.0,510.0,506.0,522.0
510.0,510.0,511.0,522.0
515.0,503.0,512.0,514.0
523.0,494.0,514.0,519.0
525.0,488.0,517.0,507.0
523.0,492.0,521.0,511.0
515.0,502.0,519.0,506.0
510.0,513.0,519.0,501.0
511.0,510.0,516.0,505.0
508.0,515.0,513.0,500.0
504.0,513.0,510.0,511.0
504.0,509.0,509.0,509.0
508.0,507.0,508.0,520.0
505.0,505.0,514.0,516.0
506.0,509.0,502.0,516.0
506.0,514.0,506.0,517.0
505.0,514.0,502.0,515.0
507.0,514.0,505.0,524.0
510.0,510.0,510.0,520.0
512.0,503.0,514.0,518.0
519.0,496.0,516.0,513.0
522.0,495.0,521.0,513.0
520.0,495.0,523.0,509.0
519.0,493.0,525.0,506.0
511.0,502.0,521.0,513.0
508.0,501.0,517.0,503.0
497.0,502.0,508.0,501.0
500.0,497.0,509.0,502.0
504.0,493.0,505.0,505.0
509.0,494.0,505.0,509.0
508.0,505.0,504.0,514.0
506.0,528.0,503.0,516.0
504.0,535.0,505.0,520.0
515.0,523.0,506.0,523.0
517.0,511.0,510.0,522.0
516.0,494.0,516.0,525.0
517.0,495.0,518.0,519.0
524.0,489.0,518.0,517.0
522.0,495.0,522.0,507.0
518.0,501.0,520.0,507.0
514.0,502.0,516.0,504.0
512.0,505.0,511.0,502.0
508.0,508.0,511.0,504.0
503.0,510.0,513.0,501.0
502.0,507.0,513.0,507.0
506.0,497.0,514.0,509.0
504.0,502.0,509.0,511.0
501.0,507.0,503.0,518.0
503.0,508.0,504.0,519.0
505.0,521.0,506.0,521.0
512.0,519.0,514.0,523.0
515.0,516.0,508.0,520.0
518.0,508.0,510.0,517.0
520.0,497.0,515.0,516.0
522.0,497.0,519.0,513.0
521.0,494.0,524.0,508.0
516.0,491.0,518.0,505.0
513.0,497.0,519.0,503.0
508.0,502.0,513.0,505.0
505.0,521.0,511.0,505.0
503.0,533.0,510.0,506.0
500.0,537.0,507.0,508.0
508.0,534.0,510.0,511.0
505.0,496.0,509.0,516.0
510.0,466.0,506.0,516.0
505.0,492.0,503.0,518.0
510.0,496.0,506.0,520.0
508.0,513.0,511.0,522.0
509.0,508.0,515.0,517.0
512.0,518.0,516.0,520.0
521.0,502.0,521.0,520.0
522.0,491.0,527.0,516.0
514.0,486.0,520.0,508.0
514.0,505.0,516.0,500.0
510.0,514.0,518.0,507.0
505.0,510.0,514.0,507.0
505.0,503.0,512.0,505.0
506.0,486.0,508.0,506.0
505.0,486.0,511.0,509.0
511.0,491.0,506.0,509.0
509.0,501.0,502.0,505.0
503.0,515.0,506.0,521.0
501.0,522.0,506.0,523.0
503.0,517.0,509.0,522.0
505.0,513.0,506.0,522.0
509.0,509.0,516.0,520.0
514.0,494.0,516.0,516.0
524.0,470.0,516.0,505.0
528.0,473.0,516.0,507.0
525.0,486.0,520.0,506.0
518.0,504.0,520.0,507.0
511.0,514.0,516.0,505.0
507.0,522.0,515.0,505.0
503.0,522.0,511.0,503.0
499.0,506.0,512.0,500.0
499.0,496.0,506.0,499.0
500.0,502.0,507.0,513.0
501.0,511.0,502.0,518.0
501.0,522.0,505.0,515.0
504.0,530.0,500.0,516.0
511.0,529.0,509.0,520.0
519.0,512.0,513.0,524.0
522.0,505.0,516.0,521.0
525.0,494.0,515.0,519.0
525.0,490.0,519.0,515.0
520.0,491.0,522.0,511.0
518.0,485.0,523.0,508.0
517.0,489.0,519.0,506.0
514.0,493.0,516.0,503.0
506.0,504.0,512.0,505.0
508.0,514.0,507.0,502.0
508.0,501.0,506.0,506.0
507.0,505.0,505.0,509.0
508.0,508.0,504.0,513.0
509.0,514.0,501.0,519.0
505.0,515.0,506.0,520.0
507.0,513.0,508.0,523.0
514.0,514.0,509.0,523.0
513.0,502.0,509.0,523.0
510.0,505.0,513.0,520.0
518.0,496.0,517.0,518.0
522.0,491.0,519.0,514.0
519.0,488.0,519.0,509.0
514.0,497.0,522.0,506.0
509.0,508.0,527.0,507.0
509.0,510.0,526.0,508.0
503.0,508.0,515.0,504.0
503.0,506.0,505.0,501.0
509.0,498.0,504.0,503.0
511.0,500.0,502.0,509.0
507.0,504.0,503.0,511.0
507.0,506.0,504.0,519.0
505.0,502.0,506.0,520.0
510.0,507.0,507.0,520.0
510.0,516.0,512.0,521.0
514.0,513.0,516.0,515.0
517.0,500.0,514.0,517.0
524.0,489.0,515.0,514.0
526.0,488.0,518.0,509.0
518.0,492.0,523.0,506.0
515.0,497.0,520.0,499.0
514.0,497.0,517.0,502.0
510.0,507.0,514.0,506.0
506.0,517.0,512.0,509.0
504.0,516.0,505.0,504.0
506.0,506.0,502.0,506.0
506.0,522.0,502.0,509.0
503.0,527.0,502.0,511.0
509.0,514.0,505.0,517.0
509.0,513.0,504.0,521.0
506.0,519.0,510.0,523.0
507.0,488.0,516.0,522.0
510.0,495.0,513.0,519.0
516.0,491.0,513.0,514.0
522.0,491.0,517.0,515.0
525.0,496.0,518.0,511.0
524.0,499.0,515.0,508.0
518.0,492.0,517.0,506.0
510.0,497.0,513.0,507.0
510.0,504.0,513.0,503.0
503.0,503.0,513.0,507.0
502.0,508.0,510.0,507.0
507.0,503.0,509.0,508.0
507.0,505.0,505.0,514.0
506.0,513.0,505.0,519.0
504.0,512.0,508.0,521.0
507.0,513.0,507.0,522.0
508.0,504.0,509.0,519.0
505.0,499.0,510.0,517.0
507.0,495.0,515.0,514.0
518.0,486.0,518.0,513.0
517.0,489.0,521.0,511.0
517.0,493.0,518.0,510.0
518.0,506.0,518.0,504.0
518.0,513.0,515.0,504.0
516.0,507.0,515.0,503.0
505.0,503.0,517.0,505.0
506.0,501.0,509.0,507.0
507.0,503.0,505.0,503.0
509.0,506.0,501.0,502.0
509.0,513.0,505.0,515.0
507.0,514.0,503.0,519.0
508.0,512.0,506.0,522.0
509.0,511.0,509.0,522.0
510.0,510.0,513.0,529.0
510.0,512.0,518.0,522.0
515.0,505.0,515.0,515.0
521.0,494.0,517.0,512.0
522.0,500.0,520.0,513.0
515.0,507.0,522.0,504.0
511.0,500.0,520.0,506.0
509.0,503.0,521.0,506.0
509.0,500.0,518.0,504.0
508.0,506.0,511.0,504.0
505.0,512.0,510.0,505.0
509.0,508.0,506.0,507.0
506.0,505.0,505.0,510.0
508.0,510.0,505.0,512.0
509.0,515.0,506.0,515.0
507.0,510.0,505.0,519.0
510.0,511.0,509.0,522.0
510.0,506.0,512.0,519.0
515.0,504.0,514.0,515.0
522.0,487.0,513.0,512.0
522.0,492.0,521.0,517.0
519.0,502.0,520.0,511.0
516.0,503.0,519.0,508.0
510.0,502.0,519.0,507.0
509.0,506.0,516.0,505.0
503.0,512.0,512.0,504.0
501.0,506.0,512.0,506.0
504.0,500.0,507.0,504.0
507.0,494.0,508.0,512.0
505.0,496.0,506.0,515.0
504.0,507.0,507.0,518.0
507.0,518.0,503.0,516.0
508.0,522.0,503.0,522.0
512.0,522.0,511.0,525.0
511.0,520.0,512.0,523.0
511.0,510.0,516.0,518.0
518.0,493.0,517.0,512.0
521.0,495.0,521.0,508.0
516.0,495.0,521.0,508.0
514.0,497.0,523.0,510.0
510.0,503.0,520.0,506.0
508.0,502.0,516.0,504.0
506.0,515.0,508.0,504.0
503.0,523.0,511.0,506.0
506.0,509.0,508.0,506.0
505.0,507.0,501.0,511.0
503.0,505.0,509.0,515.0
503.0,505.0,506.0,522.0
502.0,513.0,504.0,521.0
510.0,511.0,507.0,521.0
507.0,516.0,507.0,521.0
515.0,513.0,510.0,520.0
520.0,489.0,515.0,518.0
522.0,486.0,520.0,514.0
523.0,481.0,522.0,508.0
518.0,475.0,522.0,509.0
519.0,486.0,524.0,507.0
517.0,496.0,518.0,506.0
510.0,509.0,516.0,507.0
503.0,519.0,511.0,506.0
501.0,530.0,506.0,505.0
506.0,529.0,503.0,506.0
508.0,527.0,505.0,512.0
510.0,506.0,505.0,511.0
508.0,490.0,501.0,517.0
508.0,485.0,506.0,523.0
506.0,504.0,510.0,520.0
503.0,517.0,508.0,523.0
510.0,508.0,512.0,521.0
522.0,495.0,515.0,516.0
523.0,491.0,521.0,513.0
524.0,496.0,520.0,511.0
518.0,500.0,517.0,501.0
509.0,502.0,523.0,505.0
509.0,501.0,516.0,504.0
509.0,502.0,514.0,506.0
504.0,497.0,513.0,512.0
507.0,499.0,505.0,503.0
510.0,499.0,503.0,503.0
506.0,506.0,504.0,515.0
503.0,522.0,504.0,523.0
503.0,520.0,506.0,519.0
504.0,513.0,510.0,515.0
507.0,520.0,512.0,521.0
512.0,506.0,511.0,519.0
513.0,500.0,514.0,519.0
524.0,491.0,519.0,511.0
527.0,497.0,520.0,510.0
517.0,502.0,522.0,508.0
515.0,509.0,520.0,507.0
513.0,506.0,515.0,501.0
511.0,513.0,514.0,501.0
504.0,506.0,511.0,502.0
503.0,502.0,511.0,505.0
509.0,498.0,507.0,509.0
509.0,496.0,509.0,515.0
512.0,501.0,503.0,515.0
504.0,507.0,505.0,521.0
503.0,516.0,503.0,521.0
507.0,516.0,506.0,517.0
507.0,517.0,512.0,523.0
509.0,507.0,511.0,516.0
515.0,500.0,513.0,516.0
521.0,497.0,521.0,514.0
521.0,497.0,521.0,512.0
519.0,498.0,518.0,505.0
515.0,497.0,519.0,506.0
510.0,504.0,519.0,514.0
