CH1,CH2,CH3,CH4
515.0,502.0,504.0,510.0
510.0,498.0,492.0,511.0
501.0,502.0,487.0,512.0
499.0,498.0,485.0,511.0
496.0,499.0,482.0,509.0
499.0,497.0,483.0,506.0
504.0,517.0,490.0,501.0
507.0,516.0,502.0,508.0
506.0,516.0,516.0,506.0
519.0,508.0,526.0,509.0
521.0,514.0,533.0,510.0
523.0,510.0,542.0,516.0
525.0,515.0,539.0,510.0
526.0,507.0,536.0,510.0
521.0,505.0,537.0,514.0
507.0,508.0,530.0,515.0
505.0,504.0,514.0,520.0
512.0,493.0,501.0,518.0
512.0,507.0,493.0,517.0
513.0,494.0,487.0,514.0
503.0,488.0,482.0,511.0
500.0,492.0,480.0,507.0
499.0,495.0,488.0,506.0
486.0,506.0,493.0,508.0
496.0,519.0,502.0,509.0
506.0,522.0,518.0,510.0
515.0,517.0,529.0,508.0
517.0,507.0,536.0,509.0
521.0,509.0,539.0,510.0
529.0,508.0,542.0,512.0
537.0,486.0,539.0,519.0
537.0,491.0,532.0,521.0
526.0,499.0,525.0,524.0
509.0,501.0,515.0,521.0
500.0,489.0,503.0,519.0
488.0,505.0,490.0,514.0
485.0,507.0,482.0,516.0
487.0,512.0,479.0,510.0
493.0,505.0,479.0,505.0
494.0,509.0,487.0,504.0
503.0,513.0,495.0,503.0
504.0,521.0,506.0,507.0
495.0,527.0,514.0,506.0
499.0,526.0,528.0,508.0
509.0,507.0,538.0,510.0
511.0,506.0,543.0,516.0
517.0,483.0,544.0,515.0
518.0,478.0,542.0,521.0
521.0,482.0,532.0,523.0
518.0,486.0,521.0,521.0
512.0,504.0,511.0,519.0
510.0,510.0,497.0,517.0
506.0,504.0,489.0,514.0
505.0,502.0,486.0,510.0
500.0,509.0,480.0,510.0
507.0,508.0,484.0,504.0
515.0,503.0,489.0,503.0
515.0,510.0,499.0,502.0
516.0,518.0,508.0,505.0
515.0,516.0,521.0,508.0
518.0,509.0,530.0,511.0
521.0,501.0,540.0,512.0
523.0,500.0,540.0,512.0
527.0,488.0,542.0,520.0
514.0,492.0,535.0,519.0
515.0,494.0,526.0,518.0
514.0,498.0,514.0,516.0
504.0,494.0,502.0,511.0
498.0,511.0,490.0,518.0
502.0,511.0,485.0,511.0
503.0,511.0,482.0,509.0
506.0,501.0,484.0,507.0
513.0,497.0,486.0,503.0
513.0,507.0,493.0,506.0
505.0,519.0,503.0,507.0
508.0,521.0,516.0,509.0
513.0,518.0,520.0,507.0
518.0,517.0,533.0,508.0
522.0,507.0,539.0,509.0
523.0,504.0,540.0,513.0
530.0,486.0,536.0,517.0
524.0,490.0,529.0,519.0
520.0,485.0,512.0,517.0
511.0,491.0,507.0,520.0
504.0,502.0,503.0,519.0
508.0,509.0,488.0,517.0
504.0,502.0,488.0,512.0
499.0,512.0,490.0,510.0
506.0,505.0,493.0,511.0
507.0,506.0,497.0,506.0
506.0,503.0,502.0,503.0
506.0,521.0,507.0,506.0
511.0,535.0,519.0,503.0
511.0,537.0,530.0,506.0
515.0,514.0,537.0,509.0
522.0,492.0,539.0,510.0
523.0,482.0,540.0,513.0
527.0,479.0,535.0,517.0
523.0,481.0,531.0,516.0
512.0,505.0,521.0,515.0
508.0,499.0,509.0,518.0
510.0,502.0,498.0,517.0
508.0,504.0,491.0,512.0
504.0,501.0,484.0,508.0
506.0,498.0,484.0,512.0
513.0,489.0,486.0,510.0
501.0,508.0,492.0,507.0
505.0,516.0,497.0,506.0
508.0,525.0,508.0,508.0
505.0,525.0,520.0,509.0
511.0,518.0,531.0,511.0
517.0,509.0,536.0,513.0
519.0,507.0,540.0,515.0
527.0,491.0,543.0,518.0
526.0,477.0,536.0,517.0
515.0,489.0,526.0,519.0
509.0,499.0,514.0,517.0
506.0,501.0,499.0,514.0
502.0,505.0,494.0,510.0
505.0,507.0,488.0,510.0
500.0,517.0,482.0,504.0
506.0,508.0,482.0,505.0
513.0,504.0,485.0,507.0
517.0,503.0,499.0,508.0
518.0,509.0,508.0,508.0
528.0,520.0,518.0,510.0
528.0,518.0,529.0,510.0
516.0,503.0,535.0,511.0
510.0,509.0,540.0,509.0
508.0,515.0,538.0,510.0
517.0,488.0,540.0,516.0
509.0,488.0,534.0,518.0
506.0,489.0,523.0,521.0
507.0,493.0,512.0,520.0
500.0,501.0,500.0,518.0
500.0,515.0,494.0,515.0
504.0,511.0,488.0,509.0
500.0,521.0,484.0,512.0
505.0,512.0,486.0,506.0
505.0,507.0,487.0,504.0
503.0,505.0,492.0,507.0
507.0,508.0,501.0,504.0
513.0,518.0,514.0,506.0
516.0,526.0,526.0,508.0
522.0,514.0,534.0,510.0
519.0,509.0,541.0,510.0
519.0,492.0,547.0,517.0
525.0,487.0,543.0,521.0
522.0,496.0,531.0,519.0
515.0,497.0,521.0,521.0
510.0,499.0,507.0,517.0
503.0,500.0,494.0,512.0
503.0,498.0,483.0,508.0
504.0,508.0,483.0,507.0
498.0,513.0,481.0,506.0
504.0,504.0,481.0,505.0
505.0,509.0,490.0,506.0
507.0,514.0,497.0,507.0
513.0,517.0,510.0,510.0
510.0,514.0,523.0,510.0
514.0,514.0,533.0,514.0
518.0,509.0,542.0,514.0
515.0,503.0,546.0,514.0
528.0,484.0,545.0,519.0
527.0,483.0,536.0,520.0
521.0,495.0,526.0,519.0
512.0,493.0,514.0,521.0
499.0,498.0,499.0,518.0
494.0,510.0,492.0,515.0
499.0,510.0,486.0,511.0
501.0,512.0,481.0,510.0
505.0,502.0,479.0,505.0
513.0,500.0,484.0,503.0
517.0,495.0,491.0,500.0
511.0,510.0,502.0,502.0
509.0,524.0,510.0,505.0
510.0,519.0,525.0,505.0
514.0,506.0,532.0,508.0
522.0,500.0,538.0,508.0
528.0,500.0,541.0,512.0
534.0,485.0,541.0,517.0
529.0,485.0,535.0,519.0
524.0,488.0,523.0,518.0
522.0,487.0,511.0,517.0
516.0,495.0,500.0,518.0
505.0,515.0,491.0,513.0
498.0,534.0,488.0,511.0
491.0,528.0,478.0,508.0
506.0,500.0,482.0,506.0
496.0,500.0,487.0,504.0
496.0,507.0,495.0,505.0
499.0,508.0,506.0,506.0
504.0,516.0,519.0,508.0
506.0,529.0,530.0,507.0
513.0,513.0,537.0,513.0
517.0,507.0,543.0,511.0
526.0,488.0,543.0,517.0
526.0,482.0,538.0,518.0
518.0,482.0,529.0,519.0
509.0,483.0,517.0,520.0
504.0,497.0,508.0,517.0
504.0,503.0,495.0,516.0
503.0,511.0,489.0,513.0
507.0,513.0,484.0,508.0
499.0,513.0,484.0,506.0
509.0,502.0,483.0,507.0
505.0,511.0,492.0,506.0
505.0,522.0,502.0,509.0
507.0,527.0,515.0,511.0
512.0,529.0,529.0,511.0
515.0,521.0,536.0,512.0
521.0,507.0,538.0,515.0
519.0,509.0,543.0,513.0
526.0,487.0,540.0,518.0
516.0,485.0,535.0,519.0
510.0,490.0,525.0,521.0
512.0,491.0,516.0,522.0
516.0,492.0,504.0,519.0
512.0,501.0,491.0,513.0
517.0,502.0,484.0,507.0
513.0,506.0,479.0,504.0
516.0,497.0,483.0,501.0
504.0,504.0,487.0,501.0
487.0,508.0,493.0,502.0
494.0,527.0,501.0,507.0
497.0,531.0,516.0,514.0
511.0,529.0,529.0,512.0
509.0,524.0,533.0,511.0
518.0,507.0,538.0,513.0
516.0,504.0,542.0,513.0
526.0,488.0,540.0,515.0
521.0,484.0,532.0,517.0
515.0,489.0,521.0,517.0
508.0,498.0,506.0,517.0
503.0,502.0,498.0,513.0
501.0,505.0,488.0,515.0
507.0,500.0,480.0,512.0
507.0,502.0,483.0,510.0
509.0,497.0,481.0,508.0
505.0,503.0,488.0,505.0
508.0,511.0,498.0,506.0
512.0,513.0,508.0,504.0
519.0,515.0,519.0,507.0
508.0,529.0,533.0,508.0
514.0,529.0,542.0,512.0
520.0,526.0,543.0,511.0
520.0,492.0,546.0,512.0
526.0,476.0,538.0,517.0
524.0,480.0,527.0,516.0
520.0,477.0,518.0,517.0
513.0,487.0,505.0,517.0
508.0,498.0,495.0,513.0
514.0,511.0,485.0,509.0
503.0,517.0,479.0,508.0
487.0,523.0,477.0,505.0
499.0,512.0,480.0,501.0
501.0,512.0,490.0,503.0
507.0,520.0,501.0,505.0
512.0,521.0,511.0,507.0
513.0,518.0,524.0,511.0
515.0,517.0,535.0,511.0
523.0,503.0,542.0,516.0
517.0,511.0,542.0,517.0
525.0,492.0,542.0,519.0
516.0,487.0,536.0,521.0
515.0,488.0,525.0,521.0
510.0,495.0,514.0,517.0
505.0,498.0,502.0,519.0
498.0,514.0,491.0,513.0
502.0,501.0,485.0,512.0
502.0,503.0,485.0,507.0
510.0,498.0,480.0,504.0
511.0,502.0,484.0,503.0
511.0,510.0,493.0,501.0
508.0,518.0,502.0,503.0
511.0,521.0,515.0,503.0
511.0,520.0,527.0,505.0
518.0,512.0,535.0,509.0
521.0,506.0,541.0,511.0
520.0,501.0,544.0,511.0
527.0,487.0,541.0,518.0
522.0,485.0,532.0,520.0
509.0,492.0,518.0,519.0
508.0,496.0,509.0,516.0
505.0,489.0,498.0,515.0
500.0,488.0,491.0,510.0
506.0,490.0,486.0,514.0
502.0,512.0,483.0,511.0
505.0,507.0,485.0,512.0
504.0,510.0,488.0,512.0
507.0,514.0,499.0,513.0
503.0,527.0,509.0,511.0
510.0,535.0,521.0,508.0
516.0,532.0,531.0,508.0
521.0,518.0,539.0,509.0
524.0,512.0,541.0,512.0
528.0,487.0,542.0,514.0
522.0,479.0,533.0,517.0
518.0,485.0,525.0,518.0
515.0,497.0,515.0,519.0
505.0,502.0,503.0,517.0
495.0,505.0,497.0,516.0
496.0,497.0,487.0,513.0
496.0,489.0,485.0,509.0
501.0,485.0,480.0,510.0
509.0,496.0,484.0,507.0
512.0,512.0,492.0,508.0
511.0,525.0,502.0,508.0
510.0,529.0,514.0,505.0
511.0,529.0,524.0,510.0
508.0,527.0,534.0,510.0
522.0,513.0,537.0,511.0
515.0,518.0,542.0,513.0
529.0,506.0,541.0,517.0
527.0,491.0,534.0,520.0
520.0,486.0,523.0,518.0
514.0,495.0,507.0,517.0
512.0,496.0,502.0,515.0
506.0,503.0,489.0,514.0
504.0,498.0,484.0,513.0
500.0,503.0,480.0,512.0
505.0,505.0,481.0,507.0
506.0,507.0,485.0,508.0
512.0,512.0,492.0,507.0
512.0,521.0,503.0,505.0
514.0,523.0,514.0,507.0
520.0,526.0,527.0,509.0
525.0,523.0,536.0,511.0
530.0,510.0,544.0,513.0
512.0,511.0,545.0,516.0
526.0,488.0,542.0,519.0
518.0,486.0,526.0,519.0
515.0,493.0,519.0,521.0
506.0,488.0,509.0,520.0
495.0,494.0,499.0,515.0
490.0,505.0,491.0,512.0
495.0,496.0,489.0,510.0
499.0,504.0,480.0,510.0
500.0,501.0,484.0,505.0
507.0,508.0,488.0,506.0
504.0,516.0,498.0,506.0
509.0,525.0,508.0,505.0
504.0,527.0,521.0,508.0
507.0,526.0,532.0,507.0
518.0,514.0,537.0,511.0
514.0,511.0,539.0,513.0
521.0,492.0,546.0,518.0
522.0,484.0,536.0,518.0
522.0,482.0,525.0,513.0
506.0,489.0,515.0,517.0
504.0,495.0,501.0,515.0
501.0,498.0,496.0,513.0
502.0,496.0,486.0,511.0
501.0,498.0,482.0,510.0
499.0,506.0,481.0,504.0
503.0,497.0,481.0,503.0
508.0,487.0,489.0,508.0
506.0,510.0,501.0,504.0
511.0,521.0,513.0,505.0
514.0,522.0,525.0,511.0
513.0,517.0,534.0,517.0
522.0,507.0,544.0,515.0
519.0,513.0,543.0,513.0
534.0,493.0,542.0,520.0
532.0,490.0,534.0,522.0
523.0,497.0,524.0,523.0
517.0,491.0,513.0,516.0
509.0,493.0,498.0,513.0
502.0,512.0,490.0,511.0
505.0,505.0,484.0,508.0
500.0,508.0,479.0,507.0
500.0,502.0,479.0,504.0
506.0,502.0,485.0,504.0
504.0,511.0,498.0,507.0
508.0,522.0,507.0,505.0
512.0,521.0,518.0,507.0
512.0,522.0,532.0,511.0
512.0,521.0,537.0,511.0
518.0,507.0,542.0,514.0
520.0,498.0,543.0,514.0
527.0,491.0,537.0,520.0
522.0,490.0,531.0,519.0
516.0,496.0,520.0,519.0
505.0,495.0,509.0,518.0
502.0,494.0,496.0,515.0
503.0,497.0,490.0,516.0
504.0,492.0,486.0,513.0
500.0,501.0,481.0,510.0
504.0,504.0,485.0,507.0
507.0,510.0,490.0,504.0
502.0,509.0,498.0,502.0
505.0,520.0,509.0,504.0
507.0,528.0,521.0,506.0
516.0,527.0,533.0,509.0
521.0,514.0,540.0,512.0
517.0,509.0,544.0,510.0
529.0,488.0,537.0,515.0
532.0,487.0,534.0,517.0
518.0,490.0,524.0,512.0
513.0,491.0,515.0,514.0
504.0,498.0,506.0,516.0
505.0,496.0,490.0,509.0
499.0,498.0,484.0,510.0
503.0,493.0,480.0,508.0
506.0,499.0,480.0,507.0
513.0,506.0,485.0,505.0
515.0,513.0,490.0,509.0
519.0,532.0,501.0,506.0
518.0,532.0,511.0,507.0
500.0,527.0,527.0,511.0
500.0,519.0,539.0,513.0
509.0,506.0,542.0,515.0
507.0,508.0,551.0,515.0
517.0,493.0,542.0,519.0
519.0,483.0,535.0,521.0
516.0,495.0,525.0,522.0
510.0,501.0,515.0,518.0
509.0,502.0,495.0,517.0
508.0,502.0,490.0,511.0
509.0,494.0,486.0,511.0
508.0,506.0,483.0,511.0
504.0,510.0,482.0,506.0
502.0,520.0,490.0,505.0
509.0,509.0,497.0,506.0
517.0,513.0,507.0,504.0
516.0,519.0,517.0,503.0
512.0,523.0,528.0,509.0
518.0,519.0,535.0,508.0
524.0,506.0,543.0,511.0
525.0,504.0,541.0,514.0
524.0,493.0,537.0,518.0
521.0,490.0,530.0,519.0
509.0,495.0,518.0,519.0
500.0,502.0,506.0,518.0
500.0,501.0,496.0,513.0
495.0,510.0,489.0,512.0
500.0,498.0,482.0,512.0
501.0,505.0,479.0,509.0
514.0,493.0,484.0,508.0
514.0,494.0,493.0,508.0
508.0,510.0,500.0,508.0
508.0,519.0,508.0,508.0
515.0,520.0,524.0,511.0
502.0,511.0,504.0,500.0
505.0,527.0,500.0,501.0
504.0,502.0,505.0,510.0
508.0,497.0,500.0,508.0
507.0,512.0,491.0,510.0
507.0,510.0,500.0,516.0
505.0,512.0,503.0,520.0
506.0,519.0,508.0,520.0
506.0,516.0,518.0,522.0
509.0,512.0,520.0,519.0
513.0,503.0,515.0,520.0
525.0,481.0,516.0,516.0
526.0,479.0,516.0,511.0
523.0,489.0,515.0,506.0
516.0,500.0,517.0,506.0
510.0,508.0,514.0,509.0
508.0,506.0,516.0,508.0
504.0,510.0,514.0,509.0
510.0,512.0,510.0,507.0
506.0,504.0,507.0,504.0
510.0,502.0,503.0,504.0
507.0,503.0,499.0,508.0
506.0,496.0,499.0,515.0
503.0,506.0,501.0,519.0
503.0,514.0,504.0,521.0
505.0,519.0,511.0,523.0
510.0,523.0,511.0,521.0
510.0,524.0,520.0,520.0
520.0,496.0,528.0,519.0
523.0,475.0,532.0,519.0
518.0,483.0,527.0,511.0
516.0,487.0,520.0,504.0
513.0,493.0,513.0,502.0
510.0,499.0,510.0,501.0
509.0,510.0,506.0,504.0
506.0,503.0,506.0,502.0
512.0,491.0,503.0,503.0
512.0,495.0,502.0,505.0
510.0,511.0,501.0,510.0
503.0,517.0,502.0,516.0
504.0,518.0,505.0,519.0
504.0,516.0,509.0,521.0
508.0,521.0,510.0,516.0
511.0,513.0,512.0,512.0
518.0,501.0,511.0,512.0
525.0,489.0,518.0,508.0
523.0,487.0,517.0,505.0
515.0,494.0,520.0,501.0
514.0,497.0,516.0,502.0
508.0,508.0,515.0,502.0
506.0,515.0,510.0,500.0
501.0,521.0,507.0,504.0
504.0,526.0,503.0,500.0
507.0,502.0,504.0,506.0
509.0,495.0,507.0,512.0
507.0,505.0,508.0,522.0
504.0,518.0,499.0,515.0
504.0,520.0,502.0,520.0
507.0,513.0,513.0,522.0
507.0,507.0,514.0,520.0
506.0,501.0,517.0,519.0
521.0,483.0,520.0,513.0
522.0,482.0,521.0,509.0
519.0,490.0,521.0,510.0
515.0,500.0,524.0,508.0
513.0,498.0,519.0,505.0
512.0,497.0,515.0,506.0
506.0,502.0,510.0,506.0
506.0,508.0,508.0,504.0
504.0,520.0,506.0,508.0
509.0,519.0,506.0,509.0
509.0,500.0,506.0,516.0
510.0,488.0,509.0,521.0
503.0,515.0,509.0,521.0
504.0,511.0,509.0,522.0
510.0,516.0,513.0,522.0
509.0,519.0,512.0,522.0
511.0,504.0,518.0,524.0
524.0,478.0,525.0,519.0
527.0,493.0,522.0,512.0
524.0,505.0,521.0,505.0
517.0,511.0,518.0,505.0
512.0,510.0,515.0,502.0
510.0,507.0,508.0,501.0
505.0,503.0,508.0,499.0
508.0,508.0,504.0,500.0
509.0,499.0,499.0,504.0
505.0,501.0,500.0,508.0
504.0,510.0,502.0,510.0
503.0,515.0,501.0,517.0
501.0,520.0,507.0,521.0
506.0,517.0,512.0,521.0
508.0,518.0,517.0,521.0
511.0,511.0,516.0,519.0
516.0,500.0,517.0,518.0
523.0,497.0,519.0,507.0
521.0,494.0,522.0,509.0
518.0,490.0,522.0,508.0
514.0,499.0,516.0,505.0
510.0,498.0,515.0,508.0
505.0,501.0,513.0,506.0
504.0,507.0,510.0,504.0
505.0,511.0,505.0,502.0
508.0,502.0,504.0,506.0
506.0,502.0,503.0,508.0
507.0,515.0,503.0,513.0
505.0,511.0,506.0,519.0
503.0,516.0,508.0,523.0
504.0,517.0,511.0,523.0
505.0,512.0,516.0,520.0
511.0,503.0,512.0,518.0
518.0,488.0,519.0,516.0
522.0,487.0,522.0,514.0
523.0,492.0,522.0,510.0
521.0,495.0,520.0,509.0
514.0,504.0,522.0,509.0
513.0,503.0,518.0,506.0
506.0,504.0,514.0,505.0
508.0,503.0,506.0,506.0
509.0,503.0,507.0,508.0
510.0,503.0,503.0,513.0
512.0,507.0,503.0,516.0
505.0,514.0,502.0,518.0
505.0,515.0,512.0,520.0
507.0,521.0,511.0,519.0
507.0,517.0,509.0,516.0
512.0,514.0,512.0,515.0
513.0,499.0,515.0,514.0
524.0,483.0,519.0,510.0
525.0,482.0,521.0,505.0
522.0,489.0,520.0,503.0
516.0,511.0,515.0,504.0
510.0,525.0,516.0,504.0
506.0,536.0,512.0,508.0
503.0,542.0,511.0,503.0
505.0,506.0,506.0,506.0
510.0,469.0,505.0,506.0
506.0,488.0,503.0,509.0
505.0,490.0,503.0,515.0
506.0,505.0,505.0,518.0
504.0,507.0,506.0,525.0
509.0,499.0,511.0,523.0
510.0,507.0,516.0,524.0
518.0,514.0,517.0,516.0
520.0,504.0,523.0,516.0
521.0,492.0,525.0,513.0
517.0,487.0,522.0,505.0
517.0,489.0,516.0,503.0
513.0,499.0,515.0,501.0
510.0,504.0,510.0,502.0
505.0,513.0,507.0,503.0
508.0,510.0,507.0,502.0
506.0,512.0,504.0,506.0
511.0,510.0,505.0,509.0
507.0,515.0,507.0,510.0
507.0,515.0,505.0,516.0
506.0,514.0,506.0,517.0
506.0,506.0,504.0,521.0
507.0,504.0,516.0,522.0
509.0,503.0,519.0,518.0
513.0,491.0,512.0,513.0
522.0,477.0,515.0,511.0
521.0,480.0,523.0,515.0
519.0,482.0,520.0,513.0
511.0,492.0,520.0,509.0
515.0,486.0,523.0,510.0
512.0,511.0,517.0,508.0
512.0,521.0,513.0,507.0
506.0,511.0,506.0,513.0
508.0,509.0,504.0,508.0
512.0,509.0,503.0,508.0
510.0,513.0,502.0,512.0
504.0,530.0,503.0,517.0
500.0,538.0,506.0,518.0
505.0,523.0,506.0,521.0
515.0,522.0,509.0,517.0
511.0,519.0,512.0,519.0
512.0,514.0,517.0,515.0
523.0,498.0,521.0,509.0
518.0,496.0,522.0,505.0
519.0,493.0,518.0,504.0
515.0,495.0,520.0,502.0
507.0,497.0,519.0,503.0
518.0,499.0,513.0,505.0
508.0,491.0,509.0,505.0
504.0,500.0,507.0,506.0
506.0,498.0,504.0,506.0
507.0,497.0,504.0,509.0
505.0,500.0,503.0,514.0
500.0,510.0,501.0,518.0
503.0,521.0,504.0,519.0
505.0,522.0,511.0,526.0
506.0,508.0,514.0,523.0
513.0,511.0,514.0,519.0
517.0,504.0,515.0,517.0
522.0,501.0,518.0,513.0
526.0,505.0,523.0,510.0
516.0,511.0,526.0,508.0
510.0,520.0,521.0,503.0
503.0,497.0,518.0,504.0
506.0,456.0,509.0,503.0
502.0,477.0,508.0,501.0
507.0,504.0,502.0,503.0
508.0,514.0,501.0,505.0
510.0,496.0,499.0,510.0
511.0,494.0,501.0,516.0
511.0,508.0,505.0,521.0
504.0,527.0,510.0,525.0
505.0,525.0,511.0,522.0
510.0,519.0,513.0,524.0
516.0,517.0,513.0,518.0
526.0,502.0,518.0,514.0
529.0,486.0,521.0,511.0
523.0,490.0,523.0,510.0
518.0,501.0,520.0,508.0
513.0,507.0,521.0,502.0
507.0,521.0,515.0,501.0
504.0,528.0,510.0,505.0
504.0,524.0,506.0,507.0
506.0,510.0,503.0,502.0
507.0,500.0,503.0,508.0
509.0,490.0,502.0,510.0
505.0,502.0,503.0,512.0
506.0,517.0,506.0,518.0
506.0,525.0,502.0,520.0
510.0,519.0,511.0,521.0
511.0,511.0,510.0,519.0
514.0,503.0,517.0,516.0
521.0,490.0,520.0,515.0
522.0,486.0,522.0,510.0
520.0,489.0,522.0,508.0
515.0,503.0,520.0,508.0
510.0,502.0,519.0,509.0
511.0,504.0,517.0,508.0
505.0,510.0,509.0,506.0
505.0,504.0,504.0,504.0
510.0,494.0,502.0,508.0
509.0,492.0,503.0,508.0
511.0,492.0,504.0,514.0
504.0,504.0,505.0,517.0
506.0,518.0,511.0,518.0
508.0,522.0,512.0,522.0
510.0,529.0,515.0,521.0
512.0,520.0,522.0,519.0
520.0,500.0,518.0,515.0
526.0,486.0,518.0,511.0
521.0,482.0,516.0,507.0
517.0,489.0,517.0,510.0
511.0,499.0,517.0,507.0
510.0,502.0,512.0,501.0
507.0,506.0,508.0,503.0
503.0,507.0,507.0,506.0
505.0,512.0,508.0,506.0
514.0,492.0,502.0,505.0
511.0,500.0,500.0,507.0
509.0,509.0,502.0,514.0
506.0,517.0,505.0,521.0
506.0,517.0,510.0,523.0
508.0,511.0,513.0,523.0
510.0,515.0,513.0,524.0
510.0,521.0,515.0,522.0
522.0,497.0,511.0,515.0
522.0,468.0,518.0,512.0
521.0,471.0,518.0,509.0
522.0,483.0,522.0,506.0
513.0,514.0,520.0,506.0
506.0,506.0,512.0,503.0
506.0,502.0,508.0,500.0
505.0,499.0,505.0,501.0
505.0,502.0,503.0,503.0
511.0,511.0,496.0,503.0
506.0,520.0,498.0,511.0
510.0,516.0,504.0,515.0
510.0,519.0,508.0,523.0
507.0,515.0,514.0,524.0
510.0,516.0,521.0,525.0
511.0,511.0,520.0,521.0
512.0,507.0,518.0,519.0
521.0,494.0,519.0,511.0
524.0,490.0,519.0,505.0
521.0,492.0,517.0,505.0
515.0,496.0,516.0,502.0
510.0,501.0,514.0,502.0
511.0,504.0,510.0,499.0
506.0,507.0,505.0,506.0
502.0,500.0,506.0,505.0
506.0,493.0,508.0,505.0
507.0,491.0,506.0,509.0
503.0,491.0,504.0,514.0
512.0,502.0,505.0,516.0
505.0,517.0,505.0,525.0
509.0,519.0,509.0,521.0
511.0,535.0,515.0,520.0
511.0,523.0,515.0,519.0
519.0,482.0,519.0,514.0
524.0,472.0,521.0,514.0
521.0,484.0,519.0,509.0
512.0,505.0,520.0,507.0
511.0,520.0,520.0,505.0
508.0,516.0,513.0,507.0
511.0,508.0,512.0,507.0
509.0,508.0,510.0,506.0
505.0,503.0,506.0,509.0
506.0,497.0,506.0,510.0
505.0,503.0,506.0,512.0
507.0,507.0,506.0,513.0
507.0,514.0,503.0,513.0
504.0,541.0,505.0,520.0
507.0,522.0,509.0,525.0
510.0,509.0,515.0,518.0
509.0,520.0,519.0,519.0
519.0,505.0,518.0,511.0
521.0,492.0,519.0,508.0
520.0,480.0,522.0,512.0
518.0,480.0,523.0,509.0
513.0,498.0,517.0,503.0
505.0,503.0,514.0,503.0
506.0,506.0,509.0,502.0
503.0,502.0,505.0,504.0
504.0,502.0,504.0,504.0
507.0,498.0,502.0,510.0
507.0,494.0,501.0,513.0
503.0,501.0,506.0,515.0
503.0,503.0,513.0,523.0
505.0,503.0,508.0,521.0
511.0,502.0,506.0,523.0
511.0,517.0,518.0,525.0
515.0,516.0,517.0,518.0
524.0,510.0,519.0,513.0
523.0,509.0,523.0,513.0
514.0,516.0,524.0,511.0
511.0,511.0,525.0,506.0
514.0,477.0,519.0,502.0
510.0,490.0,512.0,501.0
502.0,499.0,507.0,502.0
504.0,512.0,504.0,503.0
508.0,508.0,500.0,506.0
506.0,508.0,501.0,505.0
507.0,512.0,499.0,520.0
502.0,530.0,506.0,517.0
504.0,516.0,504.0,519.0
507.0,515.0,507.0,519.0
511.0,518.0,513.0,519.0
515.0,499.0,513.0,521.0
523.0,485.0,519.0,519.0
529.0,480.0,520.0,511.0
523.0,486.0,520.0,509.0
517.0,497.0,520.0,508.0
514.0,502.0,516.0,504.0
513.0,509.0,513.0,507.0
508.0,506.0,508.0,497.0
503.0,503.0,506.0,503.0
506.0,506.0,505.0,504.0
510.0,494.0,498.0,509.0
505.0,496.0,503.0,512.0
507.0,501.0,499.0,522.0
505.0,514.0,506.0,518.0
506.0,524.0,513.0,524.0
505.0,522.0,515.0,528.0
511.0,510.0,518.0,518.0
518.0,506.0,516.0,518.0
519.0,495.0,519.0,513.0
522.0,493.0,520.0,513.0
523.0,485.0,521.0,506.0
516.0,486.0,519.0,507.0
507.0,486.0,520.0,504.0
512.0,485.0,512.0,503.0
509.0,507.0,509.0,500.0
503.0,517.0,504.0,502.0
504.0,524.0,503.0,504.0
509.0,517.0,500.0,510.0
509.0,522.0,497.0,511.0
502.0,526.0,499.0,516.0
503.0,513.0,503.0,519.0
506.0,519.0,508.0,517.0
507.0,507.0,514.0,525.0
513.0,496.0,517.0,521.0
519.0,489.0,522.0,519.0
525.0,477.0,521.0,513.0
523.0,491.0,521.0,508.0
516.0,495.0,519.0,506.0
517.0,486.0,519.0,506.0
509.0,480.0,516.0,503.0
508.0,484.0,512.0,506.0
502.0,494.0,511.0,504.0
499.0,521.0,507.0,505.0
511.0,504.0,505.0,502.0
510.0,503.0,504.0,510.0
510.0,510.0,502.0,518.0
510.0,511.0,503.0,516.0
508.0,527.0,506.0,518.0
511.0,529.0,509.0,522.0
515.0,528.0,512.0,523.0
519.0,527.0,515.0,517.0
521.0,510.0,519.0,516.0
524.0,489.0,520.0,515.0
524.0,498.0,523.0,508.0
517.0,504.0,523.0,510.0
513.0,504.0,523.0,507.0
511.0,500.0,518.0,506.0
510.0,486.0,511.0,502.0
507.0,495.0,510.0,504.0
501.0,511.0,506.0,506.0
507.0,507.0,505.0,510.0
507.0,502.0,501.0,517.0
507.0,503.0,505.0,516.0
509.0,508.0,508.0,521.0
508.0,508.0,511.0,521.0
509.0,510.0,507.0,520.0
511.0,518.0,514.0,517.0
511.0,508.0,515.0,518.0
523.0,486.0,520.0,514.0
530.0,492.0,520.0,509.0
525.0,496.0,518.0,509.0
519.0,490.0,519.0,506.0
515.0,502.0,515.0,506.0
511.0,511.0,514.0,507.0
509.0,503.0,511.0,506.0
506.0,500.0,509.0,507.0
506.0,509.0,506.0,505.0
512.0,507.0,503.0,509.0
510.0,510.0,500.0,512.0
505.0,515.0,502.0,516.0
504.0,524.0,504.0,523.0
506.0,524.0,510.0,524.0
507.0,519.0,514.0,520.0
510.0,514.0,515.0,519.0
512.0,515.0,517.0,516.0
519.0,494.0,519.0,514.0
521.0,485.0,520.0,506.0
517.0,491.0,523.0,505.0
509.0,497.0,517.0,505.0
510.0,490.0,518.0,505.0
509.0,501.0,513.0,507.0
508.0,503.0,508.0,505.0
509.0,504.0,506.0,506.0
516.0,502.0,502.0,505.0
516.0,501.0,504.0,509.0
511.0,509.0,502.0,510.0
505.0,520.0,504.0,514.0
504.0,528.0,504.0,519.0
503.0,523.0,511.0,525.0
510.0,509.0,513.0,522.0
511.0,509.0,515.0,519.0
522.0,496.0,512.0,515.0
524.0,485.0,518.0,513.0
520.0,490.0,524.0,508.0
517.0,495.0,521.0,506.0
512.0,501.0,518.0,508.0
507.0,506.0,515.0,508.0
506.0,506.0,510.0,507.0
506.0,505.0,509.0,509.0
504.0,504.0,506.0,510.0
511.0,502.0,502.0,509.0
511.0,507.0,502.0,509.0
507.0,516.0,505.0,514.0
503.0,525.0,509.0,517.0
504.0,522.0,503.0,517.0
510.0,513.0,504.0,516.0
511.0,505.0,506.0,516.0
513.0,505.0,514.0,517.0
523.0,488.0,519.0,515.0
521.0,487.0,522.0,511.0
520.0,492.0,521.0,508.0
515.0,490.0,520.0,506.0
514.0,490.0,518.0,506.0
511.0,497.0,517.0,505.0
511.0,500.0,511.0,500.0
507.0,508.0,506.0,503.0
508.0,499.0,504.0,506.0
508.0,506.0,499.0,509.0
505.0,520.0,498.0,513.0
500.0,529.0,499.0,517.0
501.0,536.0,501.0,517.0
507.0,522.0,507.0,517.0
512.0,496.0,511.0,520.0
514.0,503.0,514.0,518.0
519.0,493.0,516.0,517.0
524.0,477.0,522.0,513.0
524.0,483.0,522.0,511.0
520.0,496.0,517.0,508.0
511.0,509.0,521.0,506.0
510.0,509.0,516.0,502.0
510.0,509.0,513.0,502.0
507.0,512.0,503.0,503.0
504.0,514.0,507.0,505.0
509.0,505.0,499.0,506.0
510.0,504.0,501.0,508.0
504.0,501.0,501.0,515.0
506.0,504.0,504.0,518.0
506.0,514.0,505.0,521.0
505.0,502.0,511.0,526.0
514.0,492.0,516.0,521.0
513.0,502.0,519.0,523.0
521.0,496.0,520.0,514.0
523.0,490.0,519.0,511.0
519.0,498.0,518.0,506.0
519.0,504.0,519.0,509.0
513.0,504.0,519.0,504.0
513.0,506.0,516.0,503.0
512.0,505.0,509.0,508.0
506.0,510.0,511.0,507.0
506.0,515.0,508.0,506.0
509.0,515.0,505.0,508.0
503.0,517.0,503.0,508.0
503.0,509.0,504.0,516.0
498.0,503.0,509.0,521.0
505.0,496.0,513.0,523.0
506.0,500.0,512.0,522.0
516.0,511.0,513.0,521.0
516.0,531.0,516.0,519.0
521.0,500.0,517.0,515.0
521.0,485.0,520.0,510.0
516.0,502.0,523.0,507.0
516.0,478.0,520.0,505.0
513.0,492.0,514.0,503.0
507.0,529.0,513.0,501.0
506.0,521.0,508.0,505.0
502.0,518.0,509.0,505.0
506.0,514.0,507.0,506.0
508.0,506.0,502.0,509.0
507.0,508.0,500.0,514.0
508.0,518.0,504.0,515.0
505.0,520.0,507.0,523.0
510.0,525.0,509.0,521.0
513.0,513.0,509.0,527.0
509.0,508.0,516.0,521.0
512.0,505.0,519.0,520.0
525.0,489.0,525.0,515.0
526.0,483.0,522.0,511.0
518.0,490.0,522.0,505.0
513.0,493.0,521.0,509.0
509.0,498.0,519.0,503.0
508.0,504.0,513.0,499.0
501.0,508.0,507.0,503.0
504.0,511.0,506.0,503.0
508.0,504.0,504.0,507.0
506.0,507.0,502.0,512.0
506.0,506.0,501.0,513.0
501.0,515.0,505.0,518.0
504.0,517.0,507.0,520.0
507.0,523.0,511.0,518.0
517.0,513.0,513.0,519.0
514.0,507.0,519.0,520.0
525.0,490.0,518.0,516.0
524.0,488.0,522.0,512.0
524.0,495.0,522.0,509.0
516.0,506.0,520.0,506.0
513.0,509.0,521.0,509.0
509.0,510.0,517.0,507.0
510.0,492.0,509.0,504.0
507.0,495.0,506.0,506.0
503.0,503.0,510.0,510.0
507.0,496.0,507.0,510.0
511.0,505.0,504.0,509.0
507.0,509.0,504.0,518.0
502.0,514.0,505.0,522.0
506.0,515.0,507.0,517.0
506.0,511.0,507.0,521.0
510.0,518.0,511.0,518.0
516.0,537.0,513.0,518.0
518.0,522.0,515.0,517.0
524.0,493.0,515.0,511.0
522.0,464.0,519.0,510.0
520.0,465.0,522.0,508.0
514.0,504.0,522.0,508.0
507.0,515.0,518.0,511.0
509.0,505.0,512.0,507.0
506.0,507.0,511.0,507.0
508.0,501.0,501.0,502.0
512.0,502.0,501.0,505.0
506.0,503.0,504.0,513.0
507.0,510.0,502.0,517.0
505.0,513.0,506.0,518.0
508.0,514.0,507.0,522.0
509.0,504.0,511.0,520.0
511.0,506.0,513.0,520.0
514.0,508.0,513.0,516.0
523.0,489.0,518.0,509.0
520.0,506.0,522.0,511.0
519.0,511.0,521.0,511.0
515.0,492.0,525.0,507.0
513.0,501.0,527.0,509.0
510.0,507.0,518.0,509.0
502.0,508.0,514.0,505.0
504.0,510.0,504.0,503.0
508.0,501.0,499.0,507.0
506.0,504.0,502.0,510.0
506.0,505.0,500.0,519.0
504.0,520.0,507.0,520.0
504.0,520.0,510.0,524.0
505.0,530.0,509.0,519.0
511.0,526.0,514.0,518.0
512.0,521.0,515.0,513.0
518.0,508.0,511.0,513.0
519.0,495.0,517.0,509.0
519.0,474.0,520.0,505.0
519.0,481.0,519.0,503.0
514.0,490.0,515.0,503.0
510.0,498.0,514.0,506.0
510.0,492.0,511.0,505.0
506.0,506.0,508.0,504.0
504.0,514.0,504.0,501.0
508.0,501.0,504.0,503.0
510.0,508.0,503.0,510.0
508.0,522.0,505.0,513.0
506.0,511.0,506.0,517.0
505.0,507.0,508.0,523.0
508.0,506.0,511.0,519.0
508.0,500.0,515.0,520.0
511.0,511.0,513.0,517.0
522.0,493.0,519.0,515.0
522.0,490.0,520.0,510.0
520.0,498.0,518.0,506.0
516.0,500.0,521.0,506.0
511.0,501.0,516.0,506.0
508.0,509.0,514.0,505.0
512.0,499.0,509.0,503.0
509.0,504.0,507.0,505.0
513.0,511.0,505.0,506.0
514.0,508.0,502.0,507.0
509.0,513.0,502.0,511.0
508.0,510.0,505.0,515.0
506.0,511.0,507.0,521.0
504.0,521.0,508.0,523.0
506.0,520.0,510.0,523.0
513.0,514.0,516.0,523.0
514.0,506.0,518.0,518.0
522.0,487.0,520.0,515.0
522.0,488.0,520.0,513.0
520.0,494.0,521.0,504.0
523.0,485.0,517.0,506.0
512.0,491.0,516.0,504.0
512.0,502.0,513.0,504.0
507.0,512.0,509.0,504.0
501.0,512.0,511.0,505.0
510.0,502.0,503.0,507.0
511.0,505.0,503.0,510.0
509.0,510.0,505.0,516.0
506.0,506.0,506.0,519.0
506.0,514.0,509.0,523.0
507.0,517.0,510.0,522.0
509.0,512.0,520.0,520.0
510.0,517.0,516.0,517.0
520.0,498.0,518.0,515.0
514.0,487.0,520.0,512.0
518.0,486.0,521.0,509.0
519.0,493.0,520.0,506.0
511.0,501.0,516.0,504.0
509.0,507.0,515.0,504.0
514.0,508.0,510.0,503.0
510.0,509.0,508.0,505.0
504.0,511.0,504.0,506.0
508.0,500.0,504.0,506.0
507.0,504.0,502.0,512.0
510.0,515.0,503.0,515.0
508.0,525.0,501.0,521.0
508.0,525.0,507.0,520.0
507.0,525.0,511.0,520.0
513.0,519.0,512.0,515.0
509.0,521.0,518.0,520.0
519.0,505.0,519.0,517.0
523.0,498.0,525.0,513.0
521.0,491.0,527.0,510.0
520.0,450.0,523.0,507.0
514.0,478.0,518.0,509.0
505.0,498.0,513.0,510.0
505.0,496.0,511.0,510.0
502.0,507.0,512.0,510.0
506.0,503.0,512.0,513.0
507.0,505.0,501.0,509.0
507.0,511.0,502.0,514.0
504.0,520.0,508.0,518.0
506.0,519.0,510.0,521.0
507.0,524.0,513.0,517.0
507.0,528.0,512.0,517.0
511.0,508.0,510.0,515.0
515.0,503.0,513.0,522.0
522.0,487.0,517.0,514.0
522.0,484.0,521.0,509.0
517.0,491.0,523.0,506.0
515.0,499.0,519.0,502.0
509.0,508.0,517.0,503.0
509.0,510.0,513.0,503.0
508.0,505.0,509.0,502.0
504.0,506.0,501.0,505.0
511.0,498.0,504.0,507.0
509.0,504.0,505.0,512.0
509.0,510.0,503.0,517.0
505.0,520.0,503.0,521.0
504.0,522.0,513.0,527.0
506.0,525.0,515.0,527.0
510.0,516.0,517.0,521.0
511.0,511.0,519.0,519.0
519.0,484.0,521.0,517.0
522.0,473.0,524.0,511.0
523.0,498.0,519.0,506.0
515.0,508.0,518.0,502.0
514.0,500.0,515.0,500.0
512.0,508.0,512.0,500.0
513.0,506.0,509.0,499.0
507.0,496.0,504.0,499.0
507.0,500.0,503.0,499.0
510.0,498.0,502.0,507.0
506.0,505.0,504.0,513.0
507.0,508.0,503.0,515.0
500.0,518.0,504.0,518.0
501.0,527.0,507.0,520.0
504.0,523.0,513.0,523.0
513.0,515.0,516.0,521.0
512.0,511.0,523.0,523.0
524.0,495.0,524.0,516.0
526.0,488.0,524.0,510.0
523.0,488.0,526.0,507.0
513.0,498.0,525.0,502.0
514.0,503.0,515.0,499.0
509.0,507.0,506.0,500.0
514.0,502.0,508.0,506.0
508.0,508.0,503.0,506.0
507.0,501.0,502.0,506.0
510.0,495.0,505.0,510.0
509.0,498.0,506.0,518.0
505.0,515.0,505.0,524.0
507.0,523.0,514.0,526.0
506.0,539.0,511.0,522.0
512.0,532.0,508.0,518.0
510.0,509.0,510.0,514.0
514.0,494.0,515.0,512.0
523.0,480.0,521.0,512.0
523.0,483.0,523.0,508.0
520.0,490.0,518.0,500.0
512.0,493.0,519.0,504.0
511.0,500.0,513.0,501.0
507.0,510.0,508.0,503.0
506.0,507.0,505.0,503.0
504.0,507.0,503.0,505.0
511.0,506.0,502.0,505.0
508.0,512.0,500.0,510.0
507.0,517.0,501.0,515.0
505.0,526.0,507.0,521.0
504.0,529.0,509.0,525.0
503.0,534.0,511.0,526.0
509.0,529.0,516.0,525.0
510.0,538.0,512.0,516.0
519.0,517.0,516.0,513.0
526.0,496.0,520.0,505.0
524.0,478.0,518.0,507.0
523.0,456.0,522.0,506.0
516.0,470.0,517.0,506.0
514.0,490.0,515.0,507.0
514.0,500.0,515.0,507.0
510.0,505.0,513.0,508.0
506.0,504.0,507.0,512.0
510.0,493.0,505.0,513.0
509.0,499.0,501.0,509.0
505.0,502.0,500.0,514.0
508.0,512.0,503.0,519.0
497.0,520.0,506.0,521.0
501.0,526.0,510.0,519.0
512.0,509.0,510.0,519.0
522.0,510.0,513.0,516.0
527.0,478.0,517.0,515.0
526.0,478.0,519.0,512.0
514.0,491.0,523.0,504.0
513.0,494.0,525.0,506.0
511.0,494.0,529.0,505.0
503.0,501.0,517.0,509.0
503.0,502.0,504.0,505.0
505.0,520.0,502.0,505.0
508.0,519.0,501.0,506.0
513.0,509.0,498.0,515.0
512.0,512.0,499.0,513.0
508.0,512.0,498.0,518.0
502.0,515.0,500.0,520.0
508.0,516.0,505.0,522.0
513.0,504.0,511.0,515.0
513.0,500.0,517.0,516.0
512.0,499.0,516.0,515.0
524.0,484.0,519.0,513.0
524.0,483.0,520.0,507.0
520.0,490.0,519.0,504.0
515.0,498.0,516.0,504.0
511.0,499.0,515.0,501.0
508.0,505.0,510.0,502.0
508.0,498.0,509.0,502.0
498.0,500.0,501.0,504.0
507.0,496.0,499.0,508.0
510.0,498.0,503.0,509.0
507.0,513.0,504.0,515.0
503.0,517.0,505.0,519.0
504.0,520.0,506.0,521.0
506.0,523.0,510.0,525.0
512.0,517.0,513.0,521.0
513.0,512.0,513.0,519.0
520.0,499.0,515.0,518.0
520.0,497.0,518.0,513.0
519.0,496.0,524.0,509.0
515.0,504.0,523.0,506.0
513.0,502.0,518.0,501.0
508.0,502.0,511.0,505.0
508.0,499.0,511.0,507.0
506.0,496.0,511.0,504.0
504.0,497.0,513.0,508.0
508.0,496.0,509.0,509.0
512.0,502.0,501.0,511.0
505.0,514.0,501.0,512.0
506.0,523.0,503.0,517.0
507.0,524.0,508.0,519.0
509.0,517.0,511.0,517.0
519.0,502.0,513.0,517.0
511.0,506.0,518.0,517.0
522.0,489.0,521.0,511.0
521.0,494.0,521.0,510.0
522.0,496.0,517.0,508.0
516.0,498.0,517.0,505.0
510.0,497.0,517.0,501.0
504.0,509.0,510.0,504.0
515.0,507.0,510.0,504.0
512.0,509.0,505.0,505.0
513.0,510.0,510.0,507.0
512.0,509.0,502.0,510.0
514.0,498.0,499.0,513.0
511.0,506.0,504.0,519.0
510.0,521.0,506.0,519.0
489.0,529.0,507.0,523.0
497.0,511.0,513.0,522.0
509.0,506.0,513.0,520.0
510.0,509.0,518.0,518.0
517.0,497.0,521.0,514.0
519.0,493.0,523.0,511.0
516.0,484.0,521.0,508.0
508.0,496.0,518.0,505.0
508.0,501.0,516.0,503.0
504.0,504.0,509.0,503.0
508.0,502.0,509.0,505.0
504.0,508.0,506.0,509.0
506.0,502.0,505.0,512.0
506.0,499.0,506.0,514.0
507.0,509.0,497.0,512.0
502.0,519.0,504.0,521.0
503.0,522.0,507.0,524.0
502.0,525.0,506.0,521.0
510.0,514.0,515.0,521.0
516.0,482.0,517.0,517.0
525.0,484.0,520.0,510.0
527.0,493.0,522.0,507.0
528.0,497.0,520.0,508.0
526.0,498.0,520.0,506.0
522.0,509.0,515.0,505.0
514.0,510.0,515.0,502.0
516.0,512.0,507.0,503.0
513.0,520.0,506.0,505.0
512.0,521.0,506.0,505.0
515.0,498.0,503.0,508.0
505.0,500.0,500.0,518.0
506.0,505.0,505.0,518.0
504.0,515.0,502.0,520.0
501.0,517.0,503.0,521.0
500.0,512.0,513.0,522.0
509.0,501.0,514.0,521.0
503.0,506.0,516.0,514.0
516.0,490.0,516.0,515.0
515.0,493.0,521.0,513.0
512.0,504.0,518.0,508.0
510.0,502.0,521.0,504.0
508.0,506.0,515.0,501.0
502.0,512.0,518.0,506.0
506.0,499.0,513.0,506.0
507.0,498.0,511.0,503.0
504.0,496.0,503.0,497.0
505.0,504.0,502.0,510.0
506.0,508.0,506.0,518.0
506.0,515.0,508.0,515.0
503.0,516.0,503.0,514.0
503.0,512.0,513.0,526.0
509.0,502.0,519.0,528.0
514.0,500.0,515.0,527.0
517.0,500.0,513.0,516.0
521.0,491.0,519.0,512.0
523.0,493.0,520.0,510.0
514.0,496.0,520.0,508.0
513.0,504.0,519.0,503.0
512.0,505.0,513.0,506.0
505.0,506.0,510.0,503.0
508.0,496.0,508.0,508.0
504.0,497.0,507.0,507.0
506.0,486.0,498.0,504.0
510.0,510.0,500.0,511.0
510.0,515.0,505.0,515.0
504.0,519.0,507.0,519.0
504.0,515.0,509.0,521.0
506.0,520.0,513.0,524.0
515.0,512.0,516.0,521.0
518.0,507.0,512.0,518.0
525.0,489.0,517.0,515.0
524.0,485.0,519.0,512.0
521.0,507.0,523.0,509.0
513.0,511.0,524.0,508.0
514.0,503.0,518.0,505.0
508.0,503.0,513.0,505.0
508.0,489.0,511.0,506.0
507.0,492.0,505.0,504.0
508.0,503.0,506.0,505.0
513.0,497.0,502.0,512.0
508.0,506.0,504.0,513.0
508.0,513.0,501.0,518.0
507.0,518.0,502.0,520.0
514.0,519.0,506.0,521.0
512.0,516.0,514.0,522.0
513.0,503.0,517.0,518.0
512.0,509.0,513.0,515.0
529.0,493.0,518.0,514.0
540.0,488.0,521.0,505.0
525.0,492.0,522.0,506.0
514.0,492.0,522.0,508.0
518.0,500.0,518.0,506.0
509.0,506.0,513.0,503.0
513.0,494.0,510.0,502.0
510.0,496.0,508.0,509.0
505.0,494.0,506.0,506.0
514.0,496.0,503.0,509.0
511.0,507.0,504.0,514.0
502.0,520.0,509.0,516.0
501.0,527.0,506.0,521.0
497.0,523.0,505.0,525.0
497.0,522.0,515.0,525.0
502.0,517.0,513.0,511.0
506.0,513.0,510.0,508.0
518.0,497.0,522.0,507.0
516.0,487.0,526.0,510.0
513.0,492.0,525.0,512.0
509.0,492.0,520.0,512.0
504.0,495.0,517.0,509.0
501.0,504.0,511.0,503.0
507.0,495.0,507.0,501.0
504.0,501.0,506.0,506.0
510.0,497.0,503.0,507.0
508.0,506.0,501.0,511.0
503.0,513.0,503.0,518.0
504.0,517.0,507.0,522.0
510.0,520.0,506.0,525.0
512.0,524.0,511.0,524.0
518.0,510.0,516.0,523.0
516.0,507.0,518.0,523.0
522.0,494.0,519.0,518.0
526.0,490.0,521.0,514.0
522.0,492.0,522.0,513.0
518.0,498.0,527.0,507.0
515.0,504.0,522.0,504.0
516.0,506.0,506.0,495.0
516.0,504.0,508.0,508.0
517.0,497.0,510.0,507.0
506.0,497.0,504.0,505.0
507.0,491.0,505.0,509.0
509.0,502.0,501.0,511.0
510.0,513.0,502.0,509.0
494.0,519.0,507.0,521.0
491.0,519.0,510.0,523.0
496.0,524.0,505.0,517.0
506.0,501.0,516.0,522.0
510.0,505.0,518.0,520.0
521.0,493.0,519.0,515.0
522.0,497.0,522.0,511.0
519.0,497.0,520.0,507.0
512.0,498.0,521.0,504.0
511.0,509.0,516.0,506.0
503.0,514.0,511.0,504.0
507.0,497.0,507.0,503.0
506.0,492.0,510.0,503.0
509.0,497.0,504.0,507.0
510.0,501.0,502.0,507.0
506.0,505.0,502.0,512.0
504.0,508.0,502.0,506.0
505.0,513.0,502.0,513.0
513.0,522.0,512.0,524.0
510.0,516.0,510.0,527.0
513.0,501.0,513.0,529.0
516.0,502.0,520.0,524.0
525.0,489.0,520.0,514.0
525.0,486.0,518.0,507.0
520.0,488.0,516.0,504.0
504.0,508.0,522.0,508.0
507.0,510.0,514.0,512.0
503.0,520.0,516.0,510.0
510.0,504.0,503.0,503.0
506.0,514.0,497.0,502.0
510.0,501.0,498.0,503.0
509.0,497.0,503.0,510.0
507.0,511.0,505.0,514.0
510.0,518.0,508.0,521.0
503.0,524.0,516.0,523.0
501.0,526.0,508.0,520.0
510.0,521.0,510.0,520.0
515.0,504.0,512.0,524.0
521.0,480.0,513.0,512.0
524.0,477.0,521.0,503.0
522.0,482.0,517.0,503.0
517.0,494.0,517.0,503.0
511.0,503.0,513.0,505.0
504.0,505.0,517.0,504.0
504.0,499.0,513.0,503.0
513.0,491.0,510.0,505.0
509.0,502.0,504.0,515.0
508.0,500.0,505.0,527.0
508.0,503.0,496.0,506.0
504.0,510.0,495.0,500.0
504.0,518.0,506.0,523.0
507.0,520.0,504.0,523.0
512.0,517.0,511.0,516.0
529.0,502.0,517.0,516.0
526.0,502.0,521.0,519.0
535.0,483.0,524.0,521.0
533.0,478.0,523.0,513.0
525.0,485.0,523.0,505.0
518.0,493.0,524.0,509.0
500.0,504.0,512.0,500.0
490.0,517.0,517.0,505.0
500.0,507.0,520.0,504.0
500.0,507.0,496.0,489.0
507.0,504.0,496.0,500.0
506.0,501.0,507.0,514.0
507.0,508.0,507.0,517.0
502.0,525.0,509.0,518.0
503.0,526.0,499.0,512.0
504.0,522.0,496.0,510.0
509.0,512.0,513.0,516.0
516.0,501.0,517.0,516.0
517.0,501.0,517.0,515.0
527.0,489.0,519.0,516.0
528.0,489.0,524.0,510.0
518.0,507.0,523.0,505.0
508.0,515.0,520.0,506.0
504.0,515.0,520.0,511.0
506.0,514.0,505.0,497.0
518.0,486.0,506.0,500.0
511.0,502.0,506.0,505.0
514.0,485.0,516.0,511.0
513.0,493.0,515.0,516.0
510.0,506.0,484.0,519.0
499.0,517.0,495.0,524.0
497.0,528.0,503.0,519.0
504.0,525.0,516.0,518.0
508.0,514.0,519.0,517.0
517.0,514.0,520.0,514.0
521.0,493.0,520.0,515.0
525.0,485.0,521.0,504.0
517.0,490.0,524.0,507.0
513.0,487.0,521.0,502.0
511.0,496.0,516.0,509.0
506.0,496.0,517.0,508.0
506.0,506.0,514.0,503.0
507.0,504.0,497.0,497.0
503.0,511.0,510.0,506.0
510.0,501.0,500.0,499.0
509.0,507.0,500.0,515.0
506.0,520.0,506.0,517.0
508.0,518.0,508.0,526.0
509.0,521.0,509.0,534.0
505.0,528.0,511.0,519.0
514.0,507.0,515.0,502.0
517.0,505.0,519.0,512.0
524.0,490.0,521.0,510.0
523.0,489.0,515.0,505.0
512.0,494.0,516.0,506.0
510.0,499.0,519.0,503.0
507.0,505.0,517.0,502.0
502.0,517.0,511.0,508.0
506.0,514.0,514.0,505.0
505.0,518.0,508.0,504.0
506.0,514.0,503.0,503.0
508.0,505.0,507.0,527.0
510.0,500.0,501.0,517.0
508.0,516.0,498.0,500.0
508.0,516.0,503.0,512.0
505.0,521.0,508.0,535.0
510.0,517.0,511.0,528.0
518.0,504.0,511.0,517.0
514.0,496.0,519.0,506.0
522.0,482.0,525.0,514.0
520.0,491.0,512.0,506.0
518.0,490.0,520.0,504.0
514.0,486.0,524.0,508.0
511.0,493.0,515.0,506.0
507.0,508.0,506.0,504.0
509.0,506.0,516.0,507.0
503.0,513.0,495.0,509.0
511.0,499.0,491.0,507.0
509.0,501.0,499.0,507.0
507.0,507.0,504.0,517.0
508.0,502.0,515.0,519.0
507.0,501.0,509.0,514.0
506.0,521.0,510.0,523.0
519.0,518.0,513.0,522.0
514.0,513.0,513.0,519.0
523.0,488.0,518.0,521.0
529.0,485.0,526.0,518.0
529.0,484.0,525.0,516.0
524.0,496.0,515.0,499.0
509.0,506.0,516.0,500.0
512.0,504.0,510.0,496.0
508.0,506.0,507.0,500.0
498.0,504.0,502.0,503.0
498.0,505.0,505.0,504.0
505.0,493.0,495.0,495.0
506.0,494.0,495.0,496.0
508.0,509.0,501.0,513.0
502.0,515.0,502.0,517.0
506.0,513.0,505.0,515.0
505.0,517.0,506.0,517.0
511.0,519.0,510.0,516.0
512.0,515.0,513.0,516.0
523.0,484.0,515.0,513.0
526.0,483.0,515.0,500.0
522.0,489.0,513.0,496.0
513.0,498.0,516.0,506.0
516.0,490.0,515.0,507.0
511.0,501.0,512.0,505.0
514.0,498.0,509.0,509.0
509.0,503.0,499.0,497.0
500.0,504.0,496.0,491.0
503.0,511.0,501.0,514.0
501.0,513.0,503.0,520.0
500.0,521.0,503.0,525.0
502.0,526.0,501.0,502.0
505.0,519.0,500.0,515.0
508.0,518.0,515.0,532.0
514.0,507.0,516.0,528.0
519.0,500.0,514.0,499.0
528.0,484.0,517.0,496.0
528.0,486.0,512.0,498.0
522.0,495.0,516.0,502.0
517.0,504.0,519.0,508.0
510.0,508.0,517.0,511.0
509.0,516.0,510.0,486.0
503.0,506.0,503.0,487.0
501.0,508.0,505.0,499.0
508.0,491.0,503.0,513.0
514.0,487.0,502.0,515.0
510.0,495.0,503.0,517.0
507.0,514.0,504.0,520.0
502.0,516.0,506.0,526.0
508.0,521.0,504.0,524.0
512.0,505.0,521.0,527.0
514.0,509.0,519.0,518.0
520.0,500.0,523.0,537.0
518.0,495.0,526.0,532.0
520.0,483.0,514.0,483.0
516.0,488.0,502.0,464.0
512.0,498.0,518.0,507.0
505.0,504.0,520.0,515.0
502.0,509.0,513.0,510.0
511.0,499.0,509.0,507.0
506.0,498.0,501.0,507.0
513.0,483.0,501.0,530.0
510.0,511.0,488.0,518.0
507.0,520.0,491.0,507.0
505.0,510.0,507.0,508.0
506.0,504.0,516.0,516.0
503.0,509.0,518.0,535.0
513.0,496.0,511.0,544.0
510.0,503.0,514.0,528.0
524.0,484.0,522.0,516.0
529.0,497.0,533.0,502.0
533.0,503.0,523.0,501.0
529.0,500.0,512.0,507.0
524.0,492.0,504.0,488.0
520.0,503.0,512.0,504.0
519.0,503.0,519.0,515.0
504.0,508.0,518.0,515.0
495.0,514.0,510.0,507.0
494.0,514.0,497.0,507.0
494.0,526.0,504.0,506.0
499.0,526.0,498.0,496.0
501.0,526.0,504.0,511.0
504.0,511.0,508.0,531.0
503.0,499.0,512.0,538.0
514.0,488.0,504.0,507.0
508.0,496.0,511.0,506.0
515.0,489.0,523.0,520.0
516.0,488.0,517.0,495.0
511.0,507.0,514.0,483.0
504.0,514.0,519.0,501.0
504.0,518.0,514.0,501.0
503.0,500.0,514.0,497.0
512.0,481.0,513.0,486.0
508.0,495.0,498.0,476.0
510.0,494.0,488.0,493.0
508.0,497.0,519.0,514.0
502.0,506.0,518.0,512.0
503.0,527.0,492.0,504.0
502.0,537.0,498.0,510.0
505.0,538.0,526.0,525.0
510.0,518.0,523.0,535.0
513.0,504.0,512.0,530.0
523.0,482.0,518.0,492.0
524.0,477.0,524.0,492.0
523.0,474.0,527.0,501.0
517.0,487.0,525.0,493.0
514.0,490.0,526.0,506.0
509.0,494.0,519.0,498.0
507.0,502.0,514.0,503.0
507.0,499.0,482.0,489.0
500.0,521.0,509.0,498.0
509.0,511.0,508.0,497.0
506.0,518.0,511.0,547.0
501.0,531.0,477.0,470.0
502.0,532.0,499.0,511.0
506.0,528.0,513.0,528.0
506.0,530.0,519.0,524.0
518.0,485.0,527.0,508.0
518.0,492.0,529.0,509.0
527.0,474.0,515.0,486.0
527.0,480.0,521.0,492.0
521.0,480.0,524.0,487.0
511.0,484.0,519.0,490.0
517.0,492.0,509.0,484.0
504.0,506.0,518.0,491.0
510.0,495.0,502.0,500.0
510.0,494.0,496.0,543.0
508.0,492.0,506.0,502.0
508.0,504.0,520.0,497.0
506.0,515.0,511.0,523.0
501.0,526.0,494.0,507.0
503.0,524.0,499.0,516.0
505.0,524.0,506.0,510.0
505.0,522.0,513.0,516.0
514.0,492.0,525.0,503.0
514.0,482.0,524.0,496.0
529.0,487.0,527.0,533.0
531.0,487.0,512.0,514.0
526.0,509.0,521.0,513.0
516.0,518.0,520.0,507.0
512.0,520.0,538.0,503.0
508.0,529.0,521.0,483.0
508.0,531.0,503.0,466.0
493.0,533.0,506.0,475.0
501.0,505.0,505.0,478.0
505.0,505.0,498.0,483.0
505.0,517.0,504.0,492.0
504.0,473.0,491.0,473.0
504.0,501.0,514.0,535.0
504.0,509.0,519.0,528.0
508.0,495.0,520.0,512.0
511.0,505.0,516.0,510.0
521.0,488.0,521.0,518.0
521.0,505.0,520.0,516.0
520.0,515.0,516.0,499.0
516.0,506.0,532.0,508.0
511.0,503.0,501.0,481.0
513.0,491.0,509.0,513.0
510.0,493.0,511.0,502.0
511.0,512.0,498.0,481.0
507.0,489.0,507.0,510.0
515.0,488.0,497.0,513.0
512.0,508.0,469.0,510.0
510.0,510.0,487.0,503.0
505.0,522.0,495.0,516.0
499.0,533.0,525.0,535.0
505.0,524.0,507.0,463.0
518.0,508.0,523.0,499.0
516.0,508.0,534.0,574.0
523.0,490.0,516.0,521.0
528.0,462.0,520.0,496.0
524.0,473.0,526.0,525.0
518.0,507.0,524.0,522.0
514.0,489.0,485.0,500.0
509.0,511.0,513.0,514.0
506.0,514.0,537.0,518.0
505.0,508.0,506.0,518.0
510.0,497.0,510.0,541.0
514.0,498.0,516.0,530.0
513.0,495.0,492.0,466.0
511.0,502.0,492.0,493.0
512.0,515.0,523.0,582.0
508.0,518.0,503.0,517.0
514.0,503.0,506.0,446.0
518.0,492.0,517.0,525.0
510.0,498.0,560.0,562.0
521.0,496.0,498.0,496.0
524.0,491.0,481.0,526.0
514.0,500.0,523.0,520.0
506.0,515.0,506.0,514.0
500.0,526.0,514.0,539.0
499.0,505.0,522.0,526.0
508.0,462.0,504.0,478.0
516.0,479.0,487.0,450.0
521.0,482.0,494.0,521.0
520.0,501.0,508.0,578.0
511.0,518.0,506.0,564.0
504.0,530.0,515.0,517.0
496.0,523.0,519.0,463.0
499.0,534.0,541.0,520.0
505.0,546.0,523.0,498.0
509.0,532.0,494.0,502.0
517.0,519.0,538.0,542.0
521.0,524.0,536.0,550.0
518.0,526.0,521.0,571.0
520.0,467.0,425.0,487.0
510.0,474.0,511.0,528.0
508.0,489.0,555.0,544.0
504.0,506.0,542.0,555.0
502.0,508.0,480.0,459.0
502.0,512.0,491.0,494.0
510.0,504.0,510.0,552.0
517.0,510.0,507.0,562.0
521.0,498.0,475.0,512.0
522.0,493.0,493.0,527.0
521.0,502.0,512.0,512.0
532.0,496.0,519.0,490.0
524.0,495.0,518.0,504.0
523.0,487.0,527.0,534.0
518.0,486.0,558.0,542.0
517.0,489.0,548.0,525.0
508.0,502.0,521.0,454.0
505.0,520.0,485.0,491.0
506.0,519.0,513.0,551.0
504.0,511.0,508.0,538.0
505.0,502.0,469.0,516.0
503.0,521.0,476.0,504.0
501.0,513.0,511.0,493.0
504.0,519.0,497.0,498.0
503.0,547.0,497.0,510.0
497.0,558.0,517.0,485.0
509.0,458.0,558.0,576.0
520.0,456.0,539.0,562.0
523.0,495.0,531.0,536.0
520.0,497.0,504.0,422.0
506.0,512.0,469.0,420.0
520.0,496.0,494.0,542.0
519.0,501.0,520.0,563.0
511.0,508.0,522.0,514.0
509.0,486.0,532.0,531.0
509.0,485.0,521.0,522.0
505.0,509.0,526.0,526.0
510.0,490.0,552.0,572.0
504.0,506.0,497.0,490.0
505.0,504.0,462.0,458.0
508.0,509.0,454.0,465.0
504.0,523.0,483.0,485.0
502.0,514.0,472.0,469.0
507.0,502.0,479.0,461.0
508.0,522.0,604.0,624.0
515.0,531.0,542.0,541.0
514.0,506.0,478.0,510.0
519.0,479.0,522.0,573.0
530.0,478.0,566.0,544.0
528.0,490.0,509.0,510.0
529.0,478.0,520.0,518.0
522.0,514.0,492.0,491.0
513.0,527.0,477.0,512.0
510.0,502.0,543.0,573.0
500.0,500.0,492.0,532.0
492.0,503.0,536.0,510.0
505.0,460.0,542.0,506.0
502.0,475.0,509.0,490.0
503.0,527.0,457.0,511.0
503.0,537.0,512.0,525.0
500.0,518.0,548.0,518.0
503.0,521.0,516.0,437.0
513.0,510.0,500.0,507.0
520.0,482.0,504.0,557.0
535.0,468.0,510.0,546.0
533.0,482.0,527.0,509.0
523.0,485.0,538.0,475.0
514.0,490.0,505.0,455.0
510.0,500.0,521.0,517.0
500.0,519.0,565.0,505.0
494.0,528.0,533.0,586.0
497.0,536.0,493.0,491.0
500.0,553.0,482.0,516.0
503.0,546.0,521.0,546.0
502.0,532.0,543.0,585.0
498.0,503.0,457.0,422.0
507.0,498.0,522.0,432.0
507.0,507.0,514.0,532.0
518.0,504.0,563.0,652.0
528.0,481.0,503.0,509.0
513.0,440.0,513.0,553.0
519.0,453.0,555.0,563.0
520.0,476.0,543.0,534.0
515.0,487.0,526.0,511.0
507.0,501.0,513.0,468.0
507.0,493.0,535.0,487.0
503.0,493.0,508.0,570.0
517.0,477.0,460.0,549.0
522.0,488.0,491.0,470.0
521.0,506.0,529.0,470.0
528.0,503.0,515.0,451.0
530.0,509.0,445.0,418.0
524.0,527.0,474.0,528.0
514.0,532.0,586.0,701.0
502.0,516.0,615.0,558.0
503.0,529.0,537.0,529.0
492.0,561.0,496.0,544.0
497.0,544.0,599.0,537.0
512.0,518.0,537.0,436.0
516.0,493.0,407.0,412.0
515.0,481.0,459.0,523.0
513.0,479.0,506.0,571.0
501.0,515.0,549.0,506.0
493.0,498.0,533.0,538.0
510.0,480.0,508.0,539.0
502.0,500.0,498.0,491.0
500.0,505.0,515.0,520.0
507.0,478.0,497.0,527.0
514.0,472.0,506.0,494.0
510.0,503.0,530.0,503.0
520.0,529.0,493.0,562.0
517.0,531.0,538.0,568.0
520.0,540.0,535.0,513.0
523.0,516.0,515.0,488.0
539.0,464.0,539.0,537.0
529.0,461.0,545.0,505.0
506.0,486.0,537.0,548.0
504.0,467.0,495.0,477.0
506.0,467.0,479.0,390.0
498.0,526.0,472.0,574.0
494.0,524.0,533.0,517.0
498.0,520.0,568.0,487.0
507.0,519.0,501.0,450.0
510.0,504.0,458.0,496.0
501.0,538.0,500.0,599.0
496.0,545.0,560.0,632.0
508.0,511.0,527.0,573.0
515.0,498.0,500.0,527.0
512.0,493.0,522.0,520.0
513.0,499.0,546.0,502.0
507.0,526.0,485.0,507.0
512.0,514.0,477.0,522.0
513.0,519.0,521.0,514.0
511.0,552.0,534.0,510.0
501.0,558.0,556.0,472.0
501.0,527.0,486.0,453.0
503.0,430.0,431.0,476.0
523.0,415.0,491.0,480.0
520.0,454.0,506.0,602.0
529.0,448.0,562.0,544.0
526.0,482.0,550.0,560.0
526.0,497.0,541.0,561.0
519.0,498.0,474.0,455.0
520.0,500.0,537.0,464.0
514.0,504.0,514.0,556.0
512.0,497.0,514.0,589.0
505.0,502.0,496.0,527.0
507.0,490.0,524.0,492.0
512.0,489.0,563.0,511.0
507.0,507.0,642.0,587.0
507.0,510.0,537.0,498.0
500.0,514.0,419.0,313.0
504.0,500.0,486.0,457.0
501.0,504.0,496.0,566.0
508.0,495.0,535.0,488.0
495.0,512.0,500.0,490.0
506.0,498.0,511.0,526.0
504.0,539.0,486.0,532.0
498.0,560.0,534.0,575.0
492.0,581.0,509.0,571.0
495.0,589.0,464.0,520.0
500.0,500.0,647.0,561.0
518.0,456.0,725.0,586.0
525.0,465.0,530.0,487.0
535.0,461.0,427.0,446.0
529.0,457.0,466.0,480.0
524.0,466.0,523.0,516.0
515.0,499.0,438.0,503.0
504.0,505.0,532.0,543.0
500.0,505.0,506.0,580.0
504.0,494.0,495.0,561.0
509.0,475.0,481.0,495.0
506.0,489.0,480.0,467.0
506.0,504.0,510.0,473.0
509.0,503.0,468.0,482.0
505.0,504.0,545.0,516.0
502.0,541.0,522.0,575.0
509.0,546.0,521.0,567.0
511.0,514.0,539.0,509.0
520.0,485.0,537.0,576.0
521.0,497.0,547.0,552.0
525.0,479.0,497.0,489.0
528.0,472.0,524.0,490.0
519.0,482.0,484.0,508.0
520.0,484.0,527.0,497.0
516.0,499.0,496.0,450.0
508.0,517.0,485.0,484.0
505.0,515.0,521.0,374.0
501.0,522.0,523.0,398.0
504.0,487.0,467.0,692.0
509.0,510.0,463.0,606.0
515.0,485.0,732.0,514.0
514.0,503.0,479.0,509.0
505.0,547.0,389.0,556.0
501.0,558.0,521.0,512.0
503.0,554.0,662.0,549.0
513.0,512.0,549.0,554.0
518.0,491.0,478.0,494.0
518.0,489.0,662.0,541.0
517.0,486.0,658.0,596.0
518.0,503.0,483.0,495.0
514.0,498.0,421.0,527.0
508.0,511.0,483.0,524.0
508.0,501.0,504.0,432.0
514.0,504.0,512.0,496.0
515.0,494.0,512.0,471.0
511.0,519.0,435.0,470.0
511.0,530.0,464.0,490.0
512.0,512.0,491.0,476.0
519.0,463.0,515.0,540.0
515.0,480.0,549.0,574.0
507.0,504.0,502.0,588.0
523.0,524.0,491.0,552.0
526.0,564.0,494.0,525.0
534.0,521.0,530.0,519.0
545.0,508.0,501.0,453.0
545.0,510.0,541.0,433.0
539.0,490.0,537.0,549.0
535.0,450.0,457.0,585.0
530.0,451.0,485.0,369.0
507.0,467.0,619.0,499.0
501.0,486.0,448.0,501.0
491.0,505.0,493.0,548.0
502.0,532.0,515.0,507.0
499.0,536.0,517.0,440.0
492.0,548.0,479.0,540.0
491.0,530.0,490.0,509.0
494.0,521.0,531.0,541.0
494.0,550.0,547.0,579.0
498.0,541.0,517.0,530.0
508.0,466.0,518.0,506.0
521.0,460.0,437.0,457.0
506.0,504.0,538.0,502.0
496.0,514.0,554.0,558.0
505.0,464.0,509.0,522.0
511.0,511.0,471.0,450.0
516.0,499.0,501.0,434.0
514.0,503.0,498.0,551.0
511.0,543.0,499.0,574.0
513.0,542.0,503.0,426.0
507.0,542.0,547.0,508.0
506.0,547.0,485.0,494.0
496.0,528.0,525.0,521.0
500.0,464.0,466.0,524.0
510.0,418.0,411.0,403.0
520.0,433.0,521.0,617.0
531.0,459.0,576.0,574.0
526.0,497.0,645.0,543.0
510.0,482.0,587.0,537.0
507.0,473.0,479.0,571.0
511.0,483.0,616.0,568.0
509.0,491.0,507.0,475.0
499.0,505.0,450.0,516.0
498.0,490.0,424.0,531.0
508.0,490.0,568.0,498.0
502.0,508.0,564.0,544.0
513.0,474.0,476.0,525.0
507.0,511.0,541.0,516.0
506.0,521.0,521.0,538.0
504.0,524.0,502.0,467.0
505.0,523.0,508.0,387.0
506.0,521.0,428.0,474.0
513.0,508.0,532.0,628.0
508.0,509.0,559.0,558.0
520.0,492.0,481.0,419.0
523.0,482.0,536.0,563.0
519.0,491.0,577.0,559.0
526.0,496.0,574.0,515.0
512.0,498.0,524.0,534.0
502.0,508.0,528.0,527.0
503.0,513.0,511.0,535.0
510.0,499.0,534.0,531.0
514.0,493.0,481.0,440.0
513.0,496.0,503.0,290.0
513.0,506.0,420.0,419.0
506.0,530.0,531.0,645.0
504.0,554.0,550.0,621.0
504.0,562.0,541.0,561.0
495.0,589.0,519.0,555.0
508.0,531.0,455.0,497.0
510.0,493.0,522.0,497.0
523.0,455.0,544.0,556.0
531.0,408.0,600.0,528.0
527.0,470.0,533.0,485.0
520.0,518.0,398.0,417.0
513.0,530.0,502.0,519.0
506.0,529.0,506.0,395.0
504.0,513.0,528.0,517.0
499.0,501.0,558.0,637.0
501.0,535.0,450.0,520.0
493.0,566.0,558.0,554.0
487.0,571.0,594.0,595.0
493.0,594.0,592.0,493.0
503.0,536.0,498.0,474.0
518.0,455.0,584.0,553.0
526.0,470.0,451.0,509.0
531.0,487.0,474.0,506.0
533.0,485.0,505.0,499.0
533.0,477.0,574.0,587.0
534.0,451.0,540.0,479.0
531.0,455.0,435.0,458.0
507.0,513.0,496.0,642.0
519.0,536.0,490.0,580.0
525.0,465.0,536.0,441.0
528.0,446.0,619.0,507.0
516.0,510.0,448.0,439.0
516.0,505.0,526.0,515.0
510.0,516.0,537.0,522.0
495.0,532.0,531.0,537.0
477.0,494.0,492.0,515.0
495.0,446.0,456.0,579.0
513.0,465.0,499.0,519.0
524.0,476.0,596.0,498.0
527.0,483.0,498.0,452.0
534.0,494.0,465.0,409.0
522.0,510.0,560.0,571.0
507.0,537.0,509.0,482.0
503.0,501.0,519.0,545.0
509.0,479.0,527.0,556.0
505.0,529.0,489.0,484.0
500.0,492.0,471.0,410.0
513.0,495.0,513.0,506.0
507.0,517.0,513.0,509.0
495.0,524.0,550.0,512.0
504.0,525.0,533.0,538.0
504.0,536.0,482.0,486.0
502.0,558.0,459.0,504.0
509.0,520.0,511.0,526.0
516.0,495.0,518.0,525.0
525.0,492.0,506.0,456.0
534.0,494.0,568.0,559.0
538.0,454.0,501.0,537.0
532.0,452.0,528.0,519.0
514.0,478.0,558.0,525.0
506.0,504.0,503.0,506.0
507.0,530.0,504.0,530.0
494.0,545.0,514.0,550.0
494.0,507.0,469.0,427.0
496.0,530.0,522.0,506.0
507.0,483.0,459.0,570.0
504.0,480.0,661.0,540.0
500.0,469.0,454.0,493.0
507.0,486.0,456.0,517.0
502.0,512.0,537.0,534.0
508.0,501.0,507.0,483.0
510.0,505.0,563.0,581.0
526.0,509.0,538.0,519.0
522.0,510.0,500.0,502.0
522.0,494.0,549.0,556.0
525.0,486.0,446.0,455.0
521.0,484.0,568.0,524.0
514.0,480.0,526.0,476.0
508.0,487.0,506.0,405.0
504.0,507.0,500.0,476.0
502.0,507.0,524.0,610.0
505.0,506.0,523.0,501.0
508.0,492.0,513.0,506.0
511.0,505.0,513.0,535.0
512.0,510.0,487.0,562.0
508.0,512.0,460.0,552.0
510.0,504.0,492.0,463.0
510.0,510.0,516.0,492.0
515.0,503.0,557.0,523.0
517.0,507.0,545.0,521.0
521.0,489.0,495.0,459.0
522.0,491.0,587.0,525.0
515.0,506.0,433.0,451.0
515.0,505.0,483.0,465.0
514.0,488.0,596.0,625.0
505.0,527.0,508.0,553.0
504.0,522.0,555.0,503.0
512.0,501.0,426.0,458.0
507.0,512.0,466.0,462.0
506.0,519.0,564.0,554.0
505.0,524.0,500.0,509.0
508.0,506.0,550.0,528.0
507.0,509.0,547.0,542.0
508.0,545.0,474.0,472.0
510.0,520.0,483.0,465.0
518.0,504.0,539.0,594.0
513.0,534.0,553.0,525.0
517.0,486.0,477.0,539.0
528.0,458.0,493.0,553.0
525.0,479.0,550.0,488.0
524.0,468.0,518.0,499.0
519.0,462.0,543.0,497.0
513.0,491.0,487.0,444.0
511.0,502.0,472.0,521.0
517.0,465.0,515.0,633.0
521.0,474.0,534.0,504.0
521.0,504.0,478.0,495.0
513.0,528.0,543.0,446.0
505.0,540.0,565.0,532.0
502.0,546.0,539.0,561.0
494.0,553.0,477.0,532.0
501.0,532.0,504.0,535.0
518.0,482.0,501.0,493.0
526.0,484.0,522.0,524.0
528.0,489.0,537.0,506.0
526.0,491.0,517.0,455.0
526.0,500.0,518.0,509.0
514.0,493.0,494.0,517.0
504.0,506.0,530.0,530.0
504.0,530.0,514.0,524.0
501.0,539.0,501.0,519.0
503.0,512.0,547.0,533.0
514.0,512.0,491.0,434.0
493.0,529.0,465.0,461.0
501.0,468.0,524.0,452.0
524.0,456.0,496.0,521.0
520.0,533.0,524.0,554.0
511.0,531.0,502.0,513.0
512.0,527.0,492.0,548.0
520.0,500.0,547.0,550.0
535.0,445.0,549.0,505.0
523.0,427.0,504.0,519.0
508.0,484.0,471.0,517.0
513.0,494.0,542.0,552.0
520.0,494.0,560.0,489.0
527.0,506.0,500.0,475.0
501.0,511.0,473.0,442.0
515.0,495.0,504.0,506.0
513.0,504.0,604.0,434.0
504.0,522.0,465.0,506.0
488.0,528.0,539.0,552.0
487.0,529.0,486.0,552.0
486.0,551.0,482.0,505.0
491.0,532.0,502.0,424.0
494.0,522.0,453.0,539.0
500.0,532.0,523.0,552.0
507.0,509.0,553.0,520.0
521.0,454.0,546.0,527.0
526.0,444.0,544.0,500.0
520.0,458.0,508.0,491.0
519.0,468.0,569.0,578.0
514.0,471.0,498.0,560.0
506.0,487.0,509.0,493.0
504.0,509.0,525.0,520.0
505.0,500.0,509.0,492.0
504.0,506.0,464.0,490.0
505.0,510.0,460.0,492.0
506.0,516.0,506.0,482.0
503.0,520.0,506.0,453.0
502.0,523.0,535.0,588.0
498.0,531.0,509.0,545.0
502.0,529.0,523.0,524.0
515.0,507.0,472.0,492.0
523.0,495.0,555.0,561.0
528.0,502.0,536.0,415.0
529.0,492.0,524.0,500.0
521.0,474.0,546.0,644.0
508.0,476.0,563.0,519.0
506.0,484.0,525.0,397.0
504.0,494.0,481.0,506.0
513.0,495.0,501.0,577.0
508.0,518.0,497.0,509.0
513.0,505.0,505.0,486.0
509.0,510.0,503.0,512.0
504.0,520.0,485.0,489.0
505.0,520.0,487.0,465.0
505.0,520.0,529.0,599.0
512.0,519.0,516.0,574.0
514.0,518.0,481.0,517.0
517.0,522.0,515.0,462.0
522.0,531.0,506.0,506.0
524.0,530.0,543.0,506.0
522.0,495.0,508.0,504.0
520.0,469.0,484.0,515.0
517.0,460.0,539.0,494.0
511.0,499.0,500.0,481.0
507.0,504.0,508.0,487.0
510.0,496.0,518.0,503.0
509.0,493.0,509.0,519.0
510.0,504.0,510.0,526.0
509.0,512.0,462.0,481.0
503.0,524.0,488.0,499.0
505.0,521.0,539.0,544.0
501.0,520.0,525.0,531.0
508.0,516.0,503.0,510.0
516.0,491.0,523.0,510.0
518.0,487.0,530.0,511.0
524.0,495.0,504.0,514.0
523.0,512.0,512.0,512.0
520.0,482.0,509.0,386.0
514.0,507.0,467.0,447.0
509.0,520.0,524.0,581.0
505.0,526.0,515.0,527.0
505.0,522.0,518.0,512.0
506.0,515.0,512.0,507.0
508.0,509.0,522.0,510.0
511.0,502.0,506.0,509.0
509.0,506.0,528.0,535.0
506.0,521.0,490.0,515.0
507.0,497.0,506.0,515.0
509.0,501.0,494.0,512.0
512.0,501.0,517.0,513.0
518.0,487.0,526.0,527.0
526.0,478.0,516.0,515.0
525.0,494.0,513.0,503.0
523.0,490.0,525.0,489.0
519.0,488.0,529.0,505.0
510.0,506.0,531.0,505.0
513.0,508.0,505.0,506.0
508.0,523.0,503.0,497.0
505.0,521.0,502.0,506.0
505.0,520.0,497.0,505.0
509.0,502.0,497.0,501.0
508.0,506.0,499.0,506.0
507.0,518.0,494.0,508.0
506.0,503.0,490.0,482.0
515.0,510.0,499.0,499.0
514.0,516.0,514.0,534.0
520.0,505.0,513.0,528.0
524.0,491.0,513.0,514.0
531.0,489.0,517.0,503.0
530.0,485.0,513.0,502.0
518.0,489.0,513.0,500.0
512.0,494.0,514.0,499.0
511.0,505.0,510.0,500.0
502.0,517.0,510.0,499.0
501.0,522.0,515.0,505.0
508.0,509.0,491.0,504.0
510.0,499.0,489.0,495.0
508.0,492.0,502.0,495.0
508.0,495.0,493.0,514.0
506.0,505.0,494.0,528.0
506.0,516.0,498.0,519.0
507.0,518.0,515.0,515.0
506.0,514.0,506.0,508.0
518.0,514.0,513.0,509.0
521.0,495.0,508.0,506.0
527.0,486.0,516.0,509.0
526.0,498.0,522.0,510.0
517.0,500.0,513.0,498.0
517.0,503.0,512.0,496.0
509.0,505.0,509.0,502.0
502.0,512.0,506.0,499.0
502.0,508.0,512.0,507.0
509.0,497.0,505.0,497.0
511.0,498.0,494.0,501.0
510.0,506.0,488.0,505.0
507.0,515.0,493.0,509.0
504.0,531.0,505.0,514.0
502.0,538.0,498.0,515.0
501.0,533.0,505.0,514.0
504.0,514.0,508.0,513.0
519.0,512.0,512.0,510.0
523.0,507.0,511.0,509.0
526.0,504.0,515.0,501.0
527.0,477.0,507.0,491.0
524.0,491.0,512.0,510.0
516.0,498.0,515.0,505.0
514.0,499.0,499.0,494.0
504.0,508.0,508.0,501.0
508.0,507.0,500.0,499.0
508.0,510.0,498.0,499.0
508.0,505.0,496.0,502.0
506.0,513.0,496.0,508.0
505.0,514.0,497.0,514.0
504.0,515.0,498.0,517.0
511.0,511.0,500.0,518.0
509.0,509.0,506.0,510.0
509.0,514.0,507.0,511.0
517.0,500.0,511.0,509.0
523.0,492.0,515.0,511.0
526.0,491.0,514.0,506.0
522.0,496.0,514.0,506.0
520.0,496.0,511.0,502.0
515.0,491.0,505.0,499.0
508.0,505.0,502.0,497.0
506.0,507.0,500.0,501.0
513.0,517.0,497.0,500.0
509.0,529.0,493.0,498.0
508.0,530.0,491.0,501.0
504.0,535.0,496.0,514.0
498.0,543.0,493.0,517.0
502.0,511.0,496.0,513.0
506.0,475.0,500.0,515.0
509.0,499.0,502.0,510.0
516.0,501.0,503.0,511.0
518.0,505.0,508.0,509.0
521.0,495.0,508.0,507.0
522.0,488.0,511.0,499.0
517.0,493.0,511.0,501.0
514.0,499.0,509.0,498.0
509.0,505.0,507.0,500.0
500.0,509.0,503.0,507.0
505.0,503.0,499.0,503.0
509.0,497.0,496.0,505.0
507.0,509.0,492.0,501.0
507.0,512.0,490.0,507.0
507.0,513.0,494.0,508.0
504.0,518.0,496.0,513.0
503.0,525.0,506.0,516.0
504.0,526.0,501.0,516.0
510.0,520.0,505.0,514.0
516.0,504.0,501.0,512.0
522.0,493.0,506.0,514.0
523.0,495.0,510.0,510.0
520.0,496.0,509.0,510.0
517.0,498.0,509.0,503.0
515.0,498.0,504.0,502.0
511.0,505.0,502.0,496.0
509.0,507.0,494.0,499.0
509.0,496.0,496.0,500.0
511.0,499.0,496.0,498.0
509.0,501.0,493.0,504.0
508.0,512.0,489.0,506.0
504.0,519.0,493.0,513.0
502.0,524.0,495.0,518.0
502.0,527.0,494.0,516.0
505.0,525.0,501.0,515.0
509.0,526.0,504.0,514.0
516.0,514.0,507.0,514.0
522.0,500.0,509.0,512.0
523.0,495.0,510.0,509.0
520.0,498.0,510.0,504.0
513.0,506.0,507.0,499.0
509.0,505.0,503.0,500.0
511.0,514.0,502.0,500.0
503.0,509.0,497.0,500.0
506.0,498.0,495.0,502.0
510.0,500.0,495.0,502.0
509.0,506.0,493.0,510.0
510.0,507.0,493.0,510.0
508.0,512.0,495.0,516.0
504.0,532.0,496.0,517.0
506.0,523.0,501.0,520.0
510.0,517.0,506.0,518.0
522.0,498.0,506.0,517.0
527.0,483.0,510.0,515.0
530.0,478.0,510.0,514.0
534.0,475.0,511.0,508.0
528.0,480.0,509.0,501.0
519.0,491.0,506.0,499.0
511.0,503.0,501.0,500.0
501.0,520.0,500.0,501.0
498.0,516.0,497.0,502.0
503.0,512.0,498.0,501.0
500.0,513.0,501.0,510.0
501.0,520.0,498.0,513.0
506.0,520.0,497.0,514.0
506.0,529.0,498.0,516.0
508.0,534.0,499.0,517.0
506.0,538.0,503.0,518.0
510.0,521.0,503.0,517.0
516.0,503.0,509.0,518.0
522.0,501.0,509.0,512.0
522.0,504.0,512.0,508.0
515.0,498.0,511.0,505.0
511.0,498.0,511.0,502.0
506.0,507.0,507.0,502.0
500.0,518.0,507.0,508.0
497.0,524.0,501.0,507.0
500.0,508.0,502.0,502.0
505.0,500.0,498.0,504.0
508.0,495.0,495.0,505.0
507.0,497.0,495.0,508.0
508.0,516.0,495.0,514.0
507.0,534.0,497.0,519.0
503.0,533.0,502.0,521.0
505.0,527.0,507.0,519.0
508.0,519.0,509.0,519.0
519.0,501.0,510.0,516.0
529.0,491.0,509.0,511.0
530.0,487.0,512.0,508.0
520.0,498.0,515.0,506.0
516.0,509.0,511.0,505.0
509.0,511.0,511.0,505.0
504.0,520.0,507.0,505.0
502.0,519.0,503.0,507.0
508.0,504.0,501.0,506.0
511.0,500.0,500.0,504.0
511.0,502.0,499.0,511.0
512.0,510.0,503.0,514.0
513.0,517.0,501.0,519.0
506.0,518.0,504.0,522.0
504.0,518.0,505.0,522.0
502.0,516.0,509.0,521.0
510.0,503.0,510.0,514.0
511.0,500.0,511.0,512.0
515.0,517.0,513.0,506.0
515.0,506.0,513.0,504.0
512.0,531.0,514.0,504.0
507.0,541.0,514.0,502.0
504.0,526.0,512.0,505.0
503.0,520.0,501.0,504.0
509.0,490.0,502.0,506.0
514.0,484.0,499.0,502.0
516.0,492.0,494.0,505.0
513.0,500.0,498.0,506.0
510.0,500.0,501.0,511.0
506.0,500.0,502.0,517.0
505.0,499.0,504.0,520.0
507.0,505.0,507.0,524.0
508.0,504.0,510.0,526.0
514.0,492.0,514.0,518.0
527.0,491.0,515.0,518.0
524.0,497.0,518.0,512.0
527.0,507.0,516.0,510.0
524.0,514.0,515.0,500.0
514.0,524.0,516.0,502.0
510.0,521.0,512.0,507.0
506.0,508.0,516.0,510.0
504.0,498.0,510.0,509.0
506.0,496.0,506.0,510.0
505.0,499.0,501.0,507.0
511.0,505.0,499.0,509.0
511.0,508.0,499.0,510.0
506.0,520.0,501.0,517.0
504.0,531.0,505.0,518.0
500.0,535.0,505.0,521.0
509.0,530.0,513.0,516.0
517.0,527.0,512.0,520.0
521.0,522.0,519.0,516.0
524.0,527.0,522.0,513.0
516.0,532.0,519.0,511.0
511.0,535.0,520.0,507.0
510.0,503.0,512.0,503.0
511.0,462.0,511.0,502.0
510.0,481.0,505.0,500.0
510.0,477.0,502.0,502.0
508.0,491.0,500.0,504.0
507.0,497.0,498.0,507.0
504.0,519.0,502.0,512.0
499.0,530.0,503.0,521.0
503.0,531.0,510.0,522.0
505.0,530.0,514.0,526.0
519.0,502.0,516.0,522.0
528.0,475.0,516.0,521.0
531.0,479.0,516.0,520.0
531.0,493.0,521.0,517.0
524.0,502.0,525.0,518.0
520.0,498.0,526.0,514.0
518.0,508.0,525.0,510.0
511.0,521.0,509.0,504.0
503.0,522.0,508.0,502.0
505.0,507.0,503.0,500.0
508.0,502.0,499.0,505.0
509.0,484.0,499.0,502.0
506.0,508.0,499.0,507.0
510.0,503.0,500.0,514.0
513.0,481.0,505.0,520.0
513.0,504.0,508.0,524.0
501.0,533.0,514.0,531.0
502.0,545.0,518.0,533.0
509.0,535.0,522.0,528.0
519.0,512.0,520.0,520.0
526.0,493.0,521.0,513.0
519.0,500.0,521.0,509.0
522.0,461.0,519.0,503.0
518.0,457.0,521.0,506.0
516.0,495.0,515.0,504.0
515.0,525.0,506.0,501.0
505.0,517.0,504.0,497.0
504.0,510.0,497.0,497.0
509.0,497.0,495.0,502.0
511.0,510.0,496.0,508.0
509.0,530.0,500.0,516.0
505.0,529.0,503.0,518.0
505.0,537.0,505.0,518.0
505.0,530.0,508.0,521.0
515.0,519.0,513.0,520.0
525.0,491.0,516.0,522.0
525.0,489.0,519.0,519.0
519.0,502.0,518.0,512.0
518.0,502.0,518.0,509.0
512.0,483.0,513.0,505.0
512.0,502.0,513.0,505.0
506.0,495.0,508.0,509.0
502.0,509.0,506.0,509.0
506.0,499.0,509.0,512.0
502.0,496.0,506.0,514.0
507.0,502.0,509.0,515.0
503.0,507.0,511.0,516.0
501.0,511.0,509.0,517.0
499.0,534.0,510.0,519.0
496.0,558.0,511.0,515.0
495.0,564.0,510.0,514.0
501.0,548.0,513.0,519.0
519.0,512.0,516.0,516.0
531.0,494.0,520.0,512.0
534.0,461.0,526.0,509.0
524.0,492.0,516.0,503.0
515.0,499.0,516.0,501.0
513.0,517.0,516.0,502.0
508.0,523.0,506.0,505.0
507.0,509.0,503.0,499.0
511.0,495.0,509.0,499.0
509.0,495.0,512.0,506.0
509.0,491.0,506.0,505.0
508.0,493.0,504.0,510.0
506.0,499.0,511.0,521.0
502.0,519.0,514.0,530.0
500.0,539.0,514.0,533.0
501.0,544.0,517.0,524.0
507.0,528.0,520.0,519.0
515.0,504.0,520.0,510.0
521.0,468.0,517.0,505.0
527.0,444.0,512.0,500.0
518.0,490.0,512.0,498.0
517.0,514.0,508.0,497.0
513.0,527.0,505.0,498.0
505.0,522.0,506.0,500.0
507.0,469.0,502.0,503.0
515.0,468.0,499.0,511.0
511.0,477.0,499.0,514.0
506.0,517.0,500.0,515.0
498.0,526.0,505.0,516.0
498.0,525.0,507.0,520.0
499.0,533.0,514.0,519.0
503.0,523.0,523.0,520.0
510.0,501.0,529.0,519.0
522.0,508.0,529.0,513.0
531.0,516.0,525.0,503.0
533.0,510.0,513.0,490.0
524.0,506.0,511.0,487.0
515.0,513.0,508.0,486.0
512.0,510.0,507.0,490.0
503.0,515.0,508.0,491.0
505.0,521.0,499.0,491.0
511.0,514.0,502.0,495.0
513.0,514.0,505.0,503.0
506.0,509.0,501.0,504.0
504.0,512.0,505.0,511.0
504.0,513.0,509.0,516.0
505.0,519.0,511.0,519.0
515.0,514.0,516.0,519.0
515.0,526.0,521.0,517.0
518.0,498.0,518.0,509.0
522.0,487.0,518.0,509.0
526.0,482.0,519.0,510.0
532.0,480.0,520.0,504.0
521.0,493.0,517.0,498.0
517.0,495.0,508.0,497.0
509.0,506.0,505.0,494.0
502.0,522.0,502.0,491.0
507.0,524.0,502.0,496.0
513.0,512.0,502.0,496.0
510.0,500.0,491.0,501.0
505.0,496.0,499.0,508.0
511.0,498.0,500.0,511.0
505.0,501.0,503.0,516.0
506.0,513.0,505.0,522.0
503.0,522.0,517.0,522.0
509.0,542.0,521.0,526.0
520.0,526.0,526.0,524.0
531.0,489.0,524.0,516.0
532.0,470.0,522.0,505.0
521.0,486.0,524.0,502.0
512.0,492.0,521.0,501.0
509.0,497.0,518.0,501.0
506.0,540.0,518.0,502.0
501.0,588.0,509.0,500.0
500.0,566.0,503.0,497.0
514.0,533.0,496.0,498.0
511.0,477.0,498.0,503.0
512.0,452.0,497.0,508.0
513.0,466.0,504.0,513.0
514.0,508.0,507.0,516.0
511.0,532.0,512.0,518.0
506.0,514.0,515.0,519.0
524.0,523.0,516.0,514.0
522.0,534.0,512.0,517.0
528.0,512.0,513.0,512.0
518.0,488.0,516.0,513.0
506.0,506.0,518.0,508.0
500.0,531.0,518.0,509.0
499.0,525.0,519.0,509.0
492.0,520.0,520.0,513.0
492.0,477.0,523.0,510.0
501.0,452.0,519.0,509.0
503.0,479.0,504.0,510.0
508.0,498.0,501.0,516.0
516.0,510.0,498.0,515.0
515.0,518.0,503.0,516.0
513.0,526.0,509.0,522.0
510.0,531.0,511.0,522.0
510.0,514.0,518.0,522.0
515.0,479.0,519.0,519.0
531.0,472.0,522.0,524.0
530.0,486.0,522.0,520.0
525.0,481.0,517.0,512.0
528.0,493.0,516.0,509.0
516.0,546.0,521.0,510.0
511.0,532.0,523.0,511.0
508.0,511.0,519.0,508.0
508.0,505.0,521.0,504.0
509.0,481.0,512.0,504.0
504.0,493.0,502.0,497.0
498.0,511.0,489.0,501.0
497.0,534.0,491.0,506.0
494.0,548.0,499.0,514.0
500.0,564.0,503.0,518.0
506.0,567.0,502.0,521.0
526.0,510.0,513.0,524.0
525.0,493.0,515.0,524.0
530.0,496.0,519.0,526.0
531.0,459.0,521.0,525.0
525.0,490.0,528.0,521.0
518.0,505.0,528.0,508.0
513.0,508.0,528.0,502.0
507.0,523.0,526.0,498.0
505.0,534.0,508.0,497.0
504.0,550.0,499.0,495.0
507.0,525.0,499.0,498.0
508.0,522.0,501.0,505.0
506.0,469.0,496.0,510.0
506.0,489.0,500.0,512.0
507.0,514.0,504.0,518.0
510.0,515.0,505.0,522.0
510.0,530.0,508.0,519.0
510.0,503.0,510.0,521.0
518.0,493.0,512.0,519.0
526.0,478.0,516.0,521.0
528.0,473.0,516.0,514.0
523.0,485.0,517.0,510.0
511.0,495.0,524.0,509.0
505.0,505.0,519.0,509.0
501.0,507.0,516.0,511.0
502.0,502.0,515.0,514.0
505.0,498.0,517.0,511.0
504.0,501.0,510.0,510.0
500.0,509.0,498.0,511.0
507.0,500.0,497.0,506.0
508.0,500.0,504.0,513.0
509.0,536.0,508.0,520.0
504.0,538.0,506.0,517.0
501.0,528.0,510.0,518.0
507.0,508.0,517.0,521.0
523.0,477.0,520.0,523.0
525.0,491.0,529.0,519.0
525.0,495.0,527.0,519.0
520.0,496.0,520.0,514.0
514.0,499.0,519.0,512.0
511.0,488.0,517.0,511.0
508.0,484.0,514.0,508.0
505.0,476.0,506.0,506.0
513.0,477.0,505.0,506.0
513.0,500.0,502.0,510.0
508.0,556.0,503.0,515.0
505.0,540.0,506.0,518.0
504.0,536.0,506.0,521.0
504.0,549.0,510.0,524.0
501.0,543.0,515.0,524.0
506.0,523.0,518.0,524.0
514.0,502.0,517.0,519.0
521.0,486.0,519.0,512.0
525.0,481.0,519.0,507.0
525.0,489.0,517.0,506.0
521.0,499.0,521.0,503.0
511.0,503.0,519.0,506.0
512.0,502.0,516.0,504.0
506.0,513.0,509.0,506.0
506.0,521.0,509.0,511.0
509.0,510.0,506.0,506.0
509.0,488.0,504.0,513.0
505.0,490.0,505.0,517.0
506.0,500.0,504.0,519.0
504.0,493.0,508.0,525.0
505.0,480.0,515.0,526.0
506.0,479.0,516.0,526.0
509.0,493.0,514.0,524.0
517.0,505.0,521.0,519.0
523.0,524.0,521.0,519.0
520.0,530.0,521.0,515.0
515.0,516.0,522.0,517.0
522.0,492.0,525.0,514.0
516.0,508.0,525.0,512.0
504.0,514.0,523.0,511.0
500.0,499.0,512.0,511.0
497.0,495.0,507.0,502.0
505.0,496.0,505.0,509.0
508.0,503.0,501.0,513.0
510.0,517.0,512.0,517.0
504.0,535.0,510.0,513.0
499.0,531.0,505.0,523.0
500.0,522.0,502.0,520.0
507.0,501.0,506.0,523.0
509.0,511.0,514.0,524.0
514.0,529.0,523.0,524.0
517.0,535.0,524.0,516.0
517.0,541.0,528.0,513.0
521.0,490.0,526.0,513.0
525.0,457.0,522.0,503.0
516.0,487.0,514.0,502.0
510.0,486.0,507.0,500.0
506.0,498.0,506.0,501.0
504.0,506.0,504.0,507.0
515.0,487.0,505.0,510.0
514.0,496.0,504.0,514.0
505.0,496.0,508.0,516.0
501.0,501.0,510.0,521.0
507.0,491.0,514.0,520.0
509.0,519.0,515.0,525.0
508.0,544.0,516.0,525.0
510.0,517.0,515.0,518.0
520.0,497.0,518.0,513.0
522.0,490.0,522.0,512.0
521.0,493.0,517.0,502.0
515.0,502.0,519.0,507.0
511.0,507.0,519.0,506.0
507.0,503.0,513.0,511.0
500.0,507.0,511.0,505.0
503.0,503.0,512.0,508.0
508.0,500.0,509.0,509.0
515.0,502.0,505.0,516.0
509.0,511.0,506.0,521.0
505.0,503.0,503.0,522.0
512.0,510.0,506.0,521.0
509.0,518.0,509.0,521.0
502.0,521.0,512.0,521.0
511.0,516.0,516.0,518.0
514.0,518.0,522.0,519.0
523.0,498.0,521.0,519.0
521.0,499.0,522.0,515.0
519.0,508.0,521.0,518.0
517.0,506.0,521.0,515.0
515.0,509.0,516.0,505.0
508.0,518.0,512.0,505.0
508.0,514.0,511.0,502.0
506.0,505.0,508.0,506.0
509.0,501.0,508.0,509.0
508.0,499.0,509.0,510.0
508.0,501.0,503.0,513.0
509.0,507.0,503.0,517.0
504.0,513.0,507.0,528.0
506.0,511.0,511.0,527.0
506.0,523.0,514.0,526.0
511.0,516.0,518.0,520.0
518.0,496.0,522.0,519.0
519.0,494.0,526.0,516.0
523.0,496.0,528.0,508.0
519.0,502.0,525.0,506.0
515.0,494.0,516.0,501.0
506.0,488.0,514.0,505.0
501.0,507.0,511.0,512.0
500.0,499.0,509.0,507.0
508.0,505.0,507.0,506.0
513.0,534.0,501.0,510.0
519.0,498.0,507.0,513.0
515.0,508.0,506.0,521.0
512.0,515.0,500.0,524.0
507.0,509.0,509.0,527.0
504.0,503.0,510.0,526.0
502.0,503.0,516.0,522.0
508.0,504.0,521.0,521.0
521.0,494.0,518.0,516.0
529.0,490.0,518.0,515.0
518.0,501.0,524.0,510.0
516.0,505.0,526.0,511.0
514.0,510.0,523.0,504.0
509.0,514.0,517.0,504.0
505.0,510.0,510.0,505.0
505.0,505.0,509.0,506.0
514.0,492.0,498.0,503.0
507.0,500.0,503.0,509.0
501.0,510.0,510.0,514.0
501.0,527.0,506.0,517.0
501.0,534.0,501.0,520.0
499.0,533.0,510.0,526.0
502.0,513.0,515.0,522.0
514.0,494.0,512.0,522.0
522.0,498.0,517.0,518.0
529.0,482.0,517.0,515.0
526.0,480.0,523.0,512.0
519.0,490.0,521.0,509.0
510.0,488.0,520.0,507.0
505.0,492.0,515.0,509.0
505.0,493.0,513.0,506.0
506.0,485.0,511.0,507.0
503.0,516.0,507.0,507.0
505.0,509.0,509.0,510.0
514.0,516.0,510.0,516.0
516.0,511.0,513.0,513.0
507.0,506.0,509.0,520.0
508.0,512.0,506.0,520.0
502.0,514.0,509.0,522.0
502.0,521.0,511.0,523.0
513.0,511.0,517.0,521.0
521.0,494.0,520.0,518.0
523.0,499.0,522.0,516.0
525.0,523.0,523.0,511.0
519.0,504.0,519.0,507.0
510.0,497.0,520.0,508.0
507.0,477.0,519.0,512.0
510.0,494.0,517.0,514.0
505.0,516.0,512.0,521.0
506.0,506.0,513.0,515.0
510.0,501.0,510.0,512.0
506.0,525.0,506.0,513.0
507.0,524.0,506.0,518.0
507.0,532.0,505.0,519.0
504.0,539.0,503.0,519.0
500.0,541.0,511.0,517.0
508.0,532.0,509.0,515.0
512.0,516.0,506.0,512.0
522.0,475.0,514.0,508.0
523.0,478.0,515.0,507.0
521.0,484.0,521.0,504.0
515.0,493.0,521.0,506.0
513.0,504.0,518.0,502.0
506.0,505.0,516.0,507.0
498.0,506.0,512.0,505.0
500.0,498.0,506.0,502.0
507.0,484.0,504.0,504.0
510.0,511.0,504.0,507.0
506.0,511.0,503.0,514.0
509.0,515.0,506.0,512.0
510.0,517.0,507.0,522.0
511.0,535.0,509.0,522.0
509.0,535.0,511.0,521.0
513.0,518.0,515.0,519.0
517.0,481.0,517.0,522.0
527.0,469.0,520.0,514.0
527.0,461.0,521.0,510.0
523.0,472.0,520.0,506.0
517.0,478.0,519.0,503.0
509.0,507.0,517.0,505.0
506.0,530.0,509.0,506.0
506.0,527.0,508.0,507.0
504.0,534.0,505.0,509.0
508.0,526.0,503.0,511.0
507.0,507.0,503.0,512.0
508.0,518.0,505.0,516.0
504.0,506.0,505.0,522.0
505.0,510.0,516.0,524.0
505.0,523.0,517.0,527.0
507.0,518.0,515.0,522.0
510.0,509.0,515.0,516.0
521.0,496.0,517.0,517.0
520.0,493.0,521.0,511.0
520.0,490.0,522.0,508.0
516.0,492.0,517.0,505.0
512.0,504.0,519.0,501.0
510.0,500.0,515.0,503.0
505.0,505.0,510.0,505.0
505.0,501.0,509.0,505.0
507.0,500.0,507.0,508.0
510.0,501.0,502.0,507.0
509.0,506.0,504.0,508.0
502.0,503.0,503.0,517.0
505.0,505.0,507.0,520.0
502.0,505.0,505.0,524.0
504.0,501.0,515.0,526.0
511.0,505.0,515.0,524.0
515.0,514.0,522.0,519.0
522.0,489.0,517.0,512.0
527.0,486.0,522.0,514.0
518.0,499.0,521.0,509.0
516.0,493.0,525.0,506.0
511.0,499.0,522.0,508.0
508.0,507.0,513.0,505.0
505.0,521.0,511.0,508.0
501.0,541.0,505.0,508.0
503.0,557.0,500.0,508.0
503.0,558.0,502.0,511.0
502.0,551.0,508.0,516.0
508.0,475.0,509.0,522.0
513.0,430.0,509.0,529.0
514.0,464.0,515.0,528.0
507.0,500.0,519.0,529.0
512.0,507.0,513.0,523.0
521.0,508.0,520.0,518.0
523.0,494.0,521.0,512.0
522.0,493.0,516.0,507.0
514.0,501.0,523.0,505.0
508.0,500.0,524.0,504.0
507.0,497.0,522.0,511.0
499.0,495.0,518.0,504.0
502.0,496.0,509.0,501.0
504.0,495.0,502.0,499.0
515.0,489.0,499.0,498.0
511.0,502.0,498.0,500.0
514.0,529.0,501.0,509.0
509.0,550.0,505.0,516.0
508.0,537.0,505.0,522.0
507.0,525.0,513.0,523.0
514.0,510.0,515.0,521.0
516.0,513.0,516.0,518.0
520.0,500.0,517.0,517.0
525.0,497.0,520.0,511.0
521.0,494.0,520.0,508.0
518.0,500.0,523.0,506.0
510.0,496.0,520.0,505.0
506.0,503.0,518.0,504.0
502.0,505.0,508.0,500.0
502.0,504.0,504.0,500.0
499.0,494.0,504.0,504.0
507.0,494.0,499.0,507.0
509.0,503.0,502.0,507.0
520.0,512.0,503.0,516.0
513.0,513.0,506.0,521.0
508.0,523.0,510.0,520.0
508.0,530.0,510.0,523.0
509.0,520.0,513.0,521.0
512.0,513.0,519.0,522.0
523.0,485.0,521.0,514.0
522.0,482.0,524.0,514.0
524.0,479.0,522.0,510.0
521.0,484.0,521.0,507.0
511.0,500.0,517.0,509.0
510.0,519.0,516.0,509.0
506.0,508.0,513.0,508.0
508.0,503.0,504.0,509.0
509.0,496.0,507.0,508.0
510.0,500.0,505.0,514.0
508.0,501.0,505.0,522.0
506.0,508.0,509.0,522.0
503.0,519.0,508.0,528.0
503.0,519.0,515.0,530.0
504.0,528.0,518.0,525.0
505.0,529.0,522.0,522.0
510.0,504.0,518.0,518.0
520.0,482.0,525.0,509.0
520.0,458.0,521.0,506.0
522.0,459.0,519.0,508.0
515.0,495.0,514.0,502.0
516.0,504.0,510.0,499.0
504.0,522.0,507.0,502.0
505.0,511.0,506.0,500.0
505.0,511.0,501.0,502.0
510.0,503.0,502.0,506.0
512.0,502.0,504.0,510.0
511.0,510.0,501.0,515.0
501.0,525.0,503.0,518.0
497.0,525.0,507.0,518.0
504.0,516.0,504.0,521.0
508.0,504.0,514.0,521.0
512.0,501.0,516.0,514.0
518.0,501.0,514.0,516.0
521.0,491.0,522.0,513.0
520.0,497.0,514.0,505.0
516.0,506.0,519.0,504.0
513.0,504.0,515.0,506.0
508.0,497.0,514.0,506.0
504.0,498.0,512.0,503.0
506.0,492.0,508.0,503.0
515.0,492.0,506.0,505.0
513.0,504.0,503.0,507.0
506.0,502.0,505.0,515.0
504.0,507.0,505.0,520.0
506.0,516.0,507.0,521.0
500.0,535.0,508.0,524.0
501.0,544.0,512.0,524.0
508.0,543.0,515.0,523.0
515.0,527.0,517.0,521.0
530.0,473.0,523.0,518.0
531.0,474.0,521.0,513.0
522.0,495.0,522.0,514.0
514.0,505.0,523.0,512.0
515.0,511.0,524.0,512.0
505.0,532.0,516.0,510.0
508.0,477.0,505.0,508.0
510.0,489.0,503.0,504.0
513.0,489.0,499.0,501.0
507.0,488.0,495.0,504.0
506.0,502.0,502.0,510.0
503.0,525.0,507.0,516.0
506.0,529.0,510.0,518.0
506.0,524.0,510.0,520.0
505.0,527.0,509.0,520.0
514.0,504.0,510.0,517.0
518.0,492.0,515.0,514.0
521.0,472.0,521.0,513.0
527.0,465.0,522.0,507.0
523.0,469.0,522.0,508.0
515.0,481.0,522.0,508.0
515.0,495.0,517.0,508.0
509.0,527.0,512.0,503.0
502.0,529.0,505.0,503.0
504.0,517.0,504.0,501.0
506.0,503.0,501.0,507.0
509.0,504.0,500.0,508.0
508.0,509.0,502.0,513.0
505.0,515.0,502.0,517.0
505.0,524.0,504.0,524.0
509.0,532.0,512.0,524.0
510.0,526.0,514.0,522.0
514.0,511.0,524.0,518.0
521.0,495.0,524.0,520.0
525.0,487.0,521.0,514.0
520.0,489.0,520.0,508.0
520.0,487.0,522.0,508.0
516.0,500.0,519.0,507.0
511.0,510.0,516.0,506.0
505.0,523.0,510.0,504.0
506.0,506.0,507.0,509.0
508.0,498.0,504.0,507.0
510.0,485.0,506.0,509.0
511.0,497.0,503.0,517.0
507.0,511.0,505.0,512.0
504.0,516.0,506.0,523.0
504.0,524.0,508.0,524.0
498.0,524.0,512.0,524.0
500.0,519.0,512.0,523.0
505.0,509.0,515.0,520.0
523.0,495.0,514.0,518.0
528.0,505.0,522.0,512.0
528.0,483.0,524.0,513.0
526.0,476.0,527.0,507.0
517.0,488.0,520.0,507.0
513.0,498.0,510.0,505.0
505.0,506.0,505.0,506.0
499.0,518.0,501.0,509.0
506.0,513.0,502.0,508.0
509.0,506.0,504.0,515.0
505.0,505.0,508.0,521.0
508.0,512.0,513.0,524.0
509.0,519.0,515.0,522.0
508.0,522.0,514.0,518.0
509.0,519.0,507.0,516.0
509.0,496.0,510.0,517.0
510.0,484.0,515.0,513.0
522.0,465.0,517.0,513.0
521.0,457.0,521.0,507.0
518.0,500.0,519.0,504.0
510.0,508.0,519.0,502.0
503.0,505.0,510.0,500.0
502.0,518.0,509.0,502.0
505.0,517.0,505.0,503.0
509.0,522.0,501.0,504.0
516.0,511.0,504.0,508.0
512.0,509.0,503.0,509.0
510.0,515.0,504.0,515.0
507.0,522.0,506.0,519.0
504.0,526.0,510.0,525.0
509.0,523.0,511.0,530.0
508.0,528.0,515.0,521.0
512.0,513.0,516.0,518.0
521.0,489.0,520.0,518.0
520.0,486.0,523.0,519.0
521.0,477.0,523.0,513.0
514.0,478.0,520.0,505.0
508.0,494.0,513.0,508.0
502.0,490.0,511.0,501.0
500.0,504.0,504.0,495.0
500.0,509.0,505.0,501.0
506.0,501.0,507.0,506.0
515.0,506.0,500.0,509.0
523.0,508.0,508.0,516.0
516.0,504.0,508.0,516.0
511.0,516.0,507.0,514.0
509.0,517.0,507.0,523.0
506.0,518.0,508.0,519.0
506.0,518.0,515.0,517.0
507.0,515.0,517.0,515.0
519.0,499.0,519.0,519.0
522.0,484.0,523.0,514.0
522.0,490.0,521.0,509.0
517.0,494.0,522.0,506.0
513.0,514.0,516.0,509.0
510.0,507.0,509.0,507.0
506.0,512.0,510.0,506.0
505.0,514.0,510.0,508.0
508.0,514.0,510.0,507.0
510.0,514.0,515.0,514.0
509.0,504.0,511.0,514.0
507.0,510.0,505.0,513.0
504.0,521.0,496.0,513.0
504.0,515.0,501.0,515.0
503.0,512.0,509.0,514.0
511.0,499.0,510.0,510.0
514.0,502.0,516.0,512.0
525.0,485.0,519.0,509.0
524.0,484.0,521.0,510.0
519.0,497.0,521.0,504.0
513.0,513.0,517.0,505.0
511.0,517.0,516.0,503.0
507.0,522.0,510.0,505.0
505.0,521.0,510.0,504.0
506.0,483.0,507.0,505.0
507.0,486.0,504.0,507.0
507.0,488.0,501.0,508.0
505.0,506.0,504.0,511.0
505.0,507.0,503.0,515.0
504.0,507.0,505.0,517.0
510.0,508.0,508.0,522.0
509.0,516.0,515.0,520.0
512.0,508.0,517.0,521.0
517.0,503.0,519.0,518.0
523.0,495.0,522.0,513.0
521.0,500.0,523.0,510.0
517.0,504.0,521.0,506.0
511.0,504.0,518.0,507.0
509.0,506.0,515.0,506.0
504.0,509.0,512.0,507.0
504.0,504.0,508.0,505.0
502.0,497.0,503.0,506.0
510.0,487.0,504.0,509.0
507.0,492.0,504.0,513.0
510.0,500.0,507.0,519.0
505.0,525.0,503.0,517.0
498.0,544.0,508.0,522.0
496.0,557.0,512.0,524.0
505.0,532.0,513.0,522.0
513.0,537.0,518.0,519.0
520.0,466.0,520.0,517.0
519.0,457.0,521.0,512.0
520.0,464.0,522.0,511.0
517.0,475.0,522.0,509.0
513.0,488.0,518.0,512.0
512.0,497.0,518.0,512.0
515.0,512.0,511.0,512.0
514.0,514.0,509.0,510.0
513.0,503.0,508.0,506.0
512.0,500.0,506.0,512.0
507.0,502.0,506.0,517.0
506.0,504.0,508.0,519.0
507.0,508.0,507.0,517.0
509.0,509.0,506.0,520.0
506.0,537.0,508.0,513.0
507.0,528.0,511.0,517.0
515.0,514.0,516.0,513.0
525.0,496.0,517.0,511.0
527.0,491.0,520.0,504.0
520.0,491.0,524.0,508.0
510.0,510.0,519.0,503.0
512.0,508.0,510.0,503.0
506.0,510.0,511.0,503.0
507.0,514.0,510.0,506.0
504.0,504.0,506.0,506.0
510.0,498.0,506.0,511.0
507.0,499.0,503.0,514.0
511.0,505.0,503.0,515.0
502.0,512.0,504.0,518.0
502.0,512.0,505.0,522.0
505.0,522.0,511.0,523.0
505.0,524.0,509.0,520.0
515.0,516.0,514.0,516.0
520.0,519.0,514.0,513.0
524.0,483.0,519.0,511.0
523.0,488.0,521.0,510.0
515.0,502.0,522.0,506.0
510.0,496.0,521.0,511.0
509.0,495.0,515.0,514.0
505.0,507.0,515.0,513.0
505.0,500.0,512.0,512.0
506.0,496.0,510.0,508.0
509.0,494.0,503.0,505.0
507.0,498.0,505.0,510.0
507.0,512.0,510.0,513.0
504.0,525.0,517.0,523.0
505.0,521.0,511.0,523.0
503.0,517.0,506.0,523.0
507.0,508.0,506.0,512.0
513.0,502.0,505.0,509.0
520.0,490.0,514.0,508.0
521.0,491.0,520.0,506.0
514.0,497.0,516.0,502.0
515.0,499.0,518.0,505.0
510.0,507.0,516.0,506.0
514.0,499.0,510.0,504.0
502.0,503.0,508.0,505.0
502.0,512.0,506.0,504.0
507.0,508.0,504.0,506.0
508.0,507.0,500.0,508.0
509.0,506.0,502.0,512.0
503.0,511.0,508.0,521.0
506.0,520.0,510.0,521.0
505.0,517.0,511.0,526.0
506.0,522.0,519.0,524.0
511.0,514.0,517.0,516.0
513.0,507.0,512.0,514.0
522.0,492.0,514.0,511.0
524.0,490.0,518.0,508.0
519.0,494.0,518.0,507.0
512.0,503.0,520.0,506.0
510.0,505.0,514.0,500.0
503.0,508.0,508.0,502.0
504.0,503.0,508.0,507.0
501.0,498.0,507.0,507.0
515.0,472.0,507.0,511.0
514.0,493.0,498.0,507.0
512.0,514.0,500.0,509.0
507.0,529.0,511.0,521.0
503.0,532.0,509.0,526.0
508.0,522.0,503.0,521.0
514.0,519.0,513.0,521.0
513.0,506.0,517.0,518.0
518.0,496.0,519.0,519.0
520.0,482.0,521.0,515.0
519.0,474.0,521.0,511.0
515.0,478.0,520.0,509.0
508.0,478.0,520.0,509.0
508.0,497.0,518.0,507.0
503.0,493.0,511.0,510.0
503.0,497.0,509.0,506.0
507.0,485.0,504.0,508.0
516.0,504.0,503.0,512.0
510.0,555.0,505.0,513.0
505.0,553.0,511.0,518.0
502.0,562.0,510.0,520.0
504.0,524.0,501.0,518.0
503.0,521.0,506.0,519.0
504.0,523.0,512.0,517.0
510.0,505.0,515.0,516.0
527.0,472.0,513.0,508.0
525.0,484.0,516.0,508.0
526.0,487.0,518.0,504.0
519.0,510.0,516.0,507.0
514.0,505.0,513.0,502.0
514.0,498.0,510.0,502.0
506.0,512.0,509.0,503.0
508.0,515.0,505.0,502.0
509.0,513.0,502.0,504.0
510.0,498.0,500.0,508.0
511.0,495.0,500.0,514.0
506.0,515.0,500.0,517.0
500.0,519.0,506.0,518.0
505.0,508.0,509.0,519.0
505.0,506.0,514.0,517.0
511.0,496.0,519.0,523.0
512.0,500.0,517.0,520.0
528.0,494.0,518.0,515.0
519.0,521.0,521.0,513.0
515.0,530.0,519.0,508.0
505.0,539.0,519.0,509.0
505.0,501.0,513.0,507.0
506.0,473.0,510.0,504.0
504.0,518.0,507.0,504.0
504.0,520.0,506.0,506.0
512.0,496.0,503.0,508.0
514.0,501.0,504.0,511.0
509.0,506.0,506.0,515.0
507.0,516.0,505.0,519.0
505.0,511.0,503.0,523.0
503.0,508.0,514.0,525.0
503.0,516.0,512.0,522.0
510.0,501.0,515.0,518.0
517.0,495.0,512.0,516.0
519.0,488.0,519.0,514.0
520.0,494.0,522.0,512.0
516.0,495.0,526.0,510.0
506.0,501.0,527.0,516.0
506.0,506.0,521.0,510.0
503.0,507.0,510.0,507.0
501.0,504.0,508.0,502.0
501.0,509.0,500.0,501.0
508.0,506.0,501.0,500.0
508.0,510.0,501.0,502.0
513.0,514.0,500.0,513.0
509.0,512.0,508.0,517.0
508.0,509.0,510.0,519.0
509.0,515.0,512.0,521.0
511.0,506.0,513.0,519.0
512.0,505.0,516.0,515.0
521.0,495.0,518.0,513.0
523.0,465.0,521.0,511.0
521.0,479.0,522.0,506.0
511.0,495.0,517.0,505.0
515.0,506.0,519.0,507.0
513.0,510.0,512.0,507.0
508.0,512.0,510.0,502.0
511.0,501.0,506.0,503.0
508.0,494.0,504.0,508.0
516.0,505.0,501.0,510.0
509.0,518.0,502.0,512.0
506.0,518.0,504.0,517.0
506.0,514.0,502.0,518.0
508.0,516.0,512.0,521.0
507.0,516.0,512.0,525.0
510.0,507.0,516.0,521.0
515.0,499.0,517.0,515.0
523.0,483.0,518.0,514.0
525.0,479.0,521.0,510.0
521.0,486.0,523.0,504.0
515.0,489.0,516.0,505.0
511.0,495.0,519.0,507.0
506.0,512.0,516.0,509.0
505.0,507.0,511.0,503.0
505.0,494.0,505.0,503.0
510.0,480.0,503.0,503.0
509.0,478.0,500.0,508.0
515.0,500.0,502.0,512.0
506.0,526.0,503.0,517.0
504.0,534.0,507.0,521.0
505.0,525.0,511.0,525.0
504.0,529.0,516.0,524.0
510.0,520.0,518.0,525.0
516.0,507.0,518.0,523.0
521.0,494.0,523.0,515.0
517.0,498.0,523.0,511.0
517.0,500.0,515.0,508.0
518.0,484.0,517.0,503.0
514.0,491.0,509.0,505.0
505.0,506.0,511.0,505.0
502.0,514.0,506.0,503.0
501.0,520.0,503.0,502.0
512.0,524.0,505.0,508.0
513.0,534.0,507.0,514.0
508.0,504.0,506.0,519.0
504.0,489.0,512.0,521.0
504.0,503.0,511.0,522.0
507.0,505.0,510.0,524.0
511.0,500.0,513.0,516.0
514.0,514.0,514.0,517.0
520.0,516.0,517.0,514.0
521.0,504.0,519.0,511.0
519.0,500.0,519.0,506.0
514.0,493.0,517.0,509.0
512.0,495.0,517.0,505.0
507.0,497.0,513.0,502.0
501.0,502.0,508.0,505.0
504.0,501.0,506.0,504.0
510.0,510.0,501.0,504.0
513.0,522.0,500.0,508.0
510.0,513.0,500.0,510.0
509.0,490.0,502.0,516.0
505.0,507.0,504.0,516.0
504.0,510.0,506.0,522.0
504.0,511.0,513.0,522.0
509.0,512.0,516.0,519.0
512.0,503.0,510.0,518.0
523.0,483.0,515.0,516.0
524.0,498.0,520.0,510.0
522.0,492.0,519.0,512.0
519.0,497.0,518.0,511.0
515.0,489.0,518.0,512.0
511.0,493.0,517.0,510.0
505.0,495.0,517.0,514.0
507.0,510.0,512.0,508.0
508.0,506.0,503.0,508.0
506.0,514.0,502.0,511.0
508.0,513.0,508.0,515.0
503.0,508.0,508.0,515.0
505.0,516.0,507.0,517.0
511.0,529.0,507.0,521.0
509.0,530.0,510.0,516.0
515.0,511.0,512.0,513.0
517.0,495.0,512.0,515.0
522.0,485.0,517.0,511.0
519.0,491.0,521.0,509.0
511.0,489.0,522.0,509.0
505.0,487.0,518.0,507.0
508.0,486.0,507.0,502.0
502.0,500.0,506.0,501.0
507.0,519.0,512.0,508.0
514.0,519.0,508.0,505.0
513.0,504.0,505.0,512.0
512.0,508.0,512.0,521.0
511.0,512.0,509.0,514.0
510.0,515.0,504.0,518.0
505.0,515.0,505.0,518.0
502.0,530.0,507.0,517.0
508.0,525.0,511.0,513.0
512.0,520.0,515.0,511.0
519.0,502.0,515.0,512.0
521.0,490.0,521.0,510.0
521.0,488.0,521.0,508.0
517.0,496.0,518.0,505.0
515.0,497.0,514.0,503.0
514.0,497.0,511.0,508.0
509.0,505.0,511.0,506.0
504.0,500.0,503.0,506.0
509.0,504.0,504.0,506.0
510.0,508.0,502.0,509.0
505.0,507.0,501.0,509.0
506.0,521.0,503.0,513.0
503.0,517.0,505.0,517.0
503.0,495.0,511.0,525.0
510.0,520.0,515.0,521.0
510.0,503.0,513.0,522.0
517.0,488.0,517.0,518.0
533.0,487.0,521.0,519.0
525.0,487.0,525.0,514.0
520.0,488.0,521.0,510.0
515.0,499.0,518.0,504.0
513.0,495.0,517.0,506.0
508.0,508.0,510.0,505.0
506.0,513.0,509.0,506.0
513.0,517.0,503.0,505.0
509.0,508.0,504.0,506.0
508.0,506.0,506.0,510.0
509.0,501.0,507.0,512.0
507.0,508.0,508.0,517.0
505.0,515.0,509.0,519.0
504.0,514.0,512.0,523.0
509.0,513.0,512.0,516.0
515.0,504.0,512.0,515.0
520.0,496.0,513.0,521.0
528.0,482.0,516.0,513.0
525.0,478.0,518.0,512.0
518.0,482.0,519.0,512.0
511.0,492.0,519.0,507.0
510.0,497.0,517.0,509.0
502.0,525.0,517.0,503.0
502.0,517.0,513.0,502.0
506.0,512.0,514.0,503.0
511.0,485.0,504.0,506.0
511.0,479.0,499.0,511.0
508.0,503.0,500.0,510.0
502.0,524.0,506.0,514.0
500.0,526.0,505.0,515.0
504.0,529.0,510.0,519.0
512.0,514.0,514.0,517.0
516.0,508.0,516.0,519.0
524.0,496.0,522.0,518.0
525.0,502.0,521.0,507.0
522.0,503.0,519.0,504.0
520.0,510.0,519.0,507.0
513.0,503.0,515.0,506.0
510.0,495.0,513.0,503.0
507.0,495.0,510.0,500.0
509.0,479.0,507.0,506.0
510.0,484.0,505.0,505.0
512.0,490.0,502.0,509.0
512.0,514.0,499.0,512.0
502.0,545.0,501.0,517.0
499.0,536.0,505.0,522.0
505.0,522.0,508.0,520.0
503.0,522.0,511.0,524.0
510.0,505.0,514.0,515.0
509.0,488.0,516.0,518.0
524.0,469.0,519.0,516.0
522.0,483.0,521.0,511.0
520.0,485.0,522.0,506.0
514.0,485.0,520.0,509.0
509.0,486.0,518.0,507.0
507.0,485.0,513.0,507.0
505.0,484.0,510.0,506.0
508.0,497.0,505.0,508.0
510.0,521.0,506.0,508.0
510.0,496.0,504.0,513.0
510.0,492.0,506.0,512.0
504.0,513.0,508.0,521.0
499.0,536.0,511.0,525.0
503.0,534.0,509.0,524.0
507.0,535.0,514.0,520.0
510.0,526.0,517.0,517.0
517.0,513.0,517.0,518.0
522.0,501.0,523.0,513.0
522.0,496.0,516.0,513.0
517.0,488.0,517.0,503.0
517.0,479.0,515.0,504.0
514.0,490.0,513.0,504.0
507.0,499.0,509.0,503.0
505.0,510.0,505.0,505.0
506.0,516.0,505.0,507.0
510.0,507.0,506.0,508.0
507.0,511.0,509.0,514.0
500.0,518.0,514.0,519.0
503.0,515.0,512.0,518.0
503.0,508.0,509.0,521.0
501.0,508.0,509.0,520.0
503.0,507.0,509.0,516.0
505.0,504.0,511.0,513.0
518.0,500.0,515.0,513.0
522.0,516.0,519.0,512.0
519.0,520.0,519.0,509.0
523.0,517.0,520.0,507.0
514.0,479.0,523.0,508.0
512.0,493.0,517.0,509.0
509.0,499.0,514.0,508.0
506.0,498.0,509.0,506.0
506.0,493.0,506.0,507.0
511.0,481.0,504.0,512.0
509.0,512.0,505.0,514.0
507.0,521.0,506.0,520.0
504.0,522.0,504.0,524.0
502.0,519.0,506.0,523.0
501.0,521.0,510.0,521.0
507.0,509.0,511.0,514.0
510.0,507.0,515.0,514.0
522.0,491.0,519.0,510.0
523.0,490.0,523.0,508.0
523.0,492.0,519.0,501.0
519.0,487.0,519.0,505.0
517.0,496.0,517.0,505.0
512.0,504.0,516.0,503.0
510.0,516.0,514.0,505.0
510.0,506.0,510.0,504.0
512.0,499.0,508.0,502.0
508.0,503.0,505.0,505.0
506.0,514.0,501.0,510.0
503.0,518.0,501.0,513.0
505.0,517.0,505.0,515.0
508.0,510.0,509.0,517.0
509.0,512.0,514.0,517.0
509.0,505.0,516.0,515.0
517.0,501.0,514.0,515.0
520.0,494.0,523.0,512.0
521.0,491.0,518.0,505.0
517.0,484.0,515.0,505.0
513.0,475.0,517.0,504.0
503.0,495.0,511.0,506.0
502.0,503.0,513.0,503.0
509.0,497.0,510.0,505.0
512.0,495.0,509.0,507.0
516.0,487.0,506.0,502.0
510.0,507.0,502.0,507.0
509.0,509.0,502.0,507.0
504.0,536.0,502.0,507.0
503.0,548.0,508.0,513.0
505.0,540.0,510.0,513.0
508.0,523.0,512.0,513.0
510.0,503.0,515.0,509.0
521.0,482.0,518.0,501.0
525.0,476.0,519.0,503.0
520.0,485.0,519.0,498.0
516.0,486.0,522.0,496.0
516.0,493.0,518.0,496.0
508.0,502.0,510.0,493.0
503.0,517.0,504.0,492.0
504.0,509.0,506.0,492.0
507.0,501.0,507.0,497.0
510.0,492.0,504.0,498.0
506.0,509.0,504.0,504.0
505.0,524.0,505.0,506.0
500.0,523.0,505.0,512.0
505.0,519.0,512.0,512.0
506.0,515.0,514.0,510.0
509.0,512.0,515.0,510.0
512.0,513.0,513.0,508.0
520.0,507.0,515.0,505.0
517.0,494.0,521.0,498.0
515.0,497.0,519.0,495.0
511.0,479.0,518.0,498.0
508.0,474.0,518.0,498.0
502.0,499.0,513.0,496.0
502.0,501.0,510.0,496.0
502.0,500.0,507.0,497.0
515.0,500.0,506.0,499.0
511.0,501.0,505.0,504.0
512.0,499.0,507.0,506.0
510.0,525.0,507.0,509.0
509.0,529.0,506.0,512.0
509.0,515.0,509.0,513.0
506.0,507.0,512.0,521.0
512.0,502.0,517.0,511.0
520.0,490.0,519.0,511.0
524.0,485.0,521.0,506.0
524.0,501.0,522.0,501.0
518.0,502.0,521.0,499.0
513.0,500.0,519.0,498.0
509.0,498.0,518.0,497.0
510.0,515.0,512.0,498.0
507.0,520.0,513.0,504.0
504.0,509.0,510.0,507.0
512.0,498.0,506.0,507.0
509.0,499.0,505.0,509.0
511.0,518.0,502.0,509.0
501.0,522.0,505.0,514.0
503.0,527.0,510.0,512.0
503.0,523.0,512.0,514.0
506.0,510.0,512.0,511.0
510.0,493.0,515.0,508.0
519.0,483.0,515.0,505.0
523.0,491.0,517.0,504.0
520.0,507.0,520.0,499.0
511.0,501.0,518.0,502.0
512.0,499.0,517.0,503.0
510.0,495.0,512.0,502.0
503.0,506.0,511.0,504.0
505.0,505.0,510.0,503.0
508.0,500.0,506.0,504.0
510.0,499.0,503.0,506.0
510.0,501.0,501.0,502.0
505.0,509.0,503.0,510.0
506.0,513.0,506.0,516.0
508.0,517.0,504.0,516.0
508.0,518.0,509.0,513.0
512.0,509.0,511.0,518.0
515.0,507.0,511.0,511.0
525.0,483.0,517.0,514.0
524.0,478.0,525.0,513.0
520.0,489.0,520.0,507.0
514.0,497.0,518.0,505.0
513.0,495.0,519.0,505.0
505.0,496.0,513.0,502.0
503.0,493.0,509.0,503.0
502.0,494.0,507.0,502.0
505.0,495.0,506.0,505.0
504.0,505.0,502.0,508.0
504.0,515.0,503.0,513.0
504.0,525.0,506.0,517.0
506.0,526.0,506.0,518.0
509.0,512.0,509.0,523.0
510.0,526.0,513.0,513.0
516.0,516.0,513.0,513.0
518.0,511.0,517.0,515.0
525.0,507.0,518.0,512.0
524.0,481.0,521.0,505.0
522.0,442.0,520.0,505.0
518.0,457.0,518.0,504.0
513.0,475.0,511.0,501.0
503.0,500.0,512.0,502.0
503.0,538.0,503.0,499.0
503.0,531.0,505.0,503.0
508.0,517.0,501.0,505.0
506.0,516.0,502.0,509.0
504.0,515.0,503.0,514.0
505.0,523.0,504.0,520.0
503.0,513.0,507.0,523.0
507.0,511.0,513.0,523.0
507.0,515.0,517.0,521.0
511.0,517.0,520.0,523.0
523.0,497.0,523.0,522.0
523.0,489.0,526.0,514.0
514.0,492.0,522.0,507.0
509.0,477.0,519.0,503.0
505.0,471.0,514.0,498.0
505.0,479.0,513.0,505.0
515.0,505.0,510.0,504.0
508.0,522.0,503.0,503.0
503.0,519.0,499.0,504.0
510.0,501.0,499.0,505.0
506.0,505.0,497.0,509.0
502.0,510.0,499.0,513.0
500.0,515.0,503.0,518.0
505.0,515.0,505.0,519.0
506.0,514.0,513.0,519.0
508.0,504.0,517.0,515.0
513.0,502.0,516.0,510.0
525.0,492.0,516.0,514.0
522.0,503.0,517.0,509.0
518.0,498.0,521.0,505.0
518.0,500.0,518.0,507.0
514.0,503.0,516.0,506.0
511.0,505.0,514.0,507.0
508.0,511.0,509.0,507.0
505.0,511.0,503.0,504.0
510.0,503.0,502.0,506.0
514.0,519.0,501.0,505.0
511.0,523.0,501.0,513.0
503.0,522.0,503.0,519.0
504.0,519.0,508.0,521.0
501.0,514.0,511.0,524.0
511.0,517.0,514.0,522.0
515.0,508.0,521.0,521.0
514.0,500.0,515.0,513.0
525.0,490.0,514.0,501.0
521.0,493.0,521.0,508.0
522.0,484.0,521.0,507.0
517.0,496.0,516.0,503.0
512.0,500.0,517.0,503.0
509.0,502.0,513.0,498.0
507.0,505.0,509.0,498.0
502.0,506.0,502.0,498.0
508.0,496.0,502.0,509.0
507.0,496.0,502.0,512.0
509.0,502.0,503.0,517.0
507.0,508.0,506.0,521.0
507.0,505.0,508.0,524.0
506.0,509.0,511.0,527.0
508.0,509.0,520.0,521.0
514.0,515.0,515.0,517.0
523.0,507.0,516.0,517.0
523.0,513.0,522.0,513.0
520.0,512.0,526.0,513.0
521.0,476.0,522.0,509.0
513.0,488.0,522.0,507.0
510.0,498.0,510.0,504.0
504.0,505.0,507.0,502.0
504.0,502.0,503.0,502.0
506.0,499.0,498.0,504.0
509.0,505.0,501.0,505.0
501.0,504.0,505.0,512.0
507.0,508.0,508.0,514.0
503.0,515.0,502.0,515.0
507.0,514.0,507.0,519.0
504.0,523.0,511.0,518.0
511.0,510.0,512.0,518.0
513.0,506.0,516.0,515.0
525.0,487.0,517.0,508.0
525.0,484.0,522.0,509.0
520.0,493.0,521.0,506.0
514.0,498.0,520.0,507.0
511.0,499.0,516.0,503.0
510.0,508.0,512.0,507.0
505.0,513.0,508.0,503.0
503.0,517.0,506.0,504.0
503.0,506.0,505.0,504.0
508.0,501.0,501.0,509.0
508.0,487.0,499.0,509.0
502.0,495.0,501.0,514.0
501.0,517.0,503.0,517.0
500.0,520.0,509.0,521.0
507.0,528.0,509.0,519.0
512.0,529.0,514.0,516.0
521.0,498.0,515.0,516.0
527.0,482.0,520.0,512.0
525.0,479.0,521.0,510.0
519.0,487.0,521.0,507.0
510.0,484.0,518.0,506.0
506.0,490.0,512.0,502.0
503.0,494.0,510.0,505.0
504.0,492.0,506.0,510.0
507.0,510.0,503.0,506.0
513.0,509.0,503.0,510.0
515.0,517.0,504.0,516.0
512.0,517.0,505.0,518.0
510.0,515.0,504.0,518.0
507.0,518.0,512.0,523.0
501.0,518.0,510.0,519.0
507.0,511.0,511.0,520.0
509.0,509.0,517.0,519.0
519.0,476.0,519.0,515.0
535.0,469.0,520.0,510.0
522.0,483.0,516.0,504.0
518.0,497.0,517.0,506.0
512.0,511.0,516.0,509.0
508.0,503.0,515.0,512.0
500.0,509.0,514.0,512.0
500.0,516.0,513.0,511.0
503.0,526.0,506.0,510.0
506.0,530.0,506.0,508.0
507.0,518.0,501.0,510.0
503.0,512.0,499.0,507.0
501.0,527.0,505.0,516.0
501.0,525.0,508.0,519.0
506.0,534.0,513.0,520.0
511.0,526.0,517.0,518.0
514.0,520.0,519.0,518.0
524.0,491.0,516.0,514.0
522.0,453.0,522.0,509.0
521.0,467.0,519.0,509.0
517.0,479.0,518.0,506.0
517.0,490.0,516.0,503.0
510.0,508.0,512.0,505.0
505.0,519.0,508.0,502.0
505.0,512.0,503.0,503.0
505.0,516.0,504.0,504.0
508.0,507.0,499.0,508.0
506.0,489.0,502.0,511.0
501.0,501.0,510.0,517.0
501.0,512.0,506.0,521.0
506.0,517.0,511.0,521.0
507.0,525.0,514.0,522.0
513.0,519.0,518.0,517.0
516.0,501.0,519.0,520.0
524.0,485.0,522.0,515.0
525.0,490.0,520.0,511.0
519.0,497.0,519.0,506.0
516.0,501.0,517.0,503.0
511.0,508.0,512.0,508.0
498.0,513.0,512.0,507.0
503.0,511.0,512.0,505.0
504.0,504.0,509.0,508.0
509.0,499.0,506.0,509.0
508.0,512.0,505.0,513.0
506.0,512.0,508.0,524.0
501.0,522.0,514.0,523.0
498.0,515.0,513.0,522.0
509.0,505.0,511.0,518.0
510.0,504.0,510.0,513.0
514.0,493.0,513.0,509.0
521.0,487.0,514.0,512.0
522.0,495.0,519.0,508.0
520.0,493.0,522.0,511.0
515.0,491.0,525.0,508.0
513.0,497.0,517.0,508.0
509.0,497.0,515.0,507.0
505.0,497.0,511.0,506.0
506.0,497.0,512.0,506.0
509.0,497.0,505.0,499.0
513.0,498.0,504.0,505.0
510.0,513.0,500.0,506.0
507.0,524.0,502.0,510.0
505.0,520.0,504.0,516.0
506.0,521.0,508.0,519.0
502.0,521.0,510.0,521.0
505.0,525.0,517.0,520.0
509.0,517.0,520.0,519.0
523.0,497.0,520.0,512.0
522.0,496.0,522.0,515.0
524.0,485.0,522.0,512.0
517.0,484.0,519.0,507.0
509.0,492.0,515.0,502.0
509.0,492.0,510.0,502.0
505.0,501.0,507.0,503.0
504.0,508.0,507.0,502.0
508.0,498.0,505.0,507.0
508.0,502.0,502.0,510.0
510.0,507.0,497.0,506.0
512.0,519.0,500.0,511.0
506.0,520.0,501.0,520.0
507.0,518.0,505.0,523.0
509.0,519.0,510.0,520.0
514.0,509.0,515.0,516.0
518.0,497.0,517.0,518.0
523.0,484.0,523.0,514.0
524.0,480.0,527.0,511.0
522.0,492.0,523.0,506.0
516.0,501.0,516.0,502.0
511.0,495.0,510.0,506.0
504.0,501.0,506.0,502.0
502.0,508.0,505.0,506.0
501.0,514.0,504.0,508.0
505.0,518.0,504.0,509.0
499.0,520.0,503.0,512.0
504.0,518.0,505.0,518.0
503.0,518.0,507.0,519.0
507.0,509.0,507.0,521.0
514.0,471.0,509.0,517.0
512.0,498.0,511.0,519.0
513.0,494.0,515.0,515.0
523.0,490.0,520.0,513.0
523.0,504.0,517.0,506.0
522.0,498.0,518.0,507.0
514.0,498.0,517.0,506.0
514.0,495.0,517.0,504.0
508.0,495.0,511.0,507.0
504.0,505.0,513.0,507.0
506.0,504.0,509.0,507.0
502.0,505.0,505.0,507.0
510.0,491.0,513.0,510.0
512.0,507.0,504.0,510.0
507.0,519.0,508.0,516.0
504.0,532.0,506.0,516.0
505.0,522.0,503.0,515.0
504.0,525.0,510.0,524.0
510.0,518.0,513.0,521.0
513.0,502.0,516.0,519.0
525.0,482.0,520.0,513.0
520.0,470.0,521.0,509.0
525.0,467.0,518.0,504.0
522.0,502.0,522.0,505.0
516.0,518.0,518.0,504.0
513.0,508.0,512.0,503.0
507.0,516.0,508.0,502.0
507.0,522.0,505.0,504.0
507.0,509.0,504.0,504.0
509.0,514.0,502.0,506.0
509.0,510.0,500.0,516.0
506.0,517.0,506.0,517.0
509.0,525.0,507.0,518.0
510.0,510.0,509.0,522.0
508.0,511.0,511.0,521.0
516.0,516.0,515.0,517.0
516.0,522.0,513.0,517.0
523.0,508.0,517.0,514.0
523.0,502.0,520.0,510.0
514.0,500.0,523.0,510.0
515.0,485.0,522.0,508.0
511.0,494.0,518.0,508.0
502.0,507.0,512.0,505.0
503.0,506.0,502.0,503.0
506.0,502.0,503.0,503.0
508.0,496.0,499.0,506.0
505.0,507.0,501.0,510.0
505.0,514.0,503.0,515.0
502.0,523.0,506.0,519.0
507.0,530.0,509.0,521.0
512.0,519.0,510.0,524.0
510.0,514.0,518.0,522.0
514.0,513.0,520.0,521.0
522.0,498.0,518.0,516.0
523.0,507.0,521.0,513.0
517.0,500.0,517.0,508.0
511.0,500.0,517.0,508.0
509.0,499.0,517.0,508.0
505.0,497.0,513.0,506.0
503.0,504.0,509.0,506.0
505.0,502.0,506.0,502.0
509.0,523.0,505.0,504.0
514.0,523.0,501.0,507.0
513.0,518.0,504.0,512.0
508.0,525.0,504.0,515.0
508.0,530.0,500.0,524.0
509.0,537.0,505.0,524.0
508.0,539.0,511.0,521.0
512.0,534.0,517.0,523.0
516.0,503.0,519.0,521.0
529.0,443.0,523.0,517.0
525.0,471.0,523.0,511.0
520.0,492.0,520.0,506.0
515.0,496.0,518.0,503.0
512.0,500.0,513.0,499.0
511.0,498.0,510.0,499.0
506.0,501.0,503.0,498.0
505.0,491.0,504.0,499.0
509.0,490.0,505.0,505.0
510.0,483.0,505.0,512.0
511.0,494.0,501.0,512.0
506.0,526.0,497.0,514.0
505.0,518.0,513.0,524.0
511.0,515.0,512.0,527.0
503.0,525.0,514.0,525.0
514.0,516.0,520.0,524.0
517.0,506.0,524.0,517.0
523.0,493.0,524.0,516.0
523.0,486.0,523.0,511.0
520.0,488.0,522.0,510.0
515.0,495.0,517.0,509.0
514.0,496.0,516.0,505.0
507.0,503.0,509.0,506.0
506.0,502.0,506.0,503.0
507.0,504.0,505.0,503.0
511.0,496.0,502.0,505.0
509.0,499.0,498.0,509.0
505.0,501.0,499.0,513.0
506.0,509.0,504.0,513.0
505.0,517.0,505.0,518.0
512.0,516.0,509.0,520.0
509.0,517.0,513.0,514.0
510.0,520.0,513.0,516.0
519.0,484.0,518.0,516.0
524.0,476.0,520.0,514.0
525.0,465.0,524.0,510.0
525.0,475.0,523.0,508.0
516.0,498.0,520.0,507.0
509.0,503.0,513.0,505.0
503.0,501.0,510.0,503.0
509.0,517.0,505.0,499.0
510.0,514.0,501.0,501.0
509.0,499.0,502.0,506.0
507.0,500.0,499.0,507.0
505.0,510.0,504.0,514.0
504.0,529.0,503.0,517.0
505.0,521.0,507.0,527.0
507.0,526.0,512.0,519.0
513.0,519.0,512.0,519.0
513.0,516.0,516.0,519.0
526.0,493.0,519.0,512.0
527.0,488.0,517.0,512.0
522.0,491.0,520.0,509.0
523.0,496.0,521.0,505.0
515.0,490.0,517.0,509.0
509.0,496.0,513.0,504.0
505.0,503.0,509.0,504.0
507.0,505.0,507.0,505.0
505.0,500.0,505.0,509.0
508.0,519.0,504.0,513.0
506.0,516.0,503.0,522.0
506.0,523.0,506.0,520.0
504.0,523.0,505.0,524.0
507.0,513.0,507.0,524.0
511.0,513.0,516.0,522.0
513.0,517.0,511.0,515.0
519.0,506.0,516.0,515.0
524.0,492.0,525.0,513.0
523.0,488.0,529.0,510.0
520.0,480.0,522.0,504.0
516.0,479.0,521.0,509.0
511.0,498.0,510.0,505.0
508.0,516.0,510.0,501.0
504.0,517.0,506.0,502.0
505.0,512.0,507.0,504.0
509.0,502.0,503.0,507.0
509.0,504.0,501.0,504.0
508.0,501.0,499.0,509.0
508.0,510.0,502.0,516.0
507.0,519.0,506.0,521.0
509.0,527.0,509.0,523.0
508.0,531.0,512.0,526.0
512.0,522.0,514.0,515.0
522.0,468.0,517.0,514.0
522.0,475.0,518.0,509.0
522.0,484.0,519.0,507.0
518.0,492.0,518.0,506.0
514.0,498.0,517.0,505.0
519.0,506.0,514.0,502.0
507.0,514.0,510.0,507.0
506.0,509.0,509.0,508.0
502.0,507.0,506.0,506.0
510.0,496.0,504.0,507.0
508.0,494.0,502.0,512.0
505.0,515.0,504.0,515.0
502.0,527.0,506.0,519.0
502.0,528.0,506.0,520.0
503.0,531.0,513.0,520.0
505.0,504.0,515.0,517.0
510.0,490.0,517.0,515.0
521.0,480.0,518.0,515.0
526.0,477.0,521.0,513.0
521.0,485.0,525.0,510.0
516.0,490.0,522.0,511.0
516.0,494.0,521.0,509.0
513.0,501.0,514.0,510.0
507.0,501.0,505.0,504.0
509.0,501.0,505.0,510.0
512.0,499.0,505.0,505.0
514.0,512.0,504.0,510.0
512.0,509.0,504.0,513.0
513.0,517.0,506.0,517.0
508.0,525.0,502.0,518.0
510.0,528.0,508.0,519.0
506.0,527.0,507.0,513.0
511.0,512.0,511.0,514.0
519.0,492.0,516.0,511.0
525.0,481.0,517.0,511.0
522.0,478.0,521.0,506.0
520.0,492.0,517.0,506.0
516.0,495.0,519.0,505.0
509.0,500.0,517.0,506.0
501.0,516.0,511.0,508.0
502.0,508.0,513.0,509.0
502.0,505.0,508.0,508.0
506.0,504.0,504.0,516.0
505.0,517.0,503.0,507.0
502.0,522.0,507.0,514.0
502.0,513.0,509.0,520.0
506.0,525.0,512.0,523.0
509.0,518.0,512.0,525.0
505.0,521.0,518.0,521.0
508.0,526.0,515.0,517.0
523.0,492.0,517.0,512.0
526.0,481.0,518.0,512.0
523.0,490.0,528.0,509.0
518.0,497.0,519.0,505.0
512.0,499.0,514.0,502.0
510.0,498.0,510.0,504.0
506.0,496.0,508.0,506.0
508.0,495.0,506.0,505.0
510.0,495.0,505.0,505.0
515.0,495.0,502.0,509.0
509.0,499.0,504.0,511.0
510.0,513.0,502.0,512.0
504.0,521.0,508.0,521.0
503.0,523.0,506.0,517.0
504.0,520.0,510.0,521.0
508.0,518.0,520.0,519.0
509.0,512.0,516.0,516.0
517.0,492.0,519.0,510.0
524.0,477.0,519.0,512.0
522.0,483.0,519.0,507.0
516.0,508.0,519.0,506.0
513.0,521.0,516.0,504.0
510.0,514.0,516.0,507.0
505.0,520.0,507.0,507.0
508.0,480.0,508.0,505.0
508.0,482.0,505.0,507.0
508.0,499.0,507.0,513.0
508.0,509.0,508.0,519.0
505.0,509.0,511.0,523.0
502.0,509.0,510.0,524.0
507.0,507.0,510.0,522.0
509.0,512.0,512.0,518.0
506.0,503.0,510.0,516.0
515.0,494.0,513.0,512.0
519.0,500.0,517.0,511.0
517.0,506.0,522.0,505.0
514.0,509.0,517.0,506.0
509.0,509.0,519.0,506.0
507.0,503.0,514.0,505.0
507.0,491.0,508.0,506.0
508.0,485.0,506.0,507.0
510.0,500.0,506.0,506.0
513.0,498.0,502.0,506.0
514.0,508.0,501.0,513.0
507.0,534.0,504.0,517.0
506.0,524.0,507.0,522.0
509.0,525.0,512.0,523.0
511.0,520.0,512.0,528.0
512.0,527.0,517.0,522.0
514.0,519.0,515.0,521.0
523.0,493.0,520.0,514.0
528.0,485.0,515.0,506.0
526.0,491.0,515.0,501.0
519.0,493.0,521.0,504.0
517.0,499.0,519.0,505.0
511.0,510.0,510.0,502.0
508.0,520.0,508.0,506.0
504.0,517.0,509.0,507.0
506.0,511.0,507.0,510.0
510.0,502.0,504.0,512.0
512.0,501.0,506.0,512.0
507.0,510.0,504.0,514.0
504.0,512.0,513.0,518.0
507.0,524.0,507.0,521.0
508.0,516.0,511.0,520.0
507.0,511.0,515.0,518.0
509.0,501.0,518.0,517.0
526.0,469.0,519.0,511.0
527.0,477.0,517.0,508.0
523.0,509.0,516.0,505.0
515.0,505.0,518.0,504.0
513.0,504.0,514.0,504.0
506.0,508.0,510.0,506.0
507.0,513.0,506.0,508.0
503.0,500.0,508.0,511.0
504.0,477.0,502.0,506.0
507.0,487.0,506.0,512.0
511.0,493.0,509.0,515.0
511.0,499.0,511.0,518.0
516.0,508.0,507.0,521.0
514.0,520.0,511.0,523.0
510.0,519.0,513.0,520.0
514.0,509.0,516.0,514.0
517.0,495.0,516.0,512.0
528.0,484.0,517.0,511.0
525.0,497.0,518.0,507.0
519.0,501.0,517.0,505.0
514.0,505.0,513.0,504.0
508.0,507.0,515.0,506.0
510.0,512.0,512.0,504.0
503.0,512.0,506.0,505.0
497.0,510.0,506.0,503.0
502.0,501.0,506.0,508.0
504.0,506.0,503.0,513.0
501.0,513.0,502.0,517.0
501.0,520.0,504.0,521.0
499.0,521.0,510.0,524.0
507.0,514.0,516.0,527.0
509.0,516.0,519.0,521.0
514.0,505.0,520.0,513.0
522.0,489.0,517.0,506.0
526.0,480.0,518.0,510.0
523.0,492.0,519.0,504.0
522.0,502.0,519.0,503.0
517.0,503.0,520.0,505.0
512.0,506.0,515.0,503.0
506.0,510.0,512.0,502.0
505.0,469.0,509.0,503.0
506.0,482.0,508.0,506.0
510.0,493.0,499.0,510.0
507.0,516.0,504.0,516.0
503.0,521.0,507.0,519.0
504.0,519.0,507.0,521.0
505.0,521.0,510.0,521.0
508.0,522.0,510.0,513.0
507.0,511.0,510.0,516.0
511.0,507.0,515.0,511.0
520.0,492.0,519.0,512.0
521.0,490.0,519.0,510.0
518.0,494.0,518.0,505.0
514.0,498.0,518.0,506.0
513.0,498.0,520.0,505.0
510.0,500.0,511.0,504.0
504.0,499.0,510.0,505.0
505.0,497.0,505.0,506.0
509.0,494.0,504.0,508.0
512.0,506.0,501.0,508.0
507.0,495.0,497.0,512.0
510.0,506.0,504.0,522.0
509.0,525.0,508.0,520.0
509.0,546.0,507.0,523.0
513.0,535.0,516.0,522.0
518.0,512.0,519.0,522.0
518.0,505.0,523.0,519.0
528.0,492.0,524.0,516.0
527.0,495.0,523.0,509.0
521.0,504.0,522.0,507.0
514.0,503.0,517.0,506.0
514.0,505.0,514.0,505.0
510.0,509.0,512.0,506.0
504.0,515.0,511.0,503.0
507.0,518.0,506.0,500.0
512.0,496.0,504.0,506.0
510.0,489.0,503.0,506.0
506.0,500.0,504.0,513.0
508.0,517.0,504.0,514.0
502.0,510.0,509.0,521.0
510.0,507.0,509.0,520.0
512.0,525.0,512.0,522.0
513.0,514.0,515.0,519.0
523.0,489.0,518.0,518.0
529.0,488.0,524.0,515.0
524.0,486.0,522.0,508.0
523.0,483.0,520.0,509.0
517.0,491.0,519.0,508.0
515.0,498.0,515.0,508.0
503.0,511.0,511.0,507.0
504.0,521.0,511.0,507.0
506.0,516.0,509.0,511.0
510.0,505.0,505.0,507.0
506.0,509.0,506.0,509.0
503.0,508.0,501.0,509.0
505.0,512.0,501.0,515.0
507.0,516.0,503.0,516.0
507.0,524.0,509.0,518.0
509.0,521.0,508.0,515.0
512.0,508.0,513.0,515.0
522.0,497.0,523.0,514.0
525.0,500.0,522.0,511.0
518.0,506.0,522.0,507.0
510.0,516.0,517.0,499.0
512.0,498.0,515.0,501.0
512.0,486.0,510.0,504.0
508.0,511.0,510.0,504.0
508.0,510.0,510.0,502.0
510.0,490.0,504.0,504.0
511.0,494.0,503.0,508.0
507.0,513.0,501.0,511.0
506.0,516.0,502.0,516.0
503.0,511.0,508.0,519.0
509.0,512.0,510.0,518.0
503.0,515.0,514.0,519.0
509.0,508.0,517.0,520.0
515.0,504.0,515.0,515.0
522.0,492.0,520.0,514.0
524.0,487.0,520.0,511.0
525.0,484.0,521.0,510.0
516.0,497.0,516.0,507.0
507.0,497.0,517.0,507.0
508.0,505.0,511.0,504.0
502.0,507.0,508.0,503.0
496.0,521.0,507.0,506.0
502.0,513.0,502.0,509.0
502.0,510.0,505.0,510.0
503.0,505.0,504.0,515.0
506.0,499.0,508.0,519.0
510.0,507.0,509.0,520.0
511.0,508.0,507.0,521.0
514.0,516.0,515.0,519.0
518.0,523.0,517.0,514.0
520.0,526.0,518.0,510.0
525.0,514.0,519.0,507.0
519.0,508.0,520.0,507.0
513.0,507.0,521.0,507.0
513.0,488.0,520.0,506.0
509.0,492.0,511.0,504.0
502.0,503.0,507.0,503.0
502.0,503.0,509.0,510.0
503.0,493.0,507.0,511.0
506.0,484.0,500.0,510.0
510.0,503.0,503.0,510.0
507.0,514.0,505.0,514.0
515.0,519.0,509.0,518.0
508.0,517.0,505.0,518.0
507.0,512.0,513.0,520.0
510.0,511.0,517.0,516.0
516.0,501.0,515.0,516.0
525.0,488.0,521.0,514.0
524.0,490.0,516.0,508.0
522.0,487.0,517.0,510.0
518.0,495.0,520.0,507.0
512.0,495.0,513.0,507.0
508.0,497.0,513.0,504.0
505.0,507.0,510.0,504.0
507.0,513.0,508.0,506.0
508.0,504.0,508.0,506.0
509.0,506.0,502.0,511.0
509.0,506.0,505.0,512.0
507.0,504.0,503.0,515.0
506.0,506.0,506.0,521.0
506.0,516.0,507.0,521.0
503.0,522.0,510.0,520.0
513.0,513.0,513.0,517.0
513.0,508.0,517.0,515.0
524.0,496.0,521.0,512.0
516.0,496.0,524.0,512.0
518.0,498.0,525.0,508.0
513.0,503.0,523.0,507.0
512.0,499.0,518.0,505.0
507.0,499.0,511.0,507.0
503.0,503.0,508.0,504.0
504.0,502.0,508.0,506.0
506.0,495.0,504.0,509.0
507.0,503.0,502.0,510.0
508.0,502.0,503.0,514.0
507.0,510.0,508.0,517.0
508.0,525.0,507.0,519.0
509.0,515.0,510.0,521.0
510.0,518.0,510.0,518.0
513.0,513.0,517.0,515.0
519.0,494.0,515.0,516.0
519.0,490.0,520.0,513.0
522.0,488.0,521.0,509.0
517.0,494.0,521.0,509.0
516.0,497.0,519.0,507.0
511.0,502.0,517.0,512.0
506.0,504.0,517.0,506.0
508.0,508.0,505.0,497.0
507.0,506.0,507.0,504.0
508.0,497.0,505.0,508.0
510.0,502.0,504.0,508.0
505.0,513.0,503.0,514.0
503.0,516.0,511.0,517.0
506.0,516.0,505.0,516.0
510.0,515.0,508.0,515.0
509.0,513.0,512.0,514.0
516.0,505.0,513.0,511.0
525.0,485.0,514.0,506.0
524.0,496.0,521.0,516.0
518.0,507.0,521.0,513.0
514.0,506.0,522.0,513.0
512.0,517.0,514.0,505.0
512.0,516.0,511.0,502.0
504.0,518.0,507.0,504.0
506.0,510.0,509.0,506.0
510.0,494.0,500.0,507.0
510.0,492.0,502.0,508.0
507.0,518.0,501.0,513.0
505.0,539.0,504.0,516.0
503.0,530.0,506.0,518.0
510.0,484.0,507.0,519.0
509.0,477.0,513.0,522.0
511.0,486.0,515.0,520.0
512.0,497.0,520.0,516.0
519.0,480.0,525.0,514.0
519.0,483.0,526.0,509.0
521.0,504.0,519.0,508.0
515.0,503.0,519.0,505.0
511.0,496.0,512.0,502.0
511.0,503.0,505.0,503.0
510.0,514.0,506.0,505.0
507.0,507.0,511.0,506.0
514.0,502.0,505.0,508.0
510.0,516.0,500.0,510.0
509.0,525.0,500.0,516.0
508.0,528.0,502.0,522.0
506.0,526.0,501.0,519.0
510.0,521.0,510.0,522.0
511.0,521.0,516.0,520.0
513.0,514.0,520.0,519.0
525.0,494.0,524.0,515.0
525.0,489.0,524.0,512.0
522.0,491.0,520.0,506.0
518.0,499.0,514.0,504.0
510.0,505.0,515.0,506.0
506.0,500.0,512.0,506.0
508.0,493.0,511.0,505.0
508.0,491.0,508.0,507.0
512.0,494.0,509.0,508.0
510.0,501.0,504.0,511.0
510.0,499.0,503.0,511.0
508.0,517.0,506.0,517.0
506.0,523.0,504.0,520.0
506.0,524.0,507.0,524.0
510.0,515.0,506.0,524.0
506.0,513.0,514.0,521.0
514.0,509.0,516.0,520.0
522.0,478.0,524.0,516.0
525.0,496.0,525.0,510.0
519.0,501.0,523.0,505.0
515.0,499.0,520.0,503.0
512.0,503.0,510.0,501.0
507.0,504.0,511.0,502.0
503.0,508.0,509.0,502.0
504.0,510.0,506.0,502.0
505.0,502.0,504.0,503.0
509.0,503.0,503.0,506.0
508.0,503.0,501.0,507.0
505.0,508.0,504.0,513.0
505.0,516.0,506.0,516.0
504.0,519.0,511.0,521.0
509.0,529.0,514.0,519.0
511.0,519.0,517.0,519.0
516.0,491.0,518.0,517.0
522.0,481.0,519.0,513.0
523.0,484.0,521.0,508.0
520.0,495.0,519.0,506.0
513.0,501.0,515.0,508.0
506.0,503.0,516.0,504.0
510.0,508.0,515.0,502.0
508.0,510.0,510.0,502.0
508.0,508.0,507.0,502.0
512.0,500.0,507.0,508.0
509.0,504.0,506.0,512.0
507.0,512.0,506.0,515.0
502.0,521.0,505.0,517.0
505.0,524.0,503.0,522.0
510.0,527.0,511.0,519.0
510.0,517.0,515.0,520.0
514.0,502.0,515.0,518.0
523.0,479.0,515.0,515.0
524.0,484.0,520.0,512.0
523.0,485.0,520.0,514.0
519.0,489.0,521.0,509.0
513.0,497.0,518.0,504.0
512.0,507.0,512.0,504.0
505.0,510.0,508.0,507.0
501.0,509.0,510.0,506.0
504.0,510.0,510.0,507.0
509.0,501.0,503.0,511.0
510.0,506.0,504.0,515.0
503.0,511.0,504.0,518.0
501.0,519.0,506.0,517.0
505.0,521.0,509.0,523.0
511.0,524.0,515.0,523.0
511.0,520.0,515.0,526.0
513.0,522.0,517.0,513.0
524.0,489.0,522.0,513.0
527.0,475.0,521.0,509.0
522.0,492.0,521.0,506.0
514.0,489.0,521.0,507.0
515.0,495.0,518.0,504.0
508.0,497.0,512.0,506.0
510.0,495.0,510.0,508.0
509.0,495.0,507.0,514.0
513.0,496.0,507.0,505.0
509.0,511.0,504.0,508.0
508.0,511.0,503.0,512.0
505.0,516.0,505.0,516.0
506.0,517.0,507.0,517.0
507.0,513.0,510.0,520.0
510.0,522.0,510.0,514.0
510.0,511.0,516.0,518.0
515.0,506.0,517.0,514.0
525.0,497.0,520.0,511.0
522.0,501.0,518.0,510.0
519.0,510.0,519.0,507.0
514.0,508.0,519.0,507.0
511.0,504.0,517.0,504.0
512.0,480.0,512.0,504.0
504.0,481.0,512.0,506.0
499.0,496.0,507.0,508.0
515.0,485.0,507.0,509.0
516.0,492.0,500.0,510.0
513.0,497.0,504.0,513.0
510.0,515.0,504.0,516.0
504.0,529.0,509.0,522.0
505.0,527.0,506.0,521.0
509.0,520.0,512.0,520.0
512.0,516.0,516.0,517.0
520.0,498.0,522.0,517.0
523.0,490.0,521.0,513.0
519.0,486.0,513.0,507.0
514.0,498.0,516.0,505.0
513.0,498.0,519.0,508.0
506.0,500.0,516.0,510.0
507.0,498.0,515.0,509.0
503.0,500.0,515.0,511.0
504.0,502.0,511.0,511.0
506.0,506.0,508.0,513.0
504.0,508.0,503.0,515.0
502.0,516.0,504.0,515.0
499.0,515.0,504.0,518.0
505.0,511.0,507.0,518.0
513.0,498.0,505.0,519.0
515.0,506.0,512.0,519.0
512.0,517.0,517.0,518.0
523.0,498.0,517.0,510.0
521.0,495.0,519.0,507.0
518.0,498.0,522.0,504.0
514.0,505.0,525.0,507.0
511.0,504.0,520.0,504.0
509.0,502.0,511.0,506.0
508.0,509.0,507.0,506.0
507.0,506.0,502.0,505.0
507.0,497.0,505.0,506.0
510.0,498.0,503.0,509.0
509.0,499.0,502.0,514.0
507.0,521.0,507.0,517.0
507.0,520.0,508.0,521.0
508.0,517.0,509.0,519.0
506.0,519.0,510.0,520.0
509.0,506.0,514.0,517.0
516.0,489.0,519.0,519.0
524.0,489.0,516.0,511.0
523.0,475.0,520.0,506.0
516.0,488.0,517.0,510.0
509.0,520.0,518.0,509.0
508.0,527.0,517.0,508.0
508.0,509.0,513.0,504.0
498.0,513.0,508.0,503.0
502.0,517.0,505.0,504.0
511.0,502.0,504.0,504.0
514.0,491.0,504.0,509.0
511.0,504.0,502.0,513.0
504.0,519.0,504.0,515.0
506.0,522.0,504.0,519.0
507.0,511.0,510.0,521.0
511.0,508.0,513.0,524.0
513.0,508.0,516.0,517.0
525.0,495.0,519.0,514.0
524.0,493.0,523.0,512.0
522.0,498.0,523.0,507.0
514.0,509.0,520.0,506.0
512.0,522.0,514.0,502.0
507.0,525.0,515.0,508.0
509.0,512.0,510.0,504.0
511.0,474.0,506.0,507.0
508.0,494.0,502.0,504.0
513.0,497.0,503.0,509.0
510.0,513.0,501.0,516.0
505.0,514.0,507.0,520.0
502.0,517.0,508.0,520.0
506.0,512.0,508.0,523.0
511.0,514.0,515.0,523.0
510.0,512.0,515.0,517.0
511.0,504.0,515.0,513.0
528.0,482.0,513.0,509.0
529.0,479.0,518.0,508.0
524.0,483.0,516.0,507.0
518.0,487.0,516.0,506.0
516.0,493.0,518.0,504.0
506.0,513.0,518.0,506.0
504.0,516.0,514.0,513.0
505.0,515.0,511.0,513.0
506.0,511.0,505.0,510.0
506.0,500.0,499.0,509.0
506.0,504.0,501.0,512.0
503.0,517.0,500.0,511.0
500.0,526.0,503.0,513.0
503.0,519.0,509.0,519.0
512.0,510.0,513.0,518.0
509.0,506.0,519.0,519.0
515.0,500.0,520.0,518.0
520.0,486.0,522.0,510.0
517.0,483.0,519.0,509.0
517.0,486.0,519.0,504.0
515.0,493.0,517.0,502.0
510.0,505.0,521.0,503.0
510.0,518.0,513.0,502.0
508.0,523.0,507.0,503.0
506.0,517.0,505.0,505.0
509.0,498.0,505.0,507.0
508.0,500.0,501.0,512.0
511.0,507.0,502.0,512.0
505.0,512.0,505.0,518.0
506.0,515.0,508.0,519.0
506.0,513.0,514.0,520.0
506.0,512.0,513.0,519.0
511.0,506.0,520.0,519.0
523.0,481.0,520.0,517.0
524.0,475.0,521.0,512.0
519.0,493.0,519.0,508.0
518.0,501.0,520.0,504.0
510.0,515.0,517.0,505.0
507.0,527.0,511.0,510.0
508.0,505.0,511.0,508.0
501.0,481.0,509.0,509.0
504.0,503.0,514.0,512.0
513.0,501.0,511.0,515.0
509.0,501.0,514.0,520.0
500.0,508.0,509.0,522.0
504.0,518.0,507.0,522.0
501.0,521.0,503.0,520.0
507.0,525.0,504.0,519.0
509.0,522.0,511.0,515.0
507.0,523.0,513.0,512.0
523.0,501.0,515.0,508.0
523.0,505.0,520.0,505.0
519.0,500.0,521.0,502.0
516.0,475.0,518.0,508.0
510.0,474.0,516.0,502.0
505.0,482.0,515.0,504.0
504.0,482.0,503.0,501.0
502.0,496.0,498.0,502.0
509.0,510.0,499.0,506.0
505.0,520.0,497.0,512.0
501.0,520.0,501.0,513.0
504.0,513.0,502.0,519.0
504.0,508.0,503.0,522.0
508.0,508.0,513.0,524.0
514.0,508.0,516.0,522.0
514.0,503.0,520.0,521.0
516.0,487.0,520.0,519.0
526.0,482.0,520.0,512.0
530.0,493.0,519.0,507.0
518.0,506.0,520.0,505.0
515.0,502.0,518.0,502.0
506.0,508.0,516.0,504.0
507.0,519.0,509.0,505.0
503.0,521.0,505.0,504.0
502.0,515.0,501.0,504.0
510.0,495.0,499.0,508.0
507.0,501.0,497.0,512.0
507.0,518.0,502.0,513.0
501.0,528.0,504.0,518.0
503.0,521.0,506.0,520.0
508.0,515.0,516.0,523.0
516.0,511.0,522.0,529.0
512.0,508.0,524.0,522.0
521.0,492.0,521.0,515.0
525.0,489.0,520.0,504.0
521.0,493.0,517.0,505.0
518.0,497.0,519.0,508.0
512.0,503.0,514.0,504.0
509.0,505.0,510.0,503.0
508.0,501.0,511.0,503.0
503.0,507.0,508.0,502.0
505.0,507.0,507.0,504.0
506.0,501.0,506.0,506.0
507.0,508.0,501.0,510.0
507.0,512.0,502.0,519.0
506.0,522.0,506.0,524.0
503.0,517.0,509.0,525.0
510.0,509.0,513.0,522.0
511.0,507.0,515.0,518.0
511.0,505.0,513.0,516.0
523.0,482.0,516.0,514.0
522.0,475.0,516.0,514.0
520.0,474.0,519.0,511.0
512.0,489.0,518.0,511.0
512.0,504.0,519.0,505.0
508.0,509.0,515.0,501.0
509.0,507.0,515.0,507.0
503.0,510.0,514.0,507.0
505.0,496.0,508.0,507.0
508.0,504.0,504.0,511.0
507.0,513.0,503.0,511.0
505.0,522.0,500.0,516.0
506.0,522.0,508.0,519.0
505.0,524.0,510.0,521.0
507.0,518.0,514.0,520.0
510.0,511.0,512.0,517.0
515.0,500.0,513.0,512.0
523.0,484.0,517.0,505.0
523.0,485.0,519.0,502.0
518.0,488.0,518.0,501.0
513.0,497.0,521.0,502.0
510.0,497.0,511.0,500.0
509.0,504.0,503.0,503.0
505.0,510.0,503.0,503.0
507.0,509.0,502.0,506.0
509.0,507.0,501.0,502.0
508.0,508.0,503.0,509.0
507.0,513.0,505.0,511.0
507.0,514.0,508.0,513.0
507.0,519.0,508.0,519.0
507.0,523.0,510.0,521.0
510.0,512.0,513.0,519.0
513.0,506.0,515.0,519.0
523.0,485.0,513.0,514.0
527.0,484.0,517.0,511.0
526.0,490.0,518.0,508.0
520.0,494.0,516.0,507.0
514.0,501.0,517.0,506.0
512.0,503.0,512.0,504.0
511.0,500.0,508.0,507.0
506.0,505.0,508.0,503.0
507.0,507.0,503.0,507.0
513.0,501.0,505.0,508.0
512.0,506.0,504.0,511.0
509.0,513.0,505.0,515.0
507.0,517.0,508.0,519.0
507.0,520.0,506.0,521.0
507.0,514.0,513.0,519.0
515.0,509.0,514.0,519.0
509.0,506.0,517.0,517.0
522.0,486.0,520.0,514.0
525.0,487.0,522.0,510.0
524.0,489.0,519.0,508.0
519.0,496.0,518.0,507.0
514.0,498.0,518.0,507.0
509.0,505.0,514.0,507.0
505.0,506.0,510.0,505.0
502.0,506.0,508.0,505.0
507.0,493.0,505.0,509.0
509.0,493.0,503.0,510.0
508.0,499.0,504.0,512.0
505.0,511.0,507.0,518.0
503.0,518.0,507.0,521.0
504.0,531.0,515.0,521.0
509.0,518.0,513.0,522.0
510.0,517.0,513.0,519.0
513.0,508.0,516.0,519.0
521.0,490.0,519.0,513.0
520.0,488.0,520.0,512.0
518.0,496.0,522.0,507.0
512.0,498.0,520.0,507.0
510.0,493.0,516.0,507.0
511.0,493.0,513.0,503.0
509.0,495.0,510.0,508.0
506.0,498.0,509.0,509.0
511.0,495.0,506.0,508.0
507.0,500.0,506.0,513.0
505.0,510.0,506.0,514.0
501.0,518.0,507.0,517.0
502.0,521.0,509.0,519.0
506.0,523.0,512.0,520.0
512.0,526.0,516.0,521.0
513.0,509.0,518.0,520.0
523.0,493.0,520.0,518.0
530.0,502.0,522.0,513.0
526.0,506.0,520.0,510.0
519.0,504.0,521.0,507.0
513.0,506.0,518.0,503.0
509.0,509.0,512.0,505.0
509.0,505.0,511.0,505.0
509.0,504.0,511.0,507.0
507.0,493.0,502.0,509.0
514.0,476.0,501.0,505.0
512.0,490.0,504.0,513.0
507.0,512.0,505.0,513.0
503.0,537.0,507.0,517.0
506.0,536.0,510.0,523.0
509.0,521.0,512.0,523.0
514.0,500.0,507.0,514.0
514.0,514.0,511.0,513.0
525.0,492.0,521.0,512.0
526.0,485.0,521.0,513.0
523.0,481.0,521.0,510.0
516.0,495.0,518.0,507.0
510.0,501.0,518.0,503.0
512.0,512.0,514.0,503.0
509.0,518.0,511.0,507.0
508.0,522.0,509.0,505.0
508.0,514.0,504.0,509.0
507.0,509.0,504.0,512.0
506.0,506.0,506.0,514.0
503.0,512.0,508.0,520.0
506.0,516.0,502.0,514.0
503.0,516.0,504.0,518.0
512.0,509.0,512.0,521.0
512.0,504.0,515.0,518.0
515.0,494.0,516.0,512.0
524.0,493.0,519.0,505.0
524.0,495.0,523.0,512.0
518.0,495.0,521.0,506.0
511.0,501.0,518.0,503.0
513.0,503.0,512.0,500.0
511.0,503.0,510.0,502.0
507.0,508.0,509.0,503.0
505.0,503.0,507.0,502.0
508.0,499.0,501.0,508.0
507.0,503.0,504.0,514.0
508.0,505.0,507.0,512.0
501.0,503.0,503.0,514.0
506.0,508.0,506.0,520.0
509.0,520.0,522.0,531.0
512.0,512.0,516.0,515.0
512.0,506.0,506.0,509.0
524.0,494.0,520.0,517.0
523.0,479.0,518.0,511.0
520.0,480.0,520.0,512.0
514.0,500.0,526.0,509.0
511.0,503.0,517.0,503.0
510.0,503.0,516.0,503.0
508.0,509.0,514.0,506.0
505.0,505.0,509.0,506.0
507.0,503.0,509.0,504.0
508.0,499.0,504.0,510.0
507.0,503.0,501.0,512.0
504.0,509.0,507.0,517.0
504.0,514.0,506.0,518.0
504.0,518.0,508.0,520.0
506.0,514.0,510.0,521.0
509.0,515.0,516.0,522.0
508.0,512.0,513.0,519.0
520.0,497.0,519.0,516.0
521.0,491.0,523.0,512.0
517.0,498.0,524.0,508.0
514.0,496.0,519.0,507.0
513.0,487.0,520.0,506.0
507.0,497.0,516.0,504.0
507.0,498.0,512.0,507.0
508.0,498.0,510.0,512.0
511.0,501.0,507.0,506.0
514.0,501.0,501.0,505.0
511.0,507.0,505.0,507.0
501.0,515.0,508.0,518.0
504.0,514.0,506.0,522.0
508.0,511.0,511.0,522.0
508.0,504.0,515.0,521.0
507.0,504.0,513.0,516.0
518.0,498.0,516.0,517.0
523.0,488.0,522.0,513.0
524.0,492.0,524.0,514.0
522.0,500.0,523.0,505.0
511.0,500.0,520.0,502.0
508.0,504.0,511.0,501.0
508.0,508.0,513.0,505.0
505.0,507.0,510.0,505.0
501.0,512.0,508.0,507.0
510.0,505.0,510.0,508.0
509.0,509.0,501.0,508.0
505.0,516.0,500.0,510.0
505.0,520.0,504.0,522.0
505.0,522.0,506.0,522.0
509.0,515.0,513.0,521.0
516.0,507.0,514.0,516.0
514.0,507.0,515.0,512.0
533.0,491.0,519.0,520.0
530.0,484.0,517.0,514.0
526.0,486.0,523.0,509.0
518.0,496.0,521.0,506.0
514.0,499.0,511.0,504.0
504.0,510.0,515.0,504.0
504.0,512.0,514.0,507.0
504.0,512.0,507.0,504.0
507.0,509.0,507.0,508.0
512.0,496.0,505.0,506.0
513.0,493.0,502.0,512.0
506.0,504.0,506.0,517.0
513.0,514.0,507.0,519.0
507.0,511.0,510.0,522.0
512.0,509.0,513.0,516.0
509.0,514.0,514.0,519.0
514.0,510.0,516.0,516.0
525.0,492.0,519.0,516.0
524.0,486.0,522.0,512.0
522.0,490.0,522.0,505.0
519.0,492.0,518.0,507.0
515.0,500.0,517.0,503.0
504.0,506.0,514.0,504.0
505.0,502.0,509.0,502.0
502.0,507.0,509.0,505.0
511.0,510.0,508.0,506.0
509.0,512.0,505.0,508.0
509.0,515.0,506.0,513.0
503.0,521.0,506.0,515.0
502.0,515.0,505.0,521.0
508.0,512.0,506.0,521.0
510.0,508.0,511.0,521.0
511.0,507.0,515.0,519.0
514.0,499.0,521.0,524.0
530.0,491.0,514.0,513.0
528.0,486.0,519.0,506.0
524.0,489.0,519.0,505.0
523.0,494.0,520.0,505.0
522.0,500.0,515.0,505.0
522.0,504.0,512.0,503.0
519.0,498.0,509.0,503.0
515.0,492.0,507.0,505.0
513.0,504.0,503.0,504.0
514.0,508.0,504.0,507.0
505.0,505.0,508.0,519.0
489.0,516.0,508.0,516.0
495.0,522.0,506.0,517.0
505.0,519.0,508.0,522.0
513.0,512.0,523.0,522.0
511.0,513.0,515.0,513.0
522.0,495.0,510.0,507.0
519.0,491.0,520.0,513.0
511.0,499.0,524.0,511.0
508.0,504.0,523.0,506.0
507.0,510.0,509.0,499.0
506.0,510.0,513.0,502.0
508.0,498.0,514.0,508.0
506.0,491.0,515.0,507.0
502.0,501.0,506.0,506.0
505.0,507.0,511.0,506.0
499.0,511.0,505.0,515.0
504.0,519.0,512.0,522.0
508.0,518.0,503.0,516.0
515.0,521.0,507.0,519.0
521.0,518.0,513.0,527.0
525.0,512.0,515.0,519.0
523.0,508.0,514.0,520.0
530.0,491.0,518.0,514.0
533.0,481.0,523.0,503.0
528.0,489.0,523.0,506.0
523.0,494.0,517.0,512.0
514.0,497.0,516.0,503.0
501.0,509.0,513.0,504.0
505.0,499.0,512.0,504.0
507.0,501.0,506.0,505.0
513.0,494.0,506.0,503.0
505.0,500.0,506.0,530.0
489.0,513.0,503.0,532.0
492.0,524.0,501.0,509.0
491.0,526.0,508.0,511.0
498.0,527.0,506.0,512.0
507.0,515.0,521.0,517.0
502.0,513.0,513.0,515.0
512.0,504.0,517.0,522.0
522.0,486.0,528.0,519.0
522.0,489.0,510.0,503.0
514.0,501.0,509.0,500.0
509.0,502.0,521.0,500.0
507.0,500.0,522.0,508.0
509.0,499.0,513.0,510.0
504.0,498.0,516.0,515.0
506.0,503.0,508.0,515.0
510.0,500.0,500.0,511.0
508.0,506.0,509.0,538.0
506.0,507.0,500.0,514.0
502.0,513.0,492.0,496.0
504.0,520.0,510.0,521.0
505.0,525.0,501.0,527.0
516.0,511.0,520.0,526.0
515.0,509.0,525.0,523.0
525.0,494.0,520.0,517.0
526.0,489.0,522.0,510.0
522.0,490.0,522.0,507.0
517.0,494.0,522.0,507.0
513.0,498.0,519.0,505.0
511.0,503.0,516.0,503.0
509.0,501.0,514.0,505.0
507.0,511.0,510.0,506.0
508.0,507.0,512.0,505.0
512.0,499.0,512.0,514.0
508.0,506.0,502.0,510.0
505.0,514.0,486.0,502.0
503.0,516.0,496.0,506.0
504.0,516.0,517.0,547.0
508.0,514.0,515.0,543.0
512.0,506.0,509.0,507.0
512.0,507.0,513.0,496.0
525.0,491.0,523.0,505.0
521.0,490.0,530.0,523.0
518.0,497.0,530.0,512.0
515.0,498.0,528.0,517.0
512.0,503.0,499.0,512.0
509.0,508.0,506.0,485.0
512.0,502.0,514.0,500.0
505.0,504.0,518.0,516.0
511.0,499.0,503.0,508.0
506.0,502.0,498.0,507.0
508.0,507.0,507.0,511.0
505.0,513.0,492.0,521.0
503.0,515.0,506.0,532.0
507.0,512.0,513.0,514.0
511.0,516.0,520.0,515.0
511.0,509.0,508.0,513.0
514.0,504.0,528.0,519.0
520.0,497.0,519.0,513.0
521.0,490.0,513.0,506.0
520.0,492.0,526.0,507.0
517.0,491.0,526.0,512.0
512.0,496.0,515.0,510.0
510.0,497.0,509.0,503.0
510.0,493.0,499.0,498.0
505.0,505.0,510.0,506.0
511.0,499.0,505.0,511.0
507.0,502.0,498.0,523.0
503.0,520.0,500.0,527.0
503.0,523.0,496.0,516.0
502.0,524.0,502.0,548.0
503.0,522.0,521.0,557.0
515.0,500.0,508.0,496.0
514.0,506.0,510.0,503.0
519.0,505.0,524.0,525.0
524.0,508.0,521.0,510.0
521.0,506.0,517.0,524.0
517.0,505.0,520.0,516.0
515.0,503.0,517.0,513.0
508.0,507.0,515.0,520.0
506.0,490.0,523.0,501.0
507.0,498.0,505.0,492.0
507.0,497.0,506.0,507.0
512.0,496.0,517.0,512.0
509.0,502.0,508.0,497.0
502.0,510.0,498.0,518.0
502.0,524.0,504.0,547.0
505.0,511.0,503.0,532.0
508.0,502.0,510.0,524.0
511.0,511.0,514.0,507.0
512.0,519.0,512.0,514.0
518.0,494.0,527.0,506.0
521.0,486.0,524.0,503.0
520.0,491.0,522.0,506.0
515.0,489.0,513.0,511.0
512.0,498.0,499.0,512.0
503.0,508.0,507.0,500.0
509.0,498.0,536.0,490.0
504.0,499.0,486.0,478.0
509.0,498.0,483.0,501.0
509.0,493.0,520.0,517.0
510.0,492.0,509.0,528.0
506.0,511.0,493.0,504.0
504.0,518.0,505.0,512.0
507.0,517.0,513.0,532.0
511.0,506.0,504.0,529.0
507.0,511.0,519.0,525.0
519.0,499.0,521.0,520.0
525.0,479.0,522.0,508.0
525.0,481.0,527.0,509.0
519.0,497.0,515.0,510.0
513.0,500.0,522.0,511.0
513.0,500.0,509.0,512.0
514.0,506.0,509.0,496.0
517.0,500.0,506.0,507.0
516.0,505.0,493.0,495.0
524.0,501.0,499.0,504.0
515.0,505.0,508.0,517.0
516.0,509.0,509.0,506.0
515.0,515.0,501.0,508.0
505.0,520.0,509.0,527.0
489.0,527.0,514.0,520.0
505.0,508.0,516.0,527.0
505.0,508.0,518.0,523.0
511.0,491.0,516.0,513.0
517.0,492.0,516.0,504.0
513.0,494.0,517.0,500.0
508.0,496.0,519.0,501.0
509.0,497.0,514.0,491.0
506.0,499.0,516.0,506.0
506.0,496.0,510.0,518.0
502.0,502.0,500.0,516.0
505.0,502.0,494.0,477.0
511.0,498.0,488.0,494.0
513.0,505.0,498.0,507.0
510.0,510.0,517.0,536.0
