CH1,CH2,CH3,CH4,CH5
510.0,506.0,516.0,495.0,504.0
516.0,506.0,520.0,502.0,502.0
524.0,508.0,523.0,510.0,506.0
530.0,509.0,527.0,518.0,499.0
535.0,515.0,530.0,530.0,494.0
537.0,511.0,529.0,538.0,490.0
534.0,511.0,525.0,541.0,493.0
518.0,505.0,512.0,533.0,504.0
514.0,503.0,511.0,533.0,511.0
497.0,497.0,498.0,521.0,527.0
490.0,498.0,494.0,511.0,529.0
491.0,501.0,496.0,509.0,526.0
491.0,504.0,498.0,501.0,527.0
497.0,505.0,502.0,496.0,523.0
504.0,508.0,509.0,498.0,515.0
506.0,508.0,514.0,494.0,515.0
510.0,507.0,516.0,498.0,512.0
517.0,508.0,520.0,501.0,504.0
517.0,507.0,522.0,505.0,498.0
522.0,506.0,523.0,512.0,505.0
531.0,512.0,530.0,524.0,507.0
537.0,513.0,529.0,535.0,502.0
537.0,510.0,526.0,538.0,503.0
533.0,509.0,521.0,538.0,508.0
523.0,504.0,512.0,533.0,510.0
519.0,504.0,511.0,532.0,514.0
503.0,497.0,495.0,516.0,526.0
490.0,496.0,493.0,506.0,537.0
488.0,501.0,497.0,502.0,533.0
492.0,505.0,500.0,500.0,534.0
498.0,508.0,505.0,497.0,534.0
502.0,508.0,509.0,496.0,523.0
502.0,505.0,512.0,493.0,520.0
507.0,509.0,517.0,498.0,507.0
516.0,507.0,520.0,500.0,495.0
522.0,505.0,522.0,507.0,495.0
529.0,509.0,526.0,516.0,496.0
533.0,510.0,527.0,525.0,492.0
537.0,512.0,530.0,536.0,490.0
535.0,512.0,527.0,542.0,493.0
522.0,504.0,516.0,535.0,503.0
515.0,503.0,511.0,532.0,508.0
509.0,499.0,503.0,525.0,516.0
497.0,497.0,498.0,512.0,525.0
495.0,501.0,497.0,508.0,528.0
493.0,501.0,495.0,499.0,528.0
495.0,505.0,503.0,498.0,528.0
494.0,507.0,506.0,496.0,527.0
499.0,508.0,511.0,494.0,534.0
505.0,509.0,515.0,498.0,528.0
513.0,507.0,517.0,496.0,520.0
520.0,507.0,519.0,500.0,505.0
524.0,507.0,523.0,508.0,490.0
535.0,513.0,528.0,521.0,486.0
532.0,511.0,531.0,530.0,489.0
536.0,512.0,530.0,537.0,486.0
535.0,513.0,526.0,542.0,492.0
524.0,505.0,514.0,535.0,503.0
518.0,504.0,511.0,534.0,509.0
499.0,496.0,497.0,518.0,519.0
493.0,495.0,493.0,510.0,515.0
493.0,500.0,496.0,505.0,521.0
495.0,506.0,500.0,501.0,523.0
496.0,506.0,508.0,497.0,522.0
500.0,509.0,513.0,499.0,525.0
506.0,509.0,517.0,493.0,522.0
506.0,507.0,515.0,493.0,517.0
512.0,507.0,513.0,499.0,506.0
519.0,504.0,519.0,507.0,498.0
529.0,507.0,524.0,512.0,489.0
531.0,509.0,527.0,523.0,497.0
533.0,510.0,531.0,532.0,511.0
538.0,513.0,530.0,539.0,495.0
528.0,506.0,521.0,537.0,493.0
524.0,504.0,517.0,534.0,492.0
520.0,505.0,510.0,531.0,502.0
505.0,498.0,494.0,520.0,520.0
491.0,497.0,489.0,506.0,543.0
493.0,502.0,492.0,502.0,542.0
494.0,504.0,504.0,498.0,520.0
498.0,505.0,504.0,499.0,523.0
505.0,510.0,515.0,497.0,526.0
501.0,506.0,518.0,494.0,522.0
505.0,507.0,520.0,500.0,516.0
511.0,507.0,525.0,499.0,514.0
519.0,508.0,530.0,507.0,508.0
522.0,507.0,519.0,514.0,510.0
530.0,510.0,521.0,532.0,492.0
534.0,512.0,528.0,537.0,490.0
532.0,510.0,525.0,542.0,491.0
526.0,507.0,519.0,539.0,505.0
518.0,504.0,513.0,536.0,502.0
509.0,500.0,506.0,528.0,508.0
499.0,499.0,506.0,517.0,522.0
494.0,498.0,502.0,507.0,530.0
494.0,501.0,509.0,501.0,529.0
495.0,504.0,512.0,500.0,524.0
495.0,506.0,501.0,499.0,513.0
508.0,505.0,499.0,494.0,499.0
508.0,507.0,508.0,494.0,504.0
513.0,510.0,517.0,497.0,511.0
520.0,507.0,506.0,496.0,509.0
528.0,507.0,523.0,509.0,494.0
533.0,507.0,525.0,522.0,475.0
538.0,507.0,524.0,536.0,468.0
538.0,503.0,509.0,548.0,467.0
528.0,505.0,524.0,559.0,498.0
518.0,498.0,516.0,552.0,503.0
514.0,509.0,511.0,544.0,507.0
506.0,502.0,493.0,501.0,534.0
499.0,502.0,490.0,494.0,558.0
499.0,505.0,492.0,496.0,548.0
500.0,505.0,495.0,497.0,530.0
505.0,507.0,502.0,497.0,536.0
507.0,509.0,509.0,494.0,522.0
513.0,509.0,535.0,496.0,503.0
508.0,507.0,543.0,496.0,513.0
499.0,509.0,546.0,499.0,514.0
507.0,508.0,538.0,502.0,517.0
519.0,507.0,494.0,504.0,510.0
530.0,510.0,520.0,521.0,500.0
536.0,513.0,529.0,536.0,496.0
531.0,510.0,525.0,541.0,503.0
525.0,509.0,520.0,542.0,509.0
516.0,504.0,509.0,536.0,508.0
515.0,503.0,508.0,533.0,511.0
499.0,495.0,494.0,516.0,531.0
494.0,498.0,492.0,513.0,537.0
497.0,502.0,492.0,505.0,533.0
492.0,503.0,497.0,499.0,532.0
497.0,508.0,503.0,498.0,536.0
500.0,510.0,508.0,497.0,521.0
503.0,505.0,505.0,492.0,519.0
515.0,508.0,509.0,496.0,516.0
524.0,508.0,516.0,498.0,503.0
527.0,509.0,523.0,505.0,494.0
531.0,509.0,522.0,512.0,479.0
536.0,513.0,525.0,524.0,481.0
533.0,515.0,523.0,531.0,488.0
520.0,513.0,515.0,538.0,507.0
513.0,504.0,514.0,534.0,523.0
511.0,507.0,520.0,539.0,516.0
506.0,503.0,523.0,546.0,539.0
504.0,498.0,495.0,527.0,558.0
507.0,500.0,490.0,512.0,550.0
512.0,502.0,487.0,476.0,537.0
520.0,508.0,494.0,473.0,551.0
524.0,511.0,504.0,499.0,556.0
524.0,510.0,505.0,511.0,530.0
523.0,502.0,504.0,502.0,475.0
516.0,501.0,510.0,496.0,476.0
509.0,503.0,524.0,507.0,477.0
512.0,503.0,526.0,521.0,435.0
527.0,508.0,521.0,522.0,471.0
530.0,510.0,519.0,527.0,510.0
537.0,514.0,527.0,539.0,510.0
533.0,510.0,522.0,545.0,497.0
538.0,508.0,516.0,543.0,503.0
533.0,506.0,518.0,546.0,511.0
522.0,500.0,511.0,538.0,510.0
505.0,500.0,507.0,526.0,523.0
488.0,499.0,528.0,508.0,516.0
491.0,503.0,517.0,513.0,493.0
492.0,505.0,515.0,505.0,477.0
509.0,511.0,494.0,485.0,478.0
530.0,510.0,520.0,483.0,496.0
542.0,486.0,525.0,498.0,477.0
534.0,480.0,515.0,500.0,488.0
523.0,478.0,466.0,495.0,519.0
505.0,480.0,489.0,511.0,534.0
494.0,484.0,499.0,527.0,536.0
514.0,529.0,524.0,543.0,530.0
533.0,556.0,534.0,565.0,487.0
546.0,532.0,536.0,576.0,491.0
541.0,520.0,504.0,530.0,477.0
525.0,504.0,511.0,513.0,539.0
506.0,497.0,485.0,479.0,550.0
502.0,504.0,497.0,492.0,542.0
483.0,489.0,495.0,491.0,513.0
484.0,490.0,490.0,509.0,504.0
484.0,496.0,501.0,504.0,519.0
493.0,508.0,507.0,503.0,516.0
496.0,506.0,506.0,508.0,531.0
503.0,526.0,524.0,511.0,509.0
521.0,534.0,526.0,514.0,464.0
536.0,519.0,538.0,520.0,452.0
546.0,518.0,531.0,528.0,474.0
546.0,516.0,513.0,537.0,519.0
542.0,517.0,517.0,542.0,519.0
525.0,516.0,514.0,551.0,516.0
515.0,507.0,526.0,546.0,527.0
504.0,501.0,506.0,540.0,516.0
499.0,500.0,502.0,530.0,515.0
498.0,498.0,492.0,521.0,533.0
508.0,495.0,489.0,516.0,554.0
516.0,499.0,470.0,522.0,554.0
512.0,506.0,550.0,535.0,591.0
542.0,526.0,606.0,549.0,544.0
542.0,510.0,564.0,535.0,475.0
499.0,494.0,452.0,474.0,481.0
515.0,508.0,463.0,481.0,431.0
529.0,518.0,525.0,497.0,461.0
525.0,514.0,505.0,524.0,500.0
517.0,514.0,508.0,531.0,514.0
527.0,514.0,516.0,548.0,457.0
507.0,508.0,518.0,542.0,491.0
516.0,513.0,533.0,554.0,515.0
513.0,507.0,514.0,555.0,529.0
517.0,507.0,515.0,555.0,514.0
507.0,500.0,495.0,540.0,529.0
498.0,503.0,486.0,519.0,533.0
495.0,506.0,498.0,519.0,509.0
502.0,507.0,500.0,519.0,475.0
492.0,508.0,502.0,513.0,543.0
482.0,510.0,508.0,513.0,544.0
495.0,512.0,511.0,506.0,486.0
509.0,507.0,509.0,497.0,524.0
532.0,514.0,515.0,501.0,489.0
538.0,509.0,515.0,499.0,477.0
533.0,506.0,511.0,503.0,499.0
540.0,516.0,526.0,532.0,496.0
529.0,517.0,533.0,562.0,531.0
525.0,516.0,532.0,562.0,517.0
527.0,514.0,523.0,558.0,495.0
530.0,510.0,512.0,558.0,501.0
539.0,512.0,519.0,556.0,503.0
522.0,509.0,511.0,535.0,554.0
501.0,505.0,499.0,517.0,544.0
514.0,504.0,474.0,508.0,477.0
520.0,506.0,484.0,507.0,499.0
502.0,497.0,491.0,513.0,522.0
500.0,507.0,533.0,525.0,499.0
497.0,505.0,533.0,518.0,490.0
495.0,501.0,504.0,511.0,418.0
517.0,500.0,504.0,520.0,351.0
533.0,498.0,503.0,516.0,398.0
522.0,497.0,500.0,518.0,474.0
526.0,503.0,514.0,537.0,480.0
533.0,512.0,529.0,549.0,508.0
533.0,517.0,554.0,555.0,557.0
519.0,517.0,545.0,556.0,655.0
483.0,510.0,507.0,543.0,696.0
454.0,509.0,475.0,541.0,673.0
460.0,508.0,500.0,537.0,609.0
507.0,506.0,503.0,525.0,487.0
520.0,501.0,486.0,515.0,411.0
494.0,498.0,487.0,513.0,441.0
492.0,500.0,489.0,517.0,537.0
505.0,507.0,501.0,519.0,584.0
529.0,508.0,494.0,519.0,538.0
534.0,512.0,531.0,540.0,474.0
551.0,519.0,534.0,560.0,461.0
531.0,515.0,528.0,530.0,544.0
497.0,508.0,505.0,499.0,580.0
512.0,512.0,483.0,521.0,498.0
542.0,519.0,526.0,539.0,412.0
552.0,515.0,534.0,556.0,380.0
532.0,497.0,484.0,556.0,447.0
528.0,490.0,469.0,550.0,542.0
487.0,484.0,466.0,521.0,605.0
498.0,493.0,477.0,528.0,550.0
508.0,501.0,490.0,536.0,478.0
492.0,493.0,478.0,546.0,493.0
498.0,490.0,463.0,552.0,439.0
518.0,487.0,483.0,543.0,472.0
521.0,503.0,518.0,549.0,479.0
500.0,528.0,531.0,530.0,451.0
513.0,536.0,523.0,517.0,440.0
478.0,503.0,468.0,517.0,527.0
514.0,492.0,447.0,523.0,520.0
555.0,502.0,521.0,547.0,550.0
553.0,501.0,550.0,584.0,532.0
546.0,506.0,504.0,582.0,576.0
538.0,490.0,446.0,554.0,595.0
549.0,492.0,452.0,537.0,566.0
537.0,504.0,483.0,559.0,517.0
504.0,525.0,488.0,552.0,557.0
465.0,519.0,478.0,537.0,528.0
445.0,526.0,509.0,550.0,473.0
490.0,515.0,507.0,557.0,376.0
506.0,494.0,463.0,530.0,432.0
522.0,497.0,442.0,524.0,517.0
484.0,485.0,445.0,508.0,601.0
462.0,469.0,475.0,536.0,555.0
477.0,472.0,461.0,551.0,538.0
498.0,493.0,469.0,548.0,505.0
527.0,516.0,496.0,547.0,511.0
552.0,517.0,494.0,563.0,523.0
553.0,539.0,513.0,592.0,530.0
548.0,554.0,536.0,618.0,514.0
526.0,517.0,511.0,579.0,481.0
531.0,510.0,488.0,534.0,401.0
532.0,497.0,460.0,545.0,519.0
510.0,490.0,419.0,545.0,624.0
483.0,504.0,428.0,526.0,613.0
507.0,512.0,466.0,540.0,573.0
499.0,504.0,452.0,518.0,637.0
514.0,502.0,455.0,518.0,513.0
485.0,501.0,461.0,523.0,529.0
473.0,495.0,444.0,523.0,526.0
487.0,519.0,477.0,536.0,474.0
541.0,529.0,496.0,554.0,461.0
547.0,519.0,473.0,566.0,438.0
511.0,510.0,485.0,560.0,529.0
504.0,515.0,522.0,569.0,528.0
527.0,516.0,527.0,592.0,477.0
569.0,512.0,492.0,610.0,412.0
546.0,502.0,470.0,596.0,497.0
487.0,500.0,470.0,556.0,623.0
495.0,508.0,484.0,563.0,657.0
487.0,506.0,473.0,563.0,590.0
485.0,489.0,451.0,538.0,490.0
477.0,492.0,448.0,525.0,503.0
496.0,509.0,475.0,547.0,425.0
526.0,516.0,491.0,557.0,363.0
534.0,507.0,486.0,538.0,400.0
500.0,499.0,477.0,530.0,435.0
479.0,501.0,488.0,538.0,493.0
500.0,505.0,504.0,557.0,475.0
491.0,496.0,493.0,544.0,503.0
497.0,507.0,496.0,563.0,544.0
509.0,513.0,499.0,576.0,558.0
511.0,517.0,509.0,581.0,530.0
507.0,512.0,502.0,588.0,545.0
527.0,508.0,492.0,580.0,558.0
554.0,511.0,493.0,578.0,532.0
543.0,508.0,486.0,565.0,474.0
546.0,504.0,501.0,556.0,459.0
528.0,496.0,493.0,539.0,522.0
487.0,494.0,489.0,539.0,537.0
454.0,501.0,466.0,544.0,528.0
474.0,509.0,477.0,537.0,534.0
491.0,511.0,483.0,545.0,487.0
520.0,513.0,500.0,533.0,447.0
497.0,507.0,490.0,530.0,612.0
504.0,499.0,487.0,534.0,622.0
529.0,498.0,485.0,547.0,577.0
538.0,507.0,499.0,568.0,559.0
539.0,508.0,521.0,596.0,483.0
513.0,494.0,490.0,588.0,460.0
492.0,497.0,494.0,568.0,392.0
499.0,500.0,504.0,572.0,481.0
518.0,499.0,497.0,563.0,583.0
511.0,498.0,477.0,549.0,566.0
509.0,524.0,493.0,556.0,614.0
490.0,511.0,487.0,542.0,678.0
487.0,501.0,464.0,529.0,539.0
484.0,489.0,477.0,517.0,409.0
526.0,497.0,515.0,520.0,355.0
513.0,499.0,498.0,504.0,503.0
494.0,504.0,440.0,537.0,560.0
488.0,514.0,502.0,560.0,484.0
504.0,519.0,559.0,568.0,539.0
498.0,497.0,538.0,578.0,520.0
525.0,495.0,444.0,543.0,517.0
560.0,514.0,433.0,530.0,496.0
604.0,515.0,497.0,589.0,464.0
567.0,498.0,509.0,595.0,495.0
511.0,493.0,503.0,572.0,529.0
484.0,506.0,490.0,566.0,541.0
461.0,519.0,508.0,563.0,552.0
466.0,500.0,490.0,553.0,455.0
479.0,496.0,484.0,545.0,537.0
508.0,497.0,508.0,544.0,543.0
505.0,485.0,511.0,536.0,547.0
491.0,495.0,512.0,526.0,576.0
480.0,506.0,474.0,518.0,613.0
475.0,499.0,495.0,552.0,491.0
494.0,508.0,507.0,560.0,483.0
526.0,526.0,518.0,552.0,496.0
512.0,510.0,522.0,557.0,506.0
519.0,508.0,535.0,563.0,536.0
544.0,507.0,508.0,564.0,557.0
572.0,505.0,488.0,586.0,481.0
546.0,495.0,463.0,578.0,472.0
544.0,492.0,503.0,575.0,494.0
512.0,488.0,513.0,558.0,488.0
521.0,502.0,511.0,553.0,427.0
511.0,521.0,536.0,543.0,470.0
453.0,507.0,504.0,514.0,614.0
452.0,510.0,449.0,518.0,624.0
477.0,509.0,492.0,545.0,564.0
498.0,492.0,503.0,528.0,457.0
513.0,493.0,507.0,529.0,363.0
541.0,499.0,523.0,532.0,468.0
522.0,502.0,519.0,522.0,572.0
551.0,535.0,527.0,533.0,550.0
561.0,536.0,535.0,559.0,513.0
540.0,509.0,528.0,563.0,451.0
532.0,500.0,535.0,581.0,476.0
513.0,496.0,538.0,605.0,488.0
499.0,490.0,496.0,580.0,497.0
506.0,504.0,487.0,561.0,523.0
485.0,514.0,479.0,562.0,545.0
469.0,513.0,476.0,549.0,580.0
504.0,506.0,496.0,550.0,497.0
503.0,506.0,497.0,521.0,512.0
507.0,515.0,497.0,519.0,538.0
517.0,512.0,498.0,510.0,579.0
519.0,509.0,499.0,509.0,599.0
531.0,513.0,514.0,519.0,618.0
519.0,521.0,517.0,533.0,559.0
512.0,515.0,517.0,547.0,505.0
480.0,505.0,512.0,553.0,462.0
517.0,506.0,519.0,562.0,430.0
529.0,508.0,523.0,569.0,372.0
553.0,510.0,522.0,574.0,444.0
546.0,508.0,521.0,584.0,474.0
530.0,509.0,520.0,561.0,562.0
528.0,504.0,513.0,542.0,557.0
522.0,499.0,523.0,556.0,498.0
487.0,492.0,498.0,529.0,585.0
454.0,497.0,454.0,490.0,624.0
463.0,501.0,472.0,516.0,514.0
490.0,512.0,487.0,534.0,488.0
499.0,511.0,504.0,542.0,490.0
513.0,515.0,515.0,536.0,425.0
499.0,510.0,530.0,540.0,443.0
501.0,507.0,542.0,544.0,453.0
476.0,490.0,517.0,538.0,528.0
499.0,494.0,486.0,532.0,545.0
518.0,511.0,508.0,552.0,508.0
567.0,525.0,521.0,564.0,426.0
564.0,507.0,503.0,556.0,447.0
536.0,490.0,472.0,540.0,448.0
520.0,501.0,508.0,565.0,496.0
469.0,499.0,486.0,551.0,635.0
461.0,509.0,485.0,556.0,572.0
464.0,511.0,503.0,553.0,624.0
469.0,498.0,506.0,522.0,580.0
457.0,493.0,518.0,477.0,576.0
464.0,503.0,529.0,483.0,530.0
515.0,504.0,548.0,505.0,513.0
533.0,503.0,550.0,512.0,531.0
525.0,522.0,529.0,565.0,577.0
527.0,528.0,547.0,544.0,608.0
523.0,502.0,446.0,527.0,537.0
538.0,505.0,494.0,552.0,423.0
553.0,508.0,530.0,574.0,395.0
561.0,523.0,539.0,581.0,487.0
544.0,519.0,520.0,566.0,591.0
511.0,502.0,495.0,559.0,534.0
504.0,503.0,521.0,580.0,461.0
503.0,501.0,509.0,567.0,504.0
491.0,499.0,482.0,529.0,494.0
497.0,495.0,493.0,520.0,513.0
497.0,497.0,507.0,518.0,547.0
509.0,500.0,491.0,506.0,546.0
531.0,517.0,483.0,516.0,537.0
527.0,506.0,492.0,519.0,502.0
549.0,521.0,527.0,534.0,466.0
523.0,494.0,511.0,523.0,426.0
523.0,494.0,509.0,545.0,441.0
538.0,495.0,517.0,561.0,446.0
559.0,490.0,509.0,554.0,472.0
544.0,494.0,507.0,526.0,515.0
545.0,519.0,524.0,534.0,468.0
520.0,519.0,524.0,545.0,554.0
516.0,518.0,519.0,556.0,591.0
515.0,509.0,513.0,555.0,549.0
497.0,499.0,496.0,543.0,550.0
512.0,507.0,497.0,536.0,553.0
516.0,514.0,518.0,523.0,518.0
506.0,508.0,544.0,521.0,447.0
502.0,510.0,555.0,516.0,531.0
473.0,503.0,500.0,523.0,600.0
493.0,504.0,512.0,501.0,630.0
495.0,507.0,515.0,504.0,498.0
522.0,513.0,522.0,518.0,453.0
490.0,515.0,510.0,530.0,490.0
493.0,501.0,523.0,527.0,515.0
535.0,515.0,539.0,544.0,494.0
544.0,503.0,528.0,583.0,486.0
549.0,507.0,517.0,563.0,471.0
519.0,502.0,505.0,543.0,552.0
514.0,514.0,503.0,546.0,531.0
517.0,508.0,499.0,547.0,434.0
509.0,500.0,499.0,542.0,437.0
499.0,496.0,491.0,519.0,516.0
486.0,509.0,523.0,518.0,597.0
491.0,502.0,529.0,525.0,530.0
487.0,486.0,491.0,518.0,497.0
501.0,495.0,494.0,523.0,528.0
515.0,506.0,505.0,515.0,525.0
518.0,515.0,497.0,517.0,537.0
528.0,511.0,509.0,511.0,540.0
530.0,510.0,513.0,518.0,515.0
509.0,520.0,534.0,537.0,497.0
527.0,518.0,541.0,560.0,498.0
530.0,513.0,526.0,547.0,518.0
534.0,513.0,525.0,546.0,532.0
541.0,508.0,513.0,543.0,536.0
536.0,508.0,506.0,541.0,525.0
493.0,495.0,492.0,526.0,553.0
496.0,501.0,506.0,527.0,532.0
483.0,502.0,506.0,527.0,536.0
502.0,504.0,483.0,516.0,550.0
510.0,509.0,496.0,502.0,557.0
506.0,502.0,480.0,490.0,475.0
494.0,508.0,512.0,495.0,475.0
523.0,523.0,534.0,525.0,438.0
527.0,508.0,525.0,528.0,520.0
503.0,499.0,519.0,521.0,489.0
507.0,501.0,521.0,510.0,410.0
538.0,512.0,539.0,537.0,434.0
538.0,521.0,556.0,566.0,462.0
529.0,524.0,559.0,573.0,532.0
514.0,513.0,528.0,563.0,592.0
521.0,510.0,500.0,537.0,562.0
503.0,502.0,499.0,528.0,549.0
482.0,503.0,507.0,530.0,511.0
464.0,504.0,504.0,518.0,533.0
463.0,500.0,494.0,508.0,507.0
468.0,498.0,499.0,517.0,508.0
465.0,501.0,499.0,506.0,552.0
509.0,513.0,508.0,506.0,531.0
536.0,508.0,513.0,506.0,455.0
551.0,514.0,522.0,519.0,433.0
539.0,512.0,523.0,517.0,495.0
515.0,508.0,525.0,522.0,544.0
519.0,511.0,525.0,527.0,522.0
526.0,508.0,529.0,551.0,544.0
518.0,507.0,526.0,551.0,529.0
557.0,511.0,519.0,535.0,513.0
548.0,501.0,507.0,522.0,505.0
531.0,503.0,505.0,534.0,443.0
487.0,498.0,498.0,527.0,526.0
448.0,500.0,506.0,522.0,559.0
462.0,512.0,527.0,528.0,527.0
480.0,508.0,498.0,522.0,463.0
474.0,507.0,481.0,509.0,553.0
460.0,509.0,509.0,511.0,593.0
461.0,508.0,525.0,521.0,535.0
472.0,504.0,516.0,493.0,577.0
492.0,499.0,508.0,482.0,525.0
544.0,506.0,518.0,506.0,469.0
536.0,509.0,526.0,530.0,483.0
533.0,514.0,532.0,539.0,467.0
554.0,520.0,542.0,548.0,483.0
553.0,512.0,530.0,532.0,492.0
556.0,515.0,534.0,538.0,500.0
560.0,509.0,527.0,541.0,500.0
537.0,504.0,500.0,544.0,480.0
511.0,494.0,486.0,515.0,483.0
514.0,506.0,507.0,517.0,515.0
523.0,502.0,500.0,513.0,517.0
531.0,509.0,496.0,500.0,492.0
526.0,505.0,492.0,501.0,505.0
525.0,509.0,505.0,529.0,475.0
508.0,507.0,517.0,506.0,604.0
512.0,508.0,529.0,475.0,597.0
521.0,506.0,512.0,491.0,589.0
543.0,509.0,560.0,531.0,496.0
526.0,504.0,543.0,529.0,472.0
525.0,506.0,518.0,520.0,472.0
520.0,514.0,507.0,530.0,452.0
548.0,517.0,522.0,561.0,471.0
532.0,505.0,526.0,550.0,516.0
530.0,495.0,527.0,540.0,519.0
520.0,487.0,516.0,527.0,518.0
490.0,475.0,480.0,507.0,545.0
497.0,490.0,471.0,536.0,564.0
493.0,503.0,495.0,544.0,581.0
488.0,508.0,487.0,515.0,571.0
497.0,510.0,478.0,481.0,511.0
529.0,515.0,528.0,479.0,479.0
514.0,502.0,530.0,490.0,573.0
526.0,500.0,491.0,512.0,488.0
511.0,487.0,493.0,521.0,468.0
502.0,500.0,537.0,532.0,470.0
526.0,530.0,538.0,518.0,490.0
536.0,517.0,532.0,512.0,511.0
524.0,502.0,544.0,545.0,529.0
525.0,507.0,558.0,551.0,495.0
519.0,479.0,535.0,533.0,533.0
515.0,485.0,527.0,528.0,519.0
490.0,480.0,465.0,513.0,522.0
485.0,482.0,489.0,515.0,552.0
488.0,491.0,501.0,514.0,545.0
493.0,550.0,515.0,507.0,513.0
500.0,551.0,504.0,499.0,497.0
496.0,524.0,511.0,509.0,513.0
498.0,515.0,511.0,501.0,543.0
504.0,516.0,510.0,502.0,526.0
507.0,513.0,523.0,507.0,512.0
525.0,517.0,528.0,513.0,504.0
525.0,517.0,530.0,519.0,545.0
536.0,519.0,535.0,532.0,517.0
534.0,517.0,534.0,539.0,475.0
534.0,514.0,530.0,543.0,457.0
520.0,513.0,527.0,544.0,463.0
517.0,512.0,521.0,548.0,439.0
527.0,508.0,518.0,550.0,472.0
503.0,495.0,495.0,527.0,559.0
504.0,498.0,490.0,499.0,581.0
493.0,502.0,495.0,481.0,568.0
504.0,505.0,502.0,491.0,518.0
498.0,499.0,492.0,495.0,519.0
514.0,507.0,503.0,500.0,485.0
512.0,510.0,515.0,495.0,532.0
499.0,512.0,518.0,499.0,576.0
508.0,506.0,516.0,492.0,581.0
512.0,505.0,521.0,505.0,563.0
517.0,506.0,529.0,519.0,552.0
517.0,507.0,527.0,525.0,513.0
531.0,518.0,537.0,541.0,528.0
527.0,519.0,538.0,547.0,527.0
522.0,515.0,531.0,551.0,507.0
522.0,510.0,526.0,551.0,461.0
482.0,501.0,513.0,540.0,453.0
480.0,496.0,497.0,516.0,494.0
487.0,496.0,490.0,501.0,560.0
506.0,502.0,498.0,495.0,520.0
506.0,505.0,496.0,493.0,501.0
508.0,504.0,502.0,493.0,506.0
516.0,516.0,513.0,505.0,475.0
515.0,507.0,513.0,498.0,464.0
524.0,517.0,523.0,503.0,482.0
533.0,513.0,532.0,513.0,433.0
540.0,513.0,536.0,520.0,439.0
528.0,502.0,511.0,522.0,468.0
512.0,505.0,526.0,532.0,549.0
494.0,508.0,538.0,543.0,524.0
510.0,508.0,527.0,540.0,499.0
495.0,502.0,518.0,539.0,526.0
500.0,503.0,516.0,548.0,523.0
488.0,497.0,503.0,517.0,551.0
492.0,496.0,497.0,504.0,530.0
545.0,504.0,489.0,497.0,532.0
519.0,503.0,488.0,484.0,590.0
510.0,508.0,533.0,500.0,482.0
516.0,510.0,545.0,500.0,487.0
528.0,508.0,490.0,495.0,506.0
526.0,510.0,500.0,501.0,558.0
515.0,508.0,520.0,506.0,558.0
525.0,513.0,533.0,504.0,538.0
507.0,508.0,523.0,510.0,496.0
522.0,508.0,535.0,521.0,454.0
529.0,511.0,547.0,541.0,443.0
504.0,498.0,525.0,542.0,517.0
527.0,505.0,496.0,529.0,448.0
509.0,505.0,504.0,536.0,517.0
505.0,506.0,502.0,539.0,537.0
506.0,506.0,507.0,534.0,552.0
501.0,503.0,507.0,530.0,520.0
504.0,499.0,514.0,513.0,531.0
506.0,502.0,518.0,471.0,539.0
501.0,500.0,485.0,473.0,515.0
515.0,510.0,499.0,500.0,480.0
516.0,506.0,510.0,490.0,492.0
513.0,506.0,516.0,492.0,530.0
514.0,509.0,546.0,513.0,519.0
524.0,512.0,567.0,504.0,522.0
527.0,507.0,535.0,491.0,525.0
525.0,502.0,509.0,516.0,485.0
534.0,508.0,502.0,531.0,467.0
538.0,507.0,512.0,579.0,464.0
543.0,511.0,533.0,558.0,494.0
526.0,508.0,523.0,545.0,556.0
504.0,495.0,500.0,539.0,550.0
491.0,496.0,492.0,517.0,550.0
496.0,507.0,504.0,513.0,547.0
492.0,505.0,512.0,505.0,535.0
491.0,508.0,520.0,500.0,527.0
481.0,507.0,521.0,481.0,559.0
502.0,508.0,536.0,485.0,561.0
503.0,492.0,498.0,467.0,554.0
509.0,502.0,501.0,469.0,525.0
517.0,505.0,489.0,488.0,490.0
539.0,509.0,525.0,520.0,468.0
542.0,515.0,531.0,534.0,479.0
550.0,517.0,529.0,536.0,474.0
552.0,517.0,518.0,534.0,493.0
532.0,509.0,500.0,529.0,516.0
519.0,493.0,496.0,525.0,487.0
512.0,509.0,527.0,533.0,500.0
492.0,505.0,527.0,526.0,518.0
483.0,504.0,515.0,520.0,543.0
488.0,509.0,520.0,514.0,569.0
504.0,510.0,508.0,502.0,576.0
509.0,507.0,510.0,496.0,568.0
504.0,509.0,511.0,498.0,547.0
505.0,511.0,518.0,498.0,543.0
479.0,502.0,513.0,496.0,524.0
502.0,508.0,524.0,504.0,452.0
531.0,505.0,523.0,500.0,477.0
528.0,504.0,521.0,507.0,500.0
524.0,510.0,531.0,519.0,502.0
536.0,514.0,539.0,541.0,483.0
528.0,509.0,531.0,538.0,474.0
522.0,511.0,530.0,542.0,483.0
517.0,503.0,517.0,531.0,508.0
515.0,507.0,516.0,530.0,514.0
504.0,498.0,502.0,519.0,525.0
493.0,493.0,495.0,502.0,520.0
505.0,501.0,494.0,504.0,489.0
506.0,507.0,504.0,499.0,482.0
506.0,508.0,506.0,499.0,507.0
511.0,515.0,517.0,502.0,542.0
518.0,511.0,517.0,498.0,534.0
515.0,509.0,518.0,494.0,552.0
517.0,505.0,518.0,495.0,574.0
514.0,504.0,522.0,497.0,500.0
509.0,506.0,526.0,513.0,512.0
521.0,512.0,534.0,534.0,490.0
525.0,514.0,537.0,541.0,505.0
526.0,511.0,535.0,543.0,488.0
518.0,506.0,522.0,526.0,490.0
516.0,503.0,514.0,526.0,482.0
505.0,500.0,511.0,525.0,530.0
500.0,499.0,499.0,507.0,516.0
506.0,496.0,492.0,497.0,553.0
511.0,501.0,495.0,499.0,555.0
513.0,506.0,503.0,496.0,575.0
509.0,505.0,508.0,494.0,575.0
501.0,507.0,509.0,490.0,525.0
486.0,509.0,517.0,499.0,496.0
501.0,510.0,520.0,499.0,510.0
510.0,505.0,522.0,502.0,445.0
512.0,504.0,523.0,508.0,445.0
520.0,506.0,527.0,523.0,445.0
535.0,507.0,528.0,529.0,390.0
544.0,505.0,525.0,533.0,448.0
549.0,508.0,512.0,529.0,504.0
524.0,501.0,501.0,520.0,511.0
519.0,500.0,496.0,525.0,485.0
509.0,494.0,495.0,505.0,540.0
495.0,499.0,514.0,508.0,560.0
488.0,503.0,507.0,511.0,571.0
484.0,503.0,501.0,497.0,558.0
490.0,504.0,505.0,498.0,537.0
519.0,510.0,513.0,492.0,509.0
534.0,514.0,514.0,488.0,495.0
522.0,506.0,509.0,484.0,517.0
509.0,504.0,520.0,500.0,526.0
525.0,510.0,524.0,506.0,482.0
524.0,507.0,524.0,512.0,509.0
524.0,509.0,527.0,514.0,529.0
534.0,514.0,533.0,526.0,503.0
539.0,517.0,532.0,541.0,472.0
532.0,508.0,528.0,541.0,496.0
519.0,501.0,513.0,527.0,516.0
514.0,507.0,513.0,528.0,512.0
501.0,501.0,502.0,518.0,542.0
495.0,502.0,497.0,513.0,535.0
490.0,501.0,500.0,511.0,526.0
494.0,506.0,505.0,507.0,522.0
492.0,505.0,502.0,499.0,525.0
507.0,512.0,509.0,485.0,527.0
514.0,506.0,510.0,477.0,514.0
510.0,504.0,515.0,495.0,533.0
522.0,509.0,519.0,490.0,521.0
524.0,509.0,517.0,501.0,509.0
520.0,507.0,520.0,509.0,506.0
528.0,511.0,531.0,524.0,521.0
530.0,513.0,530.0,537.0,484.0
533.0,513.0,533.0,546.0,481.0
522.0,507.0,513.0,523.0,489.0
514.0,501.0,506.0,507.0,500.0
508.0,500.0,508.0,512.0,512.0
497.0,499.0,506.0,499.0,535.0
491.0,504.0,499.0,510.0,541.0
498.0,503.0,506.0,500.0,535.0
502.0,509.0,527.0,497.0,514.0
487.0,500.0,495.0,483.0,521.0
498.0,505.0,492.0,486.0,518.0
505.0,503.0,492.0,486.0,522.0
505.0,506.0,518.0,489.0,521.0
514.0,510.0,539.0,512.0,527.0
518.0,500.0,538.0,497.0,522.0
527.0,501.0,504.0,500.0,510.0
543.0,512.0,517.0,515.0,502.0
545.0,511.0,526.0,538.0,504.0
536.0,513.0,529.0,540.0,503.0
524.0,507.0,522.0,531.0,500.0
523.0,508.0,519.0,533.0,473.0
497.0,496.0,495.0,514.0,492.0
491.0,500.0,491.0,510.0,523.0
485.0,500.0,491.0,504.0,530.0
482.0,504.0,499.0,497.0,540.0
487.0,510.0,509.0,504.0,526.0
499.0,513.0,513.0,507.0,534.0
508.0,505.0,509.0,491.0,536.0
517.0,504.0,504.0,482.0,533.0
531.0,508.0,515.0,485.0,518.0
525.0,505.0,517.0,487.0,536.0
525.0,505.0,523.0,500.0,517.0
522.0,510.0,530.0,514.0,510.0
531.0,514.0,538.0,537.0,471.0
532.0,508.0,531.0,539.0,489.0
528.0,508.0,526.0,532.0,486.0
518.0,505.0,515.0,526.0,460.0
506.0,504.0,511.0,521.0,520.0
495.0,497.0,501.0,509.0,589.0
492.0,497.0,499.0,501.0,581.0
495.0,502.0,497.0,498.0,556.0
495.0,503.0,498.0,482.0,550.0
502.0,503.0,499.0,480.0,496.0
522.0,511.0,511.0,491.0,478.0
513.0,505.0,509.0,485.0,503.0
511.0,503.0,514.0,493.0,545.0
509.0,505.0,524.0,501.0,525.0
515.0,510.0,531.0,492.0,478.0
517.0,508.0,532.0,513.0,477.0
525.0,510.0,534.0,519.0,460.0
534.0,514.0,537.0,530.0,472.0
534.0,519.0,534.0,528.0,487.0
528.0,510.0,526.0,527.0,504.0
519.0,504.0,517.0,522.0,498.0
512.0,506.0,509.0,517.0,516.0
495.0,496.0,497.0,500.0,542.0
485.0,495.0,494.0,490.0,529.0
481.0,503.0,498.0,495.0,495.0
466.0,502.0,502.0,484.0,511.0
471.0,506.0,506.0,484.0,518.0
480.0,509.0,513.0,486.0,517.0
484.0,505.0,514.0,484.0,528.0
491.0,505.0,518.0,489.0,511.0
495.0,504.0,519.0,494.0,505.0
498.0,503.0,524.0,500.0,499.0
507.0,508.0,530.0,508.0,502.0
496.0,507.0,530.0,512.0,502.0
488.0,508.0,533.0,524.0,496.0
485.0,506.0,530.0,528.0,505.0
479.0,498.0,517.0,524.0,520.0
544.0,507.0,517.0,516.0,518.0
605.0,509.0,507.0,509.0,505.0
571.0,504.0,500.0,499.0,513.0
548.0,503.0,502.0,495.0,532.0
527.0,507.0,503.0,488.0,535.0
516.0,507.0,502.0,485.0,519.0
521.0,509.0,511.0,486.0,513.0
524.0,508.0,515.0,481.0,512.0
522.0,505.0,514.0,479.0,513.0
526.0,509.0,522.0,484.0,513.0
545.0,514.0,527.0,492.0,505.0
541.0,511.0,530.0,500.0,502.0
541.0,513.0,534.0,510.0,497.0
541.0,513.0,537.0,521.0,490.0
529.0,509.0,534.0,528.0,495.0
522.0,509.0,530.0,531.0,506.0
508.0,502.0,519.0,513.0,508.0
494.0,502.0,516.0,513.0,510.0
482.0,500.0,503.0,501.0,526.0
477.0,496.0,497.0,490.0,536.0
489.0,499.0,501.0,485.0,533.0
499.0,506.0,502.0,484.0,530.0
490.0,505.0,507.0,482.0,527.0
498.0,508.0,514.0,481.0,521.0
514.0,506.0,513.0,475.0,521.0
530.0,508.0,518.0,477.0,515.0
546.0,513.0,526.0,484.0,506.0
535.0,509.0,529.0,494.0,498.0
535.0,508.0,531.0,498.0,506.0
541.0,511.0,534.0,508.0,498.0
543.0,512.0,537.0,517.0,493.0
531.0,510.0,533.0,521.0,492.0
510.0,509.0,530.0,524.0,496.0
494.0,502.0,519.0,514.0,513.0
490.0,502.0,514.0,507.0,522.0
480.0,497.0,503.0,491.0,532.0
478.0,500.0,500.0,486.0,533.0
487.0,502.0,502.0,481.0,532.0
510.0,507.0,507.0,480.0,528.0
537.0,511.0,509.0,476.0,522.0
530.0,510.0,515.0,476.0,516.0
524.0,506.0,517.0,472.0,518.0
525.0,507.0,523.0,475.0,515.0
526.0,506.0,525.0,480.0,514.0
534.0,510.0,533.0,489.0,504.0
535.0,509.0,534.0,501.0,506.0
547.0,513.0,538.0,503.0,493.0
543.0,511.0,538.0,517.0,485.0
540.0,514.0,534.0,520.0,497.0
529.0,505.0,526.0,514.0,505.0
522.0,504.0,521.0,510.0,509.0
512.0,499.0,509.0,498.0,521.0
498.0,495.0,502.0,487.0,527.0
501.0,499.0,504.0,479.0,528.0
496.0,503.0,504.0,479.0,529.0
497.0,505.0,507.0,474.0,526.0
503.0,509.0,513.0,471.0,520.0
504.0,509.0,518.0,470.0,516.0
505.0,503.0,522.0,467.0,515.0
510.0,506.0,525.0,471.0,511.0
512.0,504.0,528.0,477.0,508.0
518.0,505.0,532.0,485.0,502.0
519.0,508.0,536.0,495.0,496.0
526.0,511.0,539.0,505.0,491.0
531.0,510.0,539.0,512.0,492.0
524.0,509.0,535.0,518.0,495.0
523.0,504.0,526.0,508.0,505.0
512.0,502.0,523.0,505.0,509.0
492.0,496.0,511.0,491.0,526.0
482.0,500.0,504.0,481.0,535.0
481.0,503.0,505.0,475.0,535.0
483.0,504.0,512.0,473.0,531.0
488.0,510.0,513.0,468.0,527.0
505.0,512.0,523.0,471.0,516.0
507.0,508.0,525.0,468.0,516.0
499.0,505.0,526.0,469.0,513.0
499.0,504.0,532.0,471.0,513.0
527.0,506.0,536.0,478.0,505.0
542.0,507.0,538.0,487.0,497.0
544.0,508.0,542.0,496.0,494.0
550.0,513.0,548.0,507.0,489.0
544.0,511.0,544.0,511.0,492.0
537.0,509.0,538.0,510.0,500.0
530.0,508.0,532.0,503.0,511.0
528.0,506.0,528.0,501.0,517.0
507.0,498.0,514.0,486.0,527.0
497.0,498.0,508.0,474.0,523.0
493.0,500.0,514.0,470.0,520.0
497.0,504.0,515.0,469.0,520.0
496.0,505.0,519.0,467.0,520.0
502.0,508.0,527.0,468.0,521.0
501.0,505.0,526.0,466.0,522.0
508.0,505.0,535.0,468.0,519.0
509.0,504.0,534.0,469.0,513.0
534.0,510.0,541.0,479.0,491.0
542.0,514.0,548.0,493.0,488.0
545.0,517.0,547.0,500.0,485.0
539.0,513.0,552.0,511.0,487.0
532.0,512.0,547.0,514.0,489.0
523.0,509.0,537.0,506.0,500.0
517.0,507.0,534.0,502.0,506.0
507.0,498.0,519.0,491.0,522.0
496.0,496.0,514.0,480.0,530.0
495.0,500.0,512.0,472.0,530.0
505.0,505.0,516.0,470.0,525.0
501.0,508.0,523.0,470.0,524.0
502.0,508.0,526.0,467.0,519.0
504.0,509.0,531.0,467.0,513.0
506.0,507.0,535.0,466.0,517.0
512.0,507.0,538.0,470.0,509.0
517.0,504.0,541.0,477.0,510.0
525.0,508.0,544.0,482.0,499.0
528.0,509.0,549.0,496.0,502.0
536.0,512.0,552.0,498.0,485.0
536.0,513.0,553.0,509.0,486.0
532.0,509.0,548.0,512.0,489.0
522.0,504.0,536.0,505.0,501.0
519.0,505.0,533.0,502.0,514.0
501.0,495.0,521.0,489.0,528.0
495.0,497.0,514.0,480.0,530.0
495.0,502.0,519.0,476.0,531.0
496.0,504.0,522.0,472.0,527.0
500.0,507.0,523.0,467.0,523.0
500.0,513.0,530.0,471.0,519.0
505.0,507.0,535.0,469.0,515.0
510.0,507.0,537.0,469.0,512.0
511.0,506.0,540.0,471.0,508.0
521.0,508.0,546.0,479.0,505.0
524.0,506.0,547.0,485.0,500.0
531.0,510.0,551.0,498.0,493.0
536.0,513.0,555.0,508.0,489.0
534.0,510.0,551.0,513.0,490.0
529.0,507.0,546.0,510.0,493.0
518.0,502.0,535.0,504.0,508.0
515.0,504.0,534.0,503.0,511.0
502.0,496.0,524.0,488.0,526.0
495.0,499.0,516.0,481.0,531.0
493.0,500.0,521.0,474.0,528.0
498.0,505.0,524.0,472.0,523.0
497.0,502.0,525.0,471.0,519.0
504.0,508.0,533.0,472.0,518.0
505.0,506.0,534.0,468.0,518.0
508.0,506.0,538.0,471.0,511.0
513.0,504.0,541.0,475.0,508.0
523.0,511.0,547.0,484.0,502.0
523.0,510.0,548.0,492.0,498.0
528.0,512.0,549.0,501.0,491.0
535.0,512.0,553.0,513.0,492.0
532.0,510.0,549.0,516.0,495.0
524.0,505.0,541.0,511.0,505.0
516.0,503.0,539.0,507.0,512.0
504.0,496.0,523.0,497.0,524.0
496.0,495.0,516.0,486.0,526.0
494.0,498.0,516.0,480.0,529.0
493.0,505.0,516.0,479.0,524.0
497.0,505.0,522.0,474.0,521.0
499.0,507.0,525.0,473.0,515.0
504.0,508.0,533.0,474.0,506.0
504.0,505.0,532.0,471.0,515.0
510.0,508.0,538.0,473.0,516.0
515.0,505.0,539.0,477.0,510.0
525.0,510.0,542.0,485.0,501.0
526.0,512.0,545.0,499.0,505.0
533.0,512.0,550.0,506.0,490.0
535.0,511.0,549.0,515.0,489.0
534.0,511.0,545.0,517.0,492.0
520.0,503.0,536.0,512.0,501.0
514.0,505.0,530.0,507.0,504.0
502.0,497.0,517.0,495.0,521.0
494.0,497.0,512.0,485.0,529.0
492.0,499.0,512.0,479.0,528.0
492.0,503.0,517.0,477.0,525.0
496.0,506.0,522.0,475.0,531.0
501.0,509.0,527.0,474.0,531.0
502.0,507.0,529.0,471.0,535.0
506.0,506.0,531.0,470.0,525.0
511.0,505.0,533.0,474.0,507.0
518.0,507.0,538.0,483.0,496.0
526.0,508.0,542.0,494.0,485.0
530.0,509.0,545.0,503.0,480.0
537.0,512.0,549.0,516.0,485.0
535.0,511.0,544.0,517.0,492.0
530.0,508.0,539.0,517.0,497.0
522.0,504.0,530.0,511.0,507.0
515.0,502.0,525.0,507.0,513.0
502.0,497.0,513.0,489.0,525.0
495.0,498.0,510.0,484.0,528.0
491.0,501.0,510.0,479.0,524.0
496.0,504.0,516.0,477.0,514.0
498.0,505.0,518.0,474.0,512.0
507.0,510.0,528.0,478.0,514.0
506.0,507.0,527.0,474.0,516.0
508.0,506.0,530.0,475.0,511.0
514.0,505.0,533.0,479.0,505.0
523.0,508.0,539.0,488.0,503.0
526.0,507.0,540.0,493.0,498.0
533.0,509.0,547.0,507.0,494.0
537.0,512.0,545.0,516.0,489.0
534.0,510.0,541.0,522.0,493.0
526.0,505.0,534.0,517.0,502.0
520.0,505.0,524.0,511.0,508.0
507.0,503.0,515.0,502.0,523.0
499.0,497.0,510.0,495.0,528.0
497.0,502.0,508.0,487.0,531.0
495.0,504.0,511.0,483.0,529.0
498.0,506.0,514.0,481.0,525.0
499.0,507.0,518.0,477.0,523.0
507.0,511.0,523.0,477.0,517.0
504.0,508.0,524.0,475.0,521.0
510.0,507.0,529.0,479.0,514.0
515.0,505.0,533.0,483.0,514.0
523.0,507.0,537.0,492.0,505.0
527.0,508.0,537.0,501.0,494.0
537.0,515.0,542.0,514.0,487.0
535.0,511.0,542.0,522.0,488.0
532.0,509.0,538.0,524.0,497.0
521.0,503.0,526.0,517.0,505.0
514.0,503.0,524.0,512.0,505.0
503.0,497.0,511.0,501.0,520.0
495.0,497.0,505.0,491.0,527.0
496.0,499.0,507.0,485.0,527.0
494.0,503.0,509.0,483.0,534.0
496.0,504.0,512.0,480.0,531.0
504.0,509.0,521.0,482.0,524.0
505.0,507.0,522.0,479.0,517.0
506.0,506.0,522.0,478.0,510.0
513.0,509.0,528.0,482.0,514.0
519.0,507.0,533.0,488.0,508.0
523.0,507.0,534.0,496.0,500.0
529.0,508.0,537.0,507.0,497.0
536.0,513.0,542.0,520.0,495.0
533.0,506.0,536.0,523.0,495.0
530.0,509.0,534.0,524.0,503.0
517.0,502.0,523.0,517.0,517.0
513.0,505.0,520.0,513.0,518.0
499.0,496.0,503.0,499.0,530.0
491.0,496.0,501.0,490.0,529.0
491.0,501.0,504.0,492.0,528.0
493.0,503.0,508.0,485.0,523.0
498.0,506.0,515.0,481.0,525.0
510.0,510.0,519.0,483.0,522.0
505.0,507.0,520.0,479.0,527.0
504.0,508.0,525.0,481.0,522.0
513.0,508.0,529.0,487.0,511.0
518.0,512.0,531.0,495.0,500.0
524.0,507.0,532.0,502.0,486.0
530.0,510.0,538.0,517.0,476.0
542.0,510.0,537.0,522.0,468.0
544.0,511.0,534.0,526.0,495.0
528.0,508.0,525.0,522.0,508.0
518.0,502.0,520.0,515.0,504.0
510.0,498.0,511.0,510.0,509.0
499.0,498.0,504.0,500.0,521.0
495.0,500.0,503.0,497.0,524.0
492.0,502.0,504.0,489.0,525.0
494.0,505.0,507.0,483.0,534.0
503.0,509.0,513.0,487.0,530.0
514.0,511.0,520.0,485.0,519.0
508.0,506.0,519.0,481.0,515.0
511.0,509.0,523.0,482.0,512.0
516.0,506.0,528.0,489.0,515.0
522.0,512.0,531.0,500.0,509.0
529.0,511.0,536.0,509.0,505.0
534.0,511.0,536.0,519.0,506.0
536.0,512.0,538.0,526.0,505.0
538.0,509.0,533.0,529.0,487.0
521.0,502.0,521.0,521.0,502.0
518.0,503.0,518.0,519.0,509.0
504.0,496.0,505.0,507.0,522.0
492.0,496.0,499.0,497.0,529.0
488.0,500.0,500.0,491.0,528.0
489.0,504.0,506.0,489.0,529.0
496.0,511.0,510.0,486.0,534.0
506.0,511.0,516.0,486.0,531.0
503.0,508.0,521.0,483.0,522.0
504.0,504.0,517.0,480.0,524.0
514.0,508.0,525.0,490.0,505.0
517.0,506.0,527.0,493.0,492.0
524.0,506.0,529.0,499.0,488.0
531.0,512.0,536.0,513.0,491.0
535.0,513.0,537.0,522.0,490.0
539.0,512.0,535.0,528.0,494.0
534.0,512.0,527.0,529.0,494.0
520.0,503.0,517.0,521.0,507.0
514.0,504.0,515.0,522.0,512.0
502.0,498.0,503.0,504.0,523.0
497.0,500.0,500.0,497.0,530.0
498.0,502.0,503.0,492.0,528.0
496.0,505.0,505.0,487.0,523.0
498.0,506.0,508.0,485.0,522.0
503.0,509.0,514.0,485.0,516.0
502.0,505.0,514.0,483.0,520.0
510.0,508.0,519.0,482.0,509.0
514.0,507.0,523.0,489.0,509.0
522.0,509.0,528.0,498.0,503.0
530.0,509.0,530.0,506.0,498.0
529.0,512.0,532.0,517.0,491.0
536.0,513.0,535.0,528.0,496.0
530.0,510.0,527.0,531.0,500.0
524.0,506.0,523.0,528.0,503.0
515.0,503.0,515.0,524.0,505.0
510.0,499.0,507.0,518.0,512.0
501.0,500.0,499.0,503.0,522.0
497.0,502.0,500.0,495.0,525.0
496.0,504.0,502.0,491.0,530.0
495.0,506.0,505.0,490.0,528.0
498.0,507.0,508.0,488.0,519.0
502.0,509.0,515.0,488.0,515.0
503.0,503.0,514.0,484.0,518.0
509.0,506.0,519.0,486.0,511.0
516.0,508.0,520.0,492.0,507.0
527.0,508.0,527.0,506.0,501.0
529.0,511.0,531.0,512.0,498.0
532.0,513.0,532.0,521.0,491.0
535.0,513.0,533.0,531.0,497.0
533.0,511.0,530.0,531.0,493.0
528.0,506.0,519.0,527.0,509.0
519.0,502.0,513.0,523.0,509.0
503.0,498.0,501.0,511.0,524.0
497.0,497.0,497.0,502.0,530.0
494.0,500.0,496.0,495.0,529.0
495.0,503.0,498.0,491.0,526.0
499.0,506.0,508.0,490.0,523.0
501.0,509.0,512.0,488.0,520.0
507.0,511.0,514.0,488.0,523.0
508.0,507.0,514.0,486.0,520.0
513.0,509.0,520.0,490.0,515.0
517.0,507.0,522.0,496.0,510.0
522.0,508.0,525.0,507.0,501.0
530.0,510.0,528.0,515.0,498.0
539.0,513.0,533.0,527.0,497.0
538.0,511.0,527.0,531.0,491.0
530.0,509.0,525.0,534.0,494.0
522.0,505.0,513.0,527.0,502.0
515.0,502.0,510.0,522.0,508.0
499.0,497.0,500.0,510.0,520.0
492.0,495.0,492.0,498.0,528.0
492.0,501.0,496.0,496.0,529.0
496.0,506.0,501.0,493.0,529.0
498.0,506.0,502.0,488.0,526.0
498.0,509.0,509.0,489.0,521.0
494.0,511.0,511.0,487.0,525.0
501.0,507.0,516.0,489.0,516.0
507.0,506.0,518.0,491.0,508.0
513.0,507.0,523.0,500.0,506.0
516.0,512.0,524.0,509.0,502.0
533.0,510.0,528.0,521.0,491.0
552.0,513.0,531.0,530.0,491.0
540.0,512.0,528.0,533.0,496.0
531.0,510.0,523.0,533.0,502.0
519.0,507.0,512.0,525.0,511.0
511.0,499.0,504.0,517.0,519.0
498.0,497.0,494.0,508.0,522.0
493.0,497.0,492.0,495.0,523.0
502.0,501.0,494.0,493.0,525.0
505.0,504.0,498.0,490.0,520.0
505.0,507.0,503.0,490.0,516.0
509.0,509.0,510.0,490.0,516.0
507.0,507.0,509.0,487.0,519.0
512.0,509.0,517.0,489.0,518.0
519.0,508.0,520.0,495.0,510.0
526.0,509.0,527.0,505.0,505.0
529.0,510.0,526.0,511.0,509.0
532.0,511.0,529.0,520.0,507.0
537.0,513.0,530.0,532.0,506.0
531.0,511.0,524.0,530.0,510.0
524.0,505.0,516.0,530.0,496.0
519.0,503.0,512.0,528.0,484.0
501.0,497.0,498.0,511.0,513.0
497.0,498.0,494.0,504.0,521.0
495.0,501.0,495.0,499.0,521.0
496.0,504.0,498.0,493.0,522.0
497.0,506.0,502.0,488.0,526.0
501.0,508.0,507.0,488.0,507.0
505.0,509.0,511.0,490.0,504.0
503.0,504.0,512.0,485.0,521.0
512.0,506.0,517.0,492.0,515.0
518.0,509.0,519.0,498.0,503.0
526.0,509.0,523.0,505.0,504.0
531.0,511.0,529.0,521.0,504.0
533.0,510.0,530.0,526.0,501.0
535.0,512.0,529.0,535.0,498.0
529.0,509.0,522.0,533.0,493.0
517.0,501.0,512.0,526.0,495.0
512.0,503.0,511.0,524.0,496.0
498.0,497.0,497.0,511.0,516.0
492.0,497.0,493.0,501.0,531.0
490.0,502.0,493.0,495.0,529.0
492.0,510.0,497.0,494.0,531.0
497.0,507.0,502.0,489.0,527.0
507.0,511.0,508.0,489.0,520.0
509.0,508.0,507.0,487.0,514.0
511.0,507.0,513.0,489.0,508.0
516.0,508.0,516.0,492.0,505.0
519.0,506.0,521.0,500.0,502.0
530.0,508.0,524.0,508.0,497.0
534.0,511.0,530.0,521.0,495.0
535.0,512.0,530.0,531.0,489.0
535.0,514.0,529.0,536.0,493.0
528.0,508.0,521.0,534.0,503.0
521.0,503.0,511.0,526.0,516.0
514.0,500.0,504.0,521.0,518.0
499.0,496.0,495.0,509.0,528.0
494.0,497.0,493.0,499.0,529.0
492.0,502.0,495.0,497.0,529.0
496.0,505.0,500.0,493.0,527.0
497.0,507.0,503.0,491.0,525.0
498.0,508.0,509.0,490.0,519.0
500.0,506.0,509.0,486.0,516.0
507.0,506.0,515.0,488.0,513.0
518.0,506.0,518.0,497.0,513.0
526.0,509.0,524.0,507.0,505.0
528.0,510.0,525.0,513.0,499.0
537.0,513.0,530.0,527.0,496.0
541.0,514.0,528.0,532.0,492.0
534.0,511.0,529.0,537.0,496.0
520.0,505.0,516.0,531.0,508.0
515.0,503.0,512.0,528.0,512.0
507.0,498.0,495.0,515.0,522.0
492.0,497.0,492.0,504.0,529.0
497.0,503.0,493.0,500.0,532.0
501.0,503.0,496.0,495.0,528.0
499.0,504.0,498.0,490.0,525.0
507.0,508.0,506.0,490.0,523.0
508.0,510.0,511.0,492.0,521.0
506.0,505.0,510.0,489.0,520.0
513.0,507.0,516.0,493.0,513.0
517.0,506.0,518.0,498.0,507.0
528.0,508.0,522.0,511.0,501.0
531.0,512.0,528.0,522.0,498.0
536.0,513.0,530.0,528.0,491.0
535.0,511.0,528.0,536.0,492.0
531.0,511.0,522.0,539.0,498.0
521.0,505.0,513.0,531.0,508.0
517.0,505.0,511.0,528.0,512.0
502.0,498.0,498.0,513.0,530.0
493.0,498.0,491.0,503.0,530.0
493.0,500.0,491.0,496.0,529.0
496.0,505.0,498.0,495.0,529.0
498.0,506.0,501.0,492.0,525.0
505.0,511.0,509.0,493.0,520.0
504.0,506.0,509.0,490.0,518.0
503.0,506.0,511.0,487.0,514.0
508.0,507.0,520.0,497.0,512.0
517.0,509.0,524.0,505.0,504.0
524.0,506.0,522.0,513.0,498.0
531.0,512.0,529.0,523.0,499.0
533.0,513.0,531.0,535.0,494.0
532.0,511.0,528.0,536.0,493.0
528.0,510.0,522.0,538.0,502.0
523.0,505.0,512.0,530.0,510.0
521.0,503.0,511.0,527.0,516.0
499.0,497.0,495.0,510.0,528.0
493.0,499.0,491.0,500.0,532.0
495.0,502.0,494.0,496.0,532.0
497.0,506.0,498.0,493.0,526.0
499.0,507.0,502.0,491.0,523.0
506.0,511.0,510.0,493.0,520.0
505.0,508.0,510.0,491.0,519.0
509.0,508.0,513.0,491.0,514.0
514.0,506.0,517.0,497.0,509.0
520.0,507.0,521.0,506.0,501.0
527.0,510.0,525.0,516.0,496.0
532.0,512.0,528.0,526.0,493.0
536.0,514.0,531.0,537.0,490.0
529.0,509.0,524.0,538.0,494.0
522.0,507.0,517.0,534.0,512.0
514.0,504.0,512.0,530.0,518.0
502.0,499.0,500.0,518.0,530.0
491.0,497.0,493.0,506.0,534.0
488.0,500.0,492.0,503.0,537.0
491.0,504.0,494.0,494.0,537.0
500.0,507.0,499.0,492.0,528.0
504.0,511.0,506.0,494.0,520.0
508.0,511.0,510.0,494.0,516.0
507.0,505.0,510.0,490.0,516.0
512.0,507.0,516.0,495.0,508.0
518.0,506.0,519.0,500.0,505.0
524.0,509.0,522.0,507.0,499.0
529.0,514.0,527.0,524.0,492.0
532.0,512.0,529.0,530.0,488.0
536.0,512.0,531.0,537.0,497.0
530.0,510.0,524.0,537.0,509.0
521.0,505.0,514.0,530.0,520.0
516.0,504.0,510.0,528.0,520.0
502.0,497.0,496.0,512.0,529.0
494.0,497.0,491.0,503.0,525.0
495.0,501.0,494.0,500.0,523.0
495.0,504.0,496.0,497.0,519.0
496.0,505.0,499.0,492.0,521.0
503.0,508.0,507.0,493.0,515.0
504.0,506.0,508.0,491.0,513.0
506.0,507.0,512.0,491.0,516.0
513.0,507.0,517.0,499.0,511.0
518.0,507.0,523.0,503.0,508.0
524.0,508.0,524.0,512.0,506.0
528.0,511.0,527.0,524.0,500.0
534.0,512.0,535.0,535.0,500.0
530.0,511.0,527.0,538.0,502.0
525.0,510.0,523.0,537.0,509.0
514.0,505.0,511.0,531.0,517.0
508.0,501.0,506.0,525.0,511.0
497.0,496.0,493.0,509.0,522.0
499.0,499.0,492.0,502.0,520.0
497.0,502.0,494.0,497.0,522.0
500.0,505.0,499.0,499.0,519.0
502.0,506.0,503.0,492.0,517.0
508.0,511.0,510.0,495.0,514.0
505.0,506.0,510.0,490.0,515.0
505.0,508.0,513.0,493.0,513.0
510.0,507.0,518.0,497.0,511.0
515.0,507.0,521.0,504.0,508.0
515.0,509.0,524.0,512.0,504.0
536.0,514.0,531.0,528.0,504.0
532.0,513.0,529.0,534.0,497.0
533.0,515.0,526.0,538.0,492.0
528.0,504.0,515.0,531.0,500.0
517.0,503.0,511.0,529.0,495.0
506.0,496.0,499.0,516.0,512.0
497.0,497.0,491.0,506.0,522.0
497.0,500.0,494.0,501.0,528.0
497.0,504.0,497.0,498.0,528.0
501.0,507.0,505.0,493.0,523.0
497.0,507.0,505.0,492.0,517.0
502.0,508.0,510.0,493.0,515.0
501.0,508.0,511.0,493.0,517.0
508.0,508.0,516.0,494.0,511.0
510.0,506.0,520.0,500.0,508.0
518.0,506.0,523.0,508.0,502.0
529.0,509.0,527.0,520.0,497.0
530.0,512.0,530.0,530.0,496.0
533.0,515.0,530.0,538.0,498.0
527.0,511.0,524.0,536.0,500.0
527.0,504.0,515.0,532.0,510.0
534.0,506.0,512.0,534.0,506.0
508.0,497.0,497.0,515.0,520.0
497.0,497.0,494.0,506.0,528.0
498.0,502.0,495.0,503.0,525.0
502.0,505.0,498.0,497.0,527.0
500.0,505.0,499.0,493.0,533.0
504.0,511.0,509.0,495.0,529.0
505.0,508.0,510.0,490.0,525.0
506.0,506.0,512.0,491.0,523.0
515.0,510.0,518.0,496.0,516.0
519.0,508.0,521.0,504.0,505.0
525.0,507.0,524.0,518.0,496.0
531.0,511.0,528.0,526.0,492.0
535.0,513.0,531.0,534.0,494.0
534.0,512.0,529.0,539.0,496.0
524.0,508.0,522.0,538.0,497.0
516.0,504.0,509.0,530.0,508.0
507.0,500.0,505.0,525.0,516.0
492.0,495.0,495.0,514.0,527.0
483.0,498.0,492.0,499.0,539.0
486.0,502.0,493.0,499.0,534.0
483.0,505.0,497.0,497.0,531.0
494.0,512.0,503.0,494.0,529.0
500.0,510.0,508.0,494.0,520.0
498.0,506.0,509.0,492.0,512.0
503.0,507.0,511.0,491.0,511.0
523.0,505.0,516.0,497.0,507.0
543.0,511.0,524.0,510.0,497.0
541.0,510.0,524.0,516.0,495.0
539.0,513.0,529.0,528.0,495.0
542.0,514.0,530.0,535.0,491.0
537.0,513.0,525.0,542.0,496.0
528.0,506.0,517.0,535.0,501.0
518.0,503.0,511.0,531.0,509.0
507.0,498.0,500.0,521.0,522.0
498.0,498.0,492.0,508.0,530.0
499.0,500.0,493.0,501.0,528.0
497.0,504.0,496.0,499.0,522.0
498.0,506.0,499.0,495.0,520.0
500.0,507.0,502.0,496.0,517.0
508.0,508.0,508.0,492.0,513.0
503.0,504.0,508.0,489.0,514.0
509.0,507.0,513.0,493.0,509.0
514.0,505.0,517.0,499.0,505.0
522.0,506.0,521.0,509.0,502.0
531.0,510.0,528.0,522.0,498.0
534.0,512.0,528.0,532.0,491.0
536.0,512.0,530.0,536.0,494.0
529.0,509.0,523.0,540.0,498.0
518.0,509.0,513.0,534.0,511.0
518.0,505.0,515.0,530.0,510.0
505.0,498.0,497.0,515.0,524.0
496.0,499.0,493.0,506.0,532.0
493.0,505.0,493.0,500.0,531.0
496.0,506.0,497.0,497.0,527.0
499.0,508.0,496.0,492.0,524.0
503.0,510.0,506.0,495.0,517.0
505.0,508.0,508.0,492.0,514.0
506.0,505.0,510.0,491.0,514.0
511.0,507.0,516.0,497.0,510.0
518.0,507.0,522.0,506.0,506.0
524.0,509.0,524.0,514.0,503.0
530.0,511.0,528.0,524.0,497.0
533.0,515.0,528.0,539.0,497.0
531.0,511.0,527.0,540.0,496.0
531.0,513.0,521.0,540.0,501.0
520.0,503.0,512.0,536.0,507.0
515.0,503.0,508.0,528.0,514.0
500.0,497.0,495.0,513.0,530.0
494.0,499.0,492.0,505.0,534.0
494.0,503.0,495.0,497.0,534.0
493.0,507.0,495.0,494.0,540.0
497.0,507.0,502.0,493.0,541.0
503.0,509.0,507.0,494.0,531.0
505.0,507.0,508.0,489.0,522.0
507.0,506.0,513.0,492.0,512.0
515.0,506.0,517.0,497.0,503.0
519.0,507.0,520.0,505.0,499.0
525.0,508.0,524.0,517.0,492.0
533.0,514.0,531.0,525.0,491.0
535.0,513.0,528.0,539.0,496.0
530.0,511.0,526.0,544.0,493.0
522.0,506.0,519.0,539.0,514.0
515.0,503.0,511.0,531.0,512.0
503.0,497.0,499.0,520.0,519.0
495.0,498.0,495.0,509.0,528.0
493.0,500.0,498.0,505.0,519.0
499.0,504.0,495.0,503.0,514.0
505.0,508.0,499.0,496.0,520.0
499.0,507.0,503.0,492.0,526.0
504.0,508.0,509.0,495.0,521.0
504.0,504.0,508.0,489.0,513.0
511.0,506.0,514.0,495.0,508.0
514.0,505.0,517.0,500.0,506.0
520.0,505.0,520.0,512.0,499.0
528.0,508.0,526.0,521.0,498.0
534.0,512.0,528.0,531.0,493.0
532.0,511.0,528.0,542.0,493.0
533.0,509.0,523.0,540.0,497.0
525.0,503.0,513.0,533.0,505.0
519.0,504.0,509.0,528.0,512.0
505.0,497.0,497.0,516.0,526.0
496.0,497.0,493.0,506.0,533.0
498.0,501.0,494.0,500.0,532.0
495.0,505.0,496.0,496.0,527.0
496.0,506.0,500.0,496.0,526.0
501.0,511.0,509.0,497.0,525.0
504.0,510.0,512.0,492.0,526.0
501.0,507.0,509.0,489.0,527.0
509.0,507.0,515.0,494.0,521.0
525.0,508.0,521.0,503.0,505.0
526.0,508.0,523.0,514.0,499.0
534.0,511.0,531.0,522.0,494.0
541.0,512.0,529.0,534.0,484.0
540.0,512.0,528.0,541.0,490.0
532.0,509.0,522.0,538.0,500.0
520.0,502.0,511.0,531.0,511.0
515.0,502.0,507.0,528.0,520.0
501.0,497.0,495.0,513.0,527.0
491.0,496.0,491.0,504.0,527.0
492.0,501.0,493.0,500.0,519.0
494.0,506.0,498.0,499.0,518.0
496.0,507.0,502.0,494.0,519.0
501.0,510.0,507.0,496.0,520.0
496.0,503.0,507.0,490.0,522.0
502.0,507.0,511.0,493.0,512.0
514.0,506.0,516.0,499.0,508.0
525.0,507.0,521.0,507.0,504.0
534.0,511.0,525.0,517.0,500.0
541.0,516.0,527.0,532.0,496.0
545.0,512.0,529.0,535.0,492.0
536.0,512.0,526.0,540.0,495.0
529.0,506.0,517.0,537.0,501.0
517.0,503.0,508.0,529.0,510.0
505.0,498.0,498.0,520.0,521.0
497.0,496.0,492.0,509.0,528.0
495.0,500.0,494.0,503.0,531.0
496.0,505.0,495.0,499.0,529.0
497.0,505.0,498.0,496.0,526.0
501.0,508.0,503.0,492.0,522.0
505.0,506.0,507.0,493.0,520.0
506.0,506.0,508.0,491.0,516.0
508.0,508.0,513.0,494.0,512.0
515.0,505.0,517.0,501.0,510.0
522.0,506.0,521.0,509.0,503.0
528.0,513.0,525.0,526.0,498.0
534.0,513.0,529.0,532.0,493.0
536.0,513.0,529.0,540.0,494.0
536.0,513.0,523.0,539.0,496.0
521.0,504.0,515.0,537.0,514.0
515.0,503.0,510.0,531.0,513.0
499.0,494.0,496.0,515.0,525.0
493.0,495.0,490.0,506.0,529.0
490.0,506.0,492.0,506.0,530.0
493.0,503.0,498.0,501.0,528.0
497.0,506.0,499.0,495.0,525.0
502.0,510.0,506.0,494.0,519.0
507.0,509.0,510.0,494.0,516.0
507.0,505.0,509.0,491.0,517.0
511.0,507.0,516.0,497.0,511.0
518.0,508.0,520.0,502.0,506.0
523.0,508.0,523.0,512.0,501.0
533.0,510.0,527.0,523.0,494.0
535.0,514.0,531.0,535.0,494.0
533.0,510.0,526.0,538.0,496.0
531.0,511.0,524.0,540.0,500.0
520.0,505.0,513.0,533.0,509.0
513.0,502.0,508.0,533.0,516.0
498.0,497.0,496.0,519.0,528.0
492.0,499.0,493.0,507.0,533.0
491.0,502.0,493.0,500.0,534.0
493.0,505.0,498.0,495.0,531.0
497.0,506.0,501.0,494.0,526.0
502.0,509.0,508.0,495.0,523.0
502.0,507.0,513.0,490.0,525.0
516.0,508.0,515.0,495.0,520.0
518.0,509.0,518.0,498.0,516.0
521.0,508.0,522.0,508.0,506.0
524.0,508.0,527.0,513.0,496.0
533.0,514.0,530.0,529.0,491.0
534.0,512.0,530.0,538.0,489.0
531.0,511.0,526.0,540.0,496.0
524.0,506.0,519.0,535.0,506.0
516.0,500.0,510.0,529.0,518.0
508.0,498.0,500.0,519.0,522.0
497.0,497.0,494.0,508.0,529.0
492.0,500.0,493.0,505.0,522.0
494.0,503.0,496.0,501.0,521.0
500.0,507.0,500.0,497.0,525.0
499.0,506.0,502.0,491.0,527.0
505.0,510.0,507.0,491.0,517.0
504.0,510.0,509.0,491.0,518.0
510.0,508.0,516.0,496.0,510.0
520.0,507.0,520.0,500.0,506.0
521.0,507.0,522.0,510.0,508.0
528.0,509.0,524.0,519.0,502.0
535.0,513.0,533.0,531.0,491.0
534.0,510.0,529.0,540.0,487.0
528.0,511.0,524.0,541.0,488.0
523.0,503.0,516.0,542.0,502.0
519.0,504.0,510.0,533.0,512.0
502.0,498.0,498.0,518.0,525.0
494.0,498.0,492.0,509.0,530.0
490.0,497.0,492.0,503.0,533.0
494.0,503.0,497.0,500.0,530.0
498.0,507.0,501.0,497.0,520.0
505.0,508.0,505.0,493.0,514.0
503.0,509.0,510.0,494.0,518.0
505.0,506.0,511.0,492.0,519.0
512.0,507.0,518.0,495.0,511.0
515.0,506.0,521.0,502.0,508.0
522.0,507.0,521.0,513.0,504.0
531.0,512.0,529.0,526.0,496.0
533.0,510.0,528.0,533.0,491.0
535.0,511.0,527.0,540.0,490.0
535.0,514.0,522.0,546.0,497.0
525.0,505.0,513.0,534.0,508.0
518.0,504.0,510.0,531.0,511.0
502.0,498.0,496.0,515.0,525.0
496.0,498.0,491.0,506.0,528.0
494.0,501.0,494.0,501.0,528.0
496.0,505.0,498.0,496.0,524.0
496.0,505.0,500.0,494.0,524.0
506.0,511.0,509.0,497.0,521.0
508.0,508.0,509.0,491.0,520.0
507.0,505.0,512.0,493.0,520.0
515.0,508.0,519.0,499.0,514.0
524.0,508.0,522.0,507.0,502.0
525.0,509.0,528.0,516.0,497.0
526.0,511.0,528.0,527.0,497.0
533.0,513.0,530.0,538.0,495.0
527.0,511.0,527.0,548.0,501.0
524.0,506.0,520.0,538.0,501.0
519.0,504.0,511.0,534.0,505.0
513.0,499.0,503.0,522.0,519.0
502.0,497.0,494.0,511.0,529.0
503.0,498.0,492.0,503.0,530.0
501.0,506.0,495.0,500.0,530.0
499.0,508.0,499.0,497.0,525.0
499.0,506.0,501.0,496.0,524.0
512.0,509.0,508.0,496.0,516.0
515.0,508.0,509.0,494.0,519.0
514.0,508.0,515.0,495.0,514.0
515.0,506.0,518.0,499.0,514.0
519.0,507.0,523.0,510.0,511.0
523.0,508.0,524.0,519.0,506.0
531.0,512.0,530.0,531.0,504.0
533.0,512.0,528.0,536.0,500.0
535.0,513.0,526.0,542.0,499.0
524.0,508.0,515.0,535.0,504.0
526.0,504.0,511.0,531.0,508.0
511.0,498.0,498.0,518.0,525.0
504.0,497.0,494.0,507.0,529.0
497.0,501.0,493.0,502.0,526.0
496.0,503.0,495.0,497.0,521.0
499.0,505.0,499.0,495.0,517.0
504.0,509.0,506.0,495.0,514.0
505.0,508.0,509.0,494.0,512.0
501.0,504.0,508.0,491.0,518.0
508.0,506.0,520.0,494.0,511.0
514.0,506.0,520.0,501.0,506.0
519.0,505.0,522.0,509.0,501.0
529.0,510.0,529.0,523.0,498.0
537.0,513.0,530.0,534.0,491.0
539.0,512.0,527.0,539.0,496.0
531.0,507.0,523.0,539.0,497.0
519.0,503.0,512.0,532.0,508.0
514.0,504.0,508.0,529.0,510.0
499.0,495.0,494.0,518.0,526.0
493.0,496.0,492.0,505.0,531.0
497.0,502.0,495.0,501.0,532.0
504.0,506.0,500.0,496.0,527.0
499.0,504.0,502.0,492.0,524.0
504.0,511.0,507.0,495.0,522.0
509.0,509.0,511.0,492.0,518.0
507.0,506.0,512.0,493.0,515.0
516.0,508.0,515.0,496.0,510.0
519.0,508.0,523.0,510.0,504.0
525.0,510.0,526.0,517.0,502.0
528.0,511.0,527.0,526.0,497.0
533.0,512.0,530.0,537.0,496.0
534.0,513.0,528.0,541.0,502.0
527.0,508.0,520.0,536.0,512.0
516.0,501.0,509.0,530.0,521.0
507.0,504.0,503.0,527.0,526.0
493.0,497.0,494.0,512.0,528.0
494.0,501.0,493.0,505.0,524.0
497.0,504.0,495.0,502.0,519.0
494.0,505.0,498.0,498.0,522.0
495.0,505.0,501.0,494.0,524.0
502.0,509.0,509.0,498.0,520.0
500.0,506.0,510.0,494.0,520.0
505.0,508.0,516.0,496.0,516.0
512.0,507.0,519.0,501.0,505.0
519.0,508.0,523.0,511.0,499.0
523.0,510.0,525.0,519.0,495.0
526.0,511.0,527.0,530.0,493.0
542.0,512.0,529.0,539.0,493.0
538.0,511.0,526.0,543.0,500.0
524.0,504.0,516.0,535.0,506.0
515.0,502.0,510.0,532.0,507.0
508.0,498.0,498.0,523.0,521.0
504.0,501.0,491.0,508.0,525.0
497.0,499.0,493.0,502.0,531.0
495.0,501.0,494.0,497.0,529.0
504.0,508.0,499.0,497.0,527.0
505.0,509.0,505.0,495.0,520.0
509.0,509.0,510.0,498.0,515.0
507.0,504.0,510.0,491.0,516.0
513.0,506.0,516.0,496.0,511.0
518.0,506.0,519.0,503.0,508.0
523.0,505.0,525.0,509.0,502.0
531.0,509.0,530.0,523.0,500.0
534.0,512.0,531.0,534.0,497.0
534.0,512.0,528.0,541.0,501.0
530.0,509.0,522.0,540.0,502.0
515.0,503.0,510.0,532.0,512.0
513.0,502.0,508.0,534.0,507.0
502.0,495.0,494.0,515.0,519.0
492.0,497.0,490.0,505.0,519.0
494.0,501.0,494.0,502.0,529.0
497.0,506.0,499.0,498.0,528.0
501.0,507.0,503.0,492.0,524.0
503.0,509.0,508.0,496.0,516.0
504.0,507.0,509.0,493.0,515.0
504.0,504.0,511.0,493.0,514.0
510.0,505.0,517.0,499.0,509.0
515.0,506.0,521.0,506.0,507.0
525.0,508.0,523.0,515.0,504.0
537.0,510.0,528.0,525.0,502.0
537.0,511.0,530.0,534.0,498.0
535.0,511.0,530.0,541.0,496.0
526.0,506.0,519.0,539.0,495.0
520.0,501.0,508.0,532.0,506.0
509.0,499.0,503.0,526.0,514.0
497.0,497.0,494.0,511.0,525.0
495.0,499.0,491.0,503.0,531.0
495.0,503.0,496.0,501.0,532.0
498.0,506.0,498.0,496.0,527.0
499.0,507.0,503.0,493.0,527.0
502.0,509.0,509.0,495.0,522.0
505.0,507.0,509.0,493.0,519.0
512.0,511.0,514.0,498.0,506.0
513.0,506.0,520.0,500.0,509.0
521.0,508.0,524.0,510.0,502.0
529.0,509.0,526.0,518.0,497.0
540.0,514.0,527.0,532.0,493.0
539.0,511.0,529.0,538.0,492.0
535.0,511.0,526.0,543.0,495.0
524.0,505.0,516.0,536.0,506.0
514.0,501.0,509.0,530.0,513.0
503.0,497.0,499.0,519.0,524.0
500.0,497.0,498.0,508.0,530.0
498.0,503.0,493.0,504.0,531.0
497.0,505.0,496.0,500.0,529.0
504.0,507.0,499.0,495.0,526.0
503.0,509.0,505.0,495.0,523.0
506.0,509.0,510.0,494.0,519.0
499.0,505.0,508.0,491.0,519.0
508.0,505.0,514.0,496.0,515.0
514.0,506.0,518.0,502.0,509.0
521.0,506.0,522.0,512.0,504.0
527.0,510.0,528.0,525.0,503.0
528.0,512.0,534.0,532.0,497.0
538.0,514.0,529.0,540.0,500.0
535.0,511.0,525.0,539.0,498.0
521.0,506.0,512.0,533.0,506.0
515.0,500.0,509.0,531.0,510.0
501.0,496.0,495.0,515.0,526.0
494.0,501.0,492.0,507.0,534.0
496.0,501.0,495.0,503.0,526.0
495.0,505.0,498.0,499.0,521.0
496.0,504.0,501.0,493.0,518.0
504.0,509.0,508.0,497.0,517.0
504.0,505.0,510.0,499.0,514.0
510.0,507.0,512.0,493.0,515.0
519.0,509.0,518.0,500.0,510.0
521.0,508.0,521.0,506.0,506.0
524.0,508.0,524.0,515.0,502.0
531.0,515.0,527.0,530.0,500.0
535.0,513.0,529.0,538.0,493.0
535.0,513.0,528.0,542.0,495.0
527.0,508.0,518.0,538.0,502.0
516.0,503.0,511.0,531.0,509.0
509.0,501.0,505.0,527.0,512.0
497.0,497.0,495.0,516.0,518.0
489.0,498.0,491.0,506.0,521.0
494.0,500.0,491.0,499.0,525.0
497.0,505.0,498.0,500.0,525.0
505.0,510.0,503.0,496.0,520.0
507.0,510.0,509.0,496.0,515.0
509.0,508.0,510.0,493.0,516.0
510.0,505.0,513.0,494.0,516.0
513.0,505.0,520.0,501.0,513.0
519.0,507.0,522.0,508.0,509.0
524.0,510.0,526.0,524.0,503.0
532.0,512.0,529.0,530.0,495.0
535.0,513.0,530.0,537.0,491.0
533.0,511.0,526.0,546.0,492.0
521.0,509.0,516.0,539.0,504.0
519.0,503.0,509.0,531.0,511.0
505.0,497.0,498.0,521.0,518.0
496.0,496.0,492.0,510.0,532.0
496.0,501.0,494.0,505.0,533.0
496.0,503.0,495.0,499.0,526.0
498.0,506.0,498.0,497.0,519.0
503.0,508.0,505.0,496.0,521.0
507.0,508.0,514.0,498.0,516.0
505.0,506.0,510.0,492.0,518.0
506.0,506.0,516.0,493.0,512.0
510.0,505.0,519.0,502.0,512.0
521.0,507.0,527.0,512.0,502.0
525.0,512.0,529.0,523.0,494.0
528.0,510.0,529.0,532.0,491.0
533.0,511.0,529.0,540.0,496.0
528.0,509.0,523.0,542.0,510.0
529.0,504.0,514.0,535.0,511.0
529.0,505.0,511.0,530.0,509.0
507.0,497.0,497.0,519.0,521.0
496.0,497.0,492.0,506.0,529.0
493.0,500.0,493.0,499.0,529.0
499.0,505.0,498.0,499.0,522.0
501.0,507.0,502.0,494.0,528.0
502.0,508.0,507.0,496.0,518.0
503.0,507.0,511.0,491.0,513.0
505.0,504.0,509.0,491.0,511.0
516.0,507.0,519.0,498.0,509.0
518.0,508.0,522.0,508.0,499.0
525.0,507.0,523.0,514.0,497.0
530.0,510.0,528.0,526.0,494.0
540.0,513.0,530.0,535.0,490.0
538.0,512.0,528.0,541.0,494.0
535.0,507.0,519.0,539.0,499.0
519.0,501.0,510.0,528.0,518.0
509.0,505.0,503.0,524.0,521.0
502.0,497.0,493.0,511.0,526.0
495.0,500.0,494.0,504.0,533.0
493.0,502.0,495.0,499.0,529.0
502.0,507.0,503.0,495.0,519.0
499.0,507.0,503.0,495.0,519.0
503.0,509.0,509.0,494.0,518.0
503.0,506.0,508.0,494.0,515.0
505.0,506.0,511.0,494.0,505.0
513.0,509.0,517.0,498.0,502.0
518.0,506.0,521.0,507.0,503.0
523.0,508.0,525.0,517.0,503.0
535.0,513.0,530.0,529.0,501.0
541.0,513.0,530.0,540.0,493.0
535.0,511.0,527.0,542.0,494.0
523.0,505.0,517.0,536.0,502.0
513.0,501.0,511.0,531.0,511.0
502.0,497.0,497.0,519.0,523.0
492.0,495.0,491.0,508.0,529.0
492.0,498.0,496.0,504.0,529.0
499.0,507.0,495.0,500.0,529.0
507.0,512.0,502.0,498.0,522.0
508.0,510.0,506.0,496.0,519.0
510.0,510.0,510.0,495.0,512.0
508.0,506.0,510.0,493.0,514.0
511.0,505.0,518.0,493.0,512.0
516.0,505.0,519.0,503.0,512.0
520.0,506.0,522.0,513.0,507.0
527.0,511.0,529.0,523.0,501.0
531.0,510.0,529.0,533.0,493.0
534.0,512.0,529.0,540.0,489.0
530.0,510.0,526.0,542.0,495.0
520.0,509.0,513.0,535.0,503.0
517.0,505.0,511.0,533.0,509.0
500.0,498.0,497.0,517.0,535.0
493.0,497.0,491.0,506.0,539.0
494.0,503.0,495.0,503.0,538.0
494.0,505.0,498.0,498.0,528.0
496.0,505.0,501.0,491.0,520.0
505.0,508.0,506.0,495.0,509.0
506.0,509.0,510.0,494.0,509.0
505.0,505.0,510.0,491.0,513.0
514.0,507.0,517.0,498.0,507.0
519.0,508.0,522.0,506.0,503.0
524.0,508.0,528.0,514.0,500.0
531.0,512.0,528.0,524.0,492.0
536.0,513.0,531.0,537.0,491.0
532.0,510.0,527.0,541.0,493.0
527.0,509.0,522.0,539.0,504.0
516.0,503.0,512.0,531.0,514.0
518.0,504.0,507.0,527.0,517.0
502.0,498.0,495.0,515.0,526.0
495.0,500.0,494.0,502.0,530.0
493.0,501.0,494.0,500.0,531.0
499.0,509.0,499.0,498.0,530.0
499.0,508.0,502.0,494.0,526.0
506.0,510.0,508.0,494.0,519.0
506.0,507.0,510.0,493.0,518.0
510.0,508.0,518.0,495.0,513.0
516.0,508.0,518.0,499.0,507.0
521.0,507.0,522.0,508.0,502.0
525.0,507.0,524.0,517.0,500.0
532.0,511.0,529.0,530.0,497.0
534.0,513.0,531.0,538.0,502.0
532.0,512.0,527.0,541.0,502.0
521.0,511.0,517.0,536.0,510.0
514.0,502.0,510.0,530.0,515.0
505.0,497.0,500.0,522.0,519.0
498.0,495.0,491.0,510.0,526.0
494.0,500.0,497.0,503.0,531.0
494.0,503.0,495.0,499.0,528.0
497.0,505.0,500.0,496.0,525.0
502.0,511.0,506.0,496.0,522.0
504.0,507.0,509.0,496.0,516.0
503.0,510.0,509.0,498.0,516.0
509.0,513.0,515.0,496.0,512.0
511.0,507.0,520.0,501.0,512.0
520.0,507.0,523.0,511.0,507.0
529.0,512.0,529.0,522.0,503.0
534.0,512.0,530.0,532.0,497.0
535.0,512.0,529.0,539.0,493.0
535.0,514.0,527.0,542.0,495.0
523.0,506.0,515.0,535.0,506.0
515.0,504.0,511.0,532.0,513.0
500.0,497.0,497.0,518.0,530.0
491.0,495.0,490.0,506.0,529.0
495.0,502.0,492.0,503.0,516.0
495.0,505.0,497.0,501.0,522.0
497.0,507.0,501.0,492.0,524.0
505.0,512.0,508.0,496.0,515.0
510.0,509.0,511.0,494.0,516.0
506.0,504.0,514.0,491.0,515.0
517.0,508.0,521.0,496.0,517.0
518.0,507.0,525.0,505.0,506.0
523.0,508.0,526.0,514.0,498.0
529.0,511.0,527.0,525.0,499.0
535.0,515.0,530.0,536.0,498.0
535.0,513.0,528.0,545.0,495.0
531.0,510.0,523.0,540.0,500.0
519.0,503.0,511.0,532.0,506.0
514.0,503.0,508.0,529.0,507.0
500.0,498.0,496.0,514.0,526.0
494.0,499.0,492.0,505.0,532.0
497.0,503.0,495.0,502.0,530.0
498.0,507.0,500.0,498.0,528.0
498.0,507.0,503.0,496.0,524.0
504.0,509.0,508.0,497.0,515.0
505.0,506.0,510.0,492.0,516.0
508.0,506.0,516.0,495.0,513.0
516.0,509.0,519.0,500.0,510.0
520.0,509.0,524.0,510.0,508.0
522.0,509.0,526.0,515.0,499.0
531.0,513.0,530.0,529.0,496.0
533.0,511.0,531.0,538.0,499.0
532.0,512.0,527.0,542.0,494.0
526.0,508.0,519.0,539.0,503.0
524.0,504.0,512.0,533.0,510.0
513.0,499.0,501.0,522.0,520.0
500.0,498.0,495.0,512.0,529.0
493.0,500.0,494.0,504.0,533.0
491.0,503.0,495.0,499.0,530.0
496.0,507.0,500.0,497.0,527.0
499.0,510.0,506.0,494.0,521.0
500.0,509.0,510.0,494.0,517.0
504.0,505.0,510.0,491.0,518.0
511.0,507.0,516.0,496.0,518.0
520.0,508.0,520.0,503.0,514.0
532.0,508.0,524.0,510.0,509.0
533.0,510.0,527.0,521.0,502.0
536.0,512.0,530.0,532.0,497.0
536.0,512.0,529.0,539.0,492.0
532.0,508.0,524.0,541.0,487.0
520.0,504.0,517.0,534.0,504.0
520.0,506.0,511.0,533.0,512.0
505.0,499.0,499.0,518.0,526.0
493.0,498.0,493.0,507.0,530.0
489.0,501.0,493.0,501.0,529.0
491.0,503.0,497.0,503.0,528.0
498.0,506.0,505.0,495.0,525.0
501.0,509.0,507.0,496.0,517.0
505.0,507.0,510.0,493.0,514.0
509.0,504.0,510.0,491.0,518.0
521.0,509.0,519.0,498.0,512.0
522.0,507.0,525.0,505.0,503.0
525.0,508.0,523.0,513.0,492.0
534.0,512.0,529.0,527.0,487.0
539.0,517.0,533.0,537.0,491.0
535.0,512.0,529.0,543.0,492.0
528.0,509.0,523.0,539.0,504.0
516.0,503.0,512.0,532.0,512.0
512.0,502.0,510.0,529.0,514.0
498.0,497.0,497.0,513.0,525.0
494.0,497.0,492.0,505.0,523.0
496.0,502.0,494.0,500.0,528.0
499.0,508.0,501.0,499.0,524.0
501.0,508.0,503.0,499.0,528.0
503.0,509.0,509.0,496.0,524.0
505.0,505.0,511.0,491.0,517.0
504.0,503.0,512.0,494.0,515.0
512.0,506.0,518.0,500.0,512.0
519.0,508.0,523.0,509.0,505.0
529.0,512.0,526.0,520.0,503.0
530.0,512.0,530.0,529.0,493.0
534.0,513.0,531.0,540.0,496.0
535.0,510.0,524.0,542.0,494.0
529.0,509.0,521.0,540.0,503.0
518.0,503.0,510.0,532.0,513.0
505.0,502.0,499.0,522.0,522.0
497.0,496.0,495.0,516.0,526.0
493.0,499.0,494.0,505.0,532.0
493.0,501.0,495.0,499.0,528.0
496.0,506.0,499.0,498.0,520.0
500.0,508.0,503.0,496.0,517.0
505.0,509.0,510.0,495.0,512.0
506.0,504.0,508.0,492.0,514.0
508.0,505.0,515.0,496.0,510.0
516.0,505.0,521.0,503.0,506.0
521.0,508.0,524.0,512.0,503.0
526.0,510.0,528.0,522.0,497.0
532.0,513.0,531.0,534.0,494.0
531.0,510.0,529.0,539.0,494.0
533.0,510.0,525.0,540.0,497.0
527.0,504.0,515.0,536.0,505.0
518.0,502.0,510.0,531.0,512.0
503.0,496.0,498.0,521.0,526.0
496.0,498.0,495.0,507.0,535.0
494.0,500.0,490.0,501.0,536.0
497.0,505.0,498.0,500.0,527.0
496.0,505.0,500.0,496.0,518.0
502.0,508.0,510.0,495.0,516.0
506.0,509.0,511.0,497.0,515.0
506.0,505.0,511.0,494.0,516.0
512.0,506.0,517.0,499.0,509.0
516.0,505.0,519.0,504.0,506.0
522.0,506.0,523.0,513.0,501.0
531.0,514.0,528.0,526.0,494.0
532.0,512.0,533.0,535.0,500.0
534.0,510.0,527.0,540.0,492.0
532.0,510.0,524.0,541.0,501.0
517.0,503.0,511.0,533.0,514.0
514.0,505.0,510.0,531.0,516.0
499.0,499.0,497.0,516.0,522.0
490.0,499.0,494.0,505.0,524.0
493.0,501.0,495.0,500.0,529.0
495.0,506.0,499.0,499.0,530.0
498.0,506.0,501.0,493.0,520.0
503.0,509.0,508.0,496.0,516.0
505.0,507.0,511.0,493.0,515.0
505.0,505.0,511.0,493.0,511.0
509.0,508.0,517.0,498.0,509.0
516.0,506.0,522.0,507.0,507.0
524.0,507.0,529.0,517.0,503.0
529.0,512.0,529.0,529.0,496.0
534.0,513.0,533.0,539.0,496.0
530.0,510.0,526.0,542.0,499.0
524.0,508.0,521.0,541.0,510.0
517.0,504.0,511.0,532.0,511.0
517.0,500.0,503.0,523.0,515.0
502.0,498.0,496.0,514.0,525.0
498.0,501.0,499.0,508.0,527.0
495.0,502.0,495.0,499.0,529.0
498.0,506.0,500.0,495.0,525.0
501.0,507.0,504.0,494.0,524.0
506.0,511.0,511.0,496.0,523.0
506.0,507.0,510.0,491.0,521.0
508.0,505.0,514.0,499.0,512.0
514.0,504.0,518.0,499.0,505.0
522.0,507.0,523.0,513.0,498.0
531.0,512.0,528.0,522.0,495.0
536.0,511.0,530.0,531.0,494.0
538.0,512.0,530.0,538.0,492.0
536.0,513.0,526.0,542.0,495.0
526.0,506.0,517.0,537.0,503.0
514.0,504.0,511.0,531.0,513.0
501.0,497.0,500.0,519.0,525.0
494.0,497.0,494.0,508.0,535.0
492.0,501.0,494.0,502.0,531.0
493.0,504.0,498.0,498.0,528.0
497.0,504.0,501.0,491.0,525.0
498.0,507.0,505.0,494.0,520.0
502.0,507.0,509.0,495.0,516.0
505.0,504.0,511.0,494.0,516.0
513.0,505.0,517.0,493.0,508.0
518.0,506.0,521.0,503.0,508.0
523.0,507.0,524.0,514.0,504.0
533.0,510.0,529.0,524.0,500.0
536.0,513.0,532.0,538.0,494.0
533.0,510.0,529.0,541.0,490.0
530.0,509.0,524.0,542.0,499.0
517.0,502.0,515.0,534.0,517.0
511.0,502.0,511.0,527.0,518.0
500.0,497.0,499.0,513.0,524.0
496.0,497.0,497.0,505.0,528.0
495.0,502.0,495.0,500.0,531.0
498.0,506.0,500.0,497.0,526.0
497.0,506.0,502.0,494.0,525.0
503.0,510.0,509.0,494.0,515.0
511.0,508.0,515.0,491.0,514.0
512.0,508.0,510.0,490.0,512.0
512.0,503.0,517.0,496.0,505.0
515.0,506.0,521.0,506.0,499.0
522.0,506.0,523.0,515.0,495.0
527.0,511.0,530.0,529.0,492.0
530.0,510.0,529.0,535.0,498.0
531.0,512.0,529.0,541.0,502.0
519.0,506.0,520.0,540.0,510.0
520.0,503.0,510.0,534.0,518.0
514.0,501.0,503.0,517.0,521.0
503.0,497.0,495.0,510.0,524.0
499.0,500.0,493.0,510.0,524.0
498.0,503.0,496.0,501.0,522.0
502.0,507.0,501.0,499.0,523.0
501.0,507.0,504.0,493.0,522.0
505.0,510.0,510.0,495.0,518.0
504.0,506.0,510.0,492.0,520.0
507.0,506.0,513.0,496.0,516.0
512.0,507.0,519.0,501.0,510.0
522.0,509.0,524.0,511.0,502.0
529.0,509.0,526.0,520.0,496.0
538.0,513.0,531.0,532.0,490.0
535.0,511.0,530.0,539.0,499.0
528.0,511.0,526.0,540.0,501.0
517.0,504.0,515.0,536.0,513.0
507.0,501.0,507.0,530.0,515.0
497.0,496.0,497.0,519.0,526.0
494.0,497.0,495.0,510.0,532.0
490.0,501.0,494.0,500.0,539.0
506.0,504.0,497.0,498.0,526.0
503.0,506.0,500.0,496.0,522.0
503.0,508.0,508.0,497.0,515.0
506.0,509.0,513.0,496.0,512.0
501.0,505.0,511.0,492.0,524.0
515.0,508.0,518.0,499.0,509.0
521.0,508.0,522.0,506.0,499.0
531.0,507.0,523.0,513.0,500.0
537.0,510.0,529.0,524.0,498.0
537.0,512.0,531.0,535.0,492.0
541.0,513.0,529.0,541.0,493.0
534.0,508.0,522.0,541.0,495.0
520.0,503.0,514.0,534.0,509.0
516.0,506.0,509.0,531.0,518.0
503.0,500.0,499.0,518.0,525.0
497.0,500.0,495.0,509.0,525.0
490.0,502.0,494.0,500.0,527.0
494.0,504.0,499.0,497.0,525.0
495.0,507.0,502.0,495.0,527.0
501.0,510.0,509.0,498.0,520.0
504.0,508.0,508.0,492.0,517.0
506.0,505.0,511.0,491.0,515.0
524.0,506.0,516.0,498.0,509.0
529.0,507.0,523.0,507.0,508.0
530.0,508.0,526.0,517.0,504.0
533.0,512.0,529.0,528.0,498.0
538.0,516.0,531.0,539.0,497.0
533.0,511.0,527.0,543.0,494.0
529.0,507.0,522.0,543.0,502.0
516.0,503.0,513.0,531.0,512.0
507.0,498.0,503.0,524.0,522.0
496.0,496.0,494.0,512.0,529.0
494.0,499.0,494.0,506.0,531.0
494.0,502.0,497.0,503.0,525.0
497.0,506.0,501.0,498.0,524.0
497.0,506.0,503.0,494.0,521.0
503.0,510.0,510.0,496.0,512.0
504.0,506.0,510.0,494.0,511.0
510.0,507.0,516.0,499.0,509.0
516.0,507.0,520.0,502.0,506.0
523.0,508.0,525.0,511.0,502.0
525.0,509.0,527.0,524.0,508.0
531.0,511.0,530.0,534.0,521.0
534.0,513.0,530.0,535.0,503.0
532.0,514.0,526.0,545.0,505.0
521.0,510.0,518.0,537.0,510.0
514.0,503.0,510.0,531.0,514.0
504.0,500.0,498.0,520.0,519.0
494.0,498.0,493.0,509.0,524.0
493.0,500.0,494.0,502.0,523.0
493.0,504.0,497.0,498.0,520.0
495.0,503.0,499.0,496.0,520.0
506.0,509.0,507.0,495.0,516.0
504.0,509.0,511.0,495.0,519.0
506.0,504.0,511.0,495.0,520.0
511.0,512.0,516.0,498.0,512.0
515.0,511.0,519.0,505.0,507.0
525.0,511.0,525.0,513.0,506.0
529.0,510.0,528.0,523.0,501.0
534.0,513.0,532.0,535.0,498.0
532.0,511.0,528.0,538.0,500.0
527.0,508.0,522.0,539.0,499.0
518.0,502.0,511.0,533.0,509.0
513.0,501.0,513.0,530.0,509.0
498.0,496.0,495.0,514.0,524.0
492.0,497.0,491.0,504.0,531.0
494.0,502.0,496.0,501.0,531.0
496.0,507.0,500.0,498.0,529.0
497.0,507.0,503.0,494.0,531.0
506.0,513.0,508.0,497.0,522.0
508.0,509.0,512.0,494.0,515.0
507.0,509.0,510.0,492.0,515.0
513.0,507.0,517.0,498.0,508.0
518.0,507.0,522.0,506.0,503.0
523.0,508.0,525.0,515.0,501.0
529.0,516.0,528.0,532.0,496.0
535.0,515.0,528.0,535.0,491.0
532.0,516.0,526.0,541.0,495.0
523.0,507.0,520.0,538.0,503.0
515.0,502.0,512.0,531.0,514.0
512.0,501.0,505.0,525.0,520.0
498.0,498.0,497.0,514.0,530.0
492.0,499.0,493.0,502.0,531.0
492.0,504.0,495.0,500.0,528.0
496.0,505.0,499.0,496.0,525.0
501.0,507.0,503.0,494.0,527.0
505.0,509.0,507.0,494.0,519.0
506.0,511.0,510.0,495.0,518.0
509.0,509.0,516.0,496.0,511.0
517.0,509.0,520.0,502.0,507.0
522.0,510.0,524.0,512.0,502.0
525.0,510.0,526.0,519.0,499.0
535.0,516.0,529.0,534.0,494.0
541.0,512.0,528.0,537.0,493.0
533.0,513.0,527.0,544.0,497.0
521.0,507.0,518.0,536.0,508.0
510.0,502.0,510.0,531.0,518.0
497.0,498.0,499.0,519.0,528.0
489.0,497.0,494.0,510.0,534.0
490.0,501.0,496.0,505.0,527.0
488.0,504.0,497.0,499.0,523.0
501.0,506.0,502.0,497.0,525.0
507.0,508.0,507.0,495.0,519.0
512.0,508.0,510.0,495.0,519.0
512.0,505.0,514.0,492.0,520.0
514.0,508.0,517.0,499.0,508.0
516.0,507.0,520.0,504.0,500.0
521.0,506.0,523.0,511.0,508.0
530.0,511.0,527.0,526.0,499.0
533.0,511.0,529.0,535.0,496.0
531.0,511.0,530.0,540.0,503.0
526.0,508.0,522.0,539.0,502.0
526.0,505.0,516.0,536.0,503.0
517.0,502.0,510.0,534.0,510.0
502.0,499.0,497.0,517.0,527.0
500.0,499.0,494.0,509.0,525.0
500.0,502.0,498.0,503.0,526.0
501.0,506.0,499.0,501.0,522.0
502.0,506.0,502.0,497.0,521.0
509.0,510.0,511.0,495.0,520.0
504.0,507.0,511.0,494.0,518.0
497.0,504.0,510.0,491.0,519.0
502.0,505.0,518.0,498.0,511.0
515.0,509.0,526.0,509.0,504.0
519.0,508.0,525.0,516.0,503.0
523.0,510.0,528.0,527.0,503.0
531.0,513.0,532.0,536.0,497.0
537.0,513.0,529.0,541.0,494.0
545.0,511.0,522.0,540.0,503.0
526.0,503.0,512.0,532.0,510.0
515.0,502.0,504.0,525.0,517.0
500.0,497.0,494.0,510.0,524.0
495.0,500.0,490.0,502.0,527.0
496.0,503.0,495.0,500.0,525.0
502.0,506.0,500.0,496.0,524.0
501.0,508.0,504.0,495.0,529.0
505.0,508.0,510.0,494.0,524.0
506.0,507.0,511.0,490.0,521.0
511.0,505.0,513.0,493.0,517.0
515.0,505.0,519.0,500.0,515.0
519.0,511.0,522.0,509.0,509.0
528.0,510.0,528.0,520.0,492.0
532.0,511.0,528.0,530.0,489.0
536.0,511.0,531.0,539.0,491.0
536.0,510.0,528.0,541.0,499.0
523.0,511.0,517.0,538.0,505.0
515.0,503.0,511.0,535.0,514.0
503.0,497.0,503.0,521.0,523.0
494.0,496.0,493.0,510.0,529.0
491.0,498.0,492.0,502.0,528.0
490.0,505.0,496.0,503.0,531.0
495.0,506.0,500.0,495.0,526.0
498.0,508.0,505.0,495.0,520.0
501.0,510.0,509.0,495.0,513.0
502.0,505.0,511.0,495.0,518.0
510.0,507.0,520.0,501.0,514.0
515.0,506.0,521.0,504.0,512.0
518.0,505.0,522.0,511.0,509.0
528.0,512.0,529.0,524.0,503.0
532.0,512.0,532.0,533.0,501.0
534.0,510.0,526.0,536.0,496.0
532.0,509.0,525.0,540.0,495.0
521.0,504.0,515.0,534.0,499.0
513.0,502.0,509.0,530.0,508.0
499.0,497.0,497.0,516.0,523.0
491.0,496.0,493.0,507.0,525.0
497.0,505.0,495.0,504.0,526.0
495.0,505.0,498.0,500.0,522.0
495.0,505.0,501.0,495.0,520.0
502.0,507.0,507.0,494.0,516.0
503.0,510.0,510.0,495.0,518.0
505.0,505.0,516.0,490.0,522.0
510.0,506.0,518.0,497.0,515.0
516.0,506.0,525.0,503.0,510.0
520.0,508.0,527.0,514.0,510.0
529.0,511.0,529.0,526.0,501.0
536.0,514.0,531.0,535.0,491.0
538.0,513.0,528.0,542.0,492.0
531.0,509.0,522.0,538.0,499.0
516.0,504.0,511.0,531.0,505.0
511.0,499.0,504.0,525.0,509.0
498.0,496.0,495.0,514.0,524.0
496.0,500.0,494.0,506.0,533.0
497.0,503.0,497.0,499.0,530.0
497.0,506.0,499.0,498.0,524.0
497.0,506.0,503.0,492.0,516.0
504.0,509.0,509.0,495.0,513.0
504.0,506.0,511.0,491.0,514.0
510.0,507.0,512.0,492.0,511.0
512.0,505.0,517.0,499.0,505.0
517.0,507.0,523.0,511.0,500.0
525.0,508.0,525.0,518.0,497.0
534.0,512.0,529.0,529.0,493.0
535.0,511.0,534.0,537.0,500.0
532.0,511.0,527.0,541.0,498.0
529.0,506.0,519.0,540.0,502.0
513.0,502.0,514.0,530.0,512.0
502.0,496.0,503.0,520.0,524.0
496.0,497.0,493.0,511.0,527.0
491.0,500.0,494.0,504.0,529.0
485.0,503.0,494.0,496.0,529.0
497.0,510.0,499.0,497.0,532.0
509.0,511.0,507.0,497.0,523.0
512.0,510.0,511.0,496.0,520.0
510.0,506.0,511.0,493.0,516.0
510.0,506.0,514.0,496.0,508.0
516.0,506.0,518.0,507.0,499.0
528.0,508.0,524.0,514.0,498.0
534.0,511.0,528.0,526.0,494.0
535.0,511.0,531.0,533.0,493.0
537.0,511.0,529.0,539.0,496.0
532.0,511.0,525.0,543.0,499.0
522.0,505.0,514.0,535.0,508.0
516.0,505.0,509.0,531.0,514.0
502.0,498.0,497.0,517.0,527.0
494.0,499.0,491.0,505.0,531.0
491.0,501.0,495.0,502.0,538.0
499.0,505.0,498.0,499.0,529.0
496.0,506.0,500.0,493.0,528.0
502.0,510.0,508.0,499.0,523.0
508.0,513.0,513.0,496.0,517.0
502.0,509.0,511.0,493.0,515.0
521.0,512.0,518.0,499.0,504.0
524.0,511.0,526.0,504.0,500.0
530.0,512.0,525.0,515.0,501.0
534.0,514.0,528.0,527.0,496.0
537.0,517.0,531.0,537.0,492.0
534.0,514.0,527.0,542.0,495.0
529.0,512.0,522.0,542.0,495.0
517.0,503.0,512.0,533.0,504.0
511.0,505.0,505.0,530.0,514.0
498.0,500.0,495.0,516.0,536.0
493.0,502.0,492.0,504.0,541.0
499.0,504.0,494.0,500.0,531.0
500.0,508.0,499.0,498.0,525.0
500.0,510.0,502.0,496.0,519.0
502.0,510.0,508.0,495.0,514.0
504.0,511.0,512.0,496.0,517.0
504.0,508.0,513.0,494.0,514.0
511.0,508.0,518.0,499.0,511.0
519.0,508.0,521.0,508.0,503.0
527.0,512.0,527.0,520.0,501.0
533.0,512.0,528.0,528.0,495.0
542.0,514.0,531.0,539.0,490.0
537.0,514.0,527.0,543.0,497.0
523.0,509.0,518.0,537.0,506.0
520.0,504.0,507.0,529.0,513.0
506.0,499.0,498.0,520.0,525.0
499.0,500.0,493.0,511.0,532.0
495.0,507.0,492.0,503.0,538.0
496.0,506.0,497.0,501.0,529.0
499.0,508.0,501.0,498.0,522.0
501.0,510.0,504.0,496.0,519.0
507.0,512.0,511.0,498.0,513.0
506.0,507.0,510.0,491.0,518.0
512.0,509.0,516.0,496.0,515.0
522.0,513.0,520.0,504.0,511.0
526.0,510.0,524.0,513.0,506.0
531.0,512.0,526.0,525.0,491.0
536.0,514.0,531.0,536.0,494.0
535.0,512.0,528.0,540.0,496.0
533.0,511.0,524.0,546.0,507.0
522.0,505.0,516.0,535.0,512.0
515.0,501.0,509.0,531.0,511.0
501.0,498.0,496.0,515.0,522.0
494.0,498.0,491.0,506.0,528.0
495.0,502.0,495.0,504.0,521.0
497.0,504.0,497.0,498.0,527.0
497.0,507.0,503.0,497.0,527.0
508.0,510.0,512.0,497.0,519.0
507.0,510.0,512.0,495.0,517.0
507.0,506.0,511.0,491.0,516.0
514.0,509.0,517.0,496.0,512.0
520.0,506.0,520.0,505.0,504.0
518.0,510.0,523.0,513.0,499.0
528.0,512.0,529.0,527.0,498.0
531.0,511.0,531.0,536.0,494.0
528.0,510.0,527.0,539.0,498.0
523.0,507.0,521.0,539.0,500.0
511.0,501.0,511.0,531.0,512.0
519.0,501.0,506.0,527.0,519.0
503.0,496.0,495.0,515.0,529.0
495.0,498.0,497.0,509.0,527.0
498.0,503.0,496.0,503.0,530.0
505.0,507.0,501.0,499.0,526.0
501.0,510.0,501.0,494.0,524.0
511.0,509.0,509.0,495.0,516.0
515.0,508.0,511.0,490.0,515.0
511.0,504.0,510.0,491.0,516.0
521.0,506.0,519.0,499.0,510.0
522.0,507.0,526.0,511.0,507.0
528.0,511.0,527.0,517.0,505.0
531.0,511.0,530.0,529.0,501.0
535.0,511.0,532.0,537.0,494.0
534.0,510.0,527.0,542.0,492.0
524.0,505.0,519.0,537.0,497.0
513.0,501.0,509.0,528.0,511.0
505.0,500.0,498.0,519.0,522.0
500.0,497.0,498.0,509.0,534.0
493.0,500.0,494.0,505.0,533.0
492.0,502.0,495.0,497.0,526.0
495.0,504.0,499.0,496.0,520.0
507.0,508.0,507.0,494.0,518.0
509.0,509.0,511.0,495.0,519.0
511.0,507.0,511.0,492.0,520.0
512.0,507.0,516.0,497.0,511.0
516.0,506.0,520.0,503.0,507.0
520.0,507.0,523.0,512.0,503.0
527.0,509.0,526.0,522.0,495.0
540.0,514.0,530.0,533.0,490.0
532.0,511.0,529.0,541.0,494.0
529.0,510.0,525.0,542.0,498.0
521.0,506.0,515.0,535.0,510.0
515.0,502.0,510.0,530.0,515.0
502.0,498.0,498.0,518.0,525.0
493.0,497.0,491.0,507.0,527.0
496.0,500.0,493.0,501.0,523.0
496.0,503.0,501.0,498.0,517.0
498.0,509.0,500.0,495.0,515.0
505.0,507.0,506.0,495.0,512.0
505.0,509.0,511.0,493.0,509.0
512.0,506.0,512.0,492.0,519.0
518.0,509.0,520.0,498.0,522.0
517.0,506.0,523.0,506.0,522.0
522.0,507.0,525.0,515.0,506.0
531.0,508.0,527.0,526.0,499.0
536.0,513.0,531.0,537.0,489.0
537.0,512.0,531.0,543.0,489.0
529.0,509.0,524.0,542.0,497.0
517.0,503.0,511.0,535.0,507.0
514.0,503.0,508.0,528.0,515.0
500.0,497.0,497.0,515.0,525.0
494.0,502.0,494.0,507.0,525.0
493.0,502.0,495.0,502.0,526.0
496.0,505.0,499.0,498.0,523.0
498.0,506.0,503.0,496.0,525.0
502.0,508.0,510.0,496.0,520.0
508.0,506.0,511.0,493.0,515.0
503.0,503.0,511.0,492.0,517.0
519.0,507.0,518.0,502.0,513.0
521.0,509.0,525.0,511.0,506.0
528.0,510.0,527.0,520.0,500.0
531.0,511.0,528.0,528.0,495.0
537.0,513.0,532.0,539.0,495.0
531.0,508.0,526.0,542.0,497.0
527.0,508.0,519.0,540.0,506.0
520.0,506.0,510.0,533.0,515.0
505.0,499.0,502.0,523.0,525.0
497.0,498.0,496.0,515.0,528.0
493.0,500.0,495.0,506.0,533.0
491.0,503.0,493.0,501.0,532.0
495.0,505.0,500.0,498.0,528.0
500.0,507.0,504.0,496.0,526.0
503.0,508.0,511.0,497.0,520.0
506.0,506.0,512.0,493.0,520.0
511.0,508.0,516.0,497.0,512.0
524.0,507.0,520.0,503.0,505.0
525.0,507.0,524.0,511.0,501.0
526.0,508.0,526.0,519.0,493.0
532.0,512.0,532.0,537.0,488.0
532.0,510.0,530.0,540.0,492.0
531.0,509.0,526.0,542.0,495.0
526.0,505.0,516.0,535.0,510.0
517.0,501.0,510.0,530.0,514.0
507.0,498.0,500.0,518.0,526.0
498.0,500.0,494.0,508.0,533.0
494.0,501.0,494.0,502.0,533.0
492.0,503.0,496.0,499.0,530.0
493.0,504.0,500.0,496.0,527.0
499.0,509.0,508.0,501.0,523.0
503.0,509.0,513.0,497.0,518.0
503.0,504.0,510.0,493.0,520.0
510.0,507.0,517.0,496.0,516.0
530.0,507.0,525.0,504.0,505.0
536.0,509.0,524.0,514.0,498.0
535.0,510.0,526.0,525.0,492.0
540.0,513.0,534.0,535.0,490.0
537.0,511.0,527.0,545.0,493.0
531.0,509.0,523.0,541.0,498.0
522.0,503.0,513.0,532.0,508.0
516.0,502.0,508.0,529.0,515.0
503.0,497.0,496.0,515.0,527.0
496.0,498.0,493.0,505.0,531.0
498.0,502.0,492.0,500.0,530.0
498.0,503.0,498.0,498.0,529.0
497.0,507.0,505.0,495.0,531.0
502.0,511.0,510.0,501.0,524.0
507.0,511.0,514.0,495.0,513.0
502.0,506.0,512.0,491.0,514.0
506.0,507.0,518.0,501.0,513.0
516.0,509.0,524.0,507.0,506.0
518.0,508.0,524.0,516.0,498.0
524.0,510.0,533.0,529.0,495.0
532.0,511.0,530.0,537.0,490.0
545.0,511.0,527.0,540.0,493.0
535.0,506.0,520.0,539.0,503.0
521.0,502.0,511.0,532.0,510.0
508.0,496.0,500.0,521.0,518.0
502.0,493.0,492.0,509.0,530.0
505.0,500.0,496.0,504.0,536.0
498.0,503.0,497.0,500.0,536.0
497.0,504.0,500.0,493.0,532.0
498.0,505.0,503.0,494.0,521.0
509.0,509.0,514.0,497.0,507.0
510.0,507.0,512.0,493.0,516.0
512.0,506.0,515.0,496.0,516.0
517.0,504.0,521.0,501.0,509.0
524.0,507.0,527.0,511.0,499.0
530.0,510.0,528.0,522.0,498.0
535.0,512.0,530.0,531.0,492.0
536.0,511.0,530.0,539.0,491.0
534.0,511.0,526.0,542.0,496.0
524.0,509.0,517.0,537.0,500.0
516.0,502.0,510.0,534.0,511.0
502.0,497.0,499.0,520.0,523.0
494.0,497.0,494.0,510.0,530.0
490.0,500.0,493.0,500.0,533.0
492.0,502.0,497.0,498.0,529.0
494.0,504.0,500.0,496.0,527.0
499.0,509.0,509.0,497.0,521.0
511.0,511.0,512.0,497.0,516.0
511.0,506.0,513.0,493.0,519.0
514.0,509.0,517.0,499.0,516.0
517.0,509.0,522.0,505.0,518.0
527.0,508.0,525.0,512.0,512.0
532.0,510.0,530.0,523.0,504.0
534.0,512.0,532.0,536.0,497.0
530.0,509.0,528.0,539.0,493.0
531.0,510.0,524.0,542.0,494.0
519.0,503.0,514.0,533.0,506.0
514.0,503.0,508.0,530.0,513.0
498.0,495.0,495.0,515.0,530.0
493.0,498.0,495.0,508.0,536.0
494.0,502.0,496.0,503.0,531.0
493.0,504.0,498.0,499.0,526.0
494.0,505.0,500.0,492.0,522.0
502.0,507.0,509.0,497.0,514.0
504.0,507.0,512.0,496.0,516.0
503.0,503.0,511.0,492.0,520.0
509.0,504.0,518.0,503.0,512.0
524.0,507.0,524.0,510.0,505.0
528.0,515.0,525.0,517.0,495.0
532.0,511.0,530.0,528.0,491.0
534.0,513.0,531.0,537.0,490.0
534.0,509.0,529.0,542.0,493.0
526.0,508.0,521.0,538.0,501.0
517.0,503.0,512.0,533.0,510.0
510.0,501.0,503.0,524.0,524.0
498.0,496.0,495.0,512.0,531.0
492.0,500.0,495.0,505.0,531.0
491.0,501.0,495.0,499.0,525.0
496.0,503.0,499.0,498.0,519.0
498.0,507.0,504.0,497.0,520.0
502.0,508.0,510.0,496.0,519.0
504.0,507.0,512.0,496.0,518.0
508.0,509.0,515.0,496.0,517.0
515.0,506.0,523.0,506.0,509.0
529.0,510.0,525.0,513.0,504.0
529.0,510.0,527.0,522.0,500.0
533.0,511.0,529.0,533.0,495.0
535.0,512.0,530.0,540.0,496.0
532.0,511.0,527.0,546.0,498.0
525.0,507.0,520.0,538.0,506.0
516.0,506.0,512.0,530.0,515.0
508.0,498.0,501.0,519.0,523.0
495.0,496.0,491.0,509.0,531.0
494.0,501.0,493.0,503.0,533.0
495.0,503.0,497.0,500.0,531.0
497.0,511.0,501.0,498.0,534.0
501.0,509.0,507.0,497.0,522.0
506.0,511.0,513.0,498.0,516.0
506.0,507.0,513.0,495.0,517.0
513.0,509.0,518.0,499.0,511.0
518.0,509.0,522.0,506.0,506.0
524.0,512.0,523.0,515.0,501.0
532.0,511.0,528.0,525.0,495.0
535.0,513.0,536.0,534.0,493.0
534.0,512.0,528.0,542.0,497.0
530.0,510.0,524.0,542.0,498.0
520.0,503.0,512.0,534.0,509.0
513.0,500.0,508.0,529.0,515.0
500.0,497.0,497.0,516.0,528.0
493.0,498.0,492.0,506.0,534.0
495.0,503.0,496.0,503.0,537.0
498.0,506.0,499.0,500.0,526.0
498.0,510.0,501.0,492.0,526.0
502.0,515.0,509.0,497.0,521.0
508.0,513.0,514.0,497.0,515.0
508.0,507.0,514.0,495.0,513.0
520.0,507.0,521.0,498.0,505.0
521.0,506.0,523.0,508.0,505.0
523.0,508.0,524.0,514.0,505.0
530.0,512.0,530.0,528.0,514.0
535.0,512.0,531.0,539.0,497.0
541.0,514.0,528.0,543.0,490.0
527.0,505.0,520.0,538.0,496.0
516.0,501.0,511.0,530.0,507.0
509.0,499.0,503.0,524.0,518.0
497.0,496.0,495.0,511.0,528.0
495.0,500.0,495.0,506.0,530.0
492.0,502.0,494.0,498.0,532.0
491.0,507.0,498.0,496.0,525.0
491.0,505.0,503.0,494.0,524.0
497.0,509.0,511.0,497.0,518.0
499.0,511.0,512.0,495.0,520.0
502.0,506.0,515.0,495.0,515.0
507.0,506.0,520.0,501.0,511.0
517.0,509.0,525.0,512.0,504.0
530.0,510.0,528.0,521.0,494.0
541.0,515.0,529.0,532.0,489.0
537.0,512.0,528.0,539.0,487.0
534.0,513.0,527.0,543.0,495.0
523.0,511.0,517.0,539.0,502.0
524.0,504.0,511.0,536.0,510.0
524.0,500.0,500.0,521.0,521.0
508.0,498.0,498.0,510.0,528.0
500.0,500.0,493.0,505.0,536.0
499.0,504.0,497.0,499.0,528.0
500.0,507.0,501.0,496.0,529.0
508.0,509.0,507.0,497.0,527.0
509.0,509.0,511.0,494.0,527.0
508.0,504.0,510.0,490.0,522.0
513.0,506.0,516.0,495.0,504.0
516.0,504.0,519.0,502.0,506.0
523.0,506.0,523.0,518.0,504.0
531.0,511.0,530.0,527.0,511.0
535.0,512.0,533.0,538.0,498.0
533.0,511.0,530.0,542.0,499.0
531.0,509.0,528.0,541.0,501.0
522.0,505.0,515.0,538.0,496.0
517.0,502.0,510.0,529.0,503.0
504.0,498.0,497.0,518.0,522.0
493.0,496.0,493.0,508.0,530.0
493.0,501.0,492.0,502.0,529.0
496.0,503.0,498.0,499.0,519.0
499.0,505.0,501.0,496.0,518.0
505.0,508.0,508.0,496.0,513.0
507.0,505.0,511.0,494.0,516.0
502.0,504.0,511.0,488.0,517.0
513.0,506.0,518.0,499.0,511.0
517.0,507.0,523.0,507.0,503.0
519.0,507.0,524.0,517.0,499.0
529.0,510.0,528.0,528.0,495.0
536.0,512.0,531.0,538.0,495.0
535.0,511.0,528.0,543.0,502.0
530.0,508.0,521.0,541.0,508.0
518.0,502.0,512.0,533.0,516.0
509.0,499.0,504.0,526.0,524.0
499.0,498.0,496.0,516.0,527.0
495.0,500.0,494.0,508.0,527.0
495.0,503.0,496.0,502.0,529.0
497.0,506.0,501.0,498.0,525.0
499.0,507.0,503.0,496.0,513.0
505.0,514.0,509.0,498.0,511.0
510.0,508.0,513.0,496.0,505.0
514.0,510.0,514.0,496.0,504.0
515.0,509.0,520.0,502.0,503.0
523.0,509.0,524.0,513.0,502.0
533.0,510.0,525.0,520.0,499.0
533.0,512.0,530.0,534.0,494.0
536.0,512.0,530.0,540.0,493.0
533.0,510.0,530.0,543.0,497.0
527.0,508.0,520.0,538.0,507.0
517.0,503.0,511.0,532.0,517.0
508.0,501.0,499.0,522.0,529.0
498.0,499.0,495.0,510.0,535.0
498.0,501.0,494.0,504.0,530.0
496.0,504.0,499.0,499.0,529.0
497.0,506.0,500.0,496.0,528.0
500.0,509.0,506.0,493.0,526.0
504.0,508.0,510.0,493.0,519.0
504.0,504.0,513.0,493.0,511.0
512.0,505.0,514.0,496.0,505.0
520.0,505.0,520.0,505.0,499.0
527.0,507.0,525.0,512.0,497.0
531.0,512.0,530.0,525.0,492.0
534.0,513.0,532.0,537.0,484.0
531.0,509.0,527.0,543.0,488.0
529.0,508.0,524.0,542.0,495.0
522.0,504.0,517.0,536.0,502.0
514.0,502.0,512.0,530.0,522.0
499.0,497.0,500.0,515.0,544.0
491.0,497.0,495.0,505.0,542.0
491.0,499.0,491.0,500.0,536.0
497.0,503.0,495.0,500.0,516.0
500.0,505.0,498.0,497.0,520.0
504.0,506.0,505.0,497.0,515.0
507.0,511.0,509.0,493.0,506.0
505.0,505.0,512.0,493.0,513.0
512.0,507.0,519.0,500.0,509.0
519.0,507.0,522.0,508.0,501.0
521.0,507.0,524.0,520.0,499.0
533.0,510.0,531.0,527.0,498.0
534.0,512.0,532.0,539.0,492.0
532.0,510.0,528.0,545.0,500.0
527.0,509.0,523.0,540.0,514.0
518.0,503.0,515.0,534.0,516.0
511.0,501.0,506.0,526.0,519.0
498.0,497.0,496.0,514.0,528.0
495.0,499.0,494.0,507.0,531.0
492.0,501.0,498.0,502.0,524.0
493.0,502.0,498.0,497.0,515.0
498.0,506.0,503.0,495.0,526.0
505.0,510.0,515.0,494.0,524.0
507.0,509.0,513.0,494.0,515.0
506.0,505.0,515.0,496.0,509.0
514.0,506.0,518.0,504.0,495.0
525.0,509.0,525.0,512.0,492.0
530.0,509.0,526.0,520.0,484.0
538.0,513.0,531.0,532.0,479.0
539.0,513.0,531.0,542.0,486.0
532.0,510.0,525.0,541.0,508.0
527.0,506.0,519.0,539.0,521.0
520.0,502.0,511.0,532.0,530.0
503.0,497.0,498.0,520.0,529.0
496.0,497.0,493.0,510.0,534.0
490.0,499.0,493.0,504.0,532.0
492.0,503.0,497.0,500.0,525.0
496.0,506.0,501.0,494.0,522.0
502.0,507.0,505.0,496.0,509.0
508.0,513.0,510.0,496.0,506.0
507.0,506.0,513.0,494.0,517.0
510.0,507.0,517.0,498.0,518.0
512.0,505.0,520.0,503.0,523.0
517.0,507.0,523.0,511.0,527.0
529.0,513.0,530.0,526.0,514.0
533.0,512.0,533.0,532.0,518.0
533.0,509.0,527.0,539.0,512.0
534.0,511.0,523.0,542.0,508.0
525.0,503.0,514.0,536.0,497.0
515.0,499.0,507.0,530.0,488.0
500.0,499.0,494.0,517.0,494.0
493.0,495.0,493.0,505.0,522.0
495.0,499.0,493.0,502.0,526.0
504.0,505.0,498.0,501.0,524.0
507.0,507.0,502.0,497.0,527.0
511.0,509.0,507.0,497.0,525.0
506.0,508.0,511.0,496.0,524.0
505.0,501.0,510.0,491.0,520.0
513.0,504.0,515.0,500.0,505.0
518.0,507.0,521.0,506.0,499.0
517.0,505.0,524.0,512.0,491.0
525.0,511.0,528.0,529.0,483.0
530.0,511.0,531.0,539.0,479.0
534.0,510.0,527.0,542.0,488.0
531.0,507.0,523.0,542.0,498.0
521.0,507.0,513.0,535.0,516.0
512.0,503.0,508.0,527.0,533.0
507.0,500.0,501.0,514.0,543.0
499.0,502.0,496.0,505.0,544.0
500.0,503.0,495.0,501.0,544.0
497.0,509.0,497.0,494.0,541.0
490.0,507.0,500.0,492.0,523.0
499.0,509.0,506.0,493.0,498.0
505.0,506.0,510.0,494.0,501.0
513.0,505.0,517.0,503.0,491.0
529.0,511.0,530.0,516.0,475.0
521.0,509.0,533.0,520.0,488.0
526.0,511.0,533.0,529.0,487.0
530.0,510.0,522.0,528.0,487.0
539.0,516.0,535.0,531.0,473.0
533.0,512.0,525.0,543.0,465.0
531.0,507.0,508.0,544.0,494.0
520.0,504.0,526.0,537.0,543.0
520.0,504.0,535.0,527.0,532.0
509.0,499.0,521.0,510.0,528.0
502.0,493.0,499.0,483.0,519.0
504.0,497.0,438.0,474.0,532.0
499.0,504.0,478.0,485.0,551.0
486.0,507.0,497.0,498.0,540.0
487.0,510.0,506.0,503.0,511.0
492.0,510.0,503.0,496.0,512.0
498.0,505.0,506.0,497.0,509.0
509.0,505.0,509.0,502.0,489.0
519.0,506.0,512.0,510.0,487.0
519.0,506.0,523.0,524.0,488.0
525.0,512.0,539.0,535.0,500.0
527.0,511.0,539.0,541.0,507.0
521.0,509.0,529.0,544.0,514.0
511.0,504.0,520.0,536.0,523.0
507.0,501.0,511.0,531.0,519.0
503.0,499.0,499.0,518.0,527.0
489.0,501.0,494.0,509.0,528.0
490.0,501.0,497.0,505.0,534.0
489.0,505.0,503.0,504.0,539.0
492.0,506.0,503.0,497.0,554.0
504.0,511.0,513.0,499.0,550.0
511.0,512.0,514.0,495.0,532.0
511.0,505.0,509.0,489.0,522.0
514.0,507.0,525.0,501.0,520.0
523.0,508.0,537.0,518.0,507.0
533.0,509.0,540.0,529.0,471.0
539.0,512.0,532.0,511.0,456.0
548.0,516.0,543.0,538.0,460.0
562.0,517.0,543.0,538.0,456.0
552.0,509.0,538.0,538.0,447.0
533.0,493.0,505.0,536.0,467.0
516.0,480.0,477.0,543.0,488.0
498.0,479.0,482.0,517.0,481.0
502.0,477.0,489.0,500.0,491.0
500.0,475.0,491.0,497.0,471.0
498.0,493.0,500.0,504.0,492.0
490.0,525.0,498.0,497.0,517.0
498.0,522.0,505.0,496.0,527.0
497.0,508.0,498.0,492.0,591.0
496.0,515.0,507.0,489.0,607.0
526.0,524.0,521.0,503.0,549.0
535.0,516.0,521.0,514.0,528.0
542.0,516.0,524.0,521.0,508.0
544.0,513.0,524.0,529.0,512.0
542.0,513.0,526.0,534.0,543.0
538.0,514.0,524.0,536.0,523.0
525.0,512.0,519.0,538.0,497.0
524.0,511.0,515.0,536.0,485.0
513.0,502.0,518.0,525.0,491.0
493.0,495.0,519.0,506.0,522.0
496.0,504.0,519.0,509.0,532.0
503.0,507.0,504.0,510.0,542.0
500.0,512.0,470.0,509.0,541.0
491.0,511.0,502.0,516.0,540.0
489.0,512.0,509.0,505.0,534.0
495.0,510.0,509.0,497.0,528.0
498.0,510.0,508.0,488.0,536.0
506.0,509.0,517.0,493.0,542.0
534.0,513.0,519.0,512.0,450.0
548.0,517.0,522.0,522.0,453.0
549.0,510.0,510.0,527.0,477.0
539.0,506.0,515.0,535.0,485.0
534.0,505.0,521.0,539.0,497.0
526.0,507.0,517.0,534.0,509.0
508.0,505.0,506.0,533.0,492.0
479.0,500.0,492.0,527.0,529.0
482.0,497.0,489.0,521.0,531.0
490.0,498.0,500.0,519.0,487.0
502.0,506.0,502.0,514.0,475.0
507.0,512.0,499.0,496.0,535.0
516.0,511.0,509.0,487.0,536.0
523.0,513.0,512.0,498.0,528.0
531.0,512.0,508.0,497.0,510.0
533.0,511.0,512.0,501.0,537.0
532.0,508.0,510.0,507.0,531.0
531.0,512.0,532.0,528.0,492.0
529.0,514.0,566.0,549.0,514.0
539.0,515.0,586.0,563.0,506.0
547.0,523.0,580.0,550.0,490.0
510.0,509.0,514.0,514.0,553.0
508.0,499.0,508.0,519.0,501.0
522.0,501.0,474.0,513.0,494.0
498.0,495.0,478.0,512.0,477.0
461.0,495.0,484.0,507.0,481.0
479.0,505.0,493.0,504.0,509.0
498.0,509.0,500.0,501.0,515.0
506.0,510.0,500.0,487.0,542.0
526.0,514.0,506.0,506.0,573.0
526.0,507.0,507.0,500.0,567.0
523.0,505.0,528.0,494.0,446.0
498.0,491.0,539.0,485.0,492.0
506.0,501.0,536.0,513.0,484.0
524.0,511.0,538.0,526.0,446.0
515.0,520.0,540.0,521.0,516.0
530.0,523.0,559.0,549.0,556.0
524.0,509.0,498.0,540.0,566.0
521.0,508.0,461.0,554.0,530.0
538.0,502.0,485.0,578.0,476.0
530.0,498.0,502.0,555.0,453.0
519.0,478.0,477.0,525.0,429.0
499.0,469.0,464.0,503.0,372.0
501.0,492.0,500.0,479.0,410.0
502.0,521.0,533.0,492.0,513.0
505.0,519.0,505.0,480.0,515.0
497.0,504.0,477.0,474.0,525.0
495.0,501.0,485.0,483.0,499.0
491.0,506.0,493.0,492.0,586.0
508.0,501.0,518.0,511.0,526.0
534.0,505.0,541.0,525.0,512.0
514.0,511.0,545.0,542.0,578.0
528.0,507.0,543.0,556.0,454.0
543.0,498.0,504.0,536.0,468.0
545.0,498.0,517.0,541.0,499.0
532.0,492.0,514.0,530.0,432.0
493.0,495.0,500.0,515.0,511.0
540.0,518.0,504.0,516.0,512.0
535.0,523.0,503.0,509.0,448.0
519.0,509.0,506.0,493.0,491.0
507.0,503.0,524.0,495.0,559.0
489.0,506.0,549.0,508.0,580.0
466.0,498.0,546.0,513.0,621.0
456.0,501.0,460.0,484.0,638.0
487.0,511.0,517.0,524.0,637.0
498.0,513.0,541.0,500.0,575.0
510.0,509.0,535.0,491.0,591.0
516.0,515.0,527.0,514.0,544.0
503.0,523.0,505.0,520.0,513.0
541.0,523.0,520.0,546.0,492.0
556.0,515.0,525.0,543.0,468.0
534.0,507.0,536.0,530.0,450.0
523.0,481.0,478.0,520.0,473.0
506.0,482.0,504.0,547.0,485.0
489.0,484.0,464.0,535.0,560.0
493.0,484.0,482.0,536.0,652.0
495.0,494.0,526.0,548.0,568.0
511.0,531.0,545.0,578.0,530.0
531.0,526.0,505.0,539.0,480.0
514.0,531.0,490.0,487.0,534.0
499.0,516.0,496.0,470.0,565.0
494.0,497.0,507.0,500.0,504.0
492.0,483.0,513.0,519.0,441.0
498.0,474.0,512.0,545.0,415.0
511.0,482.0,501.0,551.0,445.0
557.0,494.0,518.0,570.0,351.0
581.0,507.0,501.0,571.0,357.0
569.0,517.0,502.0,563.0,381.0
568.0,527.0,534.0,569.0,461.0
524.0,517.0,541.0,556.0,600.0
478.0,515.0,537.0,550.0,598.0
432.0,508.0,513.0,531.0,625.0
459.0,507.0,475.0,509.0,608.0
491.0,516.0,507.0,530.0,612.0
545.0,516.0,527.0,565.0,519.0
588.0,508.0,498.0,557.0,475.0
562.0,523.0,471.0,563.0,499.0
526.0,515.0,517.0,540.0,473.0
485.0,497.0,503.0,512.0,454.0
467.0,494.0,515.0,520.0,552.0
487.0,504.0,490.0,525.0,554.0
497.0,515.0,493.0,534.0,493.0
544.0,528.0,530.0,578.0,386.0
541.0,517.0,531.0,576.0,455.0
525.0,514.0,499.0,609.0,455.0
504.0,502.0,467.0,585.0,488.0
506.0,497.0,476.0,579.0,578.0
505.0,498.0,466.0,570.0,543.0
514.0,490.0,461.0,562.0,513.0
503.0,483.0,458.0,545.0,548.0
483.0,494.0,477.0,535.0,602.0
495.0,498.0,486.0,535.0,592.0
486.0,491.0,480.0,532.0,544.0
482.0,511.0,485.0,538.0,489.0
489.0,523.0,493.0,545.0,502.0
506.0,512.0,512.0,557.0,493.0
533.0,513.0,508.0,562.0,460.0
533.0,514.0,502.0,555.0,432.0
549.0,522.0,515.0,568.0,478.0
524.0,512.0,517.0,573.0,598.0
502.0,506.0,508.0,580.0,561.0
491.0,507.0,516.0,593.0,526.0
501.0,500.0,506.0,595.0,466.0
529.0,511.0,479.0,590.0,410.0
521.0,508.0,478.0,563.0,410.0
490.0,495.0,477.0,544.0,519.0
496.0,502.0,477.0,542.0,635.0
520.0,511.0,481.0,550.0,599.0
525.0,505.0,466.0,535.0,562.0
541.0,509.0,481.0,536.0,514.0
506.0,503.0,497.0,535.0,597.0
467.0,509.0,511.0,543.0,558.0
474.0,512.0,509.0,562.0,462.0
498.0,507.0,498.0,554.0,466.0
516.0,510.0,515.0,564.0,478.0
542.0,522.0,533.0,587.0,544.0
551.0,518.0,523.0,581.0,529.0
530.0,506.0,495.0,570.0,530.0
536.0,507.0,496.0,586.0,477.0
528.0,499.0,490.0,566.0,541.0
497.0,490.0,514.0,566.0,544.0
516.0,494.0,511.0,560.0,484.0
511.0,494.0,442.0,541.0,499.0
511.0,489.0,454.0,554.0,415.0
521.0,498.0,474.0,534.0,518.0
495.0,488.0,477.0,530.0,565.0
482.0,498.0,490.0,550.0,597.0
484.0,528.0,501.0,550.0,599.0
501.0,519.0,502.0,530.0,536.0
508.0,515.0,510.0,547.0,440.0
530.0,519.0,519.0,564.0,356.0
535.0,496.0,509.0,571.0,350.0
526.0,487.0,510.0,577.0,415.0
540.0,497.0,538.0,588.0,506.0
536.0,481.0,545.0,564.0,520.0
514.0,476.0,542.0,554.0,598.0
516.0,538.0,466.0,521.0,657.0
491.0,548.0,495.0,549.0,576.0
471.0,501.0,440.0,578.0,509.0
469.0,501.0,475.0,559.0,640.0
481.0,509.0,467.0,551.0,632.0
490.0,502.0,488.0,537.0,621.0
509.0,502.0,491.0,551.0,548.0
527.0,502.0,495.0,561.0,435.0
555.0,496.0,495.0,553.0,459.0
518.0,508.0,500.0,553.0,530.0
517.0,528.0,514.0,547.0,466.0
557.0,521.0,521.0,550.0,457.0
548.0,500.0,504.0,534.0,352.0
527.0,489.0,499.0,550.0,463.0
506.0,494.0,529.0,558.0,595.0
490.0,491.0,509.0,576.0,529.0
482.0,502.0,475.0,580.0,527.0
499.0,518.0,502.0,595.0,549.0
492.0,499.0,498.0,575.0,588.0
489.0,489.0,494.0,543.0,594.0
497.0,489.0,491.0,525.0,623.0
506.0,482.0,495.0,525.0,551.0
511.0,508.0,474.0,519.0,532.0
520.0,533.0,493.0,543.0,520.0
480.0,496.0,522.0,538.0,489.0
461.0,479.0,522.0,531.0,453.0
506.0,526.0,522.0,544.0,487.0
533.0,531.0,472.0,545.0,405.0
547.0,516.0,488.0,560.0,373.0
530.0,517.0,497.0,577.0,450.0
548.0,524.0,542.0,614.0,406.0
544.0,519.0,542.0,628.0,482.0
516.0,517.0,524.0,584.0,561.0
485.0,503.0,504.0,566.0,576.0
479.0,503.0,493.0,548.0,586.0
487.0,488.0,484.0,531.0,577.0
483.0,475.0,466.0,526.0,510.0
492.0,477.0,467.0,521.0,523.0
487.0,479.0,463.0,531.0,500.0
518.0,484.0,480.0,517.0,513.0
545.0,523.0,521.0,520.0,547.0
597.0,556.0,527.0,520.0,460.0
559.0,513.0,465.0,510.0,547.0
502.0,494.0,477.0,544.0,523.0
494.0,506.0,504.0,573.0,430.0
539.0,524.0,538.0,577.0,417.0
555.0,516.0,513.0,562.0,439.0
529.0,510.0,506.0,557.0,550.0
529.0,523.0,530.0,562.0,627.0
500.0,504.0,519.0,569.0,601.0
509.0,502.0,506.0,589.0,428.0
515.0,508.0,510.0,574.0,521.0
520.0,510.0,502.0,545.0,561.0
500.0,510.0,508.0,528.0,595.0
462.0,509.0,516.0,517.0,503.0
438.0,505.0,511.0,514.0,456.0
458.0,506.0,496.0,521.0,517.0
510.0,513.0,488.0,538.0,558.0
495.0,505.0,509.0,536.0,597.0
504.0,506.0,506.0,521.0,565.0
512.0,505.0,508.0,542.0,478.0
525.0,510.0,536.0,567.0,451.0
529.0,518.0,537.0,566.0,428.0
507.0,519.0,532.0,566.0,472.0
491.0,505.0,507.0,546.0,593.0
517.0,503.0,510.0,559.0,523.0
539.0,504.0,515.0,562.0,516.0
544.0,495.0,516.0,555.0,497.0
532.0,494.0,504.0,545.0,526.0
519.0,488.0,484.0,544.0,566.0
532.0,482.0,452.0,536.0,538.0
526.0,505.0,498.0,502.0,489.0
507.0,515.0,527.0,507.0,535.0
490.0,515.0,525.0,537.0,566.0
469.0,509.0,475.0,525.0,572.0
445.0,512.0,481.0,533.0,576.0
466.0,512.0,527.0,531.0,570.0
432.0,499.0,536.0,529.0,532.0
464.0,503.0,515.0,537.0,431.0
505.0,509.0,502.0,545.0,456.0
524.0,512.0,536.0,590.0,501.0
576.0,520.0,547.0,591.0,484.0
571.0,507.0,510.0,561.0,458.0
553.0,498.0,508.0,560.0,427.0
538.0,506.0,528.0,555.0,485.0
522.0,505.0,523.0,544.0,484.0
510.0,497.0,452.0,519.0,447.0
521.0,506.0,471.0,518.0,509.0
505.0,507.0,484.0,525.0,507.0
505.0,507.0,501.0,530.0,532.0
521.0,503.0,489.0,524.0,563.0
563.0,494.0,489.0,517.0,540.0
572.0,499.0,513.0,505.0,576.0
551.0,511.0,549.0,494.0,631.0
520.0,508.0,536.0,522.0,465.0
480.0,509.0,553.0,581.0,381.0
513.0,505.0,537.0,599.0,455.0
507.0,479.0,481.0,558.0,568.0
525.0,495.0,492.0,557.0,545.0
518.0,507.0,531.0,567.0,535.0
513.0,507.0,517.0,558.0,514.0
518.0,532.0,520.0,566.0,517.0
495.0,520.0,520.0,549.0,565.0
458.0,511.0,517.0,531.0,600.0
470.0,506.0,478.0,492.0,545.0
502.0,507.0,481.0,508.0,477.0
506.0,499.0,490.0,524.0,427.0
497.0,503.0,493.0,521.0,535.0
521.0,516.0,539.0,512.0,591.0
523.0,518.0,571.0,534.0,584.0
532.0,510.0,573.0,540.0,456.0
550.0,502.0,506.0,529.0,450.0
542.0,499.0,500.0,524.0,541.0
527.0,508.0,518.0,567.0,468.0
541.0,505.0,517.0,567.0,396.0
525.0,494.0,492.0,541.0,434.0
519.0,474.0,501.0,531.0,489.0
529.0,474.0,511.0,548.0,484.0
505.0,455.0,482.0,519.0,615.0
505.0,476.0,439.0,492.0,606.0
498.0,517.0,461.0,511.0,592.0
456.0,537.0,491.0,524.0,572.0
480.0,531.0,508.0,546.0,535.0
508.0,521.0,511.0,535.0,468.0
516.0,523.0,519.0,510.0,505.0
501.0,509.0,514.0,504.0,513.0
503.0,511.0,519.0,515.0,511.0
516.0,510.0,538.0,542.0,509.0
524.0,516.0,541.0,560.0,499.0
537.0,520.0,520.0,546.0,489.0
539.0,529.0,529.0,556.0,464.0
529.0,518.0,523.0,566.0,475.0
523.0,520.0,521.0,553.0,499.0
511.0,511.0,516.0,538.0,497.0
493.0,507.0,503.0,546.0,505.0
490.0,508.0,510.0,546.0,489.0
485.0,503.0,498.0,519.0,525.0
493.0,494.0,480.0,498.0,583.0
485.0,492.0,457.0,465.0,649.0
513.0,505.0,485.0,490.0,538.0
521.0,507.0,492.0,504.0,539.0
516.0,508.0,534.0,503.0,539.0
499.0,503.0,547.0,507.0,520.0
507.0,504.0,538.0,528.0,475.0
527.0,504.0,476.0,523.0,487.0
532.0,511.0,518.0,531.0,510.0
527.0,513.0,535.0,539.0,512.0
524.0,514.0,538.0,556.0,476.0
537.0,517.0,534.0,560.0,481.0
550.0,521.0,544.0,554.0,510.0
548.0,507.0,533.0,541.0,514.0
528.0,503.0,501.0,538.0,539.0
474.0,488.0,458.0,516.0,559.0
439.0,493.0,485.0,529.0,497.0
499.0,500.0,492.0,516.0,513.0
502.0,499.0,494.0,512.0,517.0
501.0,503.0,497.0,505.0,515.0
479.0,504.0,501.0,505.0,548.0
450.0,505.0,511.0,509.0,511.0
447.0,508.0,520.0,510.0,491.0
435.0,500.0,517.0,515.0,477.0
445.0,502.0,523.0,527.0,492.0
480.0,509.0,529.0,533.0,504.0
515.0,509.0,529.0,536.0,522.0
544.0,521.0,536.0,555.0,476.0
533.0,521.0,538.0,555.0,507.0
489.0,507.0,520.0,549.0,535.0
494.0,501.0,508.0,538.0,501.0
444.0,495.0,497.0,524.0,518.0
439.0,498.0,495.0,516.0,542.0
442.0,501.0,496.0,509.0,557.0
461.0,500.0,500.0,503.0,594.0
482.0,494.0,490.0,495.0,572.0
554.0,511.0,506.0,507.0,519.0
579.0,518.0,514.0,507.0,551.0
596.0,514.0,514.0,505.0,495.0
567.0,509.0,513.0,505.0,415.0
564.0,513.0,528.0,536.0,386.0
584.0,518.0,528.0,529.0,437.0
581.0,515.0,529.0,534.0,511.0
582.0,519.0,536.0,550.0,503.0
574.0,522.0,547.0,550.0,577.0
569.0,519.0,552.0,550.0,503.0
559.0,508.0,530.0,518.0,541.0
522.0,496.0,492.0,492.0,573.0
492.0,494.0,484.0,520.0,523.0
511.0,498.0,497.0,560.0,424.0
494.0,505.0,497.0,537.0,481.0
498.0,506.0,491.0,498.0,561.0
501.0,507.0,491.0,485.0,614.0
516.0,507.0,496.0,489.0,516.0
525.0,508.0,493.0,499.0,500.0
508.0,504.0,498.0,502.0,558.0
511.0,503.0,508.0,506.0,539.0
529.0,503.0,554.0,530.0,489.0
552.0,513.0,547.0,529.0,451.0
553.0,514.0,562.0,572.0,429.0
550.0,514.0,542.0,568.0,427.0
543.0,517.0,512.0,542.0,501.0
530.0,505.0,490.0,516.0,538.0
509.0,495.0,500.0,510.0,563.0
511.0,497.0,503.0,519.0,478.0
513.0,513.0,517.0,533.0,465.0
503.0,504.0,492.0,519.0,446.0
503.0,503.0,493.0,516.0,527.0
493.0,503.0,493.0,479.0,617.0
481.0,500.0,484.0,482.0,611.0
484.0,504.0,493.0,488.0,542.0
503.0,499.0,518.0,500.0,475.0
497.0,464.0,503.0,495.0,500.0
509.0,475.0,490.0,478.0,541.0
525.0,480.0,548.0,505.0,580.0
528.0,481.0,567.0,548.0,582.0
519.0,500.0,517.0,549.0,528.0
530.0,547.0,513.0,535.0,428.0
541.0,516.0,527.0,544.0,429.0
538.0,512.0,541.0,549.0,420.0
517.0,515.0,556.0,550.0,477.0
508.0,521.0,521.0,535.0,508.0
491.0,521.0,485.0,521.0,565.0
491.0,504.0,476.0,509.0,498.0
508.0,515.0,492.0,498.0,497.0
497.0,523.0,500.0,488.0,573.0
497.0,514.0,501.0,482.0,565.0
508.0,515.0,512.0,494.0,542.0
515.0,509.0,505.0,492.0,501.0
522.0,510.0,528.0,490.0,508.0
504.0,507.0,539.0,502.0,517.0
513.0,515.0,527.0,497.0,546.0
525.0,515.0,506.0,513.0,516.0
532.0,515.0,529.0,545.0,479.0
536.0,513.0,530.0,554.0,486.0
527.0,508.0,516.0,564.0,519.0
517.0,508.0,513.0,545.0,563.0
510.0,501.0,502.0,529.0,573.0
494.0,494.0,488.0,510.0,555.0
489.0,500.0,492.0,519.0,498.0
484.0,503.0,496.0,517.0,497.0
491.0,507.0,499.0,500.0,520.0
500.0,510.0,504.0,495.0,518.0
509.0,512.0,510.0,498.0,507.0
518.0,508.0,511.0,497.0,507.0
511.0,506.0,513.0,501.0,498.0
521.0,503.0,512.0,499.0,505.0
524.0,504.0,517.0,511.0,499.0
528.0,512.0,531.0,525.0,510.0
518.0,516.0,535.0,540.0,509.0
523.0,516.0,537.0,548.0,513.0
517.0,517.0,535.0,548.0,554.0
500.0,506.0,524.0,548.0,527.0
526.0,500.0,511.0,526.0,507.0
522.0,492.0,490.0,510.0,535.0
518.0,491.0,484.0,499.0,539.0
520.0,499.0,490.0,502.0,538.0
476.0,499.0,493.0,496.0,567.0
479.0,509.0,506.0,507.0,544.0
489.0,510.0,513.0,508.0,548.0
500.0,513.0,516.0,509.0,511.0
514.0,507.0,507.0,490.0,523.0
514.0,505.0,510.0,494.0,503.0
519.0,504.0,521.0,501.0,470.0
524.0,506.0,520.0,513.0,469.0
513.0,508.0,527.0,528.0,451.0
527.0,512.0,533.0,539.0,460.0
535.0,515.0,536.0,547.0,473.0
538.0,513.0,529.0,548.0,510.0
536.0,515.0,525.0,540.0,559.0
530.0,511.0,514.0,531.0,568.0
518.0,504.0,493.0,517.0,560.0
490.0,503.0,486.0,508.0,548.0
454.0,495.0,497.0,504.0,493.0
470.0,497.0,509.0,489.0,533.0
493.0,507.0,509.0,490.0,489.0
523.0,515.0,497.0,500.0,464.0
528.0,506.0,504.0,506.0,460.0
499.0,492.0,507.0,506.0,482.0
509.0,508.0,512.0,507.0,519.0
523.0,512.0,523.0,510.0,545.0
543.0,510.0,522.0,511.0,497.0
538.0,507.0,523.0,519.0,498.0
538.0,509.0,520.0,519.0,503.0
519.0,507.0,532.0,552.0,498.0
496.0,509.0,524.0,543.0,450.0
488.0,511.0,532.0,555.0,443.0
495.0,512.0,517.0,530.0,560.0
476.0,496.0,494.0,525.0,580.0
510.0,501.0,508.0,536.0,549.0
496.0,502.0,508.0,527.0,555.0
500.0,507.0,487.0,478.0,482.0
509.0,504.0,487.0,464.0,468.0
524.0,510.0,494.0,465.0,506.0
512.0,512.0,516.0,499.0,490.0
523.0,506.0,542.0,511.0,525.0
537.0,497.0,552.0,485.0,527.0
547.0,509.0,522.0,487.0,503.0
546.0,511.0,483.0,520.0,462.0
550.0,516.0,522.0,533.0,493.0
531.0,513.0,529.0,537.0,554.0
528.0,513.0,528.0,543.0,491.0
528.0,509.0,522.0,540.0,503.0
509.0,502.0,512.0,530.0,514.0
507.0,495.0,495.0,518.0,522.0
507.0,495.0,490.0,501.0,535.0
500.0,501.0,496.0,501.0,527.0
500.0,509.0,491.0,484.0,523.0
496.0,511.0,505.0,509.0,513.0
502.0,508.0,511.0,511.0,466.0
500.0,503.0,512.0,495.0,529.0
505.0,504.0,492.0,481.0,573.0
506.0,508.0,510.0,497.0,553.0
518.0,508.0,518.0,511.0,506.0
528.0,510.0,523.0,521.0,499.0
533.0,513.0,521.0,521.0,505.0
546.0,515.0,547.0,532.0,497.0
546.0,514.0,548.0,536.0,492.0
533.0,512.0,546.0,538.0,491.0
517.0,500.0,508.0,537.0,500.0
510.0,497.0,476.0,536.0,522.0
500.0,492.0,495.0,518.0,550.0
492.0,499.0,512.0,510.0,552.0
496.0,511.0,511.0,502.0,561.0
488.0,510.0,500.0,511.0,575.0
477.0,503.0,501.0,507.0,528.0
492.0,507.0,508.0,503.0,515.0
504.0,511.0,512.0,493.0,513.0
506.0,507.0,514.0,492.0,531.0
519.0,511.0,516.0,494.0,543.0
528.0,515.0,525.0,507.0,512.0
523.0,509.0,526.0,512.0,512.0
536.0,515.0,534.0,535.0,466.0
536.0,513.0,533.0,551.0,456.0
540.0,510.0,527.0,544.0,516.0
524.0,510.0,519.0,537.0,525.0
514.0,511.0,514.0,529.0,505.0
509.0,507.0,512.0,527.0,493.0
485.0,496.0,494.0,510.0,508.0
492.0,502.0,503.0,510.0,488.0
483.0,502.0,503.0,502.0,549.0
490.0,504.0,498.0,488.0,583.0
498.0,504.0,500.0,485.0,569.0
511.0,502.0,504.0,492.0,518.0
520.0,506.0,508.0,496.0,502.0
514.0,500.0,507.0,491.0,493.0
521.0,507.0,519.0,501.0,468.0
540.0,511.0,526.0,510.0,510.0
536.0,508.0,523.0,513.0,537.0
533.0,511.0,525.0,525.0,554.0
523.0,508.0,532.0,536.0,487.0
522.0,512.0,537.0,552.0,400.0
542.0,511.0,525.0,548.0,463.0
529.0,501.0,502.0,527.0,524.0
504.0,497.0,501.0,519.0,536.0
488.0,499.0,496.0,507.0,572.0
483.0,502.0,499.0,503.0,547.0
478.0,502.0,494.0,497.0,528.0
491.0,510.0,506.0,500.0,525.0
499.0,511.0,509.0,498.0,547.0
506.0,512.0,515.0,495.0,536.0
512.0,507.0,513.0,495.0,499.0
514.0,499.0,510.0,496.0,491.0
514.0,504.0,517.0,504.0,499.0
525.0,507.0,521.0,514.0,486.0
538.0,516.0,528.0,528.0,514.0
547.0,517.0,535.0,539.0,511.0
524.0,509.0,529.0,540.0,449.0
532.0,513.0,523.0,536.0,436.0
520.0,508.0,519.0,537.0,487.0
497.0,501.0,510.0,526.0,546.0
482.0,500.0,499.0,510.0,601.0
478.0,501.0,499.0,507.0,596.0
482.0,501.0,493.0,494.0,605.0
494.0,505.0,502.0,496.0,576.0
490.0,502.0,499.0,505.0,474.0
487.0,503.0,503.0,495.0,457.0
496.0,505.0,512.0,495.0,464.0
507.0,497.0,507.0,489.0,510.0
527.0,499.0,510.0,492.0,532.0
527.0,503.0,522.0,495.0,543.0
537.0,511.0,528.0,516.0,507.0
528.0,510.0,533.0,539.0,483.0
557.0,517.0,532.0,543.0,476.0
564.0,516.0,525.0,533.0,463.0
537.0,510.0,527.0,548.0,484.0
514.0,506.0,516.0,512.0,505.0
525.0,503.0,508.0,514.0,493.0
520.0,502.0,514.0,518.0,497.0
514.0,499.0,507.0,498.0,512.0
515.0,499.0,490.0,487.0,480.0
497.0,505.0,484.0,474.0,527.0
492.0,511.0,498.0,501.0,554.0
500.0,510.0,506.0,508.0,519.0
509.0,512.0,513.0,511.0,511.0
506.0,503.0,519.0,515.0,524.0
511.0,504.0,518.0,484.0,528.0
515.0,507.0,525.0,494.0,510.0
522.0,513.0,519.0,505.0,523.0
542.0,520.0,532.0,527.0,506.0
538.0,513.0,535.0,535.0,498.0
538.0,506.0,512.0,535.0,503.0
539.0,515.0,541.0,543.0,519.0
521.0,506.0,537.0,536.0,535.0
497.0,500.0,503.0,534.0,505.0
489.0,500.0,459.0,527.0,490.0
490.0,498.0,510.0,519.0,497.0
490.0,500.0,500.0,479.0,526.0
497.0,504.0,492.0,482.0,523.0
502.0,511.0,508.0,484.0,520.0
508.0,514.0,518.0,481.0,520.0
504.0,505.0,508.0,483.0,548.0
500.0,502.0,482.0,487.0,550.0
510.0,506.0,512.0,487.0,546.0
522.0,509.0,540.0,518.0,520.0
532.0,511.0,540.0,532.0,482.0
542.0,510.0,540.0,534.0,459.0
536.0,509.0,536.0,538.0,494.0
530.0,511.0,532.0,535.0,520.0
519.0,507.0,513.0,526.0,513.0
514.0,501.0,509.0,524.0,523.0
502.0,501.0,500.0,516.0,517.0
494.0,498.0,493.0,494.0,549.0
491.0,503.0,498.0,501.0,550.0
491.0,506.0,503.0,513.0,554.0
493.0,505.0,505.0,510.0,516.0
495.0,511.0,507.0,501.0,494.0
504.0,507.0,505.0,479.0,489.0
511.0,507.0,512.0,480.0,490.0
512.0,508.0,525.0,487.0,511.0
521.0,508.0,527.0,497.0,522.0
533.0,508.0,527.0,506.0,515.0
542.0,508.0,527.0,517.0,496.0
541.0,515.0,531.0,528.0,489.0
528.0,508.0,529.0,530.0,518.0
524.0,508.0,525.0,533.0,511.0
525.0,509.0,526.0,532.0,527.0
523.0,505.0,516.0,518.0,558.0
507.0,496.0,498.0,500.0,571.0
502.0,496.0,487.0,494.0,508.0
505.0,503.0,499.0,505.0,476.0
495.0,507.0,505.0,504.0,498.0
478.0,503.0,502.0,494.0,497.0
481.0,504.0,508.0,484.0,546.0
506.0,508.0,509.0,487.0,520.0
507.0,501.0,511.0,487.0,511.0
506.0,504.0,517.0,494.0,510.0
513.0,506.0,525.0,508.0,487.0
518.0,508.0,527.0,513.0,484.0
523.0,512.0,533.0,527.0,486.0
520.0,511.0,533.0,532.0,487.0
513.0,511.0,531.0,538.0,502.0
503.0,510.0,525.0,534.0,507.0
505.0,503.0,515.0,533.0,525.0
492.0,496.0,501.0,512.0,532.0
500.0,494.0,496.0,507.0,541.0
516.0,501.0,494.0,494.0,545.0
502.0,502.0,496.0,488.0,545.0
499.0,504.0,502.0,491.0,527.0
513.0,505.0,502.0,486.0,544.0
498.0,503.0,504.0,485.0,537.0
503.0,506.0,516.0,490.0,474.0
519.0,505.0,510.0,491.0,481.0
532.0,510.0,523.0,504.0,491.0
527.0,507.0,524.0,508.0,509.0
533.0,517.0,528.0,508.0,502.0
533.0,514.0,533.0,526.0,496.0
533.0,515.0,537.0,541.0,458.0
538.0,511.0,531.0,539.0,463.0
522.0,507.0,525.0,533.0,512.0
504.0,504.0,512.0,521.0,549.0
492.0,497.0,499.0,515.0,545.0
488.0,495.0,495.0,498.0,550.0
503.0,498.0,491.0,490.0,529.0
489.0,502.0,496.0,485.0,525.0
504.0,503.0,498.0,489.0,525.0
504.0,508.0,505.0,492.0,524.0
498.0,511.0,515.0,494.0,521.0
502.0,506.0,513.0,491.0,511.0
485.0,507.0,515.0,487.0,516.0
500.0,507.0,523.0,501.0,492.0
524.0,508.0,524.0,507.0,496.0
545.0,514.0,531.0,518.0,493.0
552.0,513.0,532.0,529.0,491.0
578.0,516.0,532.0,536.0,489.0
563.0,513.0,528.0,539.0,472.0
534.0,505.0,519.0,535.0,479.0
514.0,499.0,507.0,525.0,494.0
499.0,501.0,498.0,511.0,531.0
492.0,497.0,492.0,491.0,551.0
502.0,501.0,496.0,492.0,546.0
504.0,507.0,501.0,491.0,540.0
499.0,507.0,503.0,486.0,540.0
517.0,511.0,510.0,490.0,525.0
523.0,513.0,513.0,489.0,522.0
515.0,506.0,513.0,488.0,520.0
518.0,507.0,519.0,491.0,518.0
530.0,509.0,523.0,504.0,502.0
536.0,507.0,525.0,506.0,500.0
539.0,513.0,531.0,521.0,491.0
544.0,517.0,537.0,532.0,484.0
540.0,516.0,530.0,535.0,491.0
533.0,510.0,524.0,532.0,506.0
520.0,504.0,515.0,526.0,507.0
511.0,498.0,502.0,514.0,513.0
504.0,502.0,496.0,506.0,520.0
499.0,499.0,494.0,497.0,524.0
500.0,503.0,497.0,491.0,523.0
495.0,500.0,497.0,487.0,520.0
498.0,508.0,505.0,489.0,521.0
503.0,513.0,515.0,492.0,527.0
507.0,508.0,514.0,487.0,517.0
509.0,509.0,515.0,486.0,518.0
515.0,506.0,520.0,495.0,517.0
523.0,507.0,528.0,503.0,502.0
526.0,511.0,530.0,516.0,505.0
534.0,514.0,534.0,524.0,496.0
536.0,514.0,533.0,534.0,494.0
532.0,515.0,528.0,533.0,492.0
523.0,509.0,520.0,529.0,500.0
515.0,503.0,514.0,522.0,513.0
500.0,496.0,500.0,508.0,529.0
497.0,500.0,496.0,500.0,535.0
491.0,500.0,496.0,493.0,533.0
494.0,506.0,498.0,489.0,526.0
495.0,505.0,501.0,484.0,529.0
499.0,510.0,507.0,485.0,524.0
504.0,509.0,514.0,486.0,520.0
502.0,504.0,514.0,483.0,518.0
505.0,505.0,516.0,485.0,513.0
512.0,506.0,521.0,493.0,508.0
514.0,506.0,525.0,501.0,504.0
523.0,509.0,535.0,518.0,498.0
525.0,510.0,532.0,521.0,492.0
522.0,508.0,530.0,527.0,496.0
522.0,509.0,527.0,528.0,498.0
509.0,502.0,518.0,522.0,507.0
513.0,500.0,510.0,514.0,514.0
503.0,498.0,501.0,502.0,528.0
498.0,496.0,495.0,491.0,531.0
507.0,502.0,497.0,487.0,530.0
515.0,507.0,505.0,486.0,526.0
507.0,506.0,503.0,480.0,523.0
512.0,510.0,512.0,483.0,518.0
514.0,509.0,517.0,484.0,515.0
510.0,503.0,512.0,477.0,515.0
514.0,506.0,520.0,483.0,511.0
512.0,504.0,525.0,496.0,510.0
516.0,506.0,526.0,503.0,500.0
524.0,509.0,531.0,509.0,494.0
528.0,510.0,535.0,519.0,493.0
532.0,514.0,534.0,524.0,494.0
517.0,505.0,524.0,519.0,500.0
505.0,501.0,518.0,518.0,514.0
499.0,497.0,507.0,503.0,525.0
492.0,496.0,499.0,491.0,528.0
491.0,501.0,500.0,487.0,528.0
484.0,502.0,501.0,482.0,529.0
486.0,505.0,504.0,477.0,529.0
503.0,508.0,508.0,480.0,526.0
529.0,515.0,518.0,478.0,515.0
525.0,513.0,522.0,478.0,510.0
514.0,508.0,520.0,477.0,514.0
507.0,505.0,525.0,480.0,507.0
524.0,509.0,531.0,488.0,500.0
528.0,510.0,534.0,498.0,495.0
522.0,511.0,538.0,509.0,492.0
516.0,510.0,538.0,516.0,497.0
508.0,507.0,534.0,518.0,500.0
521.0,507.0,530.0,516.0,504.0
515.0,502.0,521.0,506.0,512.0
487.0,497.0,508.0,494.0,530.0
490.0,500.0,502.0,484.0,538.0
518.0,502.0,502.0,478.0,525.0
525.0,506.0,510.0,477.0,522.0
517.0,509.0,513.0,475.0,520.0
514.0,511.0,520.0,474.0,516.0
523.0,510.0,523.0,473.0,512.0
525.0,507.0,526.0,474.0,514.0
522.0,507.0,529.0,473.0,513.0
531.0,508.0,537.0,480.0,506.0
534.0,508.0,538.0,488.0,501.0
545.0,511.0,540.0,497.0,493.0
547.0,513.0,546.0,509.0,489.0
547.0,515.0,545.0,515.0,492.0
541.0,512.0,541.0,516.0,496.0
528.0,504.0,531.0,508.0,505.0
517.0,503.0,525.0,502.0,518.0
499.0,496.0,515.0,488.0,529.0
489.0,495.0,509.0,479.0,533.0
487.0,497.0,510.0,474.0,531.0
490.0,502.0,515.0,472.0,525.0
493.0,502.0,517.0,468.0,520.0
500.0,504.0,524.0,470.0,516.0
509.0,506.0,529.0,470.0,514.0
513.0,501.0,527.0,466.0,513.0
516.0,504.0,533.0,471.0,507.0
520.0,505.0,538.0,480.0,504.0
527.0,508.0,542.0,489.0,502.0
534.0,513.0,547.0,500.0,495.0
538.0,514.0,549.0,508.0,491.0
536.0,515.0,547.0,512.0,493.0
530.0,512.0,541.0,511.0,502.0
522.0,508.0,533.0,505.0,513.0
509.0,499.0,522.0,495.0,512.0
499.0,499.0,515.0,488.0,523.0
496.0,505.0,513.0,478.0,530.0
498.0,506.0,516.0,474.0,531.0
499.0,507.0,520.0,472.0,527.0
505.0,508.0,525.0,469.0,521.0
506.0,510.0,529.0,471.0,516.0
508.0,508.0,531.0,469.0,511.0
506.0,505.0,532.0,465.0,514.0
519.0,508.0,541.0,472.0,511.0
523.0,510.0,545.0,482.0,507.0
526.0,510.0,545.0,493.0,492.0
534.0,518.0,551.0,502.0,490.0
536.0,513.0,551.0,509.0,489.0
533.0,511.0,546.0,511.0,500.0
523.0,506.0,539.0,508.0,507.0
513.0,501.0,531.0,500.0,516.0
498.0,496.0,519.0,493.0,523.0
493.0,497.0,516.0,479.0,521.0
490.0,496.0,514.0,475.0,529.0
489.0,502.0,517.0,471.0,527.0
494.0,505.0,522.0,470.0,530.0
502.0,508.0,527.0,471.0,521.0
504.0,510.0,533.0,470.0,517.0
505.0,506.0,534.0,469.0,516.0
506.0,504.0,537.0,470.0,511.0
513.0,504.0,540.0,474.0,505.0
520.0,505.0,543.0,484.0,500.0
531.0,510.0,554.0,497.0,494.0
532.0,512.0,554.0,506.0,492.0
534.0,513.0,551.0,512.0,493.0
531.0,511.0,547.0,514.0,496.0
520.0,506.0,537.0,505.0,502.0
513.0,506.0,529.0,500.0,513.0
500.0,498.0,522.0,488.0,525.0
491.0,497.0,512.0,478.0,534.0
494.0,501.0,519.0,480.0,529.0
498.0,506.0,522.0,474.0,526.0
503.0,507.0,524.0,470.0,523.0
506.0,510.0,531.0,472.0,517.0
507.0,508.0,537.0,468.0,512.0
508.0,506.0,533.0,468.0,516.0
514.0,507.0,538.0,474.0,511.0
522.0,508.0,544.0,482.0,504.0
525.0,508.0,545.0,489.0,500.0
531.0,512.0,549.0,499.0,493.0
537.0,511.0,557.0,508.0,492.0
537.0,512.0,550.0,514.0,495.0
530.0,508.0,543.0,513.0,499.0
520.0,504.0,535.0,506.0,510.0
510.0,500.0,524.0,498.0,516.0
500.0,500.0,516.0,488.0,527.0
497.0,501.0,517.0,482.0,528.0
495.0,501.0,515.0,476.0,529.0
498.0,504.0,520.0,474.0,524.0
497.0,505.0,523.0,468.0,521.0
506.0,512.0,531.0,474.0,518.0
510.0,509.0,534.0,473.0,515.0
508.0,505.0,533.0,469.0,515.0
515.0,504.0,537.0,478.0,506.0
524.0,508.0,544.0,486.0,504.0
532.0,513.0,547.0,496.0,499.0
534.0,511.0,550.0,505.0,493.0
536.0,511.0,550.0,513.0,491.0
536.0,511.0,547.0,518.0,495.0
526.0,506.0,540.0,514.0,503.0
515.0,501.0,530.0,506.0,508.0
503.0,495.0,519.0,495.0,520.0
494.0,494.0,512.0,489.0,524.0
492.0,498.0,513.0,482.0,528.0
495.0,503.0,517.0,479.0,531.0
504.0,505.0,520.0,475.0,530.0
509.0,509.0,525.0,476.0,524.0
513.0,509.0,530.0,475.0,522.0
510.0,508.0,530.0,471.0,520.0
515.0,505.0,534.0,472.0,520.0
520.0,507.0,539.0,482.0,507.0
525.0,507.0,542.0,489.0,505.0
531.0,509.0,546.0,502.0,491.0
538.0,513.0,549.0,512.0,478.0
532.0,510.0,545.0,516.0,485.0
533.0,510.0,545.0,520.0,496.0
523.0,510.0,533.0,514.0,509.0
513.0,500.0,526.0,507.0,514.0
497.0,495.0,514.0,495.0,526.0
489.0,496.0,510.0,487.0,524.0
488.0,501.0,509.0,481.0,523.0
492.0,503.0,515.0,479.0,522.0
496.0,505.0,519.0,477.0,521.0
500.0,508.0,525.0,478.0,518.0
507.0,508.0,528.0,477.0,514.0
517.0,504.0,529.0,472.0,511.0
520.0,505.0,532.0,478.0,507.0
528.0,505.0,541.0,489.0,502.0
528.0,503.0,542.0,497.0,500.0
534.0,508.0,545.0,508.0,495.0
538.0,508.0,545.0,517.0,491.0
536.0,507.0,541.0,520.0,492.0
530.0,507.0,537.0,521.0,500.0
521.0,505.0,529.0,514.0,506.0
511.0,500.0,518.0,505.0,517.0
501.0,499.0,510.0,494.0,532.0
496.0,500.0,507.0,486.0,534.0
497.0,503.0,509.0,483.0,530.0
502.0,505.0,513.0,479.0,525.0
499.0,505.0,516.0,477.0,523.0
501.0,509.0,522.0,479.0,515.0
502.0,502.0,524.0,477.0,512.0
502.0,501.0,526.0,477.0,514.0
507.0,503.0,530.0,483.0,513.0
516.0,510.0,537.0,493.0,503.0
520.0,508.0,539.0,501.0,502.0
537.0,517.0,541.0,511.0,497.0
540.0,513.0,542.0,520.0,494.0
544.0,515.0,540.0,527.0,495.0
531.0,510.0,531.0,521.0,500.0
521.0,505.0,524.0,516.0,505.0
504.0,497.0,510.0,501.0,519.0
499.0,497.0,506.0,494.0,527.0
499.0,501.0,506.0,495.0,528.0
498.0,503.0,508.0,484.0,530.0
500.0,506.0,513.0,483.0,524.0
503.0,507.0,516.0,480.0,520.0
507.0,509.0,523.0,482.0,514.0
508.0,507.0,523.0,481.0,514.0
509.0,504.0,524.0,480.0,513.0
516.0,506.0,529.0,488.0,507.0
520.0,505.0,534.0,497.0,499.0
524.0,509.0,537.0,506.0,494.0
535.0,513.0,540.0,519.0,491.0
537.0,511.0,539.0,525.0,491.0
529.0,509.0,533.0,526.0,495.0
521.0,508.0,523.0,520.0,502.0
507.0,502.0,519.0,516.0,514.0
489.0,496.0,505.0,503.0,528.0
490.0,496.0,500.0,494.0,532.0
502.0,500.0,503.0,489.0,527.0
501.0,504.0,505.0,486.0,524.0
501.0,504.0,509.0,482.0,521.0
507.0,507.0,515.0,483.0,517.0
514.0,509.0,520.0,486.0,513.0
509.0,508.0,519.0,482.0,520.0
514.0,506.0,524.0,485.0,512.0
522.0,506.0,529.0,496.0,504.0
522.0,507.0,532.0,505.0,502.0
536.0,512.0,537.0,512.0,495.0
541.0,511.0,538.0,522.0,491.0
537.0,511.0,535.0,527.0,494.0
531.0,508.0,532.0,529.0,498.0
525.0,506.0,522.0,522.0,505.0
514.0,504.0,512.0,514.0,517.0
501.0,497.0,503.0,502.0,528.0
494.0,498.0,499.0,493.0,530.0
494.0,501.0,500.0,488.0,529.0
497.0,505.0,506.0,486.0,526.0
500.0,507.0,509.0,484.0,522.0
507.0,511.0,516.0,485.0,520.0
509.0,512.0,520.0,485.0,516.0
508.0,506.0,521.0,482.0,516.0
514.0,506.0,525.0,490.0,510.0
523.0,509.0,530.0,498.0,504.0
527.0,510.0,532.0,507.0,500.0
533.0,512.0,536.0,518.0,492.0
537.0,512.0,540.0,526.0,493.0
533.0,511.0,532.0,530.0,496.0
527.0,507.0,524.0,525.0,503.0
518.0,503.0,517.0,521.0,511.0
507.0,498.0,505.0,510.0,525.0
497.0,498.0,500.0,500.0,532.0
498.0,500.0,502.0,493.0,529.0
494.0,503.0,501.0,490.0,529.0
497.0,507.0,506.0,488.0,526.0
501.0,509.0,510.0,486.0,523.0
507.0,511.0,517.0,487.0,516.0
509.0,509.0,519.0,485.0,515.0
510.0,506.0,519.0,484.0,516.0
518.0,507.0,525.0,494.0,508.0
525.0,509.0,529.0,502.0,506.0
533.0,511.0,536.0,512.0,498.0
531.0,513.0,534.0,522.0,493.0
536.0,512.0,535.0,530.0,495.0
531.0,510.0,530.0,531.0,497.0
523.0,506.0,522.0,527.0,506.0
515.0,503.0,515.0,521.0,516.0
501.0,496.0,502.0,508.0,526.0
497.0,496.0,496.0,497.0,529.0
491.0,498.0,497.0,492.0,529.0
495.0,504.0,501.0,489.0,527.0
497.0,506.0,505.0,487.0,524.0
504.0,509.0,512.0,489.0,520.0
507.0,509.0,516.0,489.0,517.0
506.0,509.0,516.0,485.0,515.0
511.0,506.0,520.0,489.0,511.0
519.0,508.0,525.0,502.0,505.0
524.0,508.0,527.0,507.0,503.0
532.0,512.0,533.0,518.0,497.0
535.0,512.0,537.0,525.0,491.0
534.0,512.0,534.0,533.0,496.0
530.0,510.0,527.0,532.0,499.0
520.0,506.0,518.0,526.0,508.0
513.0,502.0,511.0,520.0,518.0
500.0,498.0,501.0,508.0,529.0
495.0,500.0,498.0,499.0,531.0
492.0,503.0,497.0,493.0,529.0
496.0,506.0,502.0,491.0,525.0
498.0,507.0,505.0,487.0,522.0
504.0,510.0,511.0,490.0,514.0
507.0,508.0,515.0,487.0,512.0
506.0,503.0,513.0,484.0,515.0
513.0,506.0,519.0,491.0,509.0
521.0,507.0,526.0,501.0,504.0
525.0,509.0,531.0,512.0,500.0
533.0,512.0,531.0,525.0,496.0
535.0,511.0,534.0,531.0,494.0
534.0,513.0,530.0,538.0,496.0
526.0,507.0,523.0,532.0,504.0
517.0,503.0,515.0,525.0,511.0
506.0,498.0,504.0,514.0,522.0
498.0,499.0,498.0,505.0,529.0
495.0,500.0,497.0,497.0,532.0
495.0,504.0,498.0,493.0,528.0
497.0,506.0,502.0,490.0,526.0
497.0,508.0,506.0,488.0,521.0
506.0,510.0,513.0,489.0,515.0
507.0,508.0,514.0,489.0,516.0
506.0,505.0,514.0,486.0,516.0
515.0,506.0,520.0,495.0,512.0
523.0,508.0,526.0,504.0,507.0
531.0,511.0,531.0,515.0,502.0
536.0,514.0,533.0,530.0,494.0
535.0,511.0,532.0,532.0,494.0
533.0,512.0,529.0,535.0,498.0
525.0,507.0,521.0,530.0,506.0
516.0,502.0,512.0,523.0,513.0
501.0,496.0,500.0,509.0,523.0
495.0,497.0,494.0,501.0,528.0
495.0,499.0,494.0,495.0,526.0
501.0,506.0,501.0,492.0,523.0
497.0,506.0,502.0,489.0,523.0
504.0,512.0,510.0,491.0,517.0
509.0,512.0,515.0,490.0,517.0
510.0,507.0,515.0,488.0,519.0
514.0,508.0,519.0,491.0,521.0
520.0,508.0,526.0,501.0,512.0
523.0,509.0,527.0,506.0,513.0
526.0,510.0,531.0,518.0,504.0
526.0,511.0,531.0,528.0,494.0
524.0,510.0,530.0,534.0,491.0
518.0,509.0,525.0,534.0,492.0
510.0,504.0,516.0,528.0,502.0
503.0,499.0,509.0,520.0,519.0
497.0,497.0,499.0,509.0,528.0
491.0,500.0,496.0,499.0,533.0
515.0,505.0,498.0,495.0,530.0
514.0,507.0,501.0,495.0,530.0
506.0,507.0,503.0,488.0,530.0
510.0,511.0,511.0,491.0,523.0
516.0,509.0,515.0,488.0,517.0
513.0,505.0,513.0,487.0,519.0
519.0,506.0,519.0,492.0,509.0
528.0,514.0,525.0,507.0,496.0
535.0,509.0,527.0,512.0,489.0
537.0,509.0,529.0,523.0,484.0
539.0,512.0,534.0,532.0,488.0
533.0,510.0,529.0,534.0,492.0
526.0,505.0,520.0,530.0,499.0
516.0,504.0,514.0,527.0,507.0
505.0,499.0,503.0,520.0,521.0
492.0,498.0,497.0,507.0,529.0
493.0,500.0,495.0,498.0,530.0
495.0,503.0,498.0,494.0,527.0
499.0,507.0,502.0,493.0,522.0
508.0,508.0,505.0,490.0,518.0
519.0,510.0,512.0,490.0,512.0
520.0,508.0,515.0,490.0,512.0
515.0,505.0,514.0,489.0,514.0
520.0,506.0,520.0,495.0,510.0
525.0,507.0,524.0,505.0,503.0
530.0,510.0,528.0,515.0,498.0
536.0,511.0,532.0,531.0,496.0
536.0,511.0,531.0,533.0,493.0
532.0,509.0,527.0,540.0,500.0
530.0,508.0,523.0,532.0,515.0
516.0,503.0,515.0,525.0,524.0
507.0,498.0,503.0,511.0,534.0
494.0,497.0,493.0,501.0,546.0
491.0,500.0,494.0,496.0,540.0
490.0,504.0,497.0,493.0,527.0
496.0,505.0,501.0,492.0,509.0
501.0,510.0,509.0,495.0,507.0
504.0,510.0,513.0,494.0,511.0
505.0,507.0,514.0,491.0,517.0
508.0,507.0,518.0,493.0,519.0
518.0,510.0,521.0,501.0,508.0
519.0,508.0,524.0,508.0,507.0
522.0,509.0,527.0,522.0,502.0
525.0,516.0,533.0,530.0,496.0
521.0,510.0,528.0,535.0,486.0
517.0,508.0,524.0,537.0,491.0
515.0,505.0,516.0,536.0,498.0
511.0,500.0,506.0,525.0,509.0
498.0,498.0,496.0,509.0,520.0
492.0,496.0,492.0,500.0,526.0
514.0,501.0,494.0,497.0,525.0
512.0,506.0,498.0,496.0,527.0
505.0,507.0,503.0,493.0,523.0
512.0,511.0,509.0,496.0,516.0
516.0,513.0,514.0,493.0,515.0
509.0,507.0,514.0,491.0,515.0
517.0,506.0,519.0,496.0,511.0
525.0,508.0,523.0,505.0,507.0
528.0,509.0,526.0,512.0,503.0
533.0,511.0,530.0,524.0,498.0
539.0,514.0,533.0,534.0,498.0
534.0,511.0,528.0,537.0,499.0
526.0,507.0,521.0,534.0,501.0
521.0,505.0,510.0,529.0,509.0
507.0,499.0,502.0,518.0,520.0
497.0,497.0,494.0,508.0,525.0
489.0,498.0,491.0,500.0,525.0
493.0,501.0,494.0,496.0,526.0
496.0,504.0,499.0,494.0,524.0
499.0,506.0,503.0,491.0,521.0
504.0,509.0,508.0,495.0,513.0
507.0,508.0,512.0,495.0,511.0
508.0,505.0,512.0,489.0,513.0
516.0,507.0,519.0,499.0,508.0
522.0,508.0,523.0,507.0,504.0
527.0,510.0,526.0,518.0,500.0
533.0,513.0,531.0,532.0,498.0
534.0,513.0,530.0,536.0,499.0
531.0,510.0,525.0,538.0,501.0
522.0,506.0,518.0,534.0,503.0
511.0,501.0,506.0,527.0,507.0
502.0,498.0,498.0,515.0,518.0
496.0,499.0,494.0,507.0,528.0
495.0,502.0,495.0,501.0,531.0
495.0,506.0,497.0,498.0,533.0
497.0,508.0,499.0,493.0,526.0
500.0,514.0,505.0,494.0,520.0
505.0,512.0,511.0,494.0,516.0
512.0,507.0,512.0,492.0,516.0
514.0,507.0,516.0,493.0,513.0
518.0,508.0,521.0,503.0,509.0
522.0,508.0,524.0,511.0,507.0
530.0,511.0,528.0,521.0,500.0
533.0,511.0,530.0,532.0,495.0
534.0,512.0,528.0,536.0,498.0
530.0,510.0,524.0,539.0,498.0
520.0,505.0,516.0,530.0,508.0
513.0,502.0,508.0,526.0,517.0
500.0,499.0,496.0,514.0,528.0
492.0,500.0,492.0,505.0,533.0
494.0,504.0,495.0,500.0,533.0
500.0,507.0,499.0,496.0,527.0
497.0,507.0,502.0,493.0,522.0
502.0,510.0,508.0,493.0,516.0
506.0,510.0,511.0,493.0,516.0
505.0,506.0,511.0,490.0,517.0
513.0,508.0,519.0,498.0,506.0
521.0,508.0,519.0,505.0,501.0
525.0,507.0,522.0,512.0,497.0
534.0,511.0,529.0,525.0,494.0
536.0,512.0,528.0,534.0,491.0
537.0,513.0,528.0,539.0,494.0
532.0,508.0,521.0,536.0,500.0
519.0,504.0,512.0,531.0,508.0
509.0,500.0,503.0,521.0,521.0
498.0,498.0,496.0,511.0,530.0
494.0,500.0,494.0,504.0,532.0
493.0,502.0,495.0,497.0,534.0
493.0,505.0,498.0,493.0,530.0
499.0,507.0,507.0,492.0,530.0
505.0,509.0,510.0,494.0,522.0
508.0,510.0,513.0,494.0,517.0
509.0,506.0,512.0,490.0,516.0
516.0,507.0,520.0,499.0,507.0
520.0,508.0,524.0,508.0,502.0
527.0,510.0,526.0,518.0,498.0
530.0,511.0,529.0,528.0,494.0
533.0,513.0,532.0,537.0,490.0
527.0,509.0,526.0,537.0,494.0
520.0,505.0,518.0,534.0,503.0
513.0,501.0,509.0,527.0,509.0
501.0,497.0,498.0,516.0,520.0
495.0,497.0,494.0,507.0,529.0
491.0,498.0,490.0,498.0,530.0
501.0,504.0,497.0,497.0,531.0
504.0,507.0,500.0,495.0,533.0
505.0,509.0,507.0,494.0,523.0
506.0,509.0,512.0,494.0,520.0
512.0,508.0,514.0,492.0,518.0
513.0,506.0,516.0,494.0,514.0
517.0,507.0,522.0,503.0,505.0
525.0,509.0,525.0,512.0,502.0
534.0,511.0,529.0,523.0,496.0
534.0,515.0,530.0,533.0,495.0
536.0,511.0,528.0,536.0,497.0
528.0,508.0,522.0,535.0,499.0
521.0,505.0,515.0,529.0,505.0
515.0,503.0,509.0,527.0,512.0
503.0,499.0,497.0,514.0,527.0
500.0,498.0,493.0,505.0,529.0
499.0,501.0,493.0,501.0,529.0
500.0,504.0,498.0,496.0,526.0
499.0,507.0,501.0,496.0,527.0
503.0,509.0,508.0,494.0,520.0
503.0,508.0,512.0,497.0,517.0
502.0,505.0,511.0,493.0,519.0
510.0,506.0,517.0,496.0,512.0
519.0,506.0,523.0,503.0,507.0
520.0,507.0,524.0,513.0,508.0
528.0,510.0,528.0,522.0,503.0
544.0,513.0,532.0,535.0,502.0
538.0,511.0,526.0,537.0,500.0
536.0,509.0,523.0,537.0,498.0
526.0,507.0,515.0,532.0,503.0
512.0,499.0,504.0,522.0,516.0
497.0,496.0,495.0,511.0,523.0
498.0,500.0,492.0,506.0,527.0
496.0,501.0,496.0,496.0,527.0
501.0,504.0,499.0,495.0,522.0
503.0,506.0,505.0,492.0,520.0
506.0,507.0,508.0,493.0,519.0
509.0,508.0,512.0,492.0,515.0
506.0,504.0,511.0,491.0,509.0
519.0,505.0,517.0,498.0,505.0
528.0,509.0,524.0,509.0,499.0
532.0,510.0,525.0,518.0,498.0
535.0,512.0,529.0,530.0,501.0
535.0,515.0,530.0,536.0,496.0
536.0,512.0,523.0,539.0,498.0
525.0,504.0,517.0,535.0,508.0
516.0,500.0,509.0,527.0,518.0
503.0,496.0,497.0,516.0,529.0
496.0,497.0,492.0,507.0,534.0
495.0,500.0,494.0,501.0,526.0
496.0,503.0,496.0,498.0,525.0
