CH1,CH2,CH3,CH4
511.0,502.0,502.0,506.0
523.0,505.0,493.0,502.0
531.0,514.0,497.0,500.0
542.0,518.0,499.0,496.0
549.0,512.0,501.0,494.0
545.0,511.0,503.0,498.0
534.0,499.0,506.0,497.0
530.0,504.0,515.0,506.0
507.0,490.0,517.0,520.0
490.0,482.0,520.0,520.0
479.0,494.0,523.0,533.0
481.0,508.0,526.0,532.0
484.0,511.0,526.0,534.0
489.0,515.0,525.0,531.0
490.0,509.0,515.0,526.0
498.0,512.0,514.0,518.0
504.0,508.0,509.0,512.0
517.0,506.0,502.0,506.0
523.0,505.0,502.0,502.0
535.0,509.0,497.0,498.0
546.0,512.0,500.0,501.0
550.0,511.0,504.0,496.0
543.0,507.0,509.0,500.0
533.0,500.0,512.0,504.0
525.0,500.0,506.0,506.0
500.0,487.0,514.0,516.0
482.0,488.0,523.0,528.0
481.0,493.0,530.0,533.0
480.0,503.0,537.0,537.0
482.0,508.0,523.0,534.0
490.0,515.0,518.0,529.0
488.0,505.0,514.0,523.0
502.0,512.0,513.0,519.0
509.0,507.0,508.0,511.0
515.0,506.0,504.0,504.0
524.0,503.0,507.0,502.0
537.0,509.0,502.0,499.0
550.0,514.0,500.0,494.0
553.0,518.0,502.0,496.0
541.0,506.0,509.0,499.0
534.0,498.0,514.0,506.0
512.0,476.0,514.0,513.0
497.0,475.0,526.0,522.0
485.0,493.0,530.0,526.0
483.0,496.0,527.0,532.0
480.0,515.0,529.0,535.0
481.0,523.0,531.0,534.0
490.0,515.0,521.0,527.0
492.0,506.0,512.0,520.0
503.0,509.0,506.0,516.0
511.0,504.0,501.0,507.0
519.0,506.0,501.0,502.0
529.0,506.0,496.0,498.0
542.0,503.0,502.0,495.0
548.0,503.0,499.0,494.0
551.0,500.0,507.0,498.0
537.0,487.0,510.0,501.0
535.0,495.0,510.0,505.0
507.0,487.0,507.0,513.0
487.0,492.0,514.0,523.0
484.0,495.0,522.0,529.0
483.0,490.0,529.0,536.0
485.0,492.0,525.0,534.0
493.0,504.0,525.0,532.0
489.0,498.0,516.0,524.0
494.0,500.0,513.0,521.0
502.0,513.0,506.0,514.0
509.0,524.0,504.0,505.0
525.0,526.0,500.0,499.0
537.0,528.0,502.0,498.0
542.0,522.0,502.0,496.0
540.0,512.0,504.0,496.0
533.0,499.0,507.0,498.0
526.0,500.0,516.0,503.0
518.0,494.0,520.0,508.0
487.0,486.0,510.0,517.0
497.0,501.0,519.0,525.0
497.0,500.0,527.0,536.0
480.0,503.0,533.0,535.0
477.0,503.0,527.0,535.0
489.0,510.0,515.0,526.0
490.0,515.0,510.0,523.0
511.0,518.0,516.0,524.0
529.0,511.0,507.0,510.0
530.0,510.0,501.0,504.0
537.0,516.0,497.0,497.0
549.0,529.0,511.0,499.0
559.0,519.0,510.0,497.0
559.0,516.0,507.0,501.0
545.0,503.0,496.0,500.0
531.0,499.0,501.0,500.0
507.0,486.0,512.0,510.0
483.0,479.0,517.0,520.0
470.0,479.0,529.0,529.0
459.0,480.0,532.0,535.0
469.0,490.0,532.0,536.0
493.0,506.0,524.0,534.0
497.0,515.0,528.0,527.0
502.0,530.0,525.0,521.0
519.0,534.0,509.0,517.0
525.0,519.0,493.0,506.0
528.0,513.0,495.0,500.0
539.0,504.0,501.0,494.0
548.0,509.0,510.0,496.0
556.0,514.0,516.0,495.0
553.0,520.0,505.0,494.0
539.0,505.0,504.0,500.0
534.0,506.0,504.0,504.0
511.0,497.0,515.0,517.0
495.0,491.0,519.0,524.0
483.0,489.0,519.0,530.0
477.0,496.0,527.0,532.0
482.0,511.0,528.0,533.0
488.0,522.0,526.0,533.0
492.0,517.0,517.0,529.0
495.0,514.0,517.0,530.0
503.0,510.0,509.0,517.0
510.0,505.0,501.0,513.0
520.0,502.0,503.0,494.0
529.0,505.0,493.0,495.0
535.0,506.0,498.0,492.0
542.0,500.0,502.0,496.0
535.0,500.0,504.0,494.0
517.0,496.0,505.0,501.0
508.0,493.0,510.0,507.0
513.0,489.0,517.0,516.0
515.0,496.0,524.0,524.0
497.0,500.0,528.0,533.0
491.0,503.0,527.0,536.0
489.0,506.0,525.0,533.0
497.0,508.0,526.0,529.0
489.0,494.0,515.0,525.0
497.0,509.0,516.0,520.0
503.0,509.0,513.0,510.0
501.0,500.0,503.0,504.0
502.0,494.0,497.0,499.0
513.0,493.0,498.0,497.0
537.0,503.0,502.0,496.0
543.0,504.0,505.0,497.0
535.0,494.0,505.0,499.0
540.0,500.0,507.0,504.0
551.0,506.0,511.0,512.0
528.0,505.0,515.0,521.0
499.0,507.0,525.0,526.0
489.0,501.0,529.0,535.0
491.0,502.0,530.0,539.0
490.0,503.0,525.0,531.0
492.0,512.0,523.0,533.0
501.0,522.0,515.0,523.0
499.0,507.0,513.0,517.0
507.0,506.0,504.0,506.0
525.0,502.0,502.0,502.0
537.0,508.0,502.0,498.0
545.0,508.0,501.0,491.0
546.0,501.0,501.0,493.0
554.0,509.0,503.0,493.0
540.0,500.0,505.0,497.0
541.0,503.0,510.0,504.0
515.0,491.0,516.0,514.0
497.0,492.0,520.0,523.0
485.0,502.0,525.0,529.0
480.0,503.0,530.0,535.0
488.0,508.0,528.0,535.0
491.0,505.0,527.0,534.0
493.0,504.0,519.0,524.0
498.0,501.0,513.0,519.0
507.0,505.0,511.0,516.0
517.0,523.0,503.0,507.0
528.0,513.0,497.0,501.0
540.0,515.0,499.0,498.0
547.0,513.0,500.0,494.0
551.0,507.0,504.0,494.0
548.0,509.0,505.0,497.0
532.0,505.0,507.0,501.0
522.0,498.0,511.0,508.0
498.0,486.0,513.0,516.0
486.0,490.0,529.0,534.0
484.0,494.0,527.0,530.0
485.0,503.0,529.0,532.0
482.0,507.0,530.0,533.0
493.0,524.0,526.0,530.0
493.0,512.0,516.0,523.0
500.0,511.0,515.0,517.0
507.0,506.0,505.0,511.0
521.0,504.0,507.0,505.0
526.0,506.0,505.0,504.0
539.0,513.0,502.0,502.0
548.0,511.0,502.0,498.0
549.0,509.0,504.0,498.0
542.0,497.0,504.0,498.0
532.0,488.0,508.0,503.0
514.0,479.0,512.0,508.0
495.0,492.0,519.0,519.0
489.0,511.0,524.0,528.0
480.0,507.0,526.0,535.0
482.0,509.0,529.0,534.0
485.0,506.0,526.0,535.0
492.0,507.0,524.0,529.0
496.0,505.0,515.0,522.0
505.0,511.0,512.0,511.0
507.0,501.0,504.0,507.0
512.0,508.0,501.0,503.0
521.0,510.0,497.0,496.0
540.0,504.0,501.0,495.0
550.0,505.0,499.0,492.0
548.0,504.0,502.0,495.0
538.0,501.0,506.0,499.0
530.0,502.0,508.0,504.0
513.0,489.0,515.0,513.0
494.0,494.0,519.0,521.0
483.0,495.0,525.0,529.0
481.0,501.0,527.0,536.0
483.0,509.0,526.0,534.0
487.0,515.0,525.0,532.0
491.0,512.0,521.0,529.0
496.0,512.0,515.0,521.0
502.0,508.0,507.0,515.0
512.0,504.0,501.0,503.0
523.0,508.0,501.0,502.0
539.0,514.0,504.0,498.0
550.0,515.0,501.0,495.0
552.0,512.0,503.0,492.0
543.0,503.0,506.0,495.0
530.0,490.0,509.0,503.0
527.0,500.0,510.0,505.0
499.0,488.0,517.0,518.0
479.0,482.0,522.0,530.0
484.0,483.0,527.0,531.0
484.0,488.0,529.0,535.0
478.0,492.0,533.0,544.0
488.0,508.0,525.0,535.0
494.0,520.0,517.0,526.0
502.0,506.0,511.0,517.0
510.0,510.0,508.0,513.0
518.0,505.0,498.0,508.0
526.0,497.0,495.0,499.0
539.0,501.0,501.0,496.0
548.0,514.0,507.0,494.0
544.0,517.0,513.0,503.0
542.0,506.0,501.0,498.0
534.0,497.0,503.0,501.0
511.0,486.0,509.0,511.0
496.0,490.0,515.0,521.0
485.0,502.0,524.0,531.0
484.0,510.0,528.0,534.0
483.0,511.0,526.0,534.0
489.0,516.0,526.0,532.0
496.0,520.0,521.0,528.0
489.0,511.0,517.0,521.0
497.0,507.0,510.0,514.0
506.0,499.0,500.0,505.0
515.0,503.0,496.0,500.0
527.0,505.0,494.0,497.0
538.0,510.0,497.0,494.0
548.0,505.0,504.0,493.0
553.0,510.0,508.0,498.0
534.0,496.0,514.0,506.0
522.0,496.0,512.0,500.0
496.0,485.0,509.0,512.0
482.0,485.0,514.0,521.0
476.0,491.0,525.0,530.0
475.0,503.0,531.0,537.0
485.0,500.0,531.0,535.0
493.0,506.0,525.0,535.0
503.0,505.0,518.0,529.0
510.0,505.0,512.0,524.0
511.0,502.0,509.0,518.0
516.0,511.0,504.0,511.0
525.0,505.0,501.0,500.0
538.0,511.0,501.0,498.0
552.0,519.0,500.0,494.0
553.0,515.0,499.0,493.0
544.0,507.0,502.0,497.0
525.0,498.0,508.0,501.0
516.0,504.0,510.0,506.0
486.0,493.0,515.0,516.0
472.0,495.0,520.0,526.0
487.0,501.0,524.0,532.0
495.0,510.0,529.0,536.0
489.0,512.0,528.0,531.0
507.0,524.0,525.0,532.0
503.0,513.0,518.0,523.0
515.0,517.0,515.0,521.0
516.0,511.0,504.0,510.0
524.0,502.0,502.0,506.0
534.0,504.0,502.0,501.0
544.0,512.0,506.0,498.0
553.0,511.0,501.0,495.0
554.0,516.0,500.0,496.0
545.0,509.0,502.0,500.0
534.0,494.0,509.0,500.0
515.0,480.0,511.0,510.0
490.0,480.0,517.0,520.0
481.0,488.0,526.0,530.0
474.0,485.0,527.0,535.0
472.0,483.0,529.0,535.0
472.0,473.0,525.0,536.0
483.0,511.0,523.0,532.0
481.0,516.0,514.0,530.0
497.0,527.0,509.0,519.0
506.0,507.0,506.0,510.0
526.0,514.0,506.0,501.0
530.0,504.0,503.0,504.0
550.0,519.0,500.0,498.0
564.0,521.0,501.0,494.0
561.0,518.0,503.0,496.0
544.0,501.0,507.0,502.0
537.0,500.0,512.0,507.0
510.0,492.0,514.0,515.0
499.0,496.0,520.0,523.0
488.0,504.0,525.0,532.0
485.0,505.0,528.0,540.0
487.0,511.0,525.0,536.0
491.0,509.0,526.0,535.0
494.0,509.0,524.0,532.0
501.0,507.0,517.0,524.0
508.0,507.0,512.0,518.0
513.0,505.0,503.0,506.0
525.0,508.0,503.0,501.0
536.0,513.0,502.0,497.0
545.0,509.0,503.0,495.0
551.0,505.0,508.0,497.0
548.0,506.0,507.0,501.0
532.0,497.0,508.0,503.0
528.0,502.0,513.0,511.0
502.0,489.0,521.0,520.0
489.0,488.0,527.0,531.0
483.0,496.0,526.0,530.0
482.0,503.0,529.0,538.0
485.0,502.0,528.0,534.0
494.0,510.0,522.0,529.0
494.0,507.0,518.0,525.0
503.0,507.0,514.0,519.0
510.0,508.0,509.0,512.0
514.0,504.0,509.0,506.0
525.0,505.0,500.0,498.0
537.0,508.0,501.0,496.0
549.0,514.0,501.0,495.0
544.0,509.0,505.0,499.0
536.0,496.0,508.0,501.0
519.0,499.0,508.0,504.0
502.0,495.0,515.0,512.0
484.0,490.0,517.0,523.0
465.0,483.0,525.0,530.0
481.0,490.0,525.0,534.0
502.0,509.0,528.0,537.0
499.0,510.0,528.0,536.0
503.0,511.0,521.0,535.0
499.0,509.0,515.0,524.0
511.0,511.0,512.0,519.0
515.0,508.0,503.0,509.0
528.0,507.0,501.0,503.0
536.0,509.0,502.0,500.0
545.0,510.0,501.0,497.0
552.0,511.0,498.0,492.0
555.0,509.0,502.0,497.0
539.0,500.0,504.0,499.0
531.0,501.0,510.0,504.0
506.0,487.0,515.0,517.0
493.0,488.0,522.0,525.0
486.0,492.0,519.0,531.0
480.0,498.0,532.0,537.0
483.0,499.0,535.0,538.0
485.0,508.0,532.0,537.0
493.0,506.0,525.0,528.0
496.0,512.0,506.0,524.0
504.0,509.0,503.0,514.0
510.0,503.0,503.0,507.0
526.0,505.0,498.0,503.0
539.0,512.0,503.0,499.0
545.0,513.0,504.0,496.0
550.0,506.0,505.0,496.0
549.0,501.0,506.0,497.0
530.0,489.0,502.0,504.0
523.0,493.0,512.0,506.0
501.0,491.0,516.0,518.0
478.0,504.0,525.0,527.0
467.0,502.0,526.0,532.0
462.0,507.0,525.0,537.0
457.0,505.0,537.0,538.0
466.0,499.0,529.0,534.0
470.0,490.0,521.0,527.0
486.0,504.0,514.0,521.0
496.0,497.0,509.0,513.0
508.0,501.0,502.0,506.0
526.0,507.0,503.0,503.0
556.0,520.0,502.0,499.0
576.0,524.0,502.0,497.0
561.0,507.0,503.0,495.0
545.0,499.0,505.0,502.0
536.0,493.0,506.0,503.0
518.0,487.0,511.0,512.0
498.0,490.0,519.0,522.0
506.0,501.0,524.0,529.0
508.0,503.0,531.0,536.0
495.0,506.0,531.0,539.0
491.0,513.0,529.0,537.0
498.0,520.0,525.0,531.0
497.0,512.0,516.0,522.0
507.0,518.0,511.0,522.0
512.0,505.0,508.0,512.0
528.0,505.0,503.0,504.0
532.0,508.0,502.0,503.0
545.0,512.0,508.0,498.0
554.0,511.0,503.0,496.0
553.0,510.0,507.0,497.0
539.0,500.0,509.0,504.0
529.0,500.0,511.0,507.0
508.0,488.0,516.0,514.0
491.0,487.0,522.0,527.0
484.0,494.0,527.0,533.0
479.0,501.0,531.0,538.0
481.0,506.0,532.0,538.0
485.0,511.0,528.0,537.0
488.0,508.0,524.0,533.0
495.0,511.0,520.0,526.0
504.0,512.0,511.0,517.0
515.0,506.0,510.0,513.0
523.0,503.0,507.0,506.0
537.0,495.0,505.0,500.0
545.0,500.0,500.0,494.0
547.0,499.0,501.0,492.0
544.0,512.0,503.0,495.0
535.0,510.0,507.0,498.0
528.0,509.0,516.0,507.0
498.0,494.0,512.0,516.0
488.0,489.0,517.0,525.0
481.0,494.0,527.0,533.0
482.0,502.0,530.0,538.0
486.0,507.0,524.0,536.0
494.0,515.0,525.0,532.0
490.0,504.0,517.0,525.0
500.0,509.0,515.0,522.0
510.0,504.0,511.0,513.0
517.0,501.0,504.0,508.0
521.0,503.0,502.0,506.0
539.0,514.0,505.0,502.0
550.0,513.0,510.0,498.0
550.0,512.0,512.0,499.0
542.0,503.0,512.0,500.0
531.0,499.0,505.0,503.0
514.0,492.0,503.0,510.0
486.0,482.0,513.0,519.0
520.0,509.0,536.0,509.0
519.0,503.0,532.0,512.0
504.0,489.0,521.0,514.0
501.0,491.0,512.0,517.0
500.0,495.0,504.0,518.0
505.0,507.0,498.0,519.0
508.0,509.0,496.0,520.0
511.0,507.0,494.0,519.0
514.0,505.0,488.0,513.0
516.0,511.0,498.0,513.0
512.0,508.0,504.0,510.0
515.0,510.0,505.0,509.0
518.0,509.0,513.0,505.0
519.0,514.0,522.0,505.0
519.0,514.0,532.0,506.0
525.0,511.0,538.0,508.0
516.0,509.0,539.0,510.0
512.0,503.0,537.0,512.0
512.0,502.0,530.0,513.0
497.0,488.0,521.0,516.0
497.0,492.0,505.0,517.0
493.0,496.0,503.0,521.0
500.0,501.0,499.0,521.0
504.0,508.0,493.0,520.0
509.0,510.0,496.0,518.0
509.0,509.0,495.0,516.0
512.0,511.0,494.0,513.0
510.0,509.0,500.0,510.0
521.0,510.0,505.0,507.0
523.0,509.0,516.0,506.0
526.0,511.0,527.0,505.0
527.0,513.0,534.0,509.0
526.0,509.0,539.0,510.0
517.0,500.0,537.0,511.0
514.0,499.0,534.0,509.0
503.0,492.0,528.0,516.0
499.0,491.0,515.0,515.0
499.0,495.0,508.0,519.0
498.0,497.0,500.0,523.0
506.0,503.0,497.0,521.0
505.0,505.0,493.0,520.0
506.0,502.0,492.0,517.0
505.0,507.0,493.0,514.0
511.0,508.0,496.0,512.0
510.0,510.0,499.0,507.0
522.0,520.0,510.0,505.0
525.0,517.0,517.0,507.0
527.0,520.0,528.0,508.0
530.0,513.0,534.0,507.0
531.0,506.0,539.0,512.0
525.0,501.0,536.0,512.0
523.0,498.0,533.0,512.0
510.0,487.0,525.0,514.0
506.0,491.0,517.0,518.0
502.0,502.0,505.0,518.0
501.0,501.0,500.0,522.0
503.0,502.0,498.0,518.0
504.0,516.0,495.0,520.0
498.0,515.0,494.0,516.0
505.0,526.0,492.0,519.0
510.0,518.0,495.0,511.0
513.0,511.0,502.0,504.0
513.0,508.0,510.0,505.0
517.0,509.0,520.0,508.0
531.0,511.0,533.0,502.0
529.0,506.0,540.0,510.0
523.0,491.0,536.0,508.0
514.0,491.0,535.0,509.0
510.0,485.0,530.0,513.0
503.0,480.0,520.0,514.0
499.0,493.0,512.0,519.0
501.0,503.0,500.0,519.0
504.0,512.0,498.0,521.0
509.0,522.0,493.0,521.0
511.0,520.0,492.0,518.0
506.0,505.0,493.0,516.0
513.0,501.0,493.0,514.0
513.0,497.0,495.0,508.0
517.0,498.0,507.0,506.0
522.0,500.0,517.0,513.0
527.0,506.0,530.0,509.0
526.0,509.0,538.0,507.0
520.0,513.0,545.0,511.0
514.0,510.0,541.0,509.0
517.0,507.0,533.0,510.0
504.0,493.0,523.0,513.0
498.0,487.0,515.0,515.0
497.0,496.0,504.0,518.0
500.0,504.0,497.0,518.0
506.0,513.0,491.0,519.0
506.0,516.0,492.0,519.0
504.0,517.0,490.0,514.0
510.0,514.0,492.0,513.0
509.0,508.0,494.0,511.0
509.0,501.0,501.0,507.0
514.0,505.0,510.0,506.0
522.0,511.0,519.0,508.0
529.0,514.0,527.0,507.0
525.0,517.0,536.0,508.0
522.0,510.0,535.0,510.0
516.0,499.0,535.0,511.0
515.0,498.0,532.0,511.0
496.0,484.0,522.0,516.0
499.0,489.0,512.0,518.0
501.0,493.0,506.0,518.0
504.0,502.0,500.0,522.0
509.0,509.0,496.0,522.0
514.0,520.0,495.0,517.0
511.0,519.0,492.0,515.0
510.0,520.0,495.0,513.0
506.0,516.0,502.0,510.0
510.0,512.0,503.0,507.0
512.0,510.0,511.0,504.0
521.0,507.0,523.0,512.0
526.0,507.0,538.0,508.0
530.0,500.0,537.0,510.0
526.0,490.0,536.0,507.0
517.0,490.0,536.0,510.0
511.0,487.0,536.0,516.0
498.0,482.0,522.0,520.0
494.0,494.0,519.0,523.0
496.0,505.0,510.0,529.0
498.0,518.0,506.0,527.0
505.0,521.0,499.0,523.0
518.0,522.0,497.0,520.0
515.0,515.0,493.0,516.0
514.0,518.0,496.0,513.0
509.0,510.0,501.0,505.0
515.0,507.0,507.0,507.0
518.0,513.0,516.0,507.0
525.0,510.0,524.0,505.0
528.0,509.0,529.0,504.0
527.0,505.0,534.0,506.0
520.0,494.0,532.0,502.0
518.0,500.0,527.0,507.0
506.0,490.0,518.0,509.0
500.0,493.0,510.0,514.0
499.0,499.0,508.0,521.0
504.0,505.0,505.0,518.0
508.0,505.0,492.0,519.0
505.0,508.0,490.0,518.0
511.0,509.0,489.0,515.0
515.0,510.0,493.0,514.0
512.0,513.0,496.0,512.0
510.0,505.0,501.0,509.0
509.0,505.0,512.0,507.0
517.0,507.0,519.0,508.0
522.0,509.0,527.0,506.0
522.0,507.0,537.0,512.0
526.0,507.0,543.0,508.0
516.0,493.0,539.0,511.0
517.0,494.0,536.0,513.0
502.0,480.0,529.0,520.0
498.0,487.0,521.0,522.0
495.0,495.0,501.0,519.0
497.0,499.0,493.0,516.0
499.0,507.0,491.0,515.0
507.0,525.0,489.0,513.0
505.0,520.0,485.0,511.0
509.0,524.0,492.0,510.0
514.0,520.0,494.0,506.0
514.0,523.0,506.0,504.0
518.0,506.0,511.0,503.0
524.0,507.0,521.0,504.0
527.0,507.0,531.0,505.0
527.0,511.0,539.0,505.0
524.0,503.0,536.0,508.0
516.0,502.0,533.0,506.0
513.0,502.0,526.0,507.0
495.0,492.0,517.0,514.0
494.0,497.0,507.0,515.0
499.0,507.0,501.0,516.0
502.0,512.0,494.0,519.0
511.0,509.0,491.0,518.0
517.0,515.0,492.0,518.0
514.0,507.0,489.0,513.0
519.0,503.0,498.0,509.0
514.0,494.0,496.0,504.0
515.0,500.0,501.0,504.0
509.0,510.0,513.0,503.0
514.0,511.0,523.0,507.0
519.0,506.0,532.0,506.0
523.0,502.0,538.0,508.0
516.0,501.0,535.0,513.0
523.0,505.0,532.0,515.0
513.0,495.0,527.0,517.0
505.0,490.0,519.0,521.0
500.0,492.0,509.0,523.0
499.0,500.0,505.0,524.0
504.0,508.0,500.0,524.0
505.0,516.0,497.0,519.0
501.0,514.0,495.0,514.0
503.0,509.0,492.0,512.0
503.0,514.0,493.0,508.0
500.0,504.0,498.0,500.0
508.0,507.0,504.0,503.0
516.0,511.0,515.0,504.0
527.0,514.0,525.0,503.0
526.0,511.0,533.0,501.0
529.0,507.0,536.0,509.0
517.0,497.0,532.0,509.0
516.0,498.0,532.0,512.0
500.0,483.0,521.0,516.0
501.0,493.0,513.0,519.0
497.0,498.0,505.0,523.0
505.0,510.0,496.0,519.0
509.0,514.0,492.0,520.0
512.0,518.0,490.0,518.0
510.0,511.0,489.0,513.0
512.0,512.0,493.0,513.0
509.0,509.0,495.0,504.0
510.0,505.0,502.0,504.0
513.0,505.0,511.0,503.0
520.0,509.0,526.0,507.0
527.0,513.0,531.0,504.0
525.0,511.0,536.0,509.0
523.0,503.0,539.0,511.0
514.0,497.0,536.0,513.0
507.0,495.0,531.0,516.0
495.0,478.0,521.0,518.0
495.0,486.0,509.0,519.0
498.0,500.0,500.0,518.0
504.0,504.0,496.0,518.0
509.0,505.0,497.0,520.0
526.0,504.0,494.0,520.0
520.0,498.0,493.0,515.0
520.0,502.0,498.0,515.0
518.0,496.0,499.0,508.0
519.0,505.0,508.0,508.0
513.0,513.0,515.0,505.0
517.0,524.0,522.0,508.0
518.0,525.0,534.0,509.0
521.0,523.0,538.0,513.0
518.0,511.0,536.0,512.0
508.0,503.0,534.0,516.0
499.0,487.0,526.0,515.0
495.0,486.0,516.0,518.0
496.0,491.0,506.0,519.0
501.0,499.0,503.0,522.0
505.0,507.0,509.0,526.0
503.0,514.0,499.0,528.0
503.0,512.0,494.0,520.0
509.0,517.0,491.0,515.0
511.0,517.0,495.0,510.0
507.0,510.0,497.0,501.0
514.0,510.0,504.0,492.0
521.0,514.0,512.0,497.0
524.0,508.0,523.0,498.0
526.0,506.0,531.0,504.0
523.0,507.0,535.0,506.0
514.0,497.0,533.0,508.0
515.0,500.0,530.0,510.0
503.0,488.0,516.0,514.0
500.0,490.0,510.0,516.0
499.0,492.0,502.0,519.0
503.0,504.0,495.0,518.0
505.0,505.0,493.0,514.0
512.0,508.0,496.0,515.0
511.0,509.0,491.0,512.0
515.0,512.0,494.0,514.0
513.0,509.0,504.0,508.0
515.0,506.0,500.0,501.0
517.0,506.0,509.0,505.0
521.0,511.0,521.0,506.0
526.0,513.0,529.0,506.0
524.0,507.0,535.0,509.0
521.0,505.0,533.0,510.0
520.0,502.0,530.0,511.0
512.0,496.0,525.0,514.0
499.0,492.0,518.0,515.0
494.0,495.0,512.0,520.0
494.0,500.0,506.0,523.0
500.0,505.0,502.0,522.0
507.0,510.0,498.0,522.0
509.0,519.0,494.0,517.0
508.0,509.0,485.0,512.0
512.0,515.0,493.0,508.0
510.0,512.0,496.0,506.0
513.0,511.0,510.0,510.0
516.0,514.0,522.0,509.0
523.0,514.0,530.0,508.0
527.0,496.0,534.0,506.0
526.0,491.0,536.0,508.0
520.0,489.0,533.0,508.0
518.0,495.0,528.0,509.0
506.0,484.0,523.0,512.0
500.0,480.0,513.0,512.0
500.0,487.0,505.0,519.0
501.0,495.0,499.0,518.0
507.0,495.0,497.0,518.0
510.0,499.0,494.0,519.0
510.0,514.0,490.0,516.0
511.0,526.0,494.0,512.0
510.0,529.0,496.0,510.0
509.0,531.0,499.0,508.0
505.0,522.0,512.0,504.0
518.0,518.0,520.0,507.0
525.0,512.0,532.0,508.0
528.0,506.0,540.0,505.0
520.0,507.0,541.0,512.0
510.0,492.0,535.0,510.0
517.0,497.0,530.0,511.0
501.0,489.0,522.0,516.0
499.0,489.0,512.0,515.0
501.0,502.0,505.0,520.0
502.0,508.0,500.0,523.0
500.0,512.0,496.0,523.0
509.0,522.0,495.0,518.0
506.0,515.0,496.0,516.0
511.0,515.0,492.0,511.0
514.0,511.0,498.0,510.0
514.0,508.0,503.0,506.0
515.0,509.0,514.0,506.0
520.0,510.0,524.0,504.0
523.0,511.0,531.0,507.0
523.0,511.0,539.0,510.0
519.0,506.0,538.0,512.0
517.0,500.0,535.0,514.0
509.0,492.0,537.0,515.0
502.0,488.0,520.0,516.0
497.0,485.0,513.0,519.0
501.0,496.0,505.0,520.0
504.0,505.0,500.0,523.0
507.0,509.0,495.0,522.0
509.0,516.0,492.0,517.0
506.0,516.0,491.0,508.0
507.0,516.0,495.0,514.0
508.0,513.0,499.0,507.0
506.0,509.0,507.0,510.0
508.0,505.0,515.0,507.0
517.0,506.0,531.0,509.0
525.0,505.0,535.0,510.0
528.0,509.0,537.0,511.0
519.0,497.0,537.0,513.0
522.0,505.0,536.0,513.0
509.0,489.0,528.0,516.0
497.0,484.0,519.0,518.0
496.0,488.0,509.0,518.0
499.0,494.0,501.0,521.0
505.0,503.0,491.0,518.0
510.0,507.0,490.0,517.0
508.0,521.0,490.0,516.0
503.0,524.0,492.0,512.0
513.0,521.0,495.0,510.0
516.0,516.0,501.0,506.0
516.0,519.0,511.0,506.0
522.0,518.0,519.0,502.0
523.0,510.0,534.0,507.0
525.0,501.0,535.0,508.0
524.0,502.0,538.0,510.0
514.0,491.0,534.0,513.0
518.0,497.0,533.0,513.0
504.0,492.0,524.0,516.0
503.0,493.0,514.0,517.0
505.0,503.0,506.0,521.0
506.0,508.0,498.0,519.0
509.0,510.0,493.0,519.0
514.0,517.0,493.0,517.0
504.0,500.0,489.0,521.0
509.0,508.0,493.0,510.0
508.0,508.0,495.0,508.0
513.0,515.0,505.0,505.0
517.0,509.0,513.0,503.0
521.0,505.0,519.0,507.0
522.0,504.0,532.0,509.0
525.0,504.0,535.0,508.0
519.0,500.0,534.0,512.0
518.0,500.0,534.0,514.0
514.0,493.0,531.0,519.0
507.0,495.0,523.0,522.0
503.0,493.0,516.0,524.0
500.0,499.0,506.0,524.0
501.0,508.0,499.0,520.0
503.0,508.0,495.0,521.0
510.0,519.0,496.0,518.0
506.0,507.0,496.0,514.0
511.0,513.0,495.0,512.0
511.0,513.0,500.0,506.0
515.0,517.0,508.0,503.0
514.0,515.0,514.0,501.0
526.0,519.0,523.0,501.0
528.0,509.0,530.0,502.0
528.0,509.0,537.0,505.0
514.0,502.0,532.0,508.0
509.0,498.0,529.0,512.0
500.0,482.0,523.0,514.0
502.0,478.0,515.0,515.0
505.0,488.0,507.0,520.0
506.0,498.0,500.0,519.0
508.0,503.0,496.0,520.0
508.0,516.0,491.0,518.0
506.0,515.0,494.0,514.0
502.0,511.0,495.0,514.0
504.0,503.0,496.0,512.0
505.0,501.0,499.0,505.0
511.0,512.0,508.0,504.0
516.0,523.0,520.0,505.0
522.0,524.0,530.0,507.0
524.0,515.0,535.0,509.0
525.0,510.0,539.0,510.0
518.0,497.0,535.0,510.0
516.0,498.0,530.0,512.0
505.0,489.0,523.0,517.0
500.0,490.0,515.0,520.0
501.0,495.0,506.0,516.0
505.0,508.0,497.0,520.0
502.0,515.0,492.0,519.0
509.0,522.0,490.0,516.0
506.0,518.0,492.0,513.0
510.0,517.0,490.0,511.0
511.0,511.0,495.0,505.0
513.0,507.0,504.0,506.0
519.0,505.0,514.0,506.0
521.0,505.0,524.0,507.0
526.0,506.0,529.0,506.0
525.0,501.0,536.0,511.0
523.0,501.0,537.0,509.0
515.0,494.0,530.0,511.0
511.0,492.0,526.0,513.0
497.0,487.0,517.0,518.0
499.0,488.0,509.0,519.0
497.0,491.0,504.0,521.0
499.0,502.0,502.0,523.0
506.0,513.0,500.0,521.0
511.0,526.0,491.0,522.0
507.0,516.0,498.0,515.0
508.0,518.0,499.0,513.0
507.0,510.0,496.0,508.0
514.0,509.0,507.0,504.0
519.0,511.0,518.0,506.0
520.0,507.0,528.0,509.0
520.0,505.0,534.0,508.0
518.0,507.0,534.0,508.0
513.0,494.0,532.0,505.0
512.0,495.0,529.0,509.0
496.0,485.0,521.0,508.0
496.0,480.0,511.0,512.0
502.0,487.0,503.0,516.0
516.0,490.0,498.0,520.0
524.0,501.0,490.0,519.0
524.0,501.0,492.0,519.0
519.0,501.0,491.0,515.0
512.0,508.0,488.0,513.0
505.0,518.0,494.0,510.0
507.0,514.0,501.0,506.0
511.0,517.0,508.0,506.0
520.0,527.0,517.0,507.0
522.0,525.0,528.0,508.0
525.0,511.0,538.0,509.0
518.0,506.0,539.0,511.0
506.0,493.0,532.0,509.0
509.0,505.0,531.0,513.0
496.0,493.0,516.0,515.0
497.0,490.0,509.0,521.0
495.0,499.0,503.0,520.0
498.0,503.0,497.0,524.0
507.0,498.0,493.0,524.0
517.0,515.0,493.0,521.0
511.0,513.0,496.0,517.0
510.0,518.0,503.0,516.0
512.0,504.0,505.0,512.0
513.0,506.0,509.0,507.0
517.0,508.0,511.0,503.0
524.0,514.0,520.0,502.0
526.0,512.0,527.0,503.0
529.0,509.0,533.0,504.0
524.0,505.0,535.0,509.0
516.0,497.0,530.0,510.0
512.0,498.0,527.0,512.0
501.0,488.0,518.0,517.0
503.0,489.0,506.0,514.0
503.0,495.0,499.0,517.0
508.0,497.0,495.0,521.0
515.0,507.0,494.0,517.0
519.0,519.0,491.0,516.0
512.0,519.0,492.0,509.0
509.0,522.0,499.0,513.0
510.0,515.0,507.0,507.0
511.0,519.0,507.0,507.0
513.0,517.0,520.0,516.0
516.0,519.0,531.0,511.0
524.0,509.0,538.0,511.0
521.0,506.0,540.0,513.0
517.0,498.0,537.0,515.0
519.0,497.0,530.0,514.0
499.0,486.0,525.0,516.0
497.0,494.0,512.0,517.0
499.0,498.0,503.0,512.0
506.0,506.0,497.0,515.0
509.0,511.0,491.0,516.0
516.0,520.0,491.0,512.0
516.0,515.0,490.0,509.0
508.0,511.0,489.0,510.0
514.0,516.0,494.0,504.0
507.0,506.0,498.0,501.0
508.0,501.0,508.0,499.0
517.0,507.0,520.0,499.0
525.0,505.0,527.0,505.0
525.0,500.0,534.0,508.0
525.0,493.0,534.0,509.0
518.0,478.0,528.0,510.0
514.0,481.0,528.0,511.0
502.0,481.0,521.0,518.0
500.0,490.0,513.0,519.0
502.0,508.0,510.0,522.0
506.0,522.0,507.0,525.0
506.0,524.0,504.0,521.0
507.0,527.0,500.0,517.0
507.0,519.0,492.0,512.0
513.0,519.0,490.0,507.0
514.0,512.0,494.0,502.0
508.0,508.0,503.0,501.0
509.0,511.0,515.0,502.0
514.0,512.0,524.0,506.0
523.0,513.0,534.0,506.0
525.0,513.0,534.0,507.0
517.0,502.0,536.0,505.0
513.0,493.0,532.0,509.0
506.0,492.0,526.0,517.0
499.0,493.0,517.0,517.0
497.0,494.0,508.0,517.0
501.0,497.0,500.0,522.0
500.0,506.0,497.0,521.0
505.0,503.0,494.0,519.0
508.0,508.0,494.0,517.0
504.0,506.0,494.0,512.0
514.0,513.0,500.0,510.0
514.0,504.0,502.0,508.0
514.0,507.0,505.0,504.0
518.0,508.0,516.0,505.0
527.0,518.0,527.0,504.0
531.0,508.0,534.0,503.0
528.0,506.0,543.0,509.0
519.0,498.0,538.0,509.0
517.0,497.0,528.0,512.0
503.0,487.0,518.0,514.0
498.0,495.0,512.0,521.0
494.0,498.0,505.0,522.0
499.0,504.0,500.0,521.0
505.0,507.0,497.0,523.0
504.0,515.0,498.0,522.0
506.0,518.0,498.0,514.0
498.0,509.0,496.0,511.0
502.0,507.0,496.0,507.0
504.0,502.0,500.0,504.0
509.0,504.0,511.0,502.0
518.0,508.0,520.0,510.0
526.0,507.0,529.0,505.0
528.0,501.0,534.0,505.0
536.0,502.0,537.0,511.0
526.0,497.0,531.0,510.0
523.0,493.0,528.0,509.0
508.0,492.0,521.0,514.0
503.0,501.0,506.0,518.0
502.0,505.0,505.0,521.0
503.0,505.0,502.0,522.0
508.0,515.0,499.0,522.0
510.0,531.0,497.0,519.0
504.0,525.0,498.0,517.0
506.0,518.0,499.0,517.0
509.0,511.0,502.0,509.0
513.0,509.0,509.0,507.0
514.0,506.0,513.0,508.0
520.0,504.0,526.0,505.0
525.0,510.0,534.0,507.0
523.0,510.0,538.0,507.0
517.0,504.0,536.0,511.0
510.0,493.0,530.0,508.0
502.0,495.0,525.0,510.0
495.0,495.0,511.0,512.0
496.0,497.0,506.0,516.0
491.0,498.0,502.0,516.0
503.0,503.0,497.0,518.0
505.0,505.0,495.0,517.0
517.0,513.0,499.0,515.0
515.0,508.0,488.0,510.0
518.0,513.0,492.0,507.0
512.0,506.0,497.0,503.0
519.0,517.0,507.0,503.0
519.0,515.0,516.0,506.0
524.0,514.0,527.0,507.0
530.0,509.0,532.0,506.0
528.0,508.0,535.0,506.0
520.0,501.0,533.0,509.0
517.0,502.0,532.0,511.0
505.0,494.0,520.0,514.0
498.0,494.0,515.0,517.0
498.0,501.0,508.0,521.0
497.0,506.0,500.0,524.0
501.0,508.0,498.0,523.0
507.0,512.0,496.0,522.0
507.0,514.0,494.0,518.0
506.0,503.0,487.0,513.0
514.0,504.0,496.0,508.0
514.0,506.0,503.0,504.0
515.0,507.0,511.0,504.0
518.0,507.0,521.0,507.0
522.0,511.0,531.0,506.0
520.0,508.0,537.0,508.0
525.0,502.0,539.0,510.0
515.0,494.0,532.0,509.0
517.0,498.0,530.0,510.0
503.0,494.0,523.0,517.0
498.0,501.0,511.0,523.0
505.0,506.0,506.0,522.0
514.0,509.0,492.0,521.0
517.0,508.0,491.0,523.0
514.0,507.0,493.0,519.0
507.0,497.0,490.0,512.0
505.0,498.0,498.0,514.0
501.0,503.0,505.0,509.0
499.0,508.0,509.0,509.0
504.0,506.0,521.0,508.0
519.0,515.0,529.0,510.0
525.0,516.0,531.0,504.0
525.0,518.0,537.0,507.0
522.0,510.0,533.0,507.0
508.0,497.0,527.0,505.0
503.0,495.0,522.0,507.0
494.0,486.0,512.0,516.0
496.0,491.0,504.0,516.0
497.0,503.0,500.0,519.0
505.0,513.0,495.0,520.0
508.0,516.0,498.0,518.0
512.0,520.0,493.0,517.0
507.0,509.0,491.0,514.0
514.0,513.0,494.0,510.0
514.0,502.0,500.0,507.0
519.0,501.0,509.0,507.0
525.0,504.0,516.0,506.0
530.0,511.0,529.0,506.0
532.0,514.0,532.0,506.0
532.0,510.0,538.0,510.0
518.0,498.0,535.0,512.0
506.0,490.0,530.0,511.0
494.0,476.0,522.0,517.0
486.0,479.0,509.0,520.0
491.0,487.0,504.0,527.0
499.0,508.0,492.0,523.0
504.0,518.0,499.0,523.0
510.0,531.0,500.0,524.0
512.0,524.0,500.0,522.0
509.0,512.0,499.0,517.0
511.0,507.0,501.0,513.0
508.0,500.0,506.0,509.0
514.0,509.0,512.0,507.0
522.0,510.0,520.0,505.0
529.0,510.0,528.0,506.0
526.0,515.0,535.0,504.0
528.0,505.0,533.0,504.0
513.0,492.0,526.0,504.0
512.0,496.0,524.0,506.0
500.0,495.0,514.0,509.0
503.0,492.0,503.0,513.0
504.0,495.0,498.0,513.0
505.0,495.0,496.0,517.0
507.0,506.0,490.0,518.0
510.0,521.0,491.0,516.0
508.0,520.0,490.0,511.0
509.0,527.0,493.0,510.0
511.0,517.0,494.0,506.0
513.0,510.0,507.0,504.0
513.0,505.0,514.0,505.0
520.0,509.0,525.0,507.0
525.0,506.0,535.0,508.0
521.0,510.0,542.0,508.0
520.0,507.0,535.0,509.0
515.0,497.0,531.0,511.0
510.0,487.0,526.0,513.0
506.0,478.0,517.0,518.0
507.0,477.0,505.0,514.0
507.0,487.0,499.0,520.0
517.0,502.0,495.0,519.0
509.0,516.0,492.0,520.0
505.0,522.0,491.0,517.0
502.0,514.0,494.0,514.0
510.0,514.0,496.0,509.0
507.0,517.0,500.0,505.0
508.0,521.0,511.0,506.0
515.0,519.0,518.0,507.0
519.0,514.0,524.0,505.0
523.0,512.0,537.0,508.0
522.0,510.0,538.0,508.0
511.0,498.0,535.0,507.0
511.0,493.0,532.0,510.0
504.0,492.0,522.0,512.0
503.0,492.0,512.0,518.0
507.0,500.0,507.0,520.0
511.0,500.0,500.0,518.0
507.0,506.0,496.0,519.0
507.0,506.0,493.0,523.0
504.0,510.0,494.0,516.0
498.0,509.0,493.0,513.0
507.0,513.0,498.0,509.0
508.0,513.0,505.0,502.0
516.0,514.0,512.0,506.0
522.0,517.0,523.0,506.0
528.0,519.0,530.0,503.0
525.0,510.0,534.0,513.0
524.0,508.0,534.0,511.0
513.0,499.0,531.0,512.0
511.0,498.0,530.0,515.0
499.0,488.0,520.0,518.0
496.0,489.0,517.0,527.0
501.0,495.0,510.0,524.0
507.0,502.0,504.0,521.0
511.0,502.0,500.0,517.0
519.0,508.0,494.0,515.0
515.0,497.0,489.0,513.0
515.0,493.0,500.0,512.0
517.0,497.0,496.0,506.0
513.0,502.0,508.0,513.0
516.0,513.0,515.0,507.0
517.0,516.0,526.0,508.0
517.0,518.0,533.0,506.0
511.0,516.0,538.0,506.0
515.0,513.0,534.0,507.0
506.0,495.0,530.0,509.0
501.0,489.0,524.0,509.0
493.0,485.0,519.0,515.0
497.0,485.0,506.0,513.0
504.0,489.0,498.0,521.0
513.0,512.0,496.0,522.0
517.0,524.0,493.0,520.0
521.0,523.0,493.0,517.0
505.0,524.0,496.0,514.0
500.0,523.0,495.0,510.0
495.0,512.0,507.0,508.0
500.0,506.0,513.0,503.0
511.0,507.0,519.0,503.0
520.0,508.0,526.0,506.0
523.0,503.0,533.0,505.0
520.0,502.0,536.0,508.0
522.0,498.0,534.0,509.0
522.0,503.0,530.0,509.0
512.0,488.0,517.0,513.0
507.0,483.0,511.0,516.0
502.0,485.0,503.0,517.0
510.0,492.0,499.0,522.0
514.0,499.0,493.0,523.0
522.0,511.0,489.0,520.0
520.0,514.0,491.0,513.0
512.0,507.0,492.0,511.0
519.0,519.0,496.0,511.0
511.0,524.0,505.0,506.0
506.0,513.0,514.0,506.0
519.0,503.0,523.0,507.0
525.0,507.0,538.0,510.0
530.0,497.0,539.0,508.0
527.0,492.0,534.0,509.0
520.0,488.0,524.0,510.0
512.0,497.0,527.0,511.0
490.0,486.0,520.0,518.0
485.0,488.0,514.0,524.0
492.0,512.0,510.0,524.0
493.0,520.0,501.0,522.0
507.0,519.0,492.0,521.0
515.0,523.0,493.0,520.0
513.0,519.0,490.0,512.0
514.0,518.0,492.0,510.0
512.0,510.0,496.0,507.0
513.0,514.0,507.0,505.0
516.0,510.0,518.0,505.0
519.0,517.0,526.0,505.0
524.0,512.0,528.0,501.0
529.0,508.0,530.0,506.0
525.0,506.0,529.0,506.0
513.0,493.0,525.0,504.0
505.0,480.0,524.0,512.0
502.0,484.0,514.0,516.0
504.0,490.0,506.0,524.0
505.0,499.0,497.0,521.0
504.0,513.0,491.0,520.0
503.0,513.0,494.0,521.0
507.0,524.0,495.0,517.0
499.0,512.0,498.0,516.0
504.0,511.0,499.0,511.0
510.0,511.0,503.0,511.0
515.0,513.0,513.0,510.0
521.0,514.0,520.0,510.0
527.0,512.0,528.0,510.0
524.0,505.0,532.0,509.0
521.0,503.0,532.0,511.0
518.0,496.0,529.0,510.0
511.0,494.0,529.0,517.0
504.0,493.0,519.0,514.0
500.0,493.0,508.0,517.0
504.0,503.0,506.0,520.0
506.0,509.0,500.0,523.0
509.0,511.0,494.0,517.0
511.0,518.0,495.0,518.0
511.0,518.0,491.0,514.0
505.0,508.0,487.0,507.0
509.0,502.0,492.0,504.0
509.0,505.0,497.0,501.0
515.0,503.0,510.0,502.0
522.0,502.0,521.0,503.0
526.0,502.0,530.0,507.0
532.0,500.0,534.0,509.0
536.0,498.0,536.0,511.0
519.0,488.0,536.0,511.0
512.0,485.0,531.0,515.0
508.0,481.0,520.0,515.0
503.0,485.0,504.0,516.0
499.0,502.0,493.0,515.0
494.0,515.0,488.0,515.0
498.0,516.0,489.0,518.0
501.0,518.0,495.0,517.0
501.0,514.0,493.0,514.0
500.0,506.0,492.0,509.0
506.0,512.0,494.0,507.0
511.0,506.0,504.0,508.0
515.0,511.0,513.0,506.0
522.0,517.0,525.0,508.0
524.0,514.0,533.0,508.0
524.0,514.0,538.0,510.0
521.0,510.0,537.0,510.0
509.0,499.0,531.0,514.0
504.0,491.0,525.0,519.0
496.0,492.0,513.0,518.0
492.0,494.0,503.0,519.0
494.0,492.0,498.0,520.0
499.0,498.0,493.0,521.0
507.0,508.0,492.0,518.0
519.0,518.0,495.0,522.0
516.0,509.0,492.0,518.0
526.0,518.0,497.0,514.0
524.0,515.0,510.0,513.0
517.0,512.0,518.0,506.0
523.0,508.0,517.0,506.0
524.0,508.0,534.0,511.0
522.0,504.0,534.0,508.0
521.0,507.0,524.0,505.0
518.0,506.0,521.0,505.0
505.0,496.0,525.0,512.0
492.0,489.0,524.0,514.0
492.0,489.0,519.0,525.0
494.0,498.0,522.0,525.0
500.0,510.0,508.0,522.0
502.0,513.0,479.0,516.0
506.0,517.0,478.0,515.0
511.0,512.0,498.0,524.0
506.0,503.0,512.0,517.0
514.0,501.0,493.0,511.0
520.0,506.0,492.0,504.0
524.0,519.0,504.0,505.0
531.0,525.0,515.0,505.0
524.0,516.0,531.0,508.0
523.0,504.0,547.0,520.0
522.0,504.0,547.0,518.0
514.0,497.0,543.0,519.0
513.0,503.0,549.0,525.0
504.0,491.0,518.0,526.0
500.0,496.0,501.0,518.0
503.0,489.0,490.0,522.0
505.0,492.0,485.0,523.0
509.0,490.0,494.0,524.0
516.0,498.0,494.0,521.0
518.0,497.0,487.0,516.0
520.0,511.0,499.0,513.0
517.0,521.0,513.0,518.0
513.0,520.0,520.0,523.0
517.0,518.0,516.0,508.0
520.0,519.0,528.0,505.0
518.0,520.0,528.0,497.0
509.0,518.0,528.0,502.0
511.0,504.0,524.0,496.0
504.0,493.0,519.0,501.0
497.0,482.0,521.0,511.0
496.0,484.0,512.0,519.0
499.0,501.0,499.0,519.0
499.0,506.0,484.0,516.0
507.0,515.0,485.0,523.0
509.0,515.0,500.0,528.0
514.0,514.0,514.0,531.0
513.0,506.0,500.0,523.0
511.0,502.0,490.0,513.0
511.0,500.0,499.0,512.0
514.0,503.0,517.0,515.0
520.0,518.0,515.0,513.0
523.0,516.0,522.0,514.0
519.0,512.0,530.0,513.0
518.0,510.0,538.0,520.0
516.0,504.0,525.0,520.0
507.0,489.0,519.0,514.0
500.0,481.0,525.0,515.0
506.0,487.0,527.0,521.0
504.0,492.0,530.0,533.0
508.0,502.0,534.0,536.0
506.0,513.0,509.0,518.0
509.0,522.0,467.0,508.0
506.0,523.0,466.0,505.0
504.0,513.0,489.0,505.0
507.0,508.0,480.0,498.0
508.0,503.0,489.0,502.0
516.0,502.0,492.0,496.0
520.0,508.0,519.0,499.0
522.0,517.0,549.0,514.0
524.0,518.0,549.0,507.0
525.0,516.0,527.0,499.0
517.0,505.0,507.0,495.0
510.0,497.0,513.0,501.0
502.0,488.0,520.0,509.0
502.0,491.0,500.0,513.0
506.0,496.0,473.0,513.0
512.0,503.0,443.0,498.0
516.0,507.0,463.0,504.0
511.0,515.0,490.0,511.0
507.0,513.0,496.0,511.0
498.0,516.0,494.0,510.0
503.0,516.0,507.0,504.0
507.0,514.0,507.0,503.0
522.0,521.0,496.0,495.0
532.0,521.0,513.0,501.0
534.0,516.0,506.0,495.0
531.0,508.0,523.0,506.0
524.0,503.0,543.0,515.0
509.0,498.0,526.0,504.0
484.0,492.0,516.0,513.0
487.0,488.0,515.0,515.0
493.0,496.0,505.0,520.0
491.0,497.0,498.0,526.0
495.0,504.0,493.0,529.0
499.0,497.0,495.0,521.0
499.0,490.0,499.0,518.0
498.0,481.0,479.0,519.0
503.0,490.0,479.0,505.0
508.0,498.0,495.0,508.0
521.0,511.0,514.0,512.0
528.0,515.0,519.0,513.0
530.0,523.0,521.0,509.0
524.0,517.0,532.0,514.0
525.0,517.0,553.0,526.0
515.0,515.0,557.0,523.0
503.0,512.0,543.0,524.0
497.0,506.0,530.0,526.0
503.0,501.0,520.0,529.0
508.0,506.0,520.0,538.0
506.0,502.0,512.0,543.0
509.0,507.0,505.0,539.0
520.0,513.0,479.0,519.0
520.0,514.0,465.0,505.0
510.0,510.0,463.0,500.0
510.0,512.0,473.0,504.0
509.0,511.0,511.0,509.0
515.0,515.0,534.0,509.0
523.0,515.0,563.0,521.0
525.0,509.0,531.0,505.0
526.0,506.0,523.0,508.0
522.0,511.0,515.0,501.0
517.0,505.0,539.0,519.0
509.0,485.0,543.0,525.0
505.0,481.0,509.0,518.0
505.0,489.0,513.0,524.0
506.0,493.0,497.0,518.0
508.0,498.0,467.0,510.0
510.0,511.0,473.0,520.0
511.0,520.0,487.0,521.0
507.0,517.0,493.0,516.0
499.0,509.0,474.0,508.0
501.0,503.0,508.0,515.0
509.0,507.0,516.0,516.0
518.0,509.0,510.0,516.0
532.0,511.0,517.0,513.0
532.0,505.0,531.0,515.0
534.0,500.0,548.0,526.0
534.0,511.0,545.0,522.0
521.0,507.0,551.0,525.0
500.0,505.0,559.0,526.0
485.0,507.0,541.0,524.0
485.0,501.0,534.0,518.0
489.0,509.0,471.0,509.0
501.0,510.0,471.0,511.0
505.0,511.0,488.0,521.0
512.0,515.0,492.0,517.0
509.0,505.0,474.0,509.0
506.0,498.0,509.0,524.0
505.0,496.0,489.0,509.0
506.0,499.0,486.0,502.0
512.0,504.0,501.0,499.0
521.0,509.0,549.0,506.0
525.0,518.0,591.0,513.0
518.0,515.0,557.0,503.0
516.0,495.0,517.0,494.0
505.0,490.0,488.0,486.0
502.0,487.0,516.0,503.0
503.0,487.0,497.0,505.0
505.0,501.0,451.0,498.0
507.0,505.0,467.0,512.0
513.0,515.0,491.0,528.0
518.0,522.0,498.0,520.0
509.0,517.0,491.0,510.0
507.0,501.0,477.0,507.0
512.0,506.0,464.0,489.0
511.0,513.0,492.0,496.0
511.0,518.0,504.0,504.0
522.0,520.0,518.0,502.0
523.0,507.0,596.0,517.0
522.0,501.0,609.0,538.0
530.0,506.0,546.0,519.0
528.0,497.0,478.0,491.0
516.0,486.0,490.0,506.0
513.0,488.0,497.0,520.0
514.0,499.0,467.0,505.0
503.0,507.0,486.0,523.0
494.0,501.0,513.0,540.0
490.0,517.0,510.0,534.0
495.0,516.0,474.0,526.0
506.0,509.0,489.0,520.0
504.0,504.0,489.0,504.0
514.0,501.0,487.0,508.0
526.0,513.0,495.0,510.0
523.0,521.0,546.0,539.0
517.0,534.0,594.0,558.0
503.0,523.0,595.0,527.0
504.0,506.0,572.0,518.0
494.0,495.0,557.0,522.0
497.0,491.0,542.0,507.0
494.0,490.0,495.0,504.0
497.0,486.0,490.0,509.0
503.0,495.0,489.0,513.0
511.0,518.0,464.0,518.0
514.0,516.0,462.0,514.0
513.0,518.0,487.0,515.0
512.0,515.0,491.0,525.0
505.0,507.0,486.0,524.0
508.0,505.0,470.0,516.0
516.0,518.0,501.0,538.0
521.0,513.0,535.0,539.0
526.0,505.0,559.0,514.0
531.0,504.0,564.0,503.0
531.0,501.0,563.0,514.0
530.0,503.0,602.0,514.0
529.0,501.0,538.0,489.0
514.0,500.0,470.0,471.0
510.0,493.0,464.0,491.0
516.0,490.0,484.0,500.0
522.0,499.0,508.0,514.0
526.0,507.0,489.0,534.0
509.0,504.0,453.0,518.0
510.0,520.0,450.0,494.0
506.0,519.0,483.0,536.0
496.0,521.0,492.0,513.0
484.0,523.0,531.0,517.0
499.0,509.0,536.0,522.0
513.0,498.0,493.0,515.0
521.0,501.0,499.0,503.0
529.0,495.0,528.0,509.0
524.0,490.0,550.0,496.0
521.0,501.0,534.0,488.0
513.0,487.0,519.0,491.0
512.0,481.0,492.0,492.0
517.0,513.0,466.0,496.0
513.0,521.0,474.0,521.0
506.0,512.0,483.0,555.0
505.0,507.0,477.0,545.0
500.0,522.0,474.0,513.0
489.0,506.0,477.0,513.0
493.0,462.0,480.0,498.0
507.0,445.0,507.0,503.0
518.0,459.0,520.0,515.0
523.0,480.0,510.0,504.0
525.0,510.0,528.0,510.0
518.0,563.0,504.0,500.0
516.0,582.0,480.0,499.0
512.0,561.0,526.0,506.0
512.0,527.0,541.0,513.0
511.0,522.0,521.0,500.0
511.0,523.0,506.0,500.0
507.0,527.0,511.0,513.0
510.0,527.0,488.0,513.0
517.0,530.0,506.0,527.0
508.0,518.0,516.0,541.0
508.0,503.0,530.0,542.0
504.0,501.0,540.0,546.0
505.0,498.0,520.0,545.0
498.0,509.0,448.0,500.0
511.0,500.0,502.0,507.0
507.0,485.0,514.0,502.0
506.0,487.0,492.0,532.0
519.0,491.0,486.0,543.0
520.0,498.0,535.0,535.0
522.0,522.0,540.0,532.0
517.0,529.0,507.0,516.0
514.0,516.0,555.0,530.0
504.0,504.0,674.0,561.0
500.0,497.0,641.0,543.0
502.0,486.0,495.0,513.0
505.0,476.0,448.0,508.0
512.0,487.0,479.0,502.0
524.0,483.0,495.0,518.0
531.0,487.0,458.0,523.0
528.0,491.0,447.0,522.0
512.0,493.0,426.0,536.0
496.0,504.0,489.0,532.0
499.0,512.0,583.0,591.0
504.0,519.0,593.0,587.0
521.0,518.0,551.0,543.0
523.0,503.0,496.0,547.0
509.0,511.0,523.0,554.0
501.0,519.0,521.0,534.0
499.0,511.0,498.0,547.0
503.0,496.0,510.0,548.0
502.0,493.0,484.0,583.0
511.0,481.0,477.0,556.0
508.0,480.0,475.0,521.0
502.0,456.0,467.0,520.0
487.0,457.0,510.0,572.0
489.0,457.0,501.0,632.0
498.0,483.0,522.0,599.0
512.0,532.0,534.0,606.0
512.0,528.0,489.0,559.0
517.0,525.0,481.0,559.0
519.0,521.0,550.0,519.0
522.0,520.0,560.0,462.0
528.0,513.0,543.0,458.0
519.0,514.0,533.0,455.0
519.0,536.0,514.0,496.0
517.0,516.0,474.0,489.0
511.0,474.0,494.0,502.0
518.0,425.0,518.0,531.0
514.0,421.0,491.0,551.0
509.0,445.0,479.0,569.0
521.0,468.0,456.0,537.0
531.0,509.0,475.0,519.0
504.0,512.0,523.0,565.0
493.0,503.0,539.0,591.0
527.0,488.0,509.0,612.0
548.0,491.0,520.0,584.0
534.0,525.0,522.0,541.0
561.0,575.0,527.0,558.0
572.0,616.0,516.0,565.0
534.0,596.0,509.0,538.0
481.0,578.0,558.0,530.0
459.0,526.0,557.0,514.0
469.0,486.0,514.0,564.0
485.0,459.0,493.0,574.0
505.0,417.0,449.0,600.0
529.0,421.0,457.0,502.0
541.0,401.0,455.0,502.0
534.0,406.0,478.0,517.0
522.0,445.0,487.0,527.0
507.0,502.0,499.0,560.0
486.0,574.0,525.0,543.0
460.0,575.0,536.0,522.0
465.0,568.0,500.0,528.0
510.0,551.0,517.0,564.0
517.0,564.0,596.0,567.0
518.0,596.0,592.0,602.0
517.0,574.0,506.0,540.0
515.0,542.0,520.0,562.0
503.0,535.0,518.0,551.0
502.0,497.0,492.0,570.0
501.0,464.0,501.0,575.0
516.0,462.0,484.0,585.0
513.0,493.0,488.0,577.0
493.0,519.0,514.0,595.0
491.0,510.0,512.0,597.0
501.0,478.0,473.0,579.0
498.0,492.0,482.0,562.0
500.0,471.0,573.0,564.0
501.0,490.0,603.0,585.0
519.0,496.0,518.0,561.0
528.0,468.0,437.0,537.0
512.0,466.0,437.0,541.0
515.0,461.0,497.0,555.0
505.0,464.0,522.0,599.0
498.0,458.0,522.0,598.0
504.0,507.0,529.0,570.0
501.0,533.0,505.0,571.0
517.0,550.0,494.0,578.0
546.0,600.0,489.0,579.0
538.0,580.0,494.0,586.0
529.0,568.0,535.0,640.0
511.0,563.0,582.0,661.0
496.0,547.0,548.0,635.0
495.0,513.0,490.0,631.0
502.0,473.0,437.0,560.0
516.0,481.0,481.0,541.0
527.0,475.0,503.0,530.0
537.0,484.0,521.0,566.0
526.0,499.0,498.0,568.0
503.0,505.0,540.0,568.0
500.0,522.0,546.0,611.0
507.0,521.0,532.0,601.0
494.0,517.0,522.0,560.0
482.0,482.0,487.0,559.0
465.0,445.0,510.0,581.0
469.0,426.0,529.0,616.0
489.0,447.0,500.0,604.0
500.0,468.0,490.0,602.0
517.0,465.0,494.0,604.0
527.0,532.0,470.0,598.0
521.0,526.0,509.0,596.0
522.0,529.0,543.0,616.0
515.0,541.0,566.0,612.0
517.0,573.0,541.0,638.0
526.0,558.0,553.0,625.0
535.0,580.0,531.0,631.0
530.0,564.0,488.0,627.0
513.0,537.0,495.0,643.0
497.0,501.0,483.0,596.0
497.0,488.0,510.0,545.0
495.0,489.0,551.0,522.0
493.0,476.0,530.0,561.0
499.0,491.0,483.0,562.0
508.0,515.0,497.0,582.0
506.0,495.0,531.0,600.0
502.0,491.0,512.0,607.0
504.0,514.0,461.0,568.0
509.0,519.0,477.0,586.0
512.0,496.0,570.0,575.0
527.0,496.0,587.0,556.0
529.0,482.0,513.0,538.0
523.0,505.0,538.0,575.0
516.0,517.0,553.0,549.0
505.0,476.0,481.0,530.0
509.0,461.0,515.0,556.0
506.0,466.0,621.0,547.0
495.0,469.0,604.0,559.0
481.0,461.0,515.0,538.0
481.0,478.0,484.0,538.0
489.0,491.0,488.0,585.0
503.0,500.0,474.0,556.0
510.0,511.0,473.0,535.0
514.0,532.0,492.0,542.0
525.0,542.0,488.0,538.0
526.0,557.0,465.0,558.0
523.0,540.0,493.0,558.0
519.0,522.0,493.0,524.0
518.0,488.0,512.0,540.0
520.0,482.0,539.0,557.0
534.0,498.0,503.0,522.0
518.0,485.0,485.0,505.0
509.0,483.0,486.0,522.0
490.0,479.0,485.0,523.0
493.0,479.0,467.0,529.0
489.0,522.0,507.0,563.0
503.0,520.0,500.0,573.0
514.0,500.0,466.0,531.0
528.0,490.0,484.0,527.0
530.0,479.0,497.0,533.0
519.0,468.0,483.0,535.0
512.0,455.0,539.0,553.0
528.0,484.0,520.0,548.0
527.0,501.0,523.0,553.0
529.0,509.0,527.0,518.0
545.0,535.0,529.0,529.0
519.0,547.0,488.0,512.0
483.0,576.0,535.0,526.0
502.0,566.0,589.0,568.0
503.0,526.0,564.0,606.0
507.0,508.0,535.0,578.0
506.0,518.0,485.0,519.0
490.0,522.0,483.0,470.0
488.0,517.0,465.0,490.0
495.0,507.0,465.0,501.0
502.0,509.0,464.0,505.0
505.0,507.0,448.0,483.0
497.0,491.0,474.0,496.0
491.0,505.0,488.0,505.0
505.0,490.0,492.0,508.0
529.0,509.0,535.0,534.0
527.0,528.0,520.0,523.0
534.0,533.0,507.0,489.0
530.0,532.0,534.0,508.0
515.0,514.0,542.0,523.0
503.0,507.0,522.0,518.0
501.0,507.0,521.0,520.0
498.0,497.0,543.0,527.0
508.0,495.0,533.0,535.0
509.0,481.0,492.0,534.0
503.0,464.0,487.0,537.0
507.0,486.0,461.0,538.0
505.0,493.0,484.0,522.0
512.0,526.0,529.0,537.0
508.0,513.0,550.0,516.0
506.0,528.0,561.0,511.0
513.0,517.0,511.0,500.0
517.0,509.0,458.0,493.0
522.0,515.0,485.0,496.0
527.0,498.0,527.0,524.0
525.0,485.0,541.0,515.0
511.0,488.0,528.0,507.0
505.0,481.0,524.0,506.0
498.0,481.0,514.0,522.0
497.0,508.0,487.0,512.0
502.0,520.0,494.0,511.0
503.0,523.0,487.0,530.0
500.0,524.0,480.0,506.0
506.0,529.0,497.0,510.0
498.0,522.0,494.0,518.0
505.0,515.0,494.0,535.0
508.0,521.0,493.0,537.0
511.0,519.0,510.0,510.0
512.0,510.0,552.0,504.0
509.0,482.0,549.0,503.0
509.0,484.0,560.0,520.0
514.0,495.0,553.0,509.0
513.0,500.0,512.0,487.0
516.0,498.0,505.0,521.0
518.0,498.0,518.0,516.0
506.0,483.0,519.0,505.0
507.0,481.0,506.0,530.0
508.0,481.0,476.0,514.0
512.0,485.0,501.0,510.0
516.0,491.0,509.0,507.0
514.0,502.0,502.0,536.0
498.0,516.0,495.0,535.0
497.0,511.0,497.0,527.0
506.0,503.0,492.0,522.0
521.0,504.0,525.0,495.0
536.0,499.0,545.0,469.0
531.0,487.0,546.0,475.0
541.0,504.0,524.0,486.0
527.0,480.0,527.0,500.0
505.0,476.0,581.0,525.0
500.0,490.0,606.0,540.0
496.0,501.0,549.0,495.0
484.0,508.0,470.0,480.0
492.0,508.0,452.0,519.0
509.0,514.0,439.0,524.0
513.0,516.0,461.0,485.0
507.0,528.0,484.0,497.0
504.0,529.0,501.0,522.0
500.0,519.0,529.0,515.0
494.0,515.0,538.0,513.0
496.0,496.0,516.0,522.0
500.0,499.0,531.0,528.0
503.0,491.0,568.0,496.0
529.0,505.0,518.0,457.0
542.0,505.0,502.0,483.0
551.0,500.0,517.0,495.0
534.0,480.0,512.0,524.0
514.0,473.0,496.0,507.0
502.0,473.0,497.0,504.0
494.0,480.0,491.0,504.0
492.0,477.0,495.0,512.0
509.0,513.0,507.0,558.0
509.0,521.0,507.0,532.0
512.0,523.0,469.0,482.0
512.0,517.0,522.0,488.0
521.0,509.0,547.0,514.0
526.0,494.0,484.0,506.0
530.0,502.0,455.0,497.0
523.0,534.0,493.0,490.0
531.0,549.0,520.0,502.0
517.0,535.0,529.0,503.0
529.0,534.0,539.0,517.0
516.0,521.0,527.0,516.0
512.0,497.0,516.0,504.0
489.0,477.0,504.0,484.0
468.0,486.0,509.0,511.0
464.0,504.0,501.0,576.0
480.0,509.0,471.0,543.0
494.0,502.0,501.0,490.0
504.0,511.0,503.0,480.0
516.0,520.0,500.0,508.0
521.0,524.0,499.0,491.0
526.0,529.0,503.0,503.0
526.0,537.0,501.0,498.0
525.0,519.0,501.0,489.0
524.0,525.0,517.0,502.0
530.0,524.0,534.0,511.0
533.0,509.0,533.0,504.0
537.0,516.0,536.0,511.0
537.0,522.0,542.0,516.0
527.0,506.0,541.0,518.0
515.0,496.0,534.0,527.0
502.0,500.0,528.0,518.0
494.0,495.0,505.0,517.0
503.0,494.0,480.0,517.0
510.0,508.0,476.0,541.0
516.0,527.0,489.0,536.0
517.0,519.0,503.0,514.0
511.0,505.0,538.0,514.0
506.0,501.0,562.0,503.0
513.0,498.0,533.0,496.0
520.0,501.0,526.0,506.0
519.0,507.0,526.0,504.0
519.0,507.0,524.0,494.0
524.0,499.0,515.0,486.0
523.0,520.0,496.0,474.0
514.0,458.0,494.0,481.0
497.0,453.0,507.0,494.0
500.0,475.0,517.0,508.0
499.0,504.0,483.0,499.0
501.0,510.0,473.0,503.0
504.0,509.0,482.0,522.0
508.0,510.0,467.0,502.0
506.0,514.0,474.0,482.0
511.0,485.0,491.0,487.0
512.0,484.0,492.0,499.0
511.0,500.0,487.0,516.0
516.0,524.0,500.0,506.0
527.0,516.0,522.0,498.0
532.0,510.0,553.0,500.0
533.0,518.0,571.0,518.0
536.0,509.0,542.0,510.0
533.0,465.0,501.0,497.0
517.0,468.0,510.0,514.0
500.0,462.0,558.0,534.0
506.0,471.0,545.0,527.0
502.0,477.0,546.0,520.0
488.0,542.0,496.0,513.0
494.0,559.0,456.0,505.0
508.0,554.0,506.0,511.0
512.0,538.0,512.0,511.0
512.0,541.0,476.0,504.0
514.0,518.0,472.0,495.0
516.0,514.0,489.0,496.0
527.0,513.0,519.0,507.0
536.0,516.0,554.0,562.0
536.0,494.0,555.0,532.0
517.0,483.0,522.0,482.0
506.0,499.0,540.0,517.0
510.0,496.0,537.0,524.0
512.0,505.0,519.0,497.0
485.0,488.0,510.0,495.0
485.0,494.0,509.0,515.0
495.0,495.0,513.0,515.0
491.0,497.0,496.0,500.0
494.0,498.0,471.0,499.0
503.0,504.0,478.0,501.0
505.0,496.0,491.0,502.0
506.0,502.0,530.0,518.0
513.0,509.0,530.0,536.0
519.0,513.0,475.0,488.0
526.0,518.0,501.0,478.0
531.0,541.0,532.0,475.0
519.0,514.0,519.0,484.0
510.0,512.0,531.0,513.0
509.0,481.0,542.0,532.0
503.0,464.0,531.0,517.0
495.0,463.0,547.0,504.0
501.0,472.0,531.0,504.0
514.0,495.0,524.0,516.0
517.0,493.0,517.0,527.0
516.0,522.0,498.0,526.0
519.0,532.0,481.0,497.0
516.0,534.0,489.0,491.0
497.0,523.0,476.0,514.0
500.0,511.0,475.0,493.0
503.0,499.0,492.0,491.0
504.0,504.0,508.0,502.0
515.0,525.0,524.0,514.0
523.0,479.0,534.0,522.0
527.0,480.0,534.0,493.0
542.0,501.0,545.0,500.0
542.0,517.0,536.0,499.0
530.0,551.0,530.0,504.0
488.0,546.0,569.0,517.0
493.0,516.0,576.0,543.0
493.0,506.0,495.0,523.0
495.0,500.0,472.0,533.0
510.0,511.0,484.0,512.0
515.0,512.0,500.0,482.0
507.0,506.0,499.0,497.0
501.0,496.0,493.0,493.0
479.0,501.0,489.0,497.0
480.0,524.0,489.0,494.0
488.0,533.0,481.0,490.0
508.0,520.0,508.0,490.0
513.0,520.0,533.0,515.0
504.0,476.0,538.0,516.0
527.0,504.0,546.0,495.0
546.0,516.0,540.0,514.0
536.0,516.0,497.0,489.0
513.0,519.0,530.0,497.0
507.0,511.0,497.0,496.0
511.0,496.0,480.0,513.0
512.0,489.0,507.0,546.0
512.0,477.0,508.0,541.0
517.0,505.0,496.0,529.0
523.0,516.0,507.0,532.0
519.0,526.0,509.0,515.0
525.0,552.0,510.0,528.0
527.0,554.0,539.0,518.0
516.0,545.0,567.0,509.0
526.0,527.0,529.0,523.0
529.0,513.0,500.0,492.0
525.0,503.0,534.0,490.0
521.0,503.0,526.0,498.0
521.0,501.0,514.0,498.0
515.0,491.0,513.0,477.0
506.0,480.0,505.0,479.0
501.0,486.0,494.0,490.0
504.0,501.0,483.0,498.0
506.0,513.0,486.0,492.0
502.0,497.0,489.0,504.0
500.0,496.0,474.0,490.0
493.0,484.0,480.0,488.0
502.0,484.0,498.0,497.0
509.0,484.0,511.0,500.0
518.0,500.0,541.0,517.0
526.0,538.0,516.0,492.0
536.0,546.0,500.0,486.0
539.0,527.0,527.0,515.0
530.0,502.0,525.0,512.0
517.0,471.0,534.0,536.0
518.0,455.0,538.0,545.0
510.0,445.0,536.0,524.0
504.0,443.0,555.0,524.0
509.0,463.0,567.0,517.0
499.0,483.0,546.0,501.0
479.0,502.0,511.0,493.0
493.0,509.0,477.0,488.0
502.0,522.0,516.0,531.0
500.0,528.0,477.0,515.0
509.0,536.0,422.0,472.0
510.0,534.0,499.0,481.0
515.0,520.0,538.0,517.0
522.0,518.0,525.0,511.0
530.0,513.0,529.0,508.0
538.0,520.0,532.0,503.0
537.0,513.0,514.0,498.0
521.0,510.0,520.0,505.0
521.0,481.0,534.0,513.0
505.0,457.0,495.0,513.0
486.0,462.0,473.0,500.0
479.0,466.0,493.0,510.0
499.0,512.0,506.0,494.0
503.0,525.0,512.0,499.0
505.0,538.0,473.0,483.0
533.0,509.0,473.0,487.0
537.0,501.0,503.0,501.0
533.0,470.0,521.0,507.0
542.0,490.0,515.0,523.0
523.0,521.0,502.0,505.0
512.0,556.0,503.0,492.0
499.0,535.0,532.0,487.0
489.0,553.0,568.0,502.0
500.0,549.0,590.0,524.0
503.0,557.0,535.0,517.0
497.0,519.0,512.0,508.0
491.0,511.0,495.0,506.0
487.0,495.0,498.0,508.0
495.0,488.0,482.0,509.0
507.0,507.0,494.0,525.0
504.0,521.0,513.0,530.0
508.0,550.0,518.0,498.0
497.0,512.0,509.0,496.0
499.0,524.0,472.0,499.0
507.0,505.0,458.0,471.0
509.0,495.0,478.0,468.0
515.0,485.0,526.0,495.0
513.0,455.0,533.0,512.0
509.0,428.0,526.0,511.0
535.0,437.0,542.0,519.0
525.0,456.0,536.0,499.0
513.0,482.0,559.0,521.0
497.0,510.0,518.0,501.0
505.0,543.0,539.0,509.0
509.0,560.0,533.0,521.0
517.0,539.0,503.0,517.0
513.0,530.0,506.0,528.0
515.0,499.0,528.0,516.0
524.0,500.0,521.0,553.0
525.0,505.0,469.0,496.0
510.0,489.0,470.0,482.0
505.0,481.0,485.0,481.0
514.0,524.0,518.0,490.0
519.0,555.0,507.0,496.0
526.0,530.0,516.0,505.0
531.0,522.0,528.0,522.0
543.0,524.0,520.0,500.0
540.0,524.0,534.0,521.0
529.0,504.0,553.0,527.0
497.0,494.0,514.0,497.0
483.0,511.0,523.0,523.0
488.0,520.0,571.0,518.0
497.0,486.0,549.0,504.0
502.0,469.0,475.0,483.0
499.0,479.0,499.0,515.0
499.0,490.0,473.0,519.0
504.0,504.0,458.0,495.0
503.0,545.0,495.0,495.0
511.0,568.0,536.0,501.0
506.0,550.0,544.0,523.0
521.0,525.0,479.0,480.0
521.0,505.0,496.0,484.0
520.0,477.0,547.0,518.0
510.0,462.0,522.0,515.0
505.0,488.0,496.0,496.0
504.0,489.0,533.0,512.0
500.0,507.0,521.0,510.0
508.0,509.0,514.0,522.0
509.0,504.0,493.0,521.0
507.0,508.0,493.0,517.0
508.0,509.0,494.0,523.0
512.0,513.0,512.0,509.0
510.0,508.0,516.0,503.0
511.0,509.0,528.0,511.0
509.0,505.0,508.0,495.0
516.0,507.0,475.0,480.0
516.0,500.0,480.0,479.0
522.0,486.0,517.0,490.0
531.0,490.0,545.0,500.0
531.0,489.0,516.0,533.0
521.0,492.0,510.0,495.0
511.0,485.0,530.0,494.0
497.0,484.0,503.0,486.0
502.0,502.0,511.0,526.0
498.0,487.0,527.0,588.0
500.0,499.0,483.0,503.0
506.0,527.0,478.0,477.0
520.0,539.0,502.0,492.0
516.0,522.0,484.0,499.0
516.0,493.0,474.0,492.0
515.0,481.0,500.0,507.0
511.0,504.0,495.0,508.0
515.0,510.0,517.0,464.0
527.0,500.0,535.0,497.0
529.0,498.0,536.0,502.0
520.0,462.0,546.0,508.0
511.0,479.0,571.0,516.0
503.0,513.0,546.0,508.0
514.0,539.0,506.0,506.0
503.0,500.0,506.0,514.0
508.0,497.0,512.0,503.0
506.0,513.0,499.0,497.0
499.0,524.0,482.0,494.0
497.0,510.0,505.0,504.0
508.0,529.0,506.0,512.0
503.0,543.0,493.0,510.0
501.0,515.0,507.0,516.0
500.0,513.0,525.0,514.0
509.0,520.0,524.0,507.0
510.0,508.0,495.0,489.0
517.0,511.0,534.0,506.0
532.0,507.0,545.0,504.0
537.0,503.0,514.0,491.0
526.0,486.0,519.0,497.0
514.0,464.0,516.0,500.0
498.0,457.0,505.0,496.0
502.0,469.0,501.0,490.0
501.0,484.0,503.0,500.0
513.0,506.0,495.0,520.0
530.0,532.0,493.0,513.0
534.0,528.0,502.0,511.0
513.0,500.0,520.0,521.0
505.0,508.0,496.0,513.0
503.0,496.0,459.0,497.0
503.0,494.0,468.0,498.0
513.0,495.0,521.0,497.0
519.0,505.0,534.0,521.0
521.0,513.0,546.0,525.0
523.0,523.0,536.0,513.0
516.0,534.0,548.0,501.0
528.0,549.0,563.0,509.0
530.0,549.0,541.0,509.0
510.0,503.0,499.0,502.0
507.0,493.0,483.0,514.0
496.0,494.0,489.0,523.0
488.0,507.0,526.0,550.0
497.0,537.0,529.0,513.0
506.0,530.0,511.0,482.0
512.0,514.0,482.0,493.0
504.0,492.0,502.0,522.0
497.0,460.0,515.0,521.0
501.0,479.0,493.0,484.0
520.0,488.0,500.0,493.0
521.0,506.0,510.0,514.0
521.0,536.0,552.0,506.0
525.0,535.0,559.0,478.0
526.0,533.0,607.0,515.0
517.0,539.0,583.0,525.0
510.0,540.0,442.0,466.0
504.0,513.0,475.0,482.0
511.0,507.0,488.0,501.0
504.0,482.0,464.0,507.0
505.0,496.0,478.0,516.0
506.0,521.0,525.0,530.0
515.0,546.0,508.0,516.0
511.0,530.0,508.0,500.0
504.0,498.0,541.0,530.0
506.0,500.0,485.0,504.0
508.0,499.0,433.0,500.0
520.0,526.0,500.0,503.0
521.0,529.0,552.0,527.0
519.0,466.0,528.0,497.0
517.0,448.0,539.0,480.0
519.0,474.0,539.0,491.0
509.0,468.0,522.0,487.0
499.0,475.0,538.0,535.0
509.0,501.0,508.0,518.0
509.0,488.0,491.0,459.0
507.0,476.0,475.0,494.0
503.0,486.0,486.0,501.0
497.0,494.0,480.0,490.0
493.0,506.0,494.0,504.0
502.0,512.0,503.0,503.0
519.0,531.0,486.0,499.0
516.0,534.0,488.0,495.0
511.0,527.0,509.0,502.0
511.0,528.0,529.0,513.0
527.0,529.0,529.0,509.0
526.0,513.0,544.0,518.0
517.0,504.0,545.0,510.0
521.0,490.0,553.0,513.0
522.0,492.0,552.0,518.0
500.0,473.0,520.0,520.0
498.0,461.0,474.0,525.0
495.0,470.0,495.0,513.0
493.0,486.0,538.0,519.0
516.0,474.0,537.0,540.0
518.0,459.0,497.0,523.0
515.0,443.0,454.0,475.0
501.0,444.0,485.0,510.0
487.0,489.0,507.0,504.0
492.0,557.0,499.0,490.0
512.0,569.0,506.0,486.0
516.0,535.0,547.0,496.0
521.0,531.0,554.0,510.0
522.0,532.0,535.0,524.0
517.0,539.0,569.0,530.0
510.0,538.0,576.0,504.0
505.0,532.0,520.0,492.0
498.0,518.0,481.0,489.0
495.0,527.0,509.0,510.0
506.0,532.0,507.0,509.0
510.0,530.0,500.0,506.0
507.0,543.0,480.0,507.0
514.0,547.0,481.0,504.0
509.0,531.0,487.0,500.0
504.0,477.0,508.0,518.0
519.0,466.0,513.0,498.0
531.0,468.0,496.0,500.0
523.0,478.0,502.0,517.0
528.0,507.0,523.0,507.0
528.0,519.0,525.0,490.0
530.0,491.0,538.0,505.0
531.0,495.0,530.0,498.0
522.0,488.0,527.0,494.0
509.0,472.0,513.0,499.0
492.0,472.0,496.0,505.0
496.0,490.0,492.0,500.0
502.0,524.0,507.0,510.0
509.0,527.0,497.0,515.0
513.0,515.0,495.0,519.0
520.0,518.0,501.0,525.0
505.0,520.0,503.0,513.0
499.0,531.0,481.0,487.0
497.0,508.0,491.0,503.0
507.0,515.0,515.0,507.0
506.0,528.0,501.0,493.0
508.0,527.0,498.0,474.0
519.0,514.0,544.0,510.0
522.0,518.0,539.0,508.0
531.0,506.0,532.0,494.0
524.0,500.0,527.0,506.0
505.0,490.0,527.0,510.0
510.0,496.0,522.0,506.0
510.0,504.0,491.0,501.0
515.0,511.0,497.0,509.0
508.0,509.0,495.0,513.0
507.0,516.0,501.0,538.0
514.0,534.0,531.0,541.0
511.0,532.0,527.0,559.0
512.0,520.0,524.0,525.0
515.0,508.0,521.0,467.0
516.0,484.0,528.0,495.0
517.0,485.0,526.0,504.0
527.0,508.0,517.0,497.0
531.0,509.0,523.0,499.0
522.0,497.0,546.0,508.0
517.0,479.0,547.0,534.0
513.0,469.0,525.0,512.0
495.0,450.0,495.0,503.0
500.0,491.0,485.0,496.0
495.0,528.0,489.0,499.0
491.0,494.0,500.0,505.0
499.0,495.0,506.0,522.0
508.0,527.0,518.0,519.0
506.0,524.0,509.0,490.0
512.0,513.0,481.0,485.0
508.0,510.0,497.0,495.0
515.0,518.0,493.0,490.0
522.0,517.0,500.0,493.0
524.0,519.0,507.0,504.0
531.0,514.0,538.0,498.0
527.0,508.0,541.0,501.0
516.0,469.0,523.0,498.0
504.0,458.0,541.0,507.0
493.0,457.0,522.0,500.0
498.0,464.0,511.0,526.0
502.0,474.0,506.0,516.0
498.0,487.0,493.0,503.0
509.0,522.0,488.0,498.0
508.0,525.0,523.0,511.0
514.0,534.0,518.0,507.0
518.0,545.0,489.0,512.0
519.0,505.0,490.0,506.0
521.0,491.0,562.0,512.0
523.0,493.0,594.0,537.0
532.0,522.0,545.0,517.0
551.0,552.0,481.0,477.0
532.0,518.0,482.0,488.0
522.0,514.0,506.0,480.0
512.0,514.0,508.0,502.0
499.0,519.0,525.0,505.0
488.0,457.0,507.0,514.0
492.0,462.0,504.0,533.0
498.0,475.0,522.0,517.0
497.0,461.0,511.0,507.0
492.0,455.0,490.0,501.0
501.0,497.0,484.0,499.0
519.0,529.0,503.0,525.0
515.0,524.0,504.0,508.0
506.0,495.0,504.0,501.0
499.0,487.0,483.0,485.0
496.0,499.0,505.0,491.0
511.0,486.0,514.0,494.0
515.0,529.0,521.0,500.0
538.0,586.0,528.0,505.0
529.0,562.0,532.0,510.0
509.0,505.0,524.0,504.0
501.0,484.0,524.0,501.0
493.0,511.0,521.0,497.0
492.0,521.0,516.0,509.0
499.0,515.0,510.0,508.0
503.0,522.0,505.0,510.0
509.0,529.0,497.0,506.0
504.0,521.0,491.0,513.0
500.0,491.0,492.0,502.0
499.0,530.0,512.0,514.0
496.0,531.0,502.0,506.0
501.0,482.0,496.0,498.0
513.0,455.0,510.0,512.0
526.0,473.0,516.0,499.0
539.0,492.0,522.0,502.0
534.0,509.0,543.0,523.0
533.0,524.0,564.0,531.0
523.0,532.0,574.0,526.0
509.0,524.0,561.0,510.0
515.0,503.0,507.0,509.0
519.0,501.0,490.0,505.0
523.0,524.0,493.0,513.0
518.0,522.0,482.0,486.0
505.0,522.0,488.0,503.0
505.0,526.0,498.0,508.0
514.0,518.0,484.0,495.0
526.0,513.0,519.0,497.0
521.0,506.0,532.0,502.0
521.0,503.0,514.0,506.0
525.0,508.0,520.0,501.0
530.0,512.0,506.0,495.0
515.0,512.0,538.0,506.0
524.0,502.0,575.0,517.0
530.0,499.0,578.0,526.0
526.0,484.0,517.0,522.0
503.0,463.0,469.0,500.0
489.0,471.0,503.0,504.0
486.0,479.0,495.0,504.0
493.0,496.0,485.0,524.0
501.0,512.0,481.0,535.0
509.0,522.0,512.0,511.0
510.0,523.0,497.0,485.0
510.0,517.0,513.0,492.0
512.0,513.0,527.0,537.0
513.0,502.0,517.0,517.0
515.0,484.0,514.0,496.0
524.0,503.0,530.0,498.0
538.0,510.0,513.0,489.0
528.0,501.0,530.0,508.0
516.0,496.0,562.0,522.0
503.0,481.0,569.0,529.0
499.0,462.0,532.0,522.0
495.0,482.0,512.0,494.0
493.0,457.0,497.0,512.0
499.0,444.0,458.0,490.0
498.0,466.0,483.0,498.0
500.0,475.0,497.0,519.0
520.0,487.0,553.0,533.0
525.0,540.0,531.0,512.0
521.0,549.0,488.0,502.0
516.0,542.0,502.0,508.0
517.0,557.0,499.0,528.0
515.0,548.0,495.0,491.0
523.0,544.0,514.0,465.0
528.0,528.0,510.0,485.0
520.0,511.0,511.0,481.0
514.0,515.0,516.0,487.0
512.0,527.0,548.0,497.0
502.0,509.0,535.0,503.0
494.0,502.0,486.0,522.0
497.0,501.0,493.0,515.0
498.0,505.0,536.0,507.0
494.0,509.0,494.0,497.0
504.0,527.0,498.0,501.0
515.0,529.0,493.0,509.0
506.0,508.0,469.0,502.0
511.0,500.0,486.0,498.0
511.0,492.0,496.0,498.0
511.0,494.0,499.0,490.0
513.0,505.0,518.0,493.0
525.0,505.0,525.0,505.0
526.0,501.0,528.0,510.0
526.0,490.0,535.0,508.0
522.0,477.0,533.0,507.0
524.0,493.0,535.0,510.0
506.0,486.0,533.0,517.0
495.0,483.0,518.0,512.0
490.0,500.0,497.0,510.0
504.0,515.0,488.0,513.0
501.0,513.0,497.0,510.0
490.0,515.0,487.0,508.0
486.0,508.0,483.0,503.0
489.0,507.0,491.0,503.0
481.0,519.0,497.0,497.0
481.0,514.0,505.0,498.0
505.0,524.0,506.0,498.0
526.0,518.0,525.0,501.0
545.0,520.0,534.0,504.0
548.0,513.0,535.0,505.0
533.0,472.0,535.0,504.0
523.0,483.0,534.0,517.0
505.0,493.0,526.0,512.0
489.0,485.0,518.0,521.0
491.0,477.0,514.0,521.0
498.0,490.0,505.0,503.0
495.0,489.0,504.0,508.0
490.0,475.0,503.0,514.0
497.0,469.0,508.0,514.0
502.0,477.0,504.0,511.0
531.0,498.0,494.0,503.0
543.0,511.0,490.0,501.0
545.0,538.0,506.0,502.0
536.0,543.0,523.0,502.0
538.0,540.0,531.0,502.0
538.0,534.0,544.0,506.0
534.0,511.0,537.0,503.0
527.0,501.0,533.0,505.0
524.0,525.0,539.0,507.0
509.0,530.0,527.0,514.0
507.0,525.0,513.0,509.0
506.0,514.0,508.0,513.0
502.0,503.0,503.0,516.0
509.0,506.0,497.0,510.0
506.0,486.0,497.0,508.0
516.0,498.0,500.0,508.0
515.0,501.0,495.0,504.0
515.0,520.0,501.0,503.0
512.0,525.0,508.0,504.0
515.0,514.0,524.0,509.0
523.0,518.0,529.0,506.0
525.0,520.0,525.0,502.0
528.0,511.0,531.0,500.0
529.0,520.0,541.0,506.0
522.0,504.0,542.0,510.0
517.0,496.0,539.0,512.0
503.0,486.0,522.0,511.0
497.0,485.0,514.0,514.0
502.0,489.0,507.0,514.0
506.0,499.0,509.0,523.0
502.0,494.0,512.0,528.0
502.0,490.0,509.0,524.0
511.0,503.0,509.0,509.0
512.0,515.0,507.0,503.0
513.0,516.0,498.0,507.0
515.0,520.0,499.0,500.0
516.0,516.0,511.0,499.0
524.0,516.0,526.0,501.0
528.0,516.0,530.0,498.0
523.0,502.0,538.0,504.0
521.0,512.0,534.0,507.0
518.0,494.0,525.0,507.0
513.0,492.0,530.0,510.0
505.0,488.0,516.0,511.0
500.0,493.0,507.0,513.0
500.0,498.0,499.0,514.0
503.0,501.0,497.0,511.0
507.0,510.0,496.0,512.0
511.0,519.0,496.0,511.0
508.0,523.0,497.0,509.0
510.0,513.0,497.0,509.0
509.0,502.0,504.0,508.0
510.0,495.0,510.0,506.0
516.0,493.0,521.0,505.0
523.0,498.0,530.0,505.0
529.0,500.0,537.0,508.0
527.0,508.0,541.0,510.0
517.0,511.0,537.0,510.0
516.0,503.0,530.0,510.0
508.0,489.0,524.0,510.0
502.0,490.0,521.0,516.0
499.0,491.0,516.0,518.0
500.0,501.0,507.0,520.0
505.0,501.0,498.0,517.0
500.0,503.0,502.0,517.0
511.0,518.0,495.0,510.0
510.0,519.0,495.0,511.0
514.0,517.0,499.0,506.0
508.0,509.0,504.0,506.0
513.0,507.0,511.0,505.0
519.0,510.0,523.0,502.0
526.0,512.0,531.0,507.0
527.0,508.0,539.0,506.0
524.0,505.0,539.0,509.0
517.0,500.0,537.0,513.0
514.0,493.0,529.0,514.0
501.0,484.0,523.0,517.0
499.0,488.0,515.0,514.0
496.0,494.0,506.0,517.0
502.0,503.0,502.0,517.0
505.0,509.0,499.0,522.0
506.0,510.0,497.0,517.0
512.0,516.0,496.0,512.0
511.0,515.0,496.0,505.0
511.0,507.0,498.0,505.0
510.0,507.0,508.0,506.0
515.0,506.0,516.0,504.0
524.0,510.0,526.0,508.0
525.0,509.0,535.0,509.0
525.0,491.0,540.0,512.0
523.0,484.0,540.0,513.0
517.0,468.0,537.0,515.0
507.0,469.0,529.0,516.0
497.0,468.0,522.0,520.0
502.0,482.0,511.0,521.0
503.0,513.0,504.0,521.0
505.0,542.0,502.0,520.0
500.0,536.0,498.0,516.0
511.0,536.0,494.0,515.0
508.0,530.0,494.0,512.0
508.0,529.0,497.0,508.0
508.0,523.0,502.0,505.0
511.0,512.0,509.0,501.0
518.0,504.0,518.0,505.0
524.0,500.0,528.0,507.0
528.0,498.0,533.0,505.0
530.0,476.0,537.0,507.0
520.0,483.0,535.0,509.0
518.0,499.0,531.0,510.0
500.0,477.0,527.0,514.0
493.0,457.0,517.0,514.0
482.0,460.0,509.0,514.0
487.0,470.0,503.0,516.0
493.0,491.0,496.0,515.0
500.0,533.0,495.0,514.0
505.0,549.0,496.0,508.0
508.0,550.0,496.0,510.0
513.0,539.0,500.0,506.0
519.0,529.0,504.0,504.0
529.0,536.0,514.0,504.0
535.0,523.0,523.0,505.0
535.0,522.0,533.0,506.0
532.0,522.0,538.0,512.0
528.0,503.0,539.0,509.0
518.0,466.0,537.0,508.0
519.0,490.0,531.0,509.0
511.0,496.0,522.0,512.0
506.0,490.0,514.0,513.0
500.0,484.0,508.0,515.0
499.0,507.0,507.0,515.0
511.0,536.0,493.0,512.0
518.0,531.0,496.0,507.0
511.0,504.0,494.0,506.0
509.0,501.0,497.0,506.0
512.0,503.0,501.0,499.0
519.0,507.0,506.0,500.0
521.0,499.0,514.0,500.0
519.0,491.0,525.0,505.0
524.0,499.0,533.0,503.0
522.0,500.0,542.0,505.0
525.0,496.0,539.0,503.0
517.0,491.0,536.0,507.0
503.0,498.0,532.0,510.0
502.0,503.0,518.0,510.0
501.0,495.0,512.0,510.0
503.0,492.0,505.0,509.0
509.0,499.0,500.0,510.0
507.0,508.0,498.0,512.0
510.0,517.0,496.0,509.0
510.0,512.0,497.0,504.0
510.0,509.0,498.0,504.0
512.0,500.0,505.0,502.0
517.0,512.0,513.0,498.0
522.0,520.0,519.0,500.0
525.0,519.0,528.0,502.0
526.0,515.0,536.0,506.0
522.0,515.0,541.0,506.0
520.0,499.0,538.0,507.0
516.0,486.0,533.0,505.0
502.0,471.0,529.0,506.0
501.0,474.0,518.0,507.0
495.0,476.0,509.0,508.0
498.0,488.0,501.0,510.0
499.0,502.0,500.0,510.0
504.0,524.0,496.0,509.0
508.0,507.0,499.0,506.0
511.0,511.0,498.0,503.0
507.0,515.0,501.0,503.0
511.0,509.0,507.0,500.0
513.0,514.0,515.0,500.0
526.0,539.0,524.0,499.0
532.0,551.0,531.0,499.0
536.0,534.0,538.0,501.0
536.0,511.0,538.0,504.0
530.0,479.0,534.0,504.0
508.0,420.0,532.0,506.0
496.0,470.0,523.0,509.0
498.0,494.0,516.0,513.0
500.0,495.0,504.0,506.0
504.0,513.0,500.0,508.0
511.0,525.0,502.0,506.0
507.0,536.0,503.0,510.0
506.0,509.0,500.0,510.0
505.0,512.0,498.0,509.0
500.0,529.0,506.0,514.0
506.0,545.0,511.0,509.0
516.0,524.0,519.0,515.0
521.0,536.0,529.0,511.0
532.0,537.0,535.0,493.0
529.0,518.0,547.0,502.0
529.0,511.0,552.0,507.0
519.0,491.0,548.0,507.0
507.0,511.0,541.0,502.0
498.0,479.0,518.0,504.0
494.0,449.0,506.0,501.0
493.0,468.0,496.0,507.0
494.0,509.0,493.0,500.0
498.0,527.0,494.0,495.0
505.0,512.0,494.0,493.0
509.0,525.0,497.0,491.0
510.0,520.0,494.0,489.0
507.0,515.0,497.0,480.0
516.0,515.0,506.0,477.0
521.0,509.0,514.0,478.0
528.0,506.0,522.0,483.0
528.0,502.0,524.0,483.0
526.0,486.0,533.0,491.0
517.0,498.0,534.0,496.0
517.0,519.0,532.0,496.0
507.0,500.0,522.0,503.0
501.0,494.0,524.0,505.0
491.0,451.0,516.0,500.0
501.0,486.0,492.0,495.0
502.0,501.0,493.0,497.0
507.0,535.0,494.0,497.0
515.0,548.0,499.0,498.0
517.0,519.0,505.0,496.0
516.0,506.0,499.0,488.0
519.0,503.0,493.0,486.0
520.0,531.0,506.0,486.0
519.0,521.0,519.0,491.0
523.0,473.0,525.0,489.0
519.0,463.0,530.0,496.0
517.0,474.0,537.0,500.0
519.0,495.0,533.0,501.0
516.0,518.0,532.0,503.0
498.0,497.0,523.0,505.0
495.0,503.0,518.0,508.0
493.0,515.0,517.0,512.0
500.0,517.0,508.0,513.0
504.0,518.0,502.0,510.0
511.0,523.0,497.0,509.0
511.0,517.0,497.0,504.0
513.0,512.0,496.0,503.0
510.0,497.0,504.0,501.0
510.0,481.0,508.0,499.0
518.0,496.0,525.0,500.0
523.0,531.0,529.0,501.0
528.0,526.0,535.0,504.0
527.0,513.0,547.0,507.0
522.0,511.0,557.0,510.0
520.0,484.0,546.0,508.0
511.0,468.0,528.0,498.0
504.0,476.0,514.0,496.0
499.0,495.0,501.0,501.0
500.0,486.0,486.0,509.0
504.0,484.0,481.0,505.0
515.0,492.0,482.0,505.0
517.0,509.0,487.0,501.0
515.0,516.0,491.0,507.0
502.0,522.0,508.0,502.0
509.0,502.0,519.0,500.0
517.0,509.0,526.0,498.0
518.0,510.0,532.0,501.0
520.0,506.0,527.0,495.0
525.0,514.0,529.0,496.0
522.0,513.0,531.0,501.0
512.0,505.0,534.0,503.0
509.0,511.0,531.0,501.0
498.0,489.0,523.0,501.0
500.0,480.0,514.0,505.0
498.0,492.0,505.0,507.0
502.0,498.0,494.0,506.0
501.0,480.0,490.0,503.0
494.0,482.0,487.0,503.0
502.0,501.0,489.0,500.0
516.0,528.0,491.0,501.0
513.0,548.0,494.0,499.0
517.0,536.0,504.0,498.0
515.0,566.0,511.0,503.0
512.0,497.0,522.0,502.0
519.0,484.0,530.0,501.0
523.0,510.0,540.0,505.0
519.0,511.0,537.0,501.0
516.0,491.0,533.0,502.0
510.0,477.0,530.0,502.0
498.0,472.0,517.0,504.0
495.0,482.0,507.0,513.0
500.0,485.0,497.0,507.0
506.0,483.0,495.0,514.0
508.0,500.0,496.0,506.0
505.0,506.0,495.0,511.0
508.0,520.0,496.0,507.0
513.0,533.0,504.0,509.0
511.0,520.0,507.0,512.0
515.0,519.0,508.0,508.0
520.0,513.0,517.0,502.0
522.0,509.0,527.0,502.0
521.0,503.0,536.0,504.0
525.0,491.0,539.0,506.0
521.0,486.0,540.0,509.0
520.0,482.0,537.0,513.0
508.0,477.0,535.0,520.0
509.0,479.0,519.0,513.0
505.0,502.0,504.0,516.0
507.0,511.0,498.0,501.0
512.0,517.0,490.0,506.0
511.0,524.0,488.0,509.0
508.0,518.0,486.0,510.0
507.0,505.0,489.0,515.0
504.0,480.0,499.0,508.0
506.0,470.0,508.0,508.0
519.0,488.0,519.0,509.0
530.0,512.0,533.0,511.0
529.0,524.0,536.0,508.0
539.0,556.0,536.0,508.0
538.0,528.0,531.0,508.0
524.0,476.0,535.0,510.0
512.0,495.0,536.0,517.0
494.0,462.0,528.0,519.0
490.0,473.0,519.0,518.0
487.0,528.0,510.0,512.0
504.0,551.0,502.0,518.0
505.0,532.0,501.0,516.0
505.0,517.0,493.0,509.0
504.0,501.0,486.0,494.0
509.0,499.0,485.0,497.0
509.0,495.0,490.0,495.0
505.0,500.0,500.0,499.0
508.0,515.0,514.0,501.0
519.0,514.0,518.0,504.0
524.0,538.0,522.0,508.0
525.0,550.0,531.0,501.0
526.0,544.0,531.0,505.0
515.0,500.0,527.0,506.0
510.0,481.0,524.0,504.0
498.0,507.0,516.0,511.0
498.0,516.0,511.0,518.0
498.0,490.0,506.0,523.0
500.0,474.0,502.0,529.0
498.0,467.0,506.0,530.0
507.0,490.0,506.0,528.0
513.0,497.0,512.0,529.0
513.0,498.0,518.0,527.0
512.0,514.0,521.0,519.0
515.0,509.0,519.0,506.0
518.0,495.0,506.0,493.0
523.0,495.0,506.0,491.0
525.0,491.0,514.0,490.0
519.0,495.0,515.0,493.0
515.0,498.0,514.0,497.0
515.0,485.0,514.0,501.0
503.0,498.0,518.0,509.0
499.0,509.0,508.0,512.0
499.0,521.0,500.0,513.0
502.0,518.0,501.0,512.0
503.0,514.0,497.0,509.0
504.0,507.0,500.0,509.0
502.0,502.0,497.0,511.0
510.0,522.0,493.0,512.0
515.0,526.0,502.0,510.0
510.0,501.0,493.0,501.0
513.0,491.0,500.0,502.0
520.0,499.0,511.0,507.0
527.0,503.0,526.0,508.0
531.0,488.0,535.0,514.0
523.0,476.0,540.0,509.0
517.0,509.0,531.0,506.0
518.0,506.0,519.0,504.0
507.0,476.0,509.0,504.0
499.0,477.0,505.0,507.0
495.0,505.0,502.0,513.0
502.0,540.0,494.0,519.0
514.0,529.0,495.0,520.0
518.0,519.0,495.0,519.0
520.0,530.0,498.0,515.0
511.0,519.0,500.0,508.0
513.0,545.0,503.0,510.0
513.0,516.0,504.0,510.0
507.0,436.0,509.0,507.0
518.0,488.0,516.0,503.0
527.0,504.0,520.0,500.0
528.0,509.0,520.0,504.0
531.0,512.0,530.0,506.0
533.0,508.0,542.0,507.0
518.0,490.0,528.0,518.0
496.0,490.0,509.0,507.0
482.0,502.0,499.0,502.0
487.0,500.0,490.0,506.0
495.0,512.0,488.0,507.0
496.0,515.0,487.0,508.0
505.0,493.0,488.0,508.0
507.0,500.0,489.0,506.0
515.0,501.0,492.0,503.0
514.0,501.0,496.0,499.0
516.0,496.0,500.0,501.0
516.0,513.0,513.0,502.0
521.0,525.0,523.0,506.0
519.0,504.0,529.0,506.0
512.0,495.0,538.0,509.0
522.0,508.0,531.0,506.0
512.0,501.0,527.0,511.0
499.0,505.0,521.0,512.0
500.0,501.0,513.0,516.0
503.0,505.0,506.0,518.0
502.0,494.0,503.0,523.0
505.0,491.0,503.0,520.0
503.0,491.0,500.0,525.0
507.0,510.0,503.0,524.0
519.0,537.0,503.0,522.0
510.0,509.0,510.0,526.0
498.0,497.0,502.0,516.0
507.0,533.0,503.0,515.0
518.0,526.0,517.0,510.0
524.0,496.0,529.0,495.0
527.0,521.0,526.0,494.0
525.0,515.0,521.0,491.0
523.0,492.0,516.0,495.0
521.0,487.0,516.0,498.0
509.0,498.0,513.0,505.0
509.0,490.0,502.0,510.0
505.0,506.0,498.0,509.0
504.0,510.0,495.0,518.0
503.0,515.0,491.0,512.0
498.0,515.0,493.0,513.0
504.0,508.0,490.0,510.0
507.0,507.0,499.0,507.0
507.0,501.0,500.0,510.0
516.0,508.0,513.0,508.0
519.0,506.0,520.0,509.0
526.0,512.0,521.0,502.0
526.0,500.0,519.0,498.0
525.0,508.0,524.0,499.0
522.0,504.0,525.0,505.0
515.0,501.0,524.0,505.0
505.0,507.0,523.0,508.0
505.0,495.0,515.0,511.0
512.0,490.0,510.0,514.0
522.0,513.0,502.0,514.0
521.0,486.0,497.0,512.0
522.0,497.0,494.0,513.0
498.0,462.0,490.0,508.0
495.0,506.0,488.0,505.0
496.0,525.0,489.0,505.0
502.0,517.0,497.0,501.0
509.0,516.0,506.0,504.0
514.0,520.0,514.0,502.0
517.0,508.0,523.0,506.0
522.0,506.0,529.0,504.0
523.0,483.0,527.0,507.0
521.0,478.0,528.0,508.0
521.0,491.0,524.0,510.0
507.0,483.0,523.0,512.0
505.0,508.0,511.0,516.0
500.0,514.0,504.0,517.0
503.0,506.0,501.0,519.0
509.0,498.0,497.0,516.0
513.0,518.0,498.0,514.0
494.0,521.0,503.0,517.0
498.0,518.0,510.0,516.0
506.0,522.0,501.0,514.0
507.0,509.0,495.0,506.0
515.0,502.0,500.0,506.0
525.0,520.0,511.0,505.0
531.0,509.0,520.0,504.0
522.0,499.0,532.0,504.0
518.0,501.0,540.0,500.0
517.0,509.0,527.0,497.0
514.0,512.0,514.0,499.0
502.0,499.0,506.0,502.0
496.0,496.0,502.0,505.0
495.0,479.0,501.0,506.0
504.0,484.0,497.0,504.0
500.0,496.0,494.0,501.0
508.0,506.0,491.0,494.0
513.0,536.0,488.0,494.0
509.0,529.0,490.0,493.0
513.0,514.0,490.0,491.0
513.0,505.0,498.0,490.0
517.0,494.0,503.0,488.0
525.0,501.0,513.0,489.0
525.0,512.0,523.0,491.0
524.0,497.0,527.0,499.0
523.0,490.0,529.0,500.0
517.0,468.0,526.0,499.0
504.0,483.0,522.0,500.0
501.0,497.0,520.0,503.0
502.0,498.0,505.0,501.0
503.0,523.0,501.0,505.0
506.0,508.0,496.0,508.0
509.0,507.0,497.0,509.0
512.0,515.0,495.0,505.0
510.0,521.0,496.0,503.0
517.0,527.0,495.0,498.0
512.0,517.0,494.0,497.0
516.0,508.0,507.0,498.0
515.0,499.0,514.0,498.0
516.0,498.0,518.0,501.0
516.0,500.0,527.0,507.0
520.0,501.0,530.0,508.0
521.0,519.0,530.0,510.0
522.0,518.0,531.0,512.0
506.0,504.0,527.0,514.0
503.0,505.0,520.0,512.0
499.0,493.0,510.0,515.0
498.0,536.0,500.0,512.0
503.0,494.0,494.0,515.0
499.0,460.0,494.0,516.0
505.0,489.0,498.0,516.0
509.0,491.0,501.0,511.0
511.0,511.0,503.0,513.0
513.0,519.0,510.0,515.0
515.0,509.0,514.0,503.0
519.0,496.0,509.0,497.0
526.0,498.0,512.0,495.0
531.0,491.0,521.0,498.0
523.0,511.0,525.0,497.0
521.0,514.0,520.0,499.0
511.0,505.0,517.0,502.0
503.0,500.0,510.0,505.0
497.0,494.0,508.0,506.0
496.0,492.0,497.0,506.0
499.0,505.0,491.0,507.0
502.0,507.0,490.0,509.0
505.0,508.0,489.0,509.0
505.0,507.0,491.0,506.0
503.0,511.0,493.0,505.0
509.0,519.0,494.0,501.0
511.0,514.0,502.0,502.0
515.0,509.0,514.0,505.0
526.0,507.0,518.0,506.0
527.0,513.0,526.0,507.0
528.0,505.0,529.0,510.0
521.0,499.0,530.0,509.0
516.0,499.0,529.0,512.0
512.0,487.0,524.0,512.0
500.0,491.0,516.0,514.0
499.0,482.0,507.0,517.0
501.0,489.0,502.0,519.0
512.0,494.0,498.0,516.0
517.0,498.0,496.0,517.0
517.0,492.0,493.0,514.0
518.0,490.0,494.0,513.0
513.0,490.0,496.0,512.0
508.0,484.0,500.0,509.0
500.0,500.0,507.0,507.0
511.0,532.0,518.0,513.0
524.0,521.0,528.0,514.0
518.0,511.0,532.0,514.0
518.0,511.0,533.0,515.0
521.0,525.0,531.0,513.0
518.0,529.0,525.0,510.0
502.0,507.0,517.0,507.0
498.0,507.0,508.0,511.0
498.0,504.0,505.0,515.0
504.0,488.0,500.0,516.0
509.0,490.0,497.0,516.0
513.0,492.0,494.0,519.0
512.0,502.0,493.0,511.0
517.0,531.0,495.0,512.0
512.0,553.0,492.0,509.0
508.0,539.0,500.0,507.0
514.0,489.0,508.0,508.0
516.0,480.0,519.0,511.0
525.0,498.0,524.0,511.0
523.0,511.0,530.0,513.0
523.0,501.0,535.0,513.0
518.0,500.0,535.0,515.0
514.0,499.0,526.0,512.0
502.0,490.0,519.0,519.0
494.0,480.0,512.0,519.0
497.0,483.0,507.0,518.0
511.0,496.0,502.0,521.0
518.0,529.0,500.0,521.0
530.0,556.0,499.0,519.0
526.0,546.0,496.0,514.0
522.0,540.0,495.0,511.0
500.0,492.0,495.0,506.0
495.0,488.0,498.0,503.0
507.0,501.0,507.0,504.0
516.0,513.0,516.0,503.0
522.0,494.0,522.0,506.0
517.0,493.0,530.0,516.0
512.0,497.0,532.0,512.0
516.0,499.0,531.0,515.0
508.0,499.0,531.0,516.0
499.0,500.0,526.0,520.0
499.0,505.0,518.0,522.0
501.0,485.0,509.0,521.0
507.0,490.0,501.0,519.0
511.0,501.0,493.0,517.0
514.0,515.0,489.0,510.0
514.0,519.0,488.0,508.0
516.0,512.0,491.0,507.0
512.0,511.0,493.0,505.0
509.0,507.0,507.0,506.0
517.0,508.0,516.0,509.0
527.0,514.0,525.0,513.0
528.0,508.0,531.0,510.0
526.0,508.0,534.0,512.0
518.0,496.0,530.0,510.0
521.0,501.0,523.0,509.0
512.0,497.0,520.0,512.0
505.0,482.0,512.0,513.0
505.0,489.0,500.0,513.0
499.0,506.0,491.0,512.0
494.0,510.0,494.0,513.0
491.0,522.0,495.0,516.0
499.0,510.0,497.0,514.0
510.0,513.0,497.0,513.0
509.0,519.0,496.0,514.0
508.0,514.0,500.0,506.0
502.0,525.0,507.0,508.0
514.0,525.0,519.0,513.0
522.0,516.0,528.0,516.0
525.0,511.0,539.0,519.0
522.0,509.0,540.0,518.0
518.0,507.0,535.0,513.0
516.0,499.0,525.0,513.0
502.0,487.0,516.0,513.0
498.0,481.0,512.0,515.0
499.0,488.0,506.0,518.0
500.0,497.0,500.0,518.0
502.0,514.0,494.0,516.0
509.0,537.0,493.0,514.0
507.0,534.0,496.0,516.0
512.0,511.0,489.0,513.0
508.0,484.0,493.0,512.0
510.0,502.0,509.0,511.0
517.0,505.0,519.0,517.0
523.0,509.0,532.0,514.0
526.0,506.0,537.0,514.0
527.0,508.0,536.0,514.0
521.0,496.0,528.0,510.0
519.0,492.0,523.0,509.0
506.0,478.0,520.0,512.0
500.0,482.0,518.0,518.0
497.0,475.0,508.0,520.0
500.0,482.0,503.0,519.0
505.0,481.0,498.0,524.0
508.0,489.0,496.0,517.0
508.0,502.0,492.0,509.0
506.0,512.0,486.0,506.0
509.0,519.0,489.0,507.0
512.0,518.0,496.0,504.0
510.0,525.0,504.0,507.0
521.0,520.0,513.0,505.0
529.0,517.0,525.0,510.0
529.0,507.0,534.0,510.0
531.0,529.0,545.0,514.0
521.0,526.0,535.0,512.0
522.0,527.0,530.0,515.0
501.0,484.0,523.0,516.0
496.0,478.0,513.0,523.0
497.0,501.0,511.0,525.0
499.0,498.0,502.0,522.0
505.0,493.0,494.0,517.0
506.0,506.0,488.0,510.0
506.0,497.0,488.0,508.0
507.0,510.0,496.0,509.0
514.0,511.0,496.0,515.0
515.0,501.0,504.0,506.0
519.0,512.0,508.0,508.0
524.0,515.0,513.0,508.0
526.0,499.0,535.0,512.0
528.0,483.0,532.0,512.0
523.0,479.0,534.0,515.0
520.0,489.0,530.0,515.0
519.0,495.0,528.0,518.0
503.0,518.0,520.0,519.0
489.0,502.0,512.0,523.0
494.0,483.0,509.0,524.0
506.0,520.0,503.0,523.0
512.0,536.0,503.0,519.0
514.0,540.0,498.0,515.0
508.0,508.0,493.0,515.0
505.0,468.0,495.0,511.0
507.0,464.0,498.0,513.0
509.0,480.0,507.0,510.0
507.0,516.0,516.0,513.0
516.0,541.0,524.0,513.0
528.0,528.0,531.0,512.0
525.0,524.0,535.0,512.0
523.0,514.0,533.0,514.0
517.0,496.0,530.0,517.0
512.0,488.0,525.0,516.0
507.0,483.0,517.0,514.0
506.0,479.0,508.0,519.0
507.0,492.0,506.0,519.0
507.0,505.0,502.0,521.0
507.0,514.0,499.0,520.0
500.0,508.0,495.0,518.0
503.0,508.0,496.0,519.0
509.0,503.0,497.0,517.0
510.0,487.0,502.0,514.0
519.0,505.0,508.0,516.0
529.0,507.0,512.0,516.0
536.0,509.0,532.0,522.0
535.0,500.0,542.0,518.0
529.0,514.0,540.0,518.0
498.0,511.0,544.0,520.0
500.0,524.0,544.0,526.0
495.0,509.0,530.0,525.0
493.0,501.0,509.0,515.0
494.0,505.0,497.0,519.0
501.0,512.0,494.0,509.0
505.0,514.0,488.0,516.0
509.0,523.0,491.0,507.0
507.0,519.0,490.0,505.0
508.0,524.0,494.0,504.0
507.0,517.0,497.0,504.0
508.0,509.0,500.0,505.0
512.0,505.0,509.0,509.0
522.0,505.0,520.0,511.0
525.0,507.0,530.0,515.0
525.0,506.0,535.0,519.0
523.0,513.0,541.0,520.0
515.0,505.0,539.0,524.0
515.0,499.0,536.0,527.0
505.0,484.0,519.0,519.0
502.0,486.0,508.0,512.0
500.0,489.0,498.0,509.0
502.0,502.0,494.0,512.0
506.0,506.0,490.0,513.0
516.0,512.0,491.0,512.0
509.0,510.0,490.0,511.0
510.0,509.0,495.0,512.0
510.0,503.0,497.0,508.0
513.0,504.0,502.0,509.0
516.0,505.0,511.0,509.0
524.0,507.0,524.0,508.0
525.0,499.0,532.0,514.0
519.0,492.0,537.0,520.0
511.0,485.0,535.0,521.0
516.0,505.0,535.0,523.0
508.0,521.0,528.0,525.0
507.0,515.0,515.0,520.0
507.0,510.0,508.0,518.0
503.0,506.0,505.0,519.0
507.0,500.0,502.0,518.0
501.0,476.0,494.0,517.0
508.0,502.0,491.0,516.0
509.0,511.0,494.0,511.0
514.0,508.0,496.0,510.0
515.0,502.0,500.0,506.0
522.0,506.0,507.0,507.0
529.0,524.0,514.0,510.0
524.0,486.0,524.0,513.0
528.0,492.0,531.0,513.0
528.0,509.0,533.0,516.0
518.0,500.0,533.0,515.0
506.0,499.0,528.0,522.0
496.0,506.0,519.0,519.0
493.0,512.0,515.0,522.0
496.0,506.0,508.0,521.0
498.0,494.0,503.0,523.0
501.0,500.0,499.0,517.0
502.0,504.0,497.0,518.0
507.0,508.0,497.0,520.0
518.0,500.0,495.0,516.0
517.0,510.0,498.0,512.0
519.0,516.0,503.0,514.0
523.0,508.0,514.0,512.0
526.0,500.0,525.0,511.0
527.0,498.0,529.0,514.0
515.0,504.0,533.0,512.0
517.0,484.0,537.0,517.0
509.0,470.0,539.0,520.0
508.0,521.0,537.0,518.0
494.0,488.0,524.0,519.0
498.0,497.0,510.0,518.0
504.0,504.0,505.0,522.0
511.0,521.0,498.0,522.0
514.0,562.0,492.0,518.0
518.0,563.0,487.0,510.0
502.0,543.0,485.0,512.0
509.0,519.0,496.0,514.0
508.0,483.0,502.0,517.0
512.0,494.0,509.0,519.0
516.0,488.0,523.0,521.0
525.0,502.0,536.0,527.0
534.0,520.0,545.0,524.0
539.0,542.0,544.0,521.0
527.0,517.0,529.0,509.0
515.0,473.0,516.0,499.0
499.0,509.0,510.0,496.0
494.0,478.0,497.0,499.0
492.0,481.0,494.0,504.0
499.0,498.0,493.0,506.0
503.0,512.0,492.0,511.0
506.0,517.0,489.0,511.0
509.0,516.0,487.0,512.0
510.0,522.0,490.0,513.0
508.0,514.0,494.0,506.0
507.0,506.0,498.0,501.0
516.0,504.0,505.0,502.0
517.0,498.0,516.0,507.0
526.0,494.0,524.0,510.0
520.0,501.0,527.0,509.0
529.0,512.0,533.0,513.0
518.0,516.0,536.0,513.0
518.0,506.0,528.0,509.0
502.0,493.0,523.0,513.0
499.0,492.0,515.0,518.0
501.0,498.0,502.0,517.0
504.0,508.0,499.0,517.0
506.0,508.0,494.0,517.0
508.0,514.0,496.0,517.0
502.0,511.0,492.0,511.0
509.0,518.0,494.0,509.0
510.0,518.0,501.0,509.0
512.0,513.0,499.0,505.0
514.0,513.0,512.0,506.0
521.0,510.0,522.0,509.0
525.0,511.0,529.0,507.0
521.0,503.0,533.0,512.0
522.0,497.0,532.0,510.0
516.0,492.0,525.0,510.0
515.0,495.0,526.0,514.0
502.0,483.0,518.0,519.0
500.0,487.0,512.0,515.0
503.0,497.0,505.0,517.0
506.0,502.0,501.0,518.0
508.0,505.0,498.0,519.0
512.0,511.0,496.0,517.0
508.0,507.0,492.0,512.0
514.0,516.0,496.0,515.0
513.0,510.0,498.0,508.0
516.0,496.0,507.0,505.0
517.0,477.0,513.0,510.0
522.0,489.0,520.0,509.0
525.0,513.0,530.0,512.0
519.0,511.0,534.0,511.0
518.0,509.0,533.0,515.0
517.0,510.0,532.0,517.0
506.0,497.0,526.0,517.0
502.0,496.0,516.0,520.0
503.0,506.0,509.0,520.0
502.0,501.0,504.0,520.0
501.0,511.0,501.0,521.0
506.0,513.0,497.0,520.0
505.0,513.0,492.0,518.0
509.0,511.0,497.0,517.0
513.0,513.0,500.0,516.0
511.0,500.0,505.0,510.0
513.0,492.0,516.0,513.0
521.0,484.0,525.0,517.0
529.0,486.0,531.0,518.0
531.0,509.0,533.0,517.0
532.0,526.0,535.0,514.0
520.0,498.0,527.0,511.0
518.0,498.0,521.0,507.0
505.0,498.0,515.0,510.0
493.0,504.0,510.0,514.0
489.0,513.0,503.0,517.0
498.0,523.0,503.0,520.0
500.0,506.0,496.0,520.0
503.0,506.0,501.0,519.0
508.0,526.0,494.0,513.0
506.0,520.0,496.0,511.0
507.0,507.0,503.0,510.0
504.0,511.0,519.0,513.0
509.0,503.0,519.0,514.0
519.0,509.0,523.0,510.0
528.0,513.0,523.0,508.0
532.0,525.0,525.0,506.0
526.0,517.0,529.0,506.0
519.0,519.0,532.0,510.0
510.0,451.0,525.0,511.0
501.0,439.0,515.0,518.0
501.0,461.0,508.0,513.0
496.0,473.0,500.0,516.0
508.0,501.0,495.0,517.0
511.0,529.0,493.0,515.0
519.0,526.0,494.0,515.0
506.0,521.0,492.0,510.0
509.0,530.0,496.0,511.0
502.0,529.0,500.0,510.0
507.0,513.0,505.0,506.0
512.0,510.0,512.0,509.0
519.0,511.0,523.0,511.0
529.0,516.0,534.0,510.0
529.0,513.0,539.0,517.0
517.0,505.0,544.0,514.0
513.0,496.0,537.0,515.0
502.0,474.0,525.0,515.0
502.0,481.0,513.0,515.0
502.0,499.0,504.0,511.0
509.0,520.0,498.0,509.0
509.0,513.0,492.0,511.0
504.0,518.0,492.0,512.0
508.0,514.0,494.0,509.0
508.0,511.0,494.0,508.0
513.0,514.0,497.0,508.0
510.0,504.0,501.0,508.0
512.0,507.0,510.0,509.0
517.0,508.0,518.0,510.0
521.0,507.0,531.0,513.0
522.0,504.0,540.0,515.0
525.0,511.0,540.0,517.0
515.0,494.0,532.0,515.0
515.0,500.0,528.0,510.0
502.0,490.0,518.0,511.0
501.0,494.0,509.0,509.0
501.0,496.0,500.0,510.0
505.0,498.0,495.0,508.0
507.0,508.0,497.0,519.0
510.0,524.0,497.0,514.0
507.0,514.0,493.0,513.0
511.0,515.0,497.0,514.0
512.0,513.0,499.0,509.0
513.0,507.0,509.0,512.0
514.0,506.0,521.0,516.0
525.0,506.0,532.0,519.0
529.0,502.0,537.0,522.0
526.0,502.0,542.0,519.0
523.0,497.0,537.0,511.0
517.0,493.0,526.0,503.0
515.0,489.0,516.0,501.0
500.0,491.0,509.0,504.0
491.0,497.0,502.0,508.0
494.0,498.0,493.0,512.0
504.0,507.0,492.0,512.0
506.0,510.0,492.0,509.0
511.0,521.0,493.0,511.0
510.0,514.0,488.0,507.0
513.0,517.0,495.0,506.0
510.0,505.0,498.0,506.0
512.0,498.0,505.0,504.0
514.0,486.0,517.0,513.0
516.0,480.0,525.0,513.0
524.0,478.0,529.0,512.0
525.0,497.0,532.0,512.0
520.0,524.0,531.0,512.0
518.0,517.0,533.0,513.0
508.0,516.0,520.0,517.0
498.0,485.0,516.0,518.0
498.0,482.0,510.0,523.0
504.0,508.0,508.0,522.0
507.0,515.0,507.0,526.0
510.0,521.0,510.0,525.0
516.0,517.0,508.0,525.0
510.0,511.0,501.0,517.0
514.0,511.0,496.0,507.0
511.0,508.0,498.0,503.0
510.0,519.0,506.0,508.0
522.0,527.0,511.0,502.0
524.0,531.0,519.0,500.0
525.0,528.0,529.0,506.0
523.0,519.0,532.0,513.0
517.0,487.0,534.0,516.0
517.0,471.0,529.0,517.0
505.0,473.0,526.0,519.0
499.0,479.0,511.0,520.0
506.0,489.0,502.0,517.0
504.0,495.0,495.0,517.0
498.0,510.0,494.0,518.0
500.0,526.0,497.0,513.0
498.0,512.0,492.0,513.0
502.0,507.0,496.0,512.0
508.0,493.0,501.0,506.0
519.0,490.0,507.0,507.0
521.0,493.0,510.0,507.0
530.0,480.0,521.0,511.0
528.0,503.0,527.0,513.0
538.0,533.0,535.0,515.0
537.0,558.0,537.0,518.0
522.0,538.0,530.0,511.0
510.0,461.0,525.0,508.0
500.0,471.0,514.0,511.0
495.0,469.0,503.0,511.0
483.0,482.0,499.0,513.0
489.0,517.0,494.0,515.0
502.0,513.0,494.0,510.0
517.0,514.0,498.0,511.0
508.0,509.0,495.0,513.0
513.0,516.0,504.0,519.0
506.0,526.0,508.0,514.0
510.0,532.0,516.0,514.0
509.0,536.0,521.0,510.0
519.0,521.0,524.0,507.0
525.0,529.0,530.0,502.0
527.0,527.0,532.0,504.0
517.0,501.0,524.0,496.0
516.0,497.0,519.0,499.0
500.0,491.0,515.0,501.0
501.0,493.0,506.0,505.0
501.0,496.0,502.0,510.0
505.0,505.0,499.0,511.0
509.0,524.0,494.0,511.0
510.0,522.0,494.0,513.0
509.0,527.0,491.0,509.0
505.0,501.0,492.0,504.0
508.0,482.0,497.0,509.0
510.0,504.0,501.0,501.0
513.0,501.0,510.0,505.0
519.0,506.0,519.0,504.0
522.0,509.0,527.0,507.0
526.0,513.0,535.0,514.0
527.0,508.0,540.0,516.0
520.0,501.0,539.0,515.0
517.0,509.0,533.0,515.0
503.0,496.0,520.0,515.0
497.0,477.0,509.0,520.0
493.0,476.0,504.0,516.0
501.0,513.0,499.0,515.0
502.0,513.0,496.0,516.0
507.0,515.0,493.0,514.0
508.0,500.0,493.0,513.0
507.0,493.0,496.0,508.0
507.0,496.0,498.0,506.0
513.0,509.0,506.0,508.0
516.0,500.0,513.0,509.0
519.0,501.0,524.0,510.0
525.0,509.0,532.0,510.0
528.0,504.0,534.0,515.0
520.0,501.0,537.0,515.0
511.0,494.0,533.0,516.0
510.0,497.0,525.0,516.0
503.0,499.0,515.0,518.0
502.0,498.0,509.0,512.0
501.0,504.0,506.0,520.0
504.0,507.0,505.0,523.0
506.0,513.0,503.0,520.0
514.0,523.0,500.0,516.0
508.0,509.0,496.0,513.0
513.0,512.0,497.0,509.0
517.0,505.0,500.0,505.0
520.0,504.0,505.0,506.0
528.0,506.0,513.0,508.0
530.0,502.0,521.0,507.0
532.0,473.0,529.0,511.0
526.0,460.0,530.0,511.0
501.0,483.0,531.0,512.0
500.0,476.0,525.0,513.0
492.0,503.0,521.0,521.0
493.0,531.0,511.0,515.0
500.0,506.0,509.0,519.0
501.0,513.0,505.0,520.0
508.0,519.0,496.0,518.0
508.0,524.0,496.0,518.0
506.0,522.0,495.0,516.0
503.0,528.0,493.0,513.0
508.0,521.0,499.0,512.0
512.0,509.0,497.0,506.0
517.0,504.0,511.0,510.0
526.0,503.0,520.0,509.0
531.0,504.0,529.0,515.0
533.0,497.0,534.0,514.0
533.0,507.0,536.0,516.0
526.0,499.0,530.0,516.0
520.0,496.0,530.0,518.0
502.0,498.0,520.0,519.0
483.0,490.0,513.0,520.0
489.0,501.0,503.0,519.0
502.0,512.0,500.0,516.0
503.0,509.0,496.0,518.0
514.0,509.0,496.0,519.0
515.0,503.0,494.0,516.0
518.0,515.0,495.0,515.0
518.0,515.0,498.0,512.0
517.0,514.0,507.0,509.0
513.0,513.0,515.0,512.0
515.0,504.0,521.0,510.0
515.0,511.0,529.0,511.0
517.0,506.0,533.0,510.0
517.0,513.0,535.0,517.0
515.0,504.0,530.0,514.0
507.0,496.0,526.0,519.0
499.0,492.0,516.0,519.0
502.0,506.0,508.0,521.0
507.0,532.0,505.0,518.0
512.0,538.0,503.0,518.0
510.0,531.0,494.0,514.0
504.0,504.0,491.0,511.0
499.0,459.0,487.0,505.0
507.0,483.0,487.0,508.0
508.0,499.0,496.0,507.0
514.0,501.0,506.0,510.0
521.0,497.0,518.0,510.0
524.0,502.0,527.0,513.0
526.0,497.0,530.0,507.0
527.0,508.0,533.0,513.0
519.0,523.0,530.0,517.0
518.0,514.0,530.0,517.0
508.0,499.0,520.0,520.0
503.0,496.0,511.0,518.0
503.0,498.0,506.0,517.0
499.0,501.0,499.0,517.0
495.0,519.0,495.0,517.0
505.0,517.0,499.0,517.0
507.0,525.0,496.0,511.0
504.0,514.0,488.0,507.0
508.0,510.0,492.0,502.0
511.0,496.0,496.0,501.0
513.0,497.0,504.0,501.0
519.0,496.0,513.0,506.0
519.0,509.0,522.0,506.0
524.0,520.0,529.0,509.0
523.0,516.0,530.0,513.0
512.0,496.0,526.0,515.0
510.0,499.0,523.0,515.0
504.0,492.0,518.0,518.0
500.0,498.0,514.0,524.0
499.0,505.0,519.0,526.0
504.0,512.0,508.0,523.0
508.0,511.0,500.0,515.0
513.0,523.0,497.0,516.0
511.0,512.0,496.0,514.0
514.0,516.0,495.0,510.0
513.0,520.0,494.0,504.0
511.0,472.0,499.0,505.0
511.0,475.0,509.0,509.0
520.0,483.0,514.0,508.0
520.0,498.0,526.0,513.0
521.0,509.0,537.0,515.0
519.0,504.0,538.0,520.0
510.0,500.0,528.0,518.0
508.0,491.0,527.0,519.0
502.0,488.0,519.0,517.0
505.0,488.0,510.0,520.0
510.0,491.0,505.0,521.0
511.0,502.0,500.0,521.0
516.0,514.0,495.0,521.0
522.0,528.0,495.0,519.0
509.0,527.0,494.0,514.0
512.0,524.0,496.0,509.0
511.0,506.0,500.0,506.0
516.0,511.0,508.0,502.0
515.0,519.0,520.0,505.0
515.0,498.0,521.0,506.0
522.0,512.0,526.0,506.0
526.0,511.0,532.0,512.0
519.0,505.0,530.0,509.0
511.0,506.0,527.0,515.0
494.0,500.0,520.0,518.0
496.0,497.0,517.0,519.0
497.0,497.0,511.0,520.0
497.0,509.0,503.0,521.0
504.0,516.0,498.0,518.0
509.0,519.0,497.0,518.0
510.0,519.0,494.0,520.0
504.0,512.0,493.0,516.0
505.0,511.0,498.0,514.0
504.0,504.0,503.0,513.0
513.0,505.0,509.0,512.0
519.0,514.0,521.0,513.0
530.0,516.0,529.0,515.0
531.0,519.0,536.0,517.0
527.0,525.0,541.0,522.0
514.0,509.0,533.0,520.0
516.0,508.0,532.0,517.0
494.0,445.0,524.0,520.0
496.0,468.0,514.0,520.0
500.0,503.0,508.0,520.0
507.0,508.0,498.0,517.0
508.0,501.0,492.0,517.0
513.0,507.0,493.0,515.0
511.0,498.0,490.0,507.0
507.0,522.0,488.0,508.0
512.0,525.0,494.0,505.0
510.0,530.0,502.0,506.0
513.0,517.0,511.0,508.0
520.0,515.0,519.0,509.0
526.0,491.0,530.0,510.0
528.0,492.0,534.0,514.0
525.0,497.0,534.0,513.0
515.0,491.0,527.0,512.0
506.0,480.0,524.0,517.0
501.0,480.0,518.0,517.0
500.0,503.0,508.0,519.0
499.0,515.0,502.0,521.0
508.0,520.0,500.0,521.0
512.0,524.0,497.0,521.0
515.0,497.0,495.0,518.0
507.0,485.0,496.0,516.0
511.0,498.0,498.0,513.0
505.0,482.0,501.0,514.0
505.0,486.0,510.0,508.0
512.0,490.0,518.0,513.0
519.0,516.0,526.0,514.0
528.0,552.0,534.0,517.0
523.0,532.0,535.0,518.0
517.0,506.0,533.0,516.0
512.0,504.0,532.0,520.0
503.0,497.0,528.0,525.0
501.0,491.0,524.0,528.0
506.0,490.0,514.0,528.0
511.0,499.0,507.0,526.0
513.0,508.0,498.0,519.0
516.0,511.0,494.0,515.0
516.0,528.0,495.0,510.0
500.0,511.0,490.0,506.0
493.0,520.0,491.0,501.0
504.0,523.0,497.0,500.0
511.0,515.0,505.0,501.0
521.0,519.0,514.0,501.0
525.0,514.0,531.0,507.0
526.0,514.0,530.0,507.0
523.0,514.0,536.0,515.0
515.0,501.0,530.0,512.0
509.0,495.0,525.0,513.0
498.0,485.0,518.0,513.0
498.0,480.0,509.0,518.0
499.0,489.0,506.0,519.0
503.0,487.0,500.0,522.0
504.0,491.0,498.0,521.0
512.0,509.0,499.0,523.0
509.0,514.0,499.0,519.0
508.0,521.0,502.0,518.0
509.0,518.0,508.0,515.0
518.0,523.0,515.0,515.0
523.0,520.0,517.0,512.0
518.0,510.0,519.0,510.0
526.0,513.0,527.0,508.0
526.0,517.0,538.0,512.0
522.0,501.0,537.0,514.0
511.0,494.0,533.0,514.0
504.0,489.0,519.0,511.0
501.0,487.0,512.0,514.0
500.0,490.0,506.0,517.0
500.0,496.0,498.0,520.0
505.0,503.0,495.0,518.0
507.0,507.0,494.0,517.0
509.0,518.0,494.0,517.0
503.0,514.0,494.0,512.0
511.0,519.0,496.0,510.0
510.0,503.0,499.0,501.0
514.0,497.0,505.0,505.0
518.0,500.0,518.0,506.0
529.0,536.0,526.0,510.0
530.0,552.0,530.0,506.0
529.0,535.0,530.0,508.0
522.0,522.0,525.0,509.0
510.0,462.0,524.0,512.0
499.0,456.0,518.0,513.0
500.0,477.0,512.0,515.0
505.0,492.0,503.0,516.0
510.0,489.0,500.0,517.0
516.0,480.0,498.0,519.0
518.0,504.0,495.0,518.0
513.0,517.0,496.0,516.0
506.0,526.0,492.0,511.0
499.0,502.0,497.0,509.0
501.0,491.0,505.0,507.0
511.0,497.0,512.0,509.0
516.0,498.0,521.0,512.0
519.0,474.0,527.0,515.0
518.0,497.0,536.0,514.0
522.0,517.0,539.0,517.0
518.0,525.0,534.0,516.0
523.0,539.0,530.0,517.0
507.0,524.0,529.0,518.0
506.0,520.0,516.0,518.0
504.0,497.0,508.0,520.0
505.0,497.0,503.0,520.0
501.0,506.0,498.0,520.0
508.0,520.0,493.0,516.0
508.0,518.0,491.0,510.0
508.0,508.0,493.0,504.0
510.0,503.0,495.0,505.0
512.0,501.0,503.0,502.0
514.0,512.0,518.0,506.0
524.0,519.0,524.0,507.0
528.0,521.0,527.0,509.0
529.0,512.0,533.0,510.0
524.0,502.0,534.0,514.0
516.0,480.0,531.0,513.0
505.0,479.0,524.0,514.0
498.0,483.0,516.0,517.0
496.0,494.0,509.0,516.0
501.0,516.0,502.0,515.0
506.0,516.0,498.0,520.0
506.0,518.0,497.0,518.0
512.0,516.0,497.0,516.0
508.0,512.0,497.0,514.0
514.0,514.0,500.0,513.0
512.0,509.0,504.0,513.0
515.0,512.0,513.0,505.0
519.0,514.0,523.0,508.0
522.0,509.0,529.0,505.0
525.0,507.0,534.0,505.0
525.0,499.0,536.0,508.0
515.0,491.0,533.0,507.0
511.0,483.0,527.0,506.0
503.0,479.0,524.0,508.0
501.0,489.0,515.0,510.0
501.0,498.0,506.0,513.0
504.0,500.0,498.0,514.0
502.0,527.0,499.0,510.0
510.0,536.0,493.0,511.0
512.0,540.0,493.0,508.0
508.0,500.0,492.0,505.0
511.0,477.0,498.0,503.0
515.0,491.0,506.0,506.0
516.0,491.0,515.0,506.0
520.0,510.0,524.0,507.0
524.0,519.0,529.0,512.0
521.0,519.0,532.0,504.0
520.0,508.0,535.0,508.0
511.0,501.0,533.0,509.0
510.0,495.0,530.0,507.0
500.0,487.0,519.0,513.0
498.0,489.0,512.0,515.0
501.0,491.0,504.0,518.0
505.0,497.0,498.0,517.0
508.0,510.0,495.0,514.0
511.0,518.0,495.0,511.0
510.0,517.0,492.0,507.0
511.0,503.0,494.0,500.0
512.0,507.0,497.0,502.0
514.0,500.0,504.0,502.0
524.0,509.0,515.0,506.0
524.0,517.0,526.0,508.0
525.0,518.0,533.0,509.0
525.0,513.0,534.0,509.0
521.0,501.0,532.0,511.0
512.0,484.0,527.0,510.0
504.0,476.0,523.0,510.0
502.0,477.0,515.0,513.0
504.0,493.0,506.0,516.0
503.0,494.0,500.0,517.0
506.0,502.0,491.0,514.0
509.0,507.0,494.0,512.0
512.0,511.0,497.0,512.0
507.0,528.0,493.0,508.0
509.0,530.0,495.0,507.0
506.0,508.0,502.0,505.0
515.0,509.0,513.0,502.0
517.0,511.0,517.0,509.0
524.0,509.0,525.0,507.0
526.0,508.0,532.0,510.0
524.0,516.0,534.0,509.0
517.0,479.0,528.0,509.0
514.0,469.0,524.0,510.0
509.0,466.0,521.0,515.0
510.0,490.0,517.0,518.0
513.0,519.0,508.0,519.0
510.0,551.0,504.0,522.0
495.0,547.0,499.0,523.0
496.0,515.0,497.0,523.0
499.0,484.0,498.0,519.0
504.0,500.0,502.0,517.0
509.0,515.0,509.0,514.0
513.0,532.0,514.0,513.0
517.0,525.0,522.0,510.0
528.0,525.0,522.0,503.0
526.0,524.0,522.0,497.0
520.0,503.0,523.0,499.0
520.0,500.0,523.0,500.0
512.0,492.0,524.0,503.0
505.0,485.0,521.0,506.0
500.0,479.0,512.0,517.0
499.0,480.0,504.0,514.0
502.0,483.0,502.0,516.0
504.0,485.0,498.0,519.0
502.0,505.0,496.0,517.0
509.0,523.0,494.0,515.0
509.0,514.0,492.0,510.0
503.0,521.0,490.0,511.0
508.0,515.0,495.0,510.0
514.0,509.0,506.0,510.0
516.0,517.0,519.0,512.0
520.0,517.0,535.0,516.0
526.0,516.0,543.0,518.0
527.0,510.0,546.0,523.0
521.0,508.0,542.0,516.0
515.0,502.0,527.0,508.0
500.0,490.0,515.0,511.0
497.0,490.0,510.0,508.0
502.0,499.0,505.0,512.0
505.0,505.0,500.0,513.0
510.0,511.0,494.0,516.0
511.0,520.0,494.0,514.0
511.0,497.0,495.0,514.0
507.0,494.0,494.0,512.0
511.0,501.0,491.0,508.0
514.0,501.0,502.0,506.0
515.0,509.0,510.0,506.0
518.0,525.0,516.0,509.0
517.0,520.0,528.0,508.0
522.0,510.0,532.0,510.0
524.0,503.0,535.0,509.0
519.0,502.0,533.0,512.0
511.0,483.0,528.0,517.0
504.0,477.0,526.0,515.0
497.0,483.0,513.0,516.0
499.0,500.0,504.0,517.0
503.0,520.0,500.0,519.0
505.0,531.0,496.0,515.0
509.0,520.0,497.0,517.0
509.0,508.0,499.0,514.0
505.0,502.0,496.0,509.0
510.0,505.0,497.0,510.0
510.0,518.0,501.0,508.0
512.0,526.0,511.0,509.0
520.0,517.0,519.0,507.0
524.0,502.0,527.0,510.0
522.0,501.0,534.0,513.0
523.0,508.0,535.0,515.0
517.0,488.0,536.0,518.0
505.0,475.0,532.0,515.0
500.0,481.0,517.0,516.0
498.0,486.0,508.0,518.0
501.0,505.0,504.0,523.0
508.0,525.0,497.0,522.0
510.0,526.0,498.0,522.0
514.0,525.0,500.0,525.0
509.0,520.0,503.0,519.0
506.0,506.0,507.0,520.0
511.0,506.0,514.0,517.0
516.0,510.0,520.0,520.0
519.0,509.0,526.0,520.0
522.0,514.0,521.0,516.0
525.0,521.0,525.0,510.0
528.0,522.0,524.0,504.0
522.0,525.0,522.0,494.0
513.0,512.0,517.0,498.0
508.0,490.0,512.0,498.0
507.0,491.0,507.0,504.0
507.0,494.0,499.0,509.0
501.0,478.0,495.0,514.0
500.0,470.0,495.0,514.0
505.0,498.0,493.0,513.0
511.0,505.0,494.0,513.0
508.0,500.0,494.0,511.0
506.0,510.0,497.0,509.0
510.0,509.0,500.0,507.0
516.0,511.0,511.0,506.0
520.0,506.0,517.0,509.0
526.0,506.0,525.0,509.0
525.0,504.0,535.0,510.0
525.0,526.0,535.0,510.0
523.0,498.0,532.0,513.0
511.0,483.0,528.0,510.0
499.0,493.0,520.0,514.0
502.0,494.0,511.0,519.0
504.0,490.0,506.0,518.0
506.0,494.0,501.0,521.0
508.0,480.0,498.0,520.0
510.0,501.0,496.0,519.0
515.0,514.0,497.0,518.0
508.0,522.0,497.0,511.0
508.0,534.0,500.0,511.0
507.0,526.0,506.0,508.0
514.0,517.0,512.0,508.0
525.0,505.0,521.0,511.0
530.0,498.0,527.0,511.0
531.0,502.0,533.0,512.0
533.0,498.0,533.0,513.0
518.0,489.0,528.0,513.0
505.0,492.0,526.0,511.0
496.0,489.0,518.0,519.0
497.0,504.0,509.0,518.0
493.0,509.0,503.0,520.0
497.0,511.0,497.0,520.0
501.0,508.0,496.0,521.0
504.0,513.0,499.0,520.0
507.0,503.0,499.0,523.0
504.0,493.0,502.0,512.0
509.0,498.0,508.0,513.0
516.0,512.0,508.0,509.0
519.0,510.0,514.0,508.0
526.0,525.0,520.0,506.0
531.0,530.0,527.0,506.0
529.0,527.0,533.0,514.0
519.0,537.0,531.0,512.0
513.0,496.0,528.0,516.0
500.0,467.0,524.0,518.0
498.0,478.0,517.0,521.0
500.0,492.0,508.0,521.0
500.0,498.0,497.0,522.0
501.0,506.0,493.0,522.0
508.0,512.0,490.0,521.0
513.0,509.0,496.0,522.0
507.0,520.0,500.0,517.0
508.0,519.0,504.0,516.0
510.0,510.0,515.0,516.0
513.0,506.0,523.0,511.0
520.0,511.0,524.0,513.0
524.0,517.0,526.0,512.0
524.0,511.0,529.0,509.0
525.0,503.0,527.0,509.0
516.0,494.0,524.0,507.0
511.0,486.0,519.0,506.0
502.0,487.0,514.0,510.0
500.0,491.0,506.0,513.0
501.0,496.0,502.0,518.0
503.0,508.0,501.0,519.0
509.0,513.0,498.0,517.0
512.0,529.0,496.0,511.0
515.0,535.0,496.0,512.0
507.0,516.0,493.0,509.0
509.0,513.0,496.0,507.0
511.0,501.0,503.0,509.0
512.0,477.0,509.0,509.0
523.0,502.0,521.0,511.0
525.0,500.0,531.0,514.0
523.0,499.0,536.0,518.0
523.0,499.0,538.0,515.0
515.0,495.0,531.0,515.0
507.0,490.0,524.0,512.0
500.0,490.0,513.0,514.0
499.0,492.0,507.0,517.0
501.0,495.0,501.0,519.0
502.0,508.0,499.0,520.0
505.0,515.0,495.0,515.0
516.0,523.0,493.0,515.0
513.0,513.0,493.0,517.0
509.0,502.0,498.0,512.0
513.0,500.0,497.0,506.0
518.0,499.0,505.0,506.0
521.0,514.0,516.0,509.0
522.0,516.0,528.0,511.0
521.0,512.0,529.0,512.0
524.0,512.0,533.0,515.0
523.0,504.0,532.0,514.0
510.0,501.0,528.0,514.0
498.0,486.0,521.0,517.0
498.0,493.0,511.0,516.0
501.0,499.0,503.0,515.0
500.0,503.0,501.0,516.0
505.0,505.0,496.0,517.0
511.0,508.0,494.0,519.0
511.0,512.0,496.0,517.0
510.0,510.0,496.0,513.0
508.0,510.0,497.0,512.0
512.0,520.0,502.0,510.0
516.0,516.0,512.0,510.0
519.0,517.0,519.0,511.0
524.0,518.0,527.0,509.0
528.0,517.0,532.0,513.0
527.0,514.0,534.0,514.0
521.0,511.0,530.0,514.0
509.0,493.0,525.0,515.0
501.0,481.0,521.0,517.0
500.0,482.0,513.0,520.0
497.0,491.0,504.0,521.0
502.0,500.0,504.0,521.0
505.0,506.0,497.0,520.0
509.0,519.0,498.0,518.0
514.0,515.0,497.0,514.0
508.0,509.0,497.0,510.0
507.0,507.0,500.0,508.0
509.0,499.0,507.0,509.0
515.0,492.0,511.0,509.0
522.0,498.0,523.0,509.0
525.0,499.0,531.0,509.0
527.0,537.0,535.0,514.0
529.0,544.0,535.0,513.0
517.0,523.0,531.0,514.0
506.0,506.0,524.0,515.0
498.0,486.0,517.0,514.0
496.0,470.0,510.0,517.0
498.0,487.0,505.0,522.0
508.0,497.0,499.0,524.0
508.0,500.0,495.0,525.0
511.0,515.0,494.0,522.0
513.0,514.0,499.0,523.0
504.0,499.0,506.0,522.0
506.0,483.0,522.0,520.0
509.0,496.0,522.0,520.0
514.0,500.0,527.0,517.0
524.0,503.0,527.0,513.0
522.0,530.0,528.0,507.0
525.0,523.0,529.0,504.0
520.0,499.0,525.0,506.0
513.0,496.0,525.0,506.0
502.0,488.0,516.0,513.0
502.0,489.0,502.0,507.0
506.0,493.0,499.0,508.0
506.0,501.0,495.0,510.0
511.0,509.0,491.0,515.0
517.0,523.0,495.0,513.0
520.0,527.0,498.0,518.0
512.0,522.0,499.0,516.0
503.0,512.0,507.0,516.0
505.0,500.0,511.0,516.0
512.0,490.0,513.0,510.0
521.0,495.0,516.0,506.0
526.0,512.0,520.0,501.0
528.0,525.0,526.0,497.0
524.0,524.0,529.0,502.0
521.0,507.0,525.0,501.0
512.0,494.0,522.0,503.0
504.0,488.0,514.0,517.0
502.0,498.0,508.0,509.0
503.0,501.0,503.0,514.0
505.0,512.0,498.0,515.0
501.0,516.0,495.0,514.0
509.0,519.0,494.0,515.0
518.0,513.0,497.0,512.0
517.0,506.0,501.0,510.0
522.0,501.0,503.0,507.0
527.0,495.0,506.0,509.0
525.0,500.0,509.0,505.0
528.0,527.0,518.0,502.0
520.0,530.0,527.0,503.0
524.0,514.0,532.0,510.0
524.0,518.0,531.0,511.0
501.0,454.0,532.0,513.0
482.0,445.0,525.0,514.0
488.0,504.0,517.0,517.0
493.0,519.0,510.0,518.0
497.0,521.0,506.0,519.0
497.0,515.0,503.0,523.0
503.0,519.0,498.0,521.0
509.0,524.0,496.0,517.0
508.0,519.0,497.0,514.0
506.0,511.0,495.0,511.0
504.0,506.0,501.0,506.0
510.0,516.0,510.0,510.0
515.0,512.0,513.0,508.0
522.0,517.0,527.0,509.0
529.0,511.0,533.0,508.0
529.0,513.0,537.0,511.0
524.0,506.0,534.0,512.0
516.0,497.0,532.0,511.0
503.0,489.0,524.0,519.0
498.0,502.0,517.0,523.0
497.0,502.0,510.0,523.0
496.0,521.0,500.0,521.0
502.0,522.0,496.0,518.0
506.0,488.0,500.0,521.0
510.0,510.0,500.0,517.0
509.0,522.0,494.0,513.0
508.0,513.0,494.0,508.0
509.0,505.0,501.0,503.0
513.0,498.0,508.0,508.0
517.0,492.0,519.0,503.0
525.0,504.0,526.0,510.0
527.0,508.0,532.0,513.0
525.0,507.0,533.0,513.0
518.0,496.0,533.0,514.0
509.0,488.0,525.0,516.0
500.0,482.0,518.0,520.0
500.0,484.0,513.0,522.0
503.0,488.0,509.0,520.0
506.0,496.0,504.0,521.0
510.0,503.0,500.0,522.0
513.0,508.0,500.0,518.0
512.0,509.0,496.0,517.0
512.0,515.0,497.0,514.0
514.0,510.0,499.0,514.0
516.0,517.0,511.0,516.0
518.0,513.0,520.0,518.0
518.0,501.0,532.0,517.0
526.0,500.0,537.0,519.0
528.0,502.0,542.0,519.0
526.0,501.0,536.0,514.0
515.0,490.0,527.0,507.0
502.0,488.0,523.0,507.0
501.0,501.0,513.0,512.0
497.0,499.0,505.0,515.0
498.0,504.0,499.0,516.0
504.0,511.0,488.0,511.0
505.0,510.0,486.0,509.0
512.0,533.0,488.0,506.0
511.0,517.0,489.0,506.0
507.0,502.0,491.0,506.0
511.0,509.0,497.0,504.0
516.0,512.0,512.0,505.0
525.0,524.0,510.0,508.0
532.0,516.0,523.0,510.0
526.0,508.0,530.0,512.0
524.0,498.0,536.0,515.0
515.0,504.0,535.0,516.0
510.0,499.0,532.0,518.0
501.0,483.0,525.0,520.0
504.0,491.0,515.0,524.0
503.0,497.0,510.0,522.0
500.0,501.0,502.0,523.0
504.0,517.0,498.0,521.0
507.0,520.0,497.0,515.0
508.0,513.0,490.0,510.0
509.0,516.0,492.0,506.0
505.0,512.0,495.0,503.0
508.0,506.0,498.0,504.0
517.0,516.0,510.0,507.0
524.0,524.0,521.0,507.0
531.0,521.0,527.0,509.0
533.0,510.0,532.0,509.0
520.0,486.0,533.0,513.0
515.0,491.0,531.0,510.0
508.0,477.0,531.0,518.0
501.0,472.0,524.0,517.0
492.0,473.0,513.0,521.0
500.0,482.0,504.0,518.0
508.0,502.0,501.0,518.0
517.0,520.0,494.0,517.0
523.0,520.0,496.0,515.0
521.0,517.0,496.0,513.0
516.0,513.0,497.0,514.0
512.0,510.0,496.0,508.0
508.0,514.0,507.0,508.0
501.0,520.0,512.0,509.0
514.0,521.0,518.0,509.0
525.0,524.0,531.0,508.0
524.0,519.0,535.0,515.0
519.0,510.0,533.0,513.0
515.0,497.0,533.0,516.0
501.0,464.0,523.0,508.0
494.0,466.0,515.0,516.0
503.0,481.0,502.0,517.0
505.0,507.0,502.0,519.0
505.0,523.0,498.0,518.0
511.0,516.0,494.0,515.0
514.0,518.0,496.0,516.0
515.0,517.0,495.0,508.0
506.0,514.0,496.0,511.0
504.0,514.0,502.0,507.0
508.0,511.0,509.0,507.0
516.0,514.0,520.0,508.0
525.0,507.0,529.0,510.0
527.0,509.0,533.0,513.0
530.0,518.0,536.0,513.0
523.0,508.0,532.0,511.0
514.0,514.0,526.0,512.0
498.0,470.0,519.0,515.0
493.0,463.0,513.0,518.0
494.0,496.0,507.0,518.0
499.0,505.0,501.0,518.0
504.0,503.0,494.0,523.0
511.0,509.0,499.0,521.0
512.0,517.0,497.0,522.0
510.0,516.0,502.0,519.0
510.0,508.0,504.0,518.0
509.0,512.0,515.0,517.0
513.0,517.0,521.0,511.0
518.0,512.0,526.0,512.0
524.0,523.0,528.0,509.0
525.0,514.0,530.0,509.0
524.0,504.0,535.0,511.0
517.0,499.0,530.0,514.0
508.0,491.0,528.0,511.0
499.0,488.0,516.0,512.0
495.0,489.0,508.0,512.0
502.0,496.0,498.0,514.0
507.0,502.0,493.0,512.0
507.0,505.0,488.0,511.0
514.0,510.0,489.0,508.0
514.0,508.0,488.0,507.0
506.0,498.0,493.0,506.0
510.0,505.0,493.0,502.0
513.0,505.0,503.0,501.0
516.0,508.0,512.0,504.0
519.0,505.0,521.0,504.0
524.0,514.0,528.0,508.0
527.0,515.0,535.0,507.0
517.0,507.0,533.0,512.0
517.0,501.0,530.0,514.0
514.0,482.0,521.0,517.0
511.0,486.0,514.0,522.0
511.0,491.0,506.0,518.0
508.0,495.0,502.0,522.0
509.0,516.0,500.0,521.0
504.0,516.0,501.0,520.0
502.0,521.0,493.0,516.0
498.0,519.0,497.0,512.0
502.0,517.0,495.0,507.0
507.0,515.0,500.0,507.0
513.0,520.0,508.0,509.0
521.0,527.0,521.0,508.0
524.0,519.0,527.0,511.0
525.0,507.0,532.0,511.0
528.0,509.0,535.0,518.0
523.0,505.0,531.0,512.0
508.0,490.0,528.0,512.0
505.0,481.0,517.0,514.0
508.0,493.0,515.0,515.0
507.0,502.0,508.0,516.0
508.0,499.0,504.0,518.0
512.0,507.0,498.0,520.0
510.0,513.0,497.0,517.0
500.0,519.0,497.0,515.0
494.0,511.0,499.0,513.0
502.0,505.0,497.0,508.0
510.0,510.0,508.0,510.0
511.0,516.0,517.0,512.0
521.0,513.0,526.0,513.0
523.0,510.0,533.0,515.0
521.0,509.0,535.0,514.0
524.0,498.0,535.0,512.0
518.0,496.0,533.0,509.0
509.0,489.0,524.0,509.0
501.0,482.0,517.0,509.0
500.0,483.0,509.0,519.0
503.0,487.0,503.0,517.0
508.0,497.0,499.0,518.0
508.0,508.0,497.0,518.0
515.0,509.0,498.0,511.0
514.0,514.0,498.0,515.0
509.0,523.0,496.0,512.0
504.0,521.0,498.0,507.0
506.0,530.0,506.0,507.0
513.0,510.0,511.0,506.0
526.0,494.0,524.0,508.0
525.0,497.0,533.0,510.0
522.0,484.0,538.0,512.0
518.0,502.0,537.0,514.0
516.0,500.0,532.0,515.0
508.0,490.0,526.0,518.0
500.0,507.0,519.0,517.0
501.0,514.0,512.0,520.0
504.0,518.0,507.0,524.0
505.0,508.0,510.0,524.0
508.0,515.0,501.0,521.0
515.0,526.0,500.0,517.0
509.0,524.0,503.0,515.0
510.0,511.0,497.0,510.0
510.0,502.0,502.0,507.0
515.0,502.0,508.0,506.0
519.0,501.0,517.0,507.0
525.0,513.0,520.0,504.0
528.0,510.0,530.0,506.0
528.0,512.0,526.0,507.0
519.0,503.0,528.0,511.0
511.0,486.0,528.0,509.0
498.0,478.0,518.0,511.0
500.0,491.0,511.0,516.0
501.0,495.0,507.0,517.0
504.0,500.0,502.0,520.0
507.0,505.0,498.0,520.0
512.0,511.0,497.0,521.0
511.0,512.0,495.0,512.0
512.0,507.0,492.0,508.0
514.0,508.0,497.0,507.0
513.0,505.0,504.0,504.0
519.0,510.0,513.0,507.0
524.0,512.0,522.0,510.0
529.0,511.0,526.0,509.0
524.0,504.0,533.0,512.0
519.0,498.0,537.0,514.0
519.0,492.0,534.0,513.0
509.0,480.0,528.0,517.0
499.0,481.0,519.0,517.0
502.0,498.0,510.0,516.0
499.0,509.0,501.0,518.0
501.0,515.0,500.0,519.0
499.0,513.0,502.0,517.0
506.0,519.0,502.0,518.0
506.0,517.0,497.0,514.0
504.0,512.0,495.0,507.0
504.0,506.0,500.0,506.0
511.0,509.0,505.0,505.0
515.0,508.0,511.0,506.0
523.0,513.0,524.0,507.0
526.0,509.0,529.0,510.0
526.0,512.0,534.0,511.0
513.0,495.0,533.0,514.0
512.0,488.0,532.0,509.0
502.0,479.0,525.0,517.0
500.0,488.0,517.0,518.0
501.0,493.0,511.0,520.0
505.0,499.0,508.0,521.0
504.0,509.0,504.0,523.0
507.0,515.0,496.0,517.0
511.0,521.0,494.0,514.0
508.0,520.0,493.0,510.0
506.0,517.0,497.0,509.0
511.0,517.0,503.0,508.0
514.0,511.0,508.0,507.0
520.0,516.0,520.0,507.0
525.0,512.0,528.0,512.0
523.0,505.0,534.0,512.0
523.0,509.0,537.0,513.0
521.0,506.0,533.0,510.0
513.0,497.0,525.0,511.0
497.0,483.0,519.0,511.0
497.0,489.0,513.0,513.0
499.0,499.0,504.0,519.0
505.0,510.0,499.0,521.0
507.0,512.0,499.0,520.0
512.0,518.0,496.0,518.0
508.0,518.0,495.0,515.0
509.0,513.0,496.0,512.0
513.0,504.0,495.0,507.0
515.0,503.0,502.0,505.0
517.0,502.0,512.0,506.0
529.0,499.0,522.0,511.0
530.0,499.0,529.0,507.0
530.0,497.0,534.0,509.0
527.0,499.0,533.0,509.0
519.0,491.0,532.0,515.0
504.0,484.0,524.0,511.0
491.0,491.0,515.0,515.0
495.0,478.0,506.0,516.0
501.0,476.0,501.0,517.0
506.0,487.0,503.0,518.0
507.0,517.0,498.0,518.0
514.0,544.0,495.0,513.0
515.0,552.0,493.0,511.0
512.0,540.0,496.0,513.0
506.0,532.0,500.0,508.0
499.0,528.0,508.0,506.0
509.0,522.0,517.0,508.0
521.0,522.0,525.0,512.0
522.0,520.0,535.0,506.0
520.0,516.0,532.0,511.0
520.0,508.0,532.0,510.0
515.0,504.0,527.0,511.0
502.0,489.0,522.0,510.0
499.0,489.0,514.0,514.0
499.0,500.0,506.0,513.0
501.0,519.0,501.0,516.0
507.0,526.0,497.0,515.0
510.0,533.0,493.0,514.0
512.0,532.0,495.0,509.0
508.0,499.0,496.0,508.0
506.0,490.0,496.0,508.0
509.0,501.0,503.0,509.0
516.0,501.0,509.0,506.0
522.0,503.0,519.0,507.0
526.0,501.0,528.0,511.0
525.0,491.0,533.0,511.0
530.0,502.0,537.0,511.0
522.0,494.0,532.0,513.0
517.0,504.0,529.0,514.0
506.0,500.0,520.0,517.0
496.0,487.0,512.0,517.0
499.0,503.0,502.0,518.0
502.0,501.0,500.0,521.0
502.0,505.0,500.0,518.0
508.0,507.0,499.0,516.0
512.0,512.0,501.0,515.0
511.0,512.0,501.0,515.0
512.0,509.0,499.0,509.0
515.0,509.0,508.0,509.0
513.0,510.0,510.0,506.0
517.0,520.0,522.0,509.0
526.0,514.0,530.0,509.0
526.0,509.0,533.0,513.0
525.0,509.0,534.0,514.0
519.0,503.0,529.0,513.0
510.0,493.0,524.0,514.0
499.0,484.0,512.0,517.0
497.0,488.0,509.0,518.0
499.0,501.0,503.0,519.0
501.0,511.0,499.0,522.0
503.0,514.0,503.0,519.0
508.0,525.0,502.0,521.0
509.0,525.0,504.0,521.0
508.0,512.0,509.0,521.0
509.0,493.0,508.0,511.0
515.0,494.0,503.0,507.0
522.0,492.0,507.0,502.0
524.0,488.0,520.0,501.0
525.0,506.0,526.0,506.0
529.0,517.0,532.0,511.0
520.0,513.0,532.0,519.0
511.0,505.0,531.0,513.0
500.0,492.0,521.0,513.0
499.0,504.0,514.0,511.0
504.0,503.0,506.0,515.0
501.0,507.0,505.0,519.0
509.0,516.0,498.0,517.0
510.0,518.0,490.0,514.0
513.0,519.0,491.0,509.0
511.0,512.0,489.0,504.0
513.0,505.0,492.0,503.0
513.0,501.0,499.0,504.0
517.0,496.0,506.0,505.0
524.0,498.0,514.0,501.0
528.0,502.0,523.0,506.0
524.0,504.0,528.0,507.0
523.0,516.0,534.0,509.0
514.0,519.0,530.0,511.0
512.0,519.0,527.0,511.0
499.0,517.0,521.0,515.0
497.0,505.0,512.0,514.0
498.0,497.0,504.0,519.0
502.0,503.0,499.0,519.0
506.0,493.0,499.0,519.0
509.0,502.0,501.0,517.0
509.0,516.0,501.0,514.0
510.0,507.0,499.0,509.0
509.0,506.0,502.0,507.0
510.0,508.0,501.0,502.0
512.0,505.0,511.0,503.0
522.0,506.0,522.0,503.0
526.0,500.0,529.0,508.0
524.0,498.0,536.0,512.0
523.0,498.0,537.0,513.0
517.0,490.0,534.0,514.0
506.0,481.0,530.0,512.0
502.0,479.0,521.0,515.0
502.0,485.0,511.0,519.0
502.0,493.0,501.0,517.0
506.0,509.0,493.0,517.0
508.0,514.0,493.0,515.0
513.0,517.0,495.0,515.0
515.0,519.0,494.0,510.0
516.0,513.0,497.0,502.0
510.0,497.0,504.0,508.0
515.0,495.0,515.0,506.0
520.0,497.0,520.0,507.0
523.0,498.0,525.0,507.0
526.0,507.0,529.0,504.0
533.0,510.0,530.0,506.0
528.0,518.0,529.0,505.0
518.0,506.0,526.0,509.0
506.0,488.0,517.0,509.0
502.0,497.0,510.0,513.0
509.0,489.0,501.0,515.0
511.0,494.0,495.0,515.0
512.0,518.0,493.0,517.0
500.0,515.0,495.0,518.0
502.0,516.0,494.0,516.0
502.0,511.0,494.0,515.0
499.0,507.0,500.0,515.0
510.0,505.0,510.0,513.0
510.0,502.0,522.0,516.0
522.0,514.0,538.0,519.0
521.0,525.0,544.0,521.0
522.0,515.0,546.0,518.0
524.0,514.0,538.0,513.0
512.0,513.0,524.0,506.0
508.0,503.0,518.0,504.0
498.0,492.0,509.0,502.0
496.0,505.0,497.0,505.0
500.0,509.0,493.0,505.0
505.0,517.0,494.0,507.0
506.0,526.0,492.0,508.0
514.0,522.0,492.0,509.0
513.0,518.0,491.0,506.0
510.0,509.0,492.0,507.0
506.0,495.0,496.0,502.0
506.0,501.0,504.0,502.0
514.0,506.0,512.0,503.0
519.0,508.0,518.0,506.0
524.0,507.0,529.0,507.0
522.0,503.0,533.0,508.0
520.0,501.0,532.0,512.0
519.0,496.0,530.0,512.0
506.0,486.0,526.0,513.0
501.0,481.0,518.0,515.0
500.0,488.0,510.0,518.0
501.0,496.0,501.0,519.0
500.0,504.0,496.0,518.0
499.0,502.0,494.0,518.0
510.0,512.0,496.0,518.0
509.0,509.0,492.0,515.0
509.0,508.0,492.0,512.0
513.0,508.0,503.0,509.0
515.0,510.0,505.0,509.0
521.0,517.0,519.0,512.0
525.0,524.0,526.0,512.0
527.0,516.0,534.0,514.0
528.0,509.0,536.0,515.0
524.0,501.0,536.0,514.0
520.0,498.0,531.0,514.0
505.0,488.0,520.0,512.0
503.0,487.0,513.0,511.0
502.0,490.0,508.0,517.0
502.0,505.0,503.0,516.0
501.0,514.0,498.0,517.0
507.0,516.0,496.0,514.0
508.0,522.0,493.0,511.0
509.0,518.0,494.0,511.0
509.0,513.0,495.0,508.0
513.0,510.0,502.0,506.0
516.0,505.0,509.0,506.0
521.0,509.0,518.0,509.0
526.0,506.0,526.0,507.0
523.0,502.0,532.0,510.0
525.0,505.0,538.0,513.0
521.0,502.0,533.0,514.0
514.0,496.0,530.0,514.0
502.0,487.0,522.0,517.0
501.0,489.0,514.0,521.0
499.0,490.0,509.0,522.0
504.0,503.0,506.0,521.0
505.0,511.0,506.0,522.0
506.0,513.0,499.0,518.0
507.0,516.0,496.0,513.0
507.0,519.0,496.0,507.0
509.0,507.0,495.0,506.0
512.0,505.0,505.0,506.0
515.0,503.0,514.0,506.0
519.0,511.0,524.0,510.0
526.0,519.0,530.0,512.0
527.0,508.0,537.0,512.0
521.0,502.0,533.0,515.0
520.0,494.0,533.0,515.0
508.0,485.0,528.0,516.0
498.0,481.0,523.0,517.0
502.0,485.0,505.0,516.0
505.0,495.0,500.0,512.0
509.0,509.0,494.0,514.0
509.0,513.0,492.0,514.0
516.0,518.0,494.0,511.0
513.0,512.0,494.0,510.0
513.0,508.0,497.0,510.0
510.0,496.0,501.0,507.0
512.0,493.0,507.0,509.0
510.0,497.0,518.0,505.0
516.0,499.0,524.0,507.0
514.0,504.0,529.0,507.0
525.0,514.0,535.0,513.0
522.0,521.0,531.0,515.0
512.0,517.0,530.0,514.0
498.0,496.0,524.0,514.0
501.0,498.0,510.0,516.0
499.0,499.0,507.0,517.0
503.0,508.0,501.0,517.0
506.0,513.0,497.0,517.0
509.0,518.0,497.0,515.0
513.0,517.0,495.0,516.0
513.0,513.0,497.0,514.0
512.0,506.0,500.0,509.0
515.0,500.0,502.0,507.0
517.0,488.0,509.0,505.0
526.0,503.0,516.0,502.0
529.0,511.0,527.0,507.0
526.0,511.0,533.0,507.0
524.0,522.0,533.0,510.0
518.0,505.0,532.0,513.0
517.0,500.0,528.0,509.0
512.0,490.0,520.0,515.0
511.0,488.0,513.0,517.0
512.0,490.0,503.0,518.0
510.0,509.0,505.0,518.0
498.0,526.0,495.0,517.0
492.0,535.0,497.0,515.0
503.0,533.0,496.0,514.0
507.0,532.0,498.0,510.0
506.0,530.0,500.0,504.0
508.0,528.0,505.0,507.0
515.0,524.0,515.0,506.0
520.0,512.0,524.0,507.0
523.0,501.0,530.0,509.0
521.0,475.0,537.0,512.0
516.0,481.0,534.0,512.0
510.0,477.0,532.0,514.0
501.0,469.0,527.0,512.0
497.0,471.0,516.0,515.0
502.0,480.0,510.0,519.0
508.0,517.0,507.0,518.0
509.0,529.0,504.0,519.0
514.0,518.0,497.0,518.0
516.0,524.0,496.0,516.0
513.0,522.0,498.0,513.0
509.0,524.0,500.0,509.0
509.0,509.0,501.0,507.0
512.0,506.0,511.0,507.0
518.0,502.0,519.0,505.0
524.0,509.0,527.0,511.0
526.0,511.0,533.0,511.0
524.0,507.0,536.0,512.0
515.0,499.0,532.0,516.0
513.0,497.0,529.0,513.0
502.0,489.0,521.0,516.0
497.0,492.0,514.0,515.0
501.0,497.0,506.0,516.0
502.0,498.0,501.0,516.0
507.0,507.0,499.0,517.0
507.0,511.0,496.0,516.0
513.0,511.0,495.0,514.0
509.0,501.0,494.0,512.0
509.0,493.0,493.0,505.0
511.0,509.0,507.0,507.0
511.0,501.0,512.0,505.0
516.0,508.0,520.0,507.0
520.0,521.0,529.0,506.0
524.0,508.0,533.0,510.0
525.0,508.0,534.0,508.0
523.0,506.0,532.0,510.0
516.0,496.0,526.0,514.0
508.0,493.0,520.0,518.0
507.0,498.0,512.0,523.0
502.0,503.0,505.0,520.0
503.0,508.0,499.0,520.0
501.0,515.0,495.0,519.0
500.0,521.0,497.0,521.0
502.0,522.0,501.0,520.0
504.0,518.0,501.0,515.0
501.0,509.0,508.0,515.0
506.0,511.0,517.0,513.0
513.0,508.0,522.0,510.0
519.0,508.0,528.0,510.0
525.0,511.0,528.0,506.0
528.0,514.0,529.0,507.0
524.0,505.0,528.0,507.0
515.0,505.0,531.0,513.0
508.0,496.0,534.0,516.0
502.0,484.0,517.0,513.0
501.0,485.0,496.0,512.0
503.0,495.0,491.0,516.0
504.0,505.0,497.0,515.0
508.0,514.0,495.0,516.0
512.0,518.0,497.0,513.0
509.0,518.0,495.0,508.0
505.0,515.0,497.0,506.0
501.0,507.0,496.0,505.0
512.0,511.0,501.0,501.0
521.0,518.0,515.0,503.0
528.0,513.0,532.0,507.0
530.0,513.0,534.0,504.0
529.0,505.0,528.0,511.0
521.0,494.0,535.0,517.0
517.0,489.0,540.0,518.0
504.0,478.0,513.0,510.0
499.0,487.0,508.0,515.0
500.0,497.0,502.0,516.0
503.0,505.0,500.0,517.0
506.0,515.0,496.0,517.0
511.0,523.0,494.0,518.0
513.0,525.0,509.0,523.0
514.0,520.0,504.0,518.0
512.0,513.0,496.0,506.0
510.0,503.0,501.0,508.0
515.0,496.0,515.0,511.0
524.0,502.0,536.0,515.0
525.0,500.0,540.0,516.0
522.0,511.0,540.0,517.0
522.0,510.0,532.0,514.0
517.0,501.0,517.0,505.0
515.0,496.0,519.0,505.0
500.0,487.0,514.0,514.0
492.0,498.0,510.0,519.0
494.0,505.0,505.0,520.0
504.0,510.0,499.0,520.0
505.0,507.0,494.0,518.0
508.0,507.0,491.0,517.0
505.0,499.0,487.0,514.0
510.0,486.0,487.0,509.0
517.0,493.0,502.0,508.0
520.0,512.0,511.0,510.0
519.0,517.0,519.0,513.0
523.0,512.0,522.0,510.0
529.0,517.0,532.0,511.0
524.0,524.0,537.0,512.0
514.0,520.0,532.0,514.0
512.0,505.0,530.0,512.0
505.0,496.0,524.0,516.0
506.0,497.0,513.0,514.0
503.0,499.0,508.0,517.0
502.0,509.0,506.0,527.0
506.0,519.0,499.0,520.0
505.0,524.0,496.0,519.0
508.0,524.0,496.0,518.0
509.0,515.0,498.0,512.0
506.0,509.0,508.0,512.0
503.0,506.0,508.0,509.0
511.0,505.0,510.0,507.0
507.0,508.0,514.0,502.0
503.0,510.0,520.0,504.0
495.0,503.0,536.0,507.0
496.0,501.0,533.0,507.0
492.0,493.0,532.0,514.0
492.0,490.0,530.0,513.0
477.0,481.0,523.0,517.0
499.0,489.0,515.0,518.0
515.0,498.0,512.0,516.0
527.0,512.0,502.0,519.0
528.0,519.0,491.0,519.0
520.0,514.0,490.0,516.0
524.0,504.0,490.0,513.0
520.0,504.0,498.0,511.0
519.0,508.0,496.0,509.0
523.0,504.0,505.0,509.0
525.0,507.0,515.0,503.0
528.0,518.0,524.0,508.0
529.0,517.0,533.0,509.0
529.0,511.0,539.0,511.0
528.0,505.0,541.0,517.0
519.0,508.0,539.0,514.0
514.0,499.0,537.0,520.0
504.0,488.0,526.0,518.0
501.0,488.0,512.0,522.0
504.0,503.0,503.0,520.0
507.0,513.0,492.0,515.0
506.0,515.0,493.0,516.0
516.0,521.0,501.0,512.0
512.0,523.0,498.0,514.0
517.0,520.0,497.0,514.0
515.0,512.0,500.0,510.0
514.0,505.0,515.0,511.0
521.0,504.0,517.0,507.0
530.0,511.0,525.0,508.0
528.0,510.0,529.0,511.0
523.0,510.0,534.0,512.0
510.0,499.0,547.0,513.0
509.0,492.0,525.0,508.0
498.0,479.0,507.0,513.0
494.0,478.0,518.0,522.0
502.0,478.0,511.0,522.0
501.0,481.0,509.0,526.0
504.0,490.0,506.0,531.0
512.0,499.0,512.0,529.0
522.0,523.0,514.0,531.0
518.0,524.0,511.0,528.0
512.0,513.0,507.0,528.0
508.0,508.0,514.0,523.0
514.0,516.0,516.0,511.0
515.0,512.0,513.0,502.0
520.0,512.0,517.0,498.0
525.0,511.0,523.0,500.0
525.0,511.0,530.0,502.0
518.0,503.0,527.0,504.0
521.0,495.0,522.0,507.0
513.0,485.0,515.0,505.0
509.0,490.0,506.0,504.0
504.0,499.0,499.0,510.0
507.0,504.0,496.0,511.0
505.0,503.0,491.0,514.0
501.0,510.0,489.0,513.0
489.0,524.0,501.0,511.0
488.0,514.0,503.0,511.0
503.0,512.0,499.0,513.0
507.0,515.0,501.0,507.0
511.0,514.0,502.0,500.0
519.0,515.0,514.0,498.0
523.0,513.0,533.0,512.0
519.0,513.0,541.0,520.0
522.0,513.0,544.0,512.0
516.0,511.0,543.0,516.0
509.0,503.0,525.0,514.0
497.0,496.0,512.0,517.0
494.0,493.0,505.0,521.0
496.0,493.0,505.0,528.0
501.0,500.0,499.0,520.0
502.0,509.0,505.0,524.0
511.0,516.0,505.0,521.0
509.0,516.0,503.0,515.0
507.0,517.0,490.0,510.0
506.0,513.0,501.0,511.0
509.0,501.0,520.0,515.0
514.0,498.0,523.0,517.0
518.0,499.0,538.0,517.0
526.0,495.0,542.0,513.0
519.0,497.0,528.0,519.0
510.0,494.0,519.0,511.0
514.0,505.0,522.0,505.0
504.0,501.0,513.0,506.0
504.0,511.0,504.0,508.0
498.0,500.0,491.0,512.0
503.0,499.0,490.0,515.0
503.0,508.0,501.0,522.0
514.0,517.0,497.0,521.0
519.0,527.0,517.0,528.0
512.0,526.0,503.0,517.0
512.0,524.0,480.0,505.0
510.0,515.0,498.0,503.0
512.0,505.0,516.0,508.0
518.0,510.0,511.0,504.0
520.0,503.0,526.0,506.0
530.0,503.0,553.0,517.0
530.0,497.0,544.0,510.0
520.0,489.0,509.0,501.0
515.0,497.0,510.0,508.0
499.0,486.0,517.0,513.0
496.0,484.0,505.0,516.0
498.0,493.0,482.0,514.0
502.0,501.0,491.0,521.0
511.0,511.0,501.0,520.0
508.0,515.0,517.0,525.0
511.0,513.0,507.0,521.0
514.0,503.0,479.0,509.0
511.0,498.0,484.0,511.0
509.0,497.0,507.0,508.0
513.0,506.0,523.0,514.0
520.0,512.0,531.0,516.0
523.0,508.0,544.0,520.0
525.0,513.0,552.0,522.0
528.0,512.0,555.0,520.0
518.0,505.0,523.0,515.0
505.0,497.0,498.0,506.0
496.0,489.0,495.0,506.0
494.0,495.0,504.0,511.0
496.0,503.0,518.0,521.0
503.0,516.0,509.0,528.0
503.0,514.0,498.0,523.0
502.0,514.0,505.0,511.0
503.0,512.0,519.0,517.0
506.0,508.0,485.0,517.0
506.0,500.0,474.0,499.0
516.0,503.0,476.0,496.0
521.0,502.0,489.0,503.0
530.0,516.0,543.0,521.0
530.0,518.0,558.0,529.0
529.0,511.0,545.0,511.0
523.0,513.0,529.0,508.0
514.0,512.0,500.0,496.0
503.0,482.0,516.0,514.0
500.0,473.0,536.0,529.0
500.0,479.0,525.0,526.0
508.0,493.0,496.0,522.0
510.0,512.0,493.0,521.0
517.0,516.0,482.0,526.0
519.0,535.0,485.0,517.0
514.0,527.0,481.0,515.0
506.0,513.0,478.0,509.0
508.0,508.0,487.0,502.0
509.0,510.0,506.0,500.0
506.0,520.0,554.0,520.0
511.0,520.0,512.0,497.0
526.0,515.0,472.0,488.0
524.0,502.0,499.0,506.0
517.0,506.0,555.0,523.0
511.0,486.0,563.0,530.0
501.0,464.0,519.0,529.0
494.0,475.0,513.0,523.0
492.0,480.0,474.0,519.0
495.0,486.0,486.0,525.0
499.0,501.0,515.0,535.0
504.0,521.0,504.0,524.0
506.0,508.0,464.0,522.0
511.0,523.0,493.0,516.0
516.0,521.0,513.0,522.0
518.0,530.0,509.0,511.0
523.0,531.0,535.0,539.0
526.0,527.0,567.0,518.0
520.0,515.0,543.0,509.0
518.0,509.0,518.0,498.0
509.0,510.0,545.0,515.0
504.0,506.0,533.0,504.0
503.0,497.0,482.0,496.0
500.0,479.0,463.0,489.0
489.0,497.0,487.0,503.0
484.0,496.0,485.0,506.0
491.0,496.0,474.0,506.0
501.0,500.0,479.0,511.0
511.0,517.0,484.0,505.0
518.0,533.0,503.0,522.0
519.0,549.0,508.0,524.0
508.0,540.0,499.0,523.0
515.0,532.0,482.0,497.0
523.0,514.0,508.0,496.0
526.0,476.0,521.0,502.0
528.0,484.0,531.0,515.0
524.0,484.0,550.0,521.0
520.0,483.0,558.0,524.0
513.0,483.0,540.0,535.0
502.0,484.0,493.0,513.0
500.0,481.0,485.0,528.0
513.0,474.0,528.0,551.0
509.0,454.0,503.0,527.0
511.0,433.0,514.0,551.0
520.0,438.0,530.0,545.0
511.0,435.0,517.0,503.0
485.0,485.0,461.0,493.0
488.0,552.0,460.0,499.0
510.0,583.0,471.0,496.0
532.0,598.0,521.0,510.0
532.0,571.0,546.0,519.0
531.0,544.0,504.0,511.0
542.0,542.0,475.0,479.0
537.0,542.0,518.0,508.0
529.0,516.0,578.0,515.0
526.0,502.0,607.0,508.0
514.0,504.0,592.0,532.0
507.0,519.0,534.0,554.0
500.0,533.0,498.0,552.0
498.0,549.0,466.0,533.0
503.0,532.0,459.0,523.0
505.0,504.0,439.0,511.0
512.0,492.0,440.0,512.0
515.0,505.0,491.0,520.0
505.0,495.0,486.0,522.0
508.0,507.0,468.0,507.0
514.0,517.0,488.0,518.0
527.0,528.0,544.0,545.0
530.0,516.0,524.0,539.0
521.0,498.0,517.0,526.0
519.0,492.0,523.0,534.0
514.0,499.0,568.0,559.0
507.0,500.0,525.0,546.0
504.0,496.0,469.0,489.0
497.0,494.0,499.0,528.0
496.0,486.0,495.0,510.0
497.0,486.0,464.0,515.0
495.0,500.0,464.0,508.0
511.0,520.0,444.0,505.0
514.0,515.0,459.0,505.0
514.0,501.0,477.0,523.0
521.0,494.0,552.0,559.0
521.0,485.0,582.0,587.0
529.0,502.0,499.0,498.0
537.0,488.0,440.0,452.0
536.0,484.0,470.0,478.0
517.0,493.0,517.0,506.0
503.0,496.0,540.0,525.0
518.0,494.0,513.0,532.0
502.0,474.0,504.0,514.0
493.0,490.0,485.0,514.0
483.0,501.0,486.0,522.0
488.0,496.0,507.0,525.0
505.0,503.0,538.0,525.0
507.0,526.0,518.0,529.0
512.0,534.0,503.0,549.0
512.0,536.0,468.0,521.0
506.0,541.0,490.0,516.0
500.0,526.0,496.0,544.0
502.0,520.0,486.0,518.0
507.0,533.0,506.0,500.0
507.0,531.0,536.0,512.0
511.0,519.0,549.0,504.0
517.0,514.0,534.0,552.0
507.0,492.0,534.0,602.0
497.0,474.0,519.0,502.0
489.0,467.0,492.0,468.0
499.0,473.0,543.0,509.0
506.0,493.0,573.0,540.0
512.0,506.0,548.0,531.0
515.0,505.0,464.0,492.0
511.0,492.0,455.0,491.0
508.0,489.0,515.0,517.0
512.0,495.0,456.0,504.0
516.0,504.0,482.0,498.0
513.0,493.0,500.0,528.0
515.0,506.0,525.0,554.0
528.0,508.0,523.0,528.0
538.0,537.0,472.0,508.0
532.0,549.0,502.0,496.0
534.0,563.0,574.0,535.0
536.0,550.0,537.0,514.0
535.0,532.0,507.0,501.0
516.0,504.0,498.0,529.0
495.0,465.0,485.0,520.0
482.0,472.0,507.0,522.0
483.0,500.0,508.0,496.0
491.0,514.0,496.0,502.0
502.0,503.0,465.0,500.0
507.0,491.0,483.0,498.0
514.0,471.0,509.0,519.0
507.0,460.0,472.0,516.0
520.0,489.0,475.0,513.0
513.0,471.0,509.0,520.0
495.0,452.0,549.0,498.0
471.0,471.0,568.0,504.0
464.0,463.0,516.0,506.0
474.0,433.0,543.0,500.0
476.0,474.0,568.0,513.0
463.0,545.0,542.0,528.0
492.0,552.0,482.0,508.0
554.0,543.0,464.0,521.0
540.0,546.0,483.0,525.0
548.0,541.0,485.0,503.0
530.0,518.0,486.0,511.0
527.0,523.0,476.0,500.0
535.0,550.0,447.0,464.0
533.0,536.0,479.0,503.0
531.0,527.0,534.0,535.0
528.0,530.0,548.0,548.0
542.0,510.0,530.0,522.0
541.0,500.0,509.0,478.0
543.0,498.0,528.0,512.0
543.0,460.0,585.0,563.0
535.0,452.0,616.0,575.0
521.0,461.0,602.0,557.0
489.0,472.0,458.0,521.0
495.0,477.0,472.0,483.0
505.0,503.0,517.0,494.0
496.0,534.0,493.0,530.0
506.0,597.0,500.0,533.0
523.0,592.0,463.0,505.0
527.0,587.0,436.0,514.0
538.0,608.0,487.0,531.0
537.0,589.0,507.0,563.0
520.0,533.0,464.0,519.0
509.0,523.0,478.0,502.0
519.0,494.0,509.0,518.0
515.0,475.0,525.0,541.0
515.0,475.0,543.0,576.0
520.0,491.0,574.0,563.0
511.0,480.0,532.0,584.0
491.0,483.0,525.0,667.0
486.0,501.0,557.0,645.0
498.0,506.0,494.0,520.0
490.0,503.0,452.0,478.0
500.0,511.0,634.0,573.0
503.0,512.0,605.0,520.0
502.0,500.0,517.0,485.0
497.0,466.0,481.0,489.0
499.0,446.0,477.0,475.0
499.0,459.0,422.0,475.0
514.0,476.0,455.0,507.0
512.0,484.0,478.0,498.0
525.0,496.0,477.0,565.0
524.0,495.0,470.0,550.0
530.0,503.0,498.0,532.0
548.0,514.0,534.0,562.0
544.0,511.0,554.0,628.0
518.0,471.0,543.0,638.0
496.0,397.0,470.0,481.0
495.0,368.0,535.0,555.0
489.0,391.0,522.0,617.0
475.0,436.0,524.0,575.0
490.0,488.0,573.0,598.0
530.0,582.0,517.0,589.0
533.0,592.0,551.0,621.0
526.0,541.0,526.0,644.0
514.0,505.0,459.0,606.0
502.0,477.0,466.0,652.0
515.0,482.0,492.0,645.0
525.0,539.0,525.0,539.0
516.0,594.0,497.0,432.0
497.0,571.0,512.0,477.0
511.0,516.0,545.0,524.0
505.0,501.0,512.0,542.0
488.0,510.0,501.0,519.0
497.0,516.0,504.0,533.0
500.0,547.0,469.0,546.0
512.0,567.0,483.0,547.0
501.0,568.0,450.0,516.0
497.0,525.0,462.0,529.0
514.0,530.0,513.0,556.0
516.0,524.0,512.0,575.0
517.0,525.0,520.0,583.0
511.0,521.0,547.0,558.0
516.0,508.0,520.0,536.0
515.0,518.0,493.0,523.0
520.0,525.0,488.0,522.0
522.0,484.0,542.0,548.0
514.0,409.0,548.0,558.0
505.0,369.0,532.0,538.0
515.0,381.0,506.0,528.0
520.0,445.0,473.0,533.0
506.0,533.0,509.0,547.0
502.0,583.0,550.0,571.0
499.0,596.0,497.0,535.0
484.0,593.0,454.0,518.0
498.0,564.0,510.0,526.0
512.0,530.0,491.0,515.0
517.0,501.0,472.0,508.0
516.0,514.0,485.0,520.0
528.0,554.0,525.0,524.0
531.0,546.0,558.0,517.0
543.0,518.0,555.0,538.0
558.0,494.0,503.0,539.0
536.0,442.0,515.0,543.0
522.0,421.0,509.0,565.0
504.0,419.0,526.0,528.0
492.0,409.0,552.0,519.0
486.0,432.0,520.0,500.0
479.0,558.0,471.0,512.0
502.0,634.0,459.0,541.0
519.0,604.0,503.0,566.0
512.0,587.0,542.0,563.0
510.0,595.0,500.0,558.0
