CH1,CH2,CH3,CH4
512.0,502.0,528.0,514.0
502.0,486.0,520.0,513.0
505.0,493.0,517.0,517.0
505.0,489.0,511.0,515.0
509.0,491.0,504.0,519.0
511.0,494.0,500.0,515.0
509.0,502.0,500.0,511.0
506.0,511.0,498.0,510.0
506.0,504.0,501.0,511.0
499.0,518.0,501.0,510.0
504.0,527.0,506.0,509.0
513.0,522.0,513.0,508.0
524.0,521.0,514.0,504.0
525.0,521.0,514.0,504.0
521.0,506.0,525.0,507.0
510.0,503.0,526.0,509.0
510.0,504.0,529.0,511.0
509.0,504.0,529.0,511.0
499.0,497.0,522.0,513.0
494.0,494.0,510.0,512.0
499.0,499.0,499.0,513.0
500.0,489.0,498.0,511.0
499.0,500.0,499.0,515.0
504.0,514.0,504.0,516.0
507.0,511.0,510.0,517.0
510.0,511.0,506.0,513.0
502.0,498.0,496.0,504.0
507.0,487.0,497.0,499.0
518.0,492.0,506.0,501.0
523.0,500.0,512.0,502.0
522.0,501.0,517.0,500.0
528.0,493.0,523.0,502.0
517.0,485.0,519.0,503.0
518.0,494.0,517.0,508.0
508.0,492.0,517.0,509.0
496.0,490.0,514.0,512.0
493.0,494.0,506.0,516.0
496.0,510.0,508.0,521.0
502.0,511.0,506.0,522.0
502.0,505.0,504.0,522.0
506.0,519.0,503.0,516.0
508.0,514.0,508.0,518.0
511.0,509.0,508.0,517.0
509.0,491.0,506.0,510.0
508.0,485.0,511.0,508.0
514.0,489.0,512.0,505.0
520.0,497.0,522.0,503.0
523.0,503.0,522.0,502.0
524.0,516.0,519.0,502.0
523.0,511.0,523.0,511.0
518.0,510.0,520.0,506.0
504.0,489.0,516.0,509.0
493.0,487.0,512.0,513.0
496.0,493.0,511.0,515.0
502.0,501.0,505.0,518.0
500.0,506.0,503.0,521.0
504.0,515.0,506.0,521.0
502.0,507.0,506.0,518.0
507.0,511.0,503.0,516.0
507.0,511.0,503.0,518.0
506.0,501.0,509.0,514.0
512.0,501.0,515.0,512.0
521.0,506.0,518.0,509.0
529.0,497.0,518.0,504.0
524.0,496.0,520.0,501.0
523.0,496.0,523.0,505.0
518.0,501.0,521.0,505.0
517.0,494.0,518.0,506.0
499.0,493.0,517.0,514.0
497.0,501.0,513.0,514.0
501.0,492.0,510.0,520.0
503.0,501.0,517.0,524.0
511.0,497.0,513.0,525.0
511.0,487.0,508.0,527.0
508.0,490.0,507.0,521.0
509.0,490.0,503.0,509.0
512.0,487.0,502.0,499.0
510.0,520.0,503.0,504.0
509.0,509.0,508.0,506.0
521.0,520.0,512.0,509.0
526.0,516.0,524.0,506.0
525.0,516.0,528.0,507.0
516.0,510.0,525.0,503.0
510.0,515.0,524.0,508.0
504.0,500.0,520.0,510.0
498.0,486.0,515.0,517.0
497.0,473.0,513.0,521.0
496.0,489.0,507.0,519.0
503.0,502.0,500.0,518.0
505.0,509.0,497.0,516.0
504.0,538.0,497.0,516.0
513.0,543.0,497.0,514.0
508.0,509.0,503.0,510.0
505.0,484.0,501.0,510.0
512.0,491.0,507.0,504.0
521.0,504.0,516.0,502.0
525.0,521.0,518.0,501.0
527.0,517.0,521.0,501.0
528.0,513.0,520.0,504.0
522.0,508.0,521.0,503.0
517.0,508.0,518.0,504.0
500.0,483.0,516.0,504.0
498.0,482.0,512.0,510.0
497.0,494.0,511.0,515.0
498.0,499.0,507.0,524.0
502.0,504.0,505.0,523.0
505.0,502.0,504.0,519.0
507.0,494.0,504.0,515.0
513.0,494.0,499.0,513.0
513.0,485.0,500.0,509.0
509.0,497.0,501.0,508.0
514.0,499.0,504.0,506.0
521.0,503.0,513.0,507.0
525.0,527.0,519.0,506.0
519.0,517.0,525.0,506.0
521.0,503.0,530.0,508.0
516.0,512.0,530.0,511.0
511.0,510.0,526.0,510.0
498.0,500.0,519.0,514.0
496.0,480.0,511.0,519.0
496.0,455.0,509.0,522.0
505.0,489.0,507.0,522.0
508.0,506.0,507.0,525.0
509.0,502.0,505.0,522.0
497.0,507.0,506.0,520.0
501.0,511.0,509.0,517.0
500.0,511.0,500.0,511.0
505.0,500.0,508.0,505.0
508.0,505.0,512.0,506.0
520.0,512.0,516.0,499.0
525.0,511.0,511.0,495.0
526.0,508.0,519.0,500.0
519.0,498.0,520.0,499.0
519.0,493.0,519.0,505.0
504.0,485.0,520.0,507.0
501.0,485.0,515.0,507.0
500.0,487.0,509.0,516.0
499.0,499.0,505.0,519.0
502.0,505.0,504.0,521.0
503.0,505.0,503.0,521.0
501.0,516.0,502.0,517.0
505.0,512.0,503.0,515.0
510.0,509.0,504.0,514.0
508.0,502.0,503.0,510.0
508.0,512.0,510.0,510.0
509.0,525.0,514.0,507.0
522.0,517.0,519.0,510.0
527.0,496.0,522.0,506.0
531.0,475.0,524.0,509.0
513.0,488.0,528.0,510.0
516.0,495.0,532.0,515.0
505.0,481.0,528.0,520.0
503.0,500.0,524.0,519.0
494.0,516.0,514.0,516.0
498.0,514.0,495.0,517.0
500.0,502.0,499.0,521.0
504.0,523.0,499.0,523.0
502.0,515.0,502.0,519.0
507.0,503.0,519.0,516.0
509.0,509.0,504.0,510.0
509.0,504.0,499.0,503.0
513.0,503.0,502.0,499.0
521.0,502.0,502.0,497.0
526.0,499.0,510.0,501.0
525.0,497.0,520.0,499.0
517.0,487.0,522.0,503.0
510.0,484.0,521.0,503.0
513.0,494.0,521.0,501.0
498.0,504.0,514.0,506.0
495.0,506.0,508.0,510.0
498.0,505.0,505.0,516.0
498.0,506.0,505.0,514.0
500.0,497.0,504.0,519.0
509.0,505.0,503.0,520.0
514.0,499.0,504.0,519.0
512.0,506.0,503.0,517.0
508.0,524.0,499.0,505.0
513.0,509.0,500.0,502.0
518.0,513.0,506.0,503.0
525.0,507.0,512.0,504.0
523.0,504.0,523.0,506.0
521.0,498.0,530.0,511.0
515.0,496.0,529.0,512.0
515.0,495.0,529.0,512.0
504.0,480.0,522.0,510.0
497.0,472.0,514.0,509.0
493.0,486.0,506.0,511.0
495.0,501.0,504.0,512.0
501.0,508.0,499.0,514.0
506.0,517.0,497.0,519.0
509.0,505.0,499.0,514.0
512.0,504.0,500.0,512.0
510.0,502.0,502.0,507.0
505.0,492.0,500.0,508.0
513.0,509.0,505.0,506.0
517.0,513.0,510.0,502.0
527.0,513.0,518.0,505.0
527.0,505.0,522.0,505.0
526.0,499.0,528.0,506.0
521.0,500.0,529.0,508.0
517.0,506.0,531.0,507.0
505.0,490.0,512.0,506.0
502.0,481.0,510.0,515.0
497.0,481.0,511.0,520.0
495.0,487.0,509.0,519.0
500.0,505.0,502.0,516.0
509.0,523.0,500.0,519.0
504.0,527.0,499.0,516.0
511.0,517.0,502.0,515.0
511.0,512.0,500.0,511.0
510.0,502.0,505.0,507.0
514.0,505.0,507.0,512.0
522.0,510.0,514.0,512.0
525.0,505.0,523.0,506.0
529.0,505.0,526.0,512.0
526.0,506.0,529.0,506.0
522.0,497.0,521.0,510.0
518.0,524.0,523.0,509.0
497.0,469.0,515.0,512.0
489.0,451.0,512.0,514.0
493.0,484.0,506.0,516.0
499.0,490.0,505.0,522.0
497.0,500.0,504.0,523.0
506.0,518.0,504.0,523.0
509.0,520.0,502.0,524.0
515.0,518.0,511.0,520.0
516.0,506.0,517.0,516.0
520.0,509.0,520.0,518.0
516.0,513.0,517.0,509.0
519.0,522.0,521.0,506.0
521.0,522.0,524.0,503.0
524.0,517.0,517.0,502.0
518.0,505.0,519.0,507.0
526.0,493.0,518.0,505.0
522.0,490.0,515.0,504.0
508.0,483.0,510.0,502.0
500.0,477.0,507.0,510.0
493.0,498.0,498.0,513.0
495.0,486.0,500.0,518.0
489.0,503.0,501.0,519.0
490.0,516.0,501.0,517.0
503.0,525.0,498.0,512.0
509.0,516.0,497.0,508.0
503.0,502.0,497.0,499.0
509.0,514.0,503.0,501.0
519.0,510.0,507.0,503.0
523.0,509.0,513.0,507.0
523.0,511.0,518.0,502.0
518.0,500.0,520.0,502.0
516.0,484.0,522.0,503.0
521.0,508.0,521.0,505.0
505.0,501.0,520.0,510.0
498.0,492.0,518.0,513.0
490.0,494.0,517.0,523.0
495.0,460.0,509.0,527.0
498.0,481.0,504.0,526.0
507.0,500.0,512.0,518.0
507.0,500.0,496.0,512.0
505.0,506.0,501.0,509.0
507.0,501.0,501.0,506.0
508.0,505.0,506.0,509.0
511.0,512.0,506.0,507.0
517.0,507.0,512.0,506.0
524.0,493.0,515.0,505.0
523.0,484.0,521.0,499.0
522.0,467.0,524.0,505.0
511.0,472.0,525.0,507.0
511.0,518.0,521.0,512.0
506.0,514.0,521.0,518.0
504.0,508.0,516.0,522.0
503.0,515.0,513.0,526.0
505.0,512.0,508.0,525.0
507.0,506.0,506.0,522.0
504.0,512.0,500.0,514.0
497.0,506.0,495.0,510.0
504.0,509.0,499.0,509.0
504.0,509.0,498.0,505.0
517.0,523.0,504.0,505.0
516.0,517.0,510.0,507.0
523.0,530.0,519.0,510.0
528.0,512.0,525.0,510.0
529.0,501.0,532.0,512.0
523.0,507.0,525.0,512.0
514.0,498.0,523.0,509.0
502.0,476.0,517.0,502.0
492.0,468.0,511.0,506.0
491.0,478.0,504.0,507.0
496.0,495.0,504.0,513.0
501.0,514.0,504.0,517.0
502.0,517.0,504.0,518.0
506.0,508.0,506.0,518.0
508.0,509.0,502.0,514.0
510.0,504.0,501.0,511.0
509.0,494.0,503.0,506.0
511.0,499.0,506.0,503.0
517.0,503.0,515.0,504.0
522.0,509.0,515.0,504.0
518.0,510.0,520.0,505.0
517.0,509.0,523.0,508.0
514.0,500.0,527.0,510.0
512.0,509.0,526.0,514.0
500.0,494.0,523.0,518.0
493.0,487.0,525.0,524.0
495.0,486.0,521.0,529.0
500.0,501.0,518.0,527.0
503.0,506.0,511.0,521.0
506.0,510.0,507.0,516.0
505.0,509.0,511.0,513.0
509.0,508.0,491.0,504.0
512.0,506.0,492.0,507.0
508.0,500.0,497.0,502.0
513.0,496.0,502.0,498.0
521.0,497.0,507.0,505.0
525.0,499.0,510.0,501.0
520.0,490.0,519.0,500.0
525.0,506.0,523.0,499.0
516.0,515.0,519.0,503.0
512.0,515.0,517.0,504.0
497.0,508.0,515.0,508.0
492.0,483.0,512.0,518.0
493.0,474.0,508.0,519.0
500.0,485.0,508.0,520.0
500.0,474.0,506.0,522.0
505.0,497.0,505.0,519.0
508.0,513.0,503.0,517.0
508.0,513.0,505.0,516.0
507.0,490.0,501.0,512.0
511.0,499.0,506.0,508.0
517.0,517.0,513.0,506.0
527.0,519.0,516.0,510.0
528.0,506.0,521.0,508.0
529.0,506.0,524.0,510.0
519.0,502.0,523.0,508.0
519.0,504.0,523.0,512.0
507.0,493.0,525.0,513.0
500.0,494.0,521.0,517.0
500.0,488.0,514.0,517.0
502.0,494.0,509.0,519.0
503.0,501.0,503.0,518.0
505.0,526.0,499.0,520.0
507.0,515.0,497.0,513.0
507.0,513.0,496.0,514.0
512.0,505.0,503.0,516.0
508.0,491.0,504.0,512.0
514.0,509.0,509.0,508.0
519.0,513.0,515.0,507.0
519.0,521.0,516.0,505.0
519.0,507.0,521.0,500.0
521.0,507.0,521.0,502.0
513.0,505.0,517.0,503.0
511.0,496.0,522.0,507.0
497.0,491.0,520.0,511.0
495.0,497.0,516.0,518.0
492.0,443.0,517.0,524.0
496.0,462.0,512.0,524.0
501.0,492.0,507.0,523.0
505.0,489.0,511.0,527.0
504.0,518.0,511.0,527.0
505.0,529.0,510.0,523.0
507.0,522.0,509.0,519.0
511.0,512.0,507.0,514.0
512.0,497.0,506.0,511.0
524.0,490.0,513.0,502.0
526.0,501.0,511.0,494.0
538.0,519.0,513.0,495.0
535.0,509.0,518.0,494.0
531.0,506.0,521.0,502.0
524.0,507.0,517.0,504.0
497.0,497.0,512.0,505.0
485.0,491.0,511.0,513.0
477.0,501.0,508.0,519.0
489.0,516.0,511.0,525.0
499.0,529.0,508.0,524.0
510.0,544.0,506.0,523.0
512.0,538.0,502.0,514.0
506.0,463.0,501.0,510.0
505.0,481.0,500.0,506.0
507.0,492.0,503.0,503.0
513.0,487.0,504.0,501.0
524.0,506.0,517.0,499.0
529.0,521.0,521.0,501.0
527.0,511.0,525.0,502.0
516.0,495.0,526.0,514.0
508.0,500.0,531.0,518.0
503.0,498.0,529.0,525.0
495.0,492.0,527.0,527.0
496.0,496.0,517.0,527.0
495.0,473.0,511.0,524.0
500.0,472.0,503.0,514.0
500.0,473.0,493.0,509.0
505.0,495.0,495.0,508.0
506.0,538.0,496.0,508.0
516.0,525.0,499.0,508.0
510.0,513.0,496.0,502.0
511.0,510.0,504.0,500.0
517.0,517.0,508.0,504.0
525.0,522.0,519.0,503.0
525.0,519.0,522.0,500.0
530.0,519.0,521.0,504.0
518.0,501.0,520.0,502.0
514.0,495.0,522.0,508.0
502.0,485.0,519.0,512.0
497.0,488.0,518.0,517.0
499.0,498.0,517.0,520.0
496.0,495.0,512.0,528.0
500.0,502.0,505.0,523.0
505.0,501.0,505.0,523.0
504.0,500.0,506.0,518.0
508.0,505.0,505.0,514.0
512.0,500.0,504.0,511.0
508.0,502.0,502.0,504.0
515.0,510.0,505.0,501.0
519.0,520.0,506.0,499.0
523.0,523.0,511.0,501.0
522.0,527.0,520.0,501.0
520.0,513.0,522.0,504.0
512.0,515.0,521.0,508.0
513.0,507.0,522.0,510.0
498.0,480.0,519.0,512.0
495.0,483.0,514.0,516.0
497.0,502.0,510.0,518.0
496.0,505.0,504.0,521.0
497.0,471.0,502.0,521.0
502.0,475.0,503.0,523.0
503.0,479.0,503.0,518.0
506.0,485.0,509.0,518.0
503.0,481.0,509.0,518.0
508.0,474.0,513.0,515.0
519.0,483.0,517.0,516.0
529.0,478.0,515.0,506.0
533.0,491.0,515.0,498.0
535.0,490.0,517.0,498.0
524.0,516.0,518.0,499.0
516.0,519.0,516.0,502.0
507.0,498.0,518.0,505.0
495.0,498.0,514.0,510.0
496.0,499.0,510.0,514.0
499.0,499.0,509.0,519.0
503.0,500.0,513.0,523.0
490.0,490.0,511.0,521.0
493.0,495.0,504.0,515.0
492.0,515.0,495.0,509.0
495.0,502.0,496.0,508.0
525.0,529.0,512.0,532.0
520.0,541.0,512.0,523.0
523.0,530.0,511.0,512.0
527.0,495.0,508.0,505.0
530.0,517.0,516.0,501.0
529.0,519.0,520.0,501.0
529.0,507.0,520.0,504.0
518.0,502.0,518.0,507.0
514.0,491.0,516.0,508.0
509.0,488.0,511.0,515.0
503.0,496.0,506.0,518.0
505.0,513.0,502.0,518.0
513.0,540.0,498.0,519.0
511.0,561.0,498.0,522.0
519.0,541.0,497.0,517.0
523.0,526.0,499.0,519.0
519.0,523.0,498.0,513.0
522.0,513.0,500.0,508.0
528.0,512.0,502.0,507.0
531.0,521.0,504.0,506.0
530.0,518.0,512.0,509.0
529.0,517.0,519.0,508.0
533.0,518.0,524.0,513.0
522.0,507.0,524.0,511.0
516.0,505.0,522.0,511.0
509.0,494.0,515.0,513.0
501.0,495.0,513.0,517.0
501.0,493.0,511.0,522.0
507.0,501.0,506.0,528.0
506.0,502.0,509.0,526.0
507.0,511.0,505.0,524.0
508.0,520.0,505.0,525.0
514.0,524.0,502.0,521.0
514.0,522.0,499.0,512.0
514.0,514.0,500.0,509.0
515.0,517.0,504.0,505.0
522.0,516.0,512.0,507.0
529.0,517.0,513.0,508.0
530.0,507.0,520.0,508.0
528.0,505.0,523.0,509.0
526.0,503.0,522.0,514.0
519.0,495.0,522.0,513.0
502.0,481.0,523.0,512.0
497.0,487.0,517.0,516.0
507.0,509.0,513.0,519.0
517.0,523.0,506.0,518.0
520.0,520.0,497.0,516.0
521.0,509.0,493.0,519.0
512.0,470.0,493.0,512.0
503.0,497.0,499.0,514.0
496.0,505.0,493.0,507.0
503.0,500.0,499.0,506.0
518.0,507.0,512.0,505.0
531.0,512.0,509.0,506.0
535.0,499.0,516.0,507.0
527.0,491.0,521.0,507.0
525.0,519.0,523.0,510.0
514.0,520.0,523.0,512.0
507.0,505.0,520.0,514.0
497.0,495.0,515.0,517.0
492.0,507.0,514.0,523.0
496.0,502.0,514.0,528.0
504.0,503.0,508.0,530.0
504.0,508.0,507.0,525.0
510.0,530.0,501.0,519.0
507.0,537.0,497.0,514.0
507.0,510.0,495.0,512.0
504.0,485.0,494.0,509.0
508.0,472.0,500.0,509.0
511.0,458.0,508.0,506.0
516.0,482.0,516.0,509.0
520.0,513.0,522.0,510.0
520.0,534.0,531.0,515.0
525.0,562.0,529.0,514.0
524.0,558.0,521.0,510.0
506.0,525.0,515.0,509.0
502.0,537.0,509.0,511.0
497.0,485.0,503.0,514.0
497.0,489.0,503.0,517.0
502.0,519.0,501.0,517.0
502.0,506.0,500.0,518.0
510.0,509.0,500.0,520.0
508.0,513.0,505.0,519.0
509.0,511.0,501.0,516.0
507.0,506.0,502.0,512.0
514.0,510.0,503.0,505.0
521.0,515.0,506.0,502.0
525.0,502.0,511.0,503.0
526.0,502.0,515.0,502.0
529.0,505.0,528.0,503.0
520.0,498.0,517.0,502.0
512.0,485.0,518.0,504.0
502.0,470.0,513.0,512.0
500.0,473.0,511.0,518.0
504.0,489.0,512.0,522.0
513.0,504.0,510.0,524.0
513.0,511.0,502.0,520.0
518.0,521.0,500.0,521.0
513.0,519.0,501.0,519.0
500.0,512.0,502.0,515.0
496.0,512.0,499.0,506.0
499.0,510.0,499.0,504.0
508.0,508.0,505.0,502.0
515.0,508.0,508.0,501.0
519.0,508.0,517.0,501.0
516.0,504.0,522.0,502.0
520.0,505.0,523.0,503.0
514.0,497.0,519.0,504.0
508.0,493.0,517.0,507.0
499.0,483.0,522.0,513.0
494.0,486.0,508.0,520.0
495.0,498.0,511.0,522.0
502.0,500.0,510.0,528.0
503.0,505.0,509.0,529.0
511.0,513.0,510.0,526.0
509.0,509.0,511.0,524.0
509.0,508.0,504.0,515.0
508.0,500.0,496.0,505.0
520.0,523.0,496.0,504.0
527.0,532.0,502.0,502.0
531.0,537.0,510.0,502.0
535.0,530.0,513.0,502.0
524.0,469.0,520.0,500.0
514.0,468.0,516.0,498.0
512.0,496.0,516.0,499.0
500.0,488.0,514.0,506.0
494.0,486.0,510.0,511.0
496.0,492.0,505.0,515.0
501.0,501.0,504.0,518.0
501.0,499.0,499.0,519.0
503.0,506.0,496.0,514.0
508.0,514.0,498.0,516.0
508.0,508.0,495.0,519.0
507.0,506.0,495.0,511.0
503.0,497.0,496.0,501.0
513.0,497.0,504.0,504.0
519.0,498.0,505.0,509.0
526.0,508.0,515.0,507.0
530.0,511.0,520.0,508.0
526.0,504.0,521.0,506.0
523.0,506.0,523.0,510.0
517.0,496.0,523.0,512.0
498.0,480.0,517.0,516.0
493.0,490.0,515.0,522.0
491.0,494.0,513.0,526.0
499.0,502.0,509.0,532.0
501.0,510.0,507.0,526.0
507.0,518.0,504.0,523.0
508.0,514.0,500.0,512.0
505.0,506.0,495.0,508.0
505.0,501.0,496.0,500.0
507.0,493.0,502.0,508.0
512.0,497.0,505.0,508.0
522.0,498.0,515.0,504.0
528.0,488.0,520.0,506.0
527.0,471.0,525.0,508.0
526.0,490.0,524.0,510.0
511.0,482.0,523.0,512.0
502.0,507.0,518.0,513.0
507.0,507.0,519.0,515.0
497.0,502.0,516.0,521.0
502.0,496.0,509.0,527.0
503.0,519.0,504.0,523.0
496.0,498.0,503.0,519.0
509.0,517.0,504.0,521.0
516.0,520.0,503.0,518.0
519.0,518.0,499.0,515.0
515.0,507.0,502.0,513.0
514.0,509.0,507.0,514.0
506.0,517.0,514.0,510.0
509.0,528.0,514.0,505.0
516.0,520.0,517.0,503.0
515.0,513.0,517.0,503.0
514.0,509.0,517.0,500.0
506.0,513.0,515.0,505.0
497.0,503.0,509.0,505.0
501.0,496.0,507.0,507.0
499.0,505.0,503.0,515.0
500.0,519.0,507.0,517.0
504.0,531.0,501.0,519.0
506.0,524.0,496.0,518.0
506.0,485.0,500.0,520.0
498.0,491.0,502.0,515.0
499.0,502.0,500.0,511.0
501.0,511.0,501.0,510.0
509.0,511.0,503.0,505.0
519.0,515.0,509.0,505.0
526.0,511.0,511.0,500.0
531.0,515.0,518.0,504.0
521.0,494.0,523.0,505.0
514.0,482.0,521.0,506.0
515.0,490.0,522.0,510.0
507.0,485.0,515.0,515.0
504.0,489.0,514.0,518.0
503.0,500.0,505.0,517.0
507.0,513.0,500.0,518.0
499.0,525.0,498.0,516.0
498.0,534.0,496.0,518.0
505.0,522.0,496.0,515.0
506.0,508.0,499.0,510.0
507.0,501.0,496.0,508.0
512.0,508.0,498.0,506.0
518.0,510.0,510.0,502.0
519.0,459.0,509.0,502.0
521.0,461.0,514.0,501.0
521.0,492.0,520.0,500.0
515.0,493.0,523.0,504.0
509.0,501.0,521.0,509.0
502.0,499.0,521.0,514.0
498.0,501.0,518.0,517.0
496.0,500.0,513.0,518.0
497.0,507.0,511.0,517.0
498.0,506.0,503.0,516.0
502.0,503.0,495.0,519.0
504.0,510.0,499.0,517.0
506.0,508.0,498.0,516.0
507.0,515.0,506.0,519.0
506.0,502.0,500.0,512.0
513.0,502.0,504.0,503.0
523.0,500.0,504.0,501.0
531.0,514.0,508.0,498.0
533.0,503.0,514.0,497.0
531.0,504.0,520.0,503.0
524.0,498.0,523.0,506.0
511.0,504.0,518.0,505.0
494.0,494.0,512.0,506.0
492.0,493.0,508.0,509.0
492.0,492.0,506.0,513.0
498.0,496.0,512.0,521.0
499.0,503.0,502.0,519.0
504.0,509.0,494.0,517.0
505.0,511.0,496.0,515.0
506.0,503.0,500.0,515.0
506.0,498.0,501.0,515.0
504.0,500.0,501.0,509.0
512.0,496.0,509.0,509.0
517.0,501.0,515.0,503.0
523.0,507.0,512.0,501.0
530.0,507.0,516.0,500.0
533.0,507.0,516.0,505.0
526.0,500.0,517.0,504.0
519.0,492.0,516.0,510.0
504.0,478.0,514.0,517.0
495.0,486.0,511.0,523.0
493.0,497.0,513.0,524.0
497.0,503.0,508.0,522.0
499.0,500.0,508.0,525.0
508.0,508.0,505.0,524.0
508.0,496.0,498.0,522.0
509.0,505.0,497.0,512.0
510.0,489.0,493.0,507.0
513.0,478.0,498.0,506.0
522.0,500.0,505.0,508.0
524.0,528.0,511.0,508.0
532.0,535.0,515.0,506.0
530.0,540.0,518.0,507.0
528.0,527.0,519.0,509.0
515.0,512.0,519.0,516.0
511.0,494.0,518.0,511.0
495.0,488.0,509.0,511.0
496.0,495.0,510.0,515.0
499.0,503.0,503.0,522.0
503.0,517.0,508.0,526.0
505.0,519.0,507.0,528.0
511.0,516.0,504.0,526.0
509.0,512.0,502.0,517.0
506.0,491.0,498.0,510.0
511.0,494.0,497.0,505.0
515.0,504.0,500.0,499.0
517.0,500.0,498.0,503.0
520.0,499.0,510.0,501.0
524.0,515.0,517.0,500.0
522.0,516.0,519.0,508.0
516.0,490.0,522.0,503.0
513.0,471.0,520.0,507.0
500.0,457.0,517.0,514.0
495.0,453.0,515.0,516.0
499.0,468.0,507.0,519.0
495.0,523.0,509.0,523.0
499.0,545.0,506.0,526.0
499.0,517.0,502.0,524.0
505.0,516.0,503.0,521.0
511.0,516.0,500.0,517.0
504.0,506.0,499.0,514.0
506.0,504.0,502.0,510.0
514.0,506.0,507.0,512.0
527.0,522.0,517.0,510.0
529.0,513.0,512.0,508.0
525.0,503.0,513.0,500.0
522.0,504.0,518.0,500.0
517.0,497.0,519.0,502.0
518.0,505.0,518.0,507.0
501.0,497.0,513.0,511.0
494.0,476.0,506.0,513.0
496.0,488.0,502.0,516.0
497.0,511.0,501.0,519.0
501.0,518.0,502.0,518.0
506.0,516.0,498.0,523.0
506.0,504.0,500.0,515.0
507.0,501.0,503.0,514.0
508.0,502.0,499.0,510.0
513.0,500.0,501.0,508.0
519.0,500.0,504.0,510.0
525.0,507.0,510.0,507.0
524.0,508.0,515.0,505.0
520.0,505.0,518.0,506.0
525.0,504.0,519.0,504.0
519.0,496.0,518.0,507.0
507.0,500.0,515.0,510.0
502.0,504.0,508.0,513.0
499.0,496.0,507.0,520.0
500.0,497.0,505.0,523.0
503.0,503.0,505.0,523.0
501.0,505.0,501.0,521.0
507.0,508.0,499.0,521.0
508.0,508.0,498.0,518.0
509.0,520.0,501.0,513.0
503.0,505.0,497.0,509.0
510.0,506.0,506.0,512.0
520.0,499.0,508.0,512.0
525.0,486.0,519.0,513.0
529.0,486.0,522.0,513.0
526.0,494.0,527.0,511.0
520.0,499.0,527.0,512.0
513.0,504.0,529.0,513.0
500.0,490.0,521.0,517.0
499.0,481.0,512.0,517.0
493.0,483.0,505.0,517.0
496.0,489.0,501.0,513.0
499.0,497.0,497.0,511.0
502.0,522.0,495.0,513.0
511.0,528.0,499.0,516.0
510.0,525.0,497.0,509.0
505.0,528.0,496.0,507.0
506.0,517.0,497.0,505.0
516.0,516.0,505.0,504.0
517.0,513.0,507.0,504.0
523.0,512.0,514.0,501.0
528.0,499.0,516.0,499.0
523.0,501.0,517.0,499.0
519.0,495.0,515.0,504.0
512.0,495.0,515.0,503.0
498.0,488.0,510.0,509.0
492.0,482.0,504.0,514.0
496.0,492.0,504.0,515.0
498.0,512.0,503.0,521.0
502.0,514.0,501.0,518.0
512.0,516.0,499.0,520.0
517.0,514.0,501.0,517.0
506.0,510.0,499.0,513.0
501.0,515.0,495.0,509.0
510.0,515.0,501.0,506.0
512.0,508.0,503.0,501.0
512.0,506.0,511.0,503.0
523.0,512.0,514.0,498.0
528.0,508.0,522.0,504.0
523.0,499.0,524.0,507.0
517.0,496.0,522.0,510.0
505.0,480.0,522.0,514.0
497.0,483.0,507.0,514.0
499.0,491.0,510.0,518.0
501.0,496.0,508.0,519.0
504.0,508.0,505.0,519.0
506.0,509.0,504.0,521.0
515.0,517.0,505.0,517.0
512.0,502.0,498.0,516.0
505.0,509.0,502.0,509.0
506.0,483.0,500.0,505.0
511.0,478.0,505.0,504.0
516.0,491.0,510.0,507.0
522.0,497.0,514.0,505.0
525.0,502.0,516.0,499.0
521.0,500.0,516.0,503.0
516.0,499.0,517.0,508.0
514.0,500.0,517.0,507.0
496.0,496.0,513.0,509.0
496.0,486.0,510.0,513.0
500.0,497.0,508.0,517.0
500.0,525.0,504.0,516.0
502.0,525.0,499.0,519.0
513.0,530.0,496.0,516.0
523.0,532.0,495.0,514.0
507.0,466.0,497.0,514.0
507.0,488.0,498.0,512.0
509.0,512.0,499.0,511.0
512.0,498.0,511.0,508.0
512.0,500.0,508.0,510.0
522.0,494.0,515.0,505.0
525.0,491.0,520.0,505.0
527.0,498.0,525.0,508.0
516.0,488.0,534.0,507.0
517.0,519.0,518.0,509.0
502.0,504.0,509.0,507.0
503.0,493.0,507.0,511.0
497.0,499.0,502.0,514.0
495.0,504.0,501.0,516.0
497.0,499.0,502.0,513.0
499.0,510.0,496.0,509.0
503.0,509.0,499.0,516.0
503.0,499.0,502.0,516.0
504.0,498.0,498.0,513.0
503.0,490.0,508.0,509.0
506.0,506.0,511.0,510.0
529.0,538.0,517.0,514.0
531.0,521.0,519.0,510.0
525.0,509.0,520.0,505.0
525.0,506.0,519.0,501.0
517.0,497.0,516.0,495.0
509.0,500.0,513.0,499.0
500.0,497.0,508.0,501.0
499.0,497.0,511.0,511.0
499.0,504.0,508.0,518.0
504.0,519.0,506.0,518.0
504.0,520.0,500.0,518.0
505.0,520.0,496.0,518.0
504.0,521.0,501.0,512.0
500.0,500.0,504.0,509.0
503.0,490.0,493.0,503.0
508.0,492.0,497.0,504.0
518.0,497.0,507.0,508.0
525.0,492.0,512.0,506.0
524.0,499.0,518.0,502.0
526.0,526.0,523.0,505.0
523.0,494.0,523.0,513.0
519.0,496.0,524.0,514.0
510.0,504.0,526.0,513.0
501.0,510.0,510.0,516.0
493.0,507.0,504.0,515.0
495.0,473.0,506.0,521.0
498.0,454.0,506.0,525.0
503.0,474.0,505.0,520.0
506.0,476.0,504.0,518.0
499.0,508.0,501.0,512.0
501.0,546.0,497.0,507.0
508.0,534.0,497.0,501.0
510.0,538.0,502.0,500.0
515.0,493.0,506.0,500.0
520.0,499.0,511.0,499.0
523.0,511.0,514.0,499.0
519.0,504.0,521.0,503.0
514.0,492.0,519.0,504.0
511.0,490.0,517.0,505.0
499.0,477.0,518.0,509.0
497.0,482.0,514.0,517.0
498.0,489.0,512.0,522.0
500.0,506.0,510.0,525.0
497.0,508.0,506.0,527.0
501.0,516.0,504.0,524.0
502.0,520.0,504.0,530.0
506.0,523.0,505.0,523.0
504.0,508.0,501.0,512.0
508.0,504.0,503.0,501.0
511.0,500.0,501.0,493.0
522.0,508.0,503.0,494.0
528.0,508.0,510.0,496.0
527.0,500.0,518.0,497.0
524.0,499.0,519.0,502.0
514.0,495.0,523.0,505.0
506.0,492.0,523.0,507.0
498.0,481.0,512.0,512.0
497.0,484.0,508.0,516.0
499.0,494.0,503.0,521.0
499.0,505.0,503.0,522.0
501.0,499.0,502.0,519.0
506.0,492.0,502.0,515.0
504.0,491.0,500.0,513.0
508.0,501.0,508.0,511.0
505.0,496.0,498.0,505.0
517.0,509.0,501.0,499.0
520.0,510.0,505.0,499.0
528.0,509.0,508.0,503.0
532.0,509.0,515.0,503.0
529.0,522.0,519.0,500.0
523.0,515.0,520.0,502.0
510.0,508.0,520.0,505.0
494.0,490.0,518.0,511.0
494.0,490.0,514.0,516.0
496.0,496.0,508.0,521.0
498.0,511.0,503.0,523.0
499.0,507.0,504.0,524.0
502.0,506.0,501.0,523.0
506.0,506.0,503.0,519.0
507.0,504.0,502.0,516.0
507.0,506.0,504.0,511.0
516.0,508.0,500.0,508.0
520.0,515.0,503.0,503.0
527.0,516.0,509.0,500.0
522.0,538.0,511.0,500.0
523.0,511.0,518.0,501.0
529.0,503.0,526.0,502.0
522.0,498.0,521.0,504.0
517.0,493.0,515.0,506.0
503.0,473.0,516.0,510.0
497.0,469.0,513.0,512.0
495.0,466.0,508.0,516.0
497.0,487.0,507.0,517.0
503.0,497.0,502.0,516.0
504.0,495.0,500.0,518.0
508.0,498.0,497.0,511.0
510.0,523.0,493.0,505.0
521.0,543.0,498.0,505.0
519.0,540.0,502.0,504.0
528.0,556.0,510.0,508.0
522.0,470.0,520.0,513.0
526.0,470.0,523.0,511.0
524.0,502.0,523.0,508.0
521.0,506.0,516.0,503.0
509.0,501.0,513.0,501.0
508.0,495.0,511.0,502.0
499.0,490.0,504.0,506.0
496.0,489.0,503.0,511.0
499.0,501.0,504.0,520.0
506.0,506.0,503.0,521.0
504.0,503.0,505.0,522.0
510.0,499.0,501.0,517.0
510.0,486.0,498.0,515.0
506.0,486.0,497.0,515.0
502.0,493.0,498.0,511.0
512.0,526.0,502.0,511.0
513.0,506.0,508.0,505.0
521.0,502.0,514.0,504.0
529.0,519.0,517.0,509.0
521.0,527.0,524.0,511.0
518.0,515.0,529.0,515.0
514.0,514.0,523.0,508.0
499.0,481.0,514.0,504.0
496.0,477.0,508.0,510.0
499.0,483.0,501.0,508.0
504.0,493.0,500.0,519.0
502.0,497.0,497.0,515.0
505.0,504.0,498.0,518.0
511.0,516.0,493.0,515.0
508.0,504.0,495.0,513.0
507.0,497.0,496.0,514.0
506.0,501.0,496.0,507.0
513.0,502.0,501.0,496.0
523.0,510.0,504.0,496.0
525.0,522.0,511.0,495.0
527.0,510.0,517.0,501.0
525.0,512.0,518.0,499.0
522.0,503.0,518.0,505.0
515.0,503.0,519.0,504.0
499.0,488.0,512.0,509.0
498.0,488.0,508.0,512.0
498.0,497.0,504.0,516.0
503.0,509.0,502.0,522.0
500.0,510.0,502.0,521.0
505.0,508.0,502.0,520.0
506.0,508.0,497.0,517.0
509.0,509.0,497.0,519.0
504.0,501.0,513.0,513.0
508.0,509.0,506.0,514.0
515.0,501.0,509.0,516.0
525.0,497.0,527.0,511.0
529.0,497.0,529.0,516.0
528.0,495.0,536.0,517.0
526.0,501.0,525.0,511.0
515.0,498.0,519.0,505.0
502.0,487.0,516.0,503.0
495.0,479.0,506.0,505.0
496.0,474.0,500.0,511.0
496.0,485.0,498.0,510.0
505.0,511.0,497.0,513.0
506.0,514.0,499.0,517.0
509.0,519.0,500.0,513.0
509.0,515.0,495.0,507.0
507.0,490.0,493.0,507.0
505.0,509.0,492.0,502.0
513.0,495.0,495.0,501.0
517.0,498.0,503.0,502.0
521.0,501.0,512.0,501.0
520.0,500.0,514.0,500.0
520.0,521.0,519.0,503.0
515.0,501.0,520.0,509.0
514.0,504.0,525.0,514.0
498.0,495.0,523.0,520.0
496.0,491.0,522.0,528.0
495.0,499.0,516.0,526.0
497.0,495.0,510.0,524.0
500.0,505.0,502.0,519.0
503.0,520.0,495.0,514.0
509.0,527.0,495.0,509.0
510.0,520.0,496.0,509.0
508.0,517.0,496.0,510.0
504.0,482.0,498.0,506.0
510.0,479.0,500.0,508.0
516.0,496.0,511.0,507.0
525.0,505.0,511.0,509.0
526.0,517.0,520.0,506.0
525.0,519.0,523.0,504.0
521.0,504.0,519.0,502.0
518.0,489.0,519.0,505.0
499.0,462.0,513.0,505.0
496.0,458.0,509.0,511.0
496.0,468.0,506.0,512.0
503.0,471.0,502.0,519.0
500.0,504.0,501.0,518.0
501.0,537.0,500.0,517.0
509.0,543.0,498.0,518.0
510.0,535.0,499.0,515.0
507.0,507.0,501.0,508.0
504.0,511.0,508.0,505.0
511.0,481.0,511.0,506.0
522.0,484.0,519.0,509.0
532.0,488.0,523.0,505.0
527.0,505.0,523.0,506.0
527.0,516.0,524.0,503.0
516.0,500.0,521.0,504.0
510.0,499.0,515.0,502.0
501.0,499.0,509.0,508.0
490.0,501.0,507.0,514.0
495.0,491.0,506.0,519.0
497.0,503.0,505.0,520.0
497.0,506.0,498.0,520.0
507.0,503.0,503.0,520.0
508.0,503.0,501.0,517.0
508.0,503.0,500.0,518.0
504.0,487.0,509.0,515.0
508.0,492.0,514.0,511.0
515.0,493.0,513.0,509.0
525.0,494.0,519.0,509.0
525.0,506.0,516.0,502.0
519.0,510.0,517.0,500.0
507.0,518.0,520.0,504.0
506.0,508.0,519.0,508.0
498.0,500.0,517.0,509.0
501.0,503.0,511.0,510.0
503.0,503.0,504.0,516.0
499.0,505.0,498.0,517.0
502.0,496.0,496.0,523.0
504.0,495.0,498.0,519.0
510.0,509.0,499.0,518.0
513.0,510.0,497.0,511.0
509.0,509.0,496.0,506.0
504.0,507.0,495.0,500.0
513.0,498.0,501.0,502.0
521.0,498.0,511.0,504.0
521.0,514.0,516.0,500.0
523.0,517.0,518.0,503.0
529.0,524.0,522.0,505.0
518.0,501.0,522.0,505.0
512.0,494.0,520.0,507.0
496.0,483.0,514.0,508.0
493.0,486.0,511.0,514.0
495.0,492.0,510.0,519.0
505.0,499.0,507.0,520.0
503.0,499.0,500.0,520.0
503.0,506.0,495.0,518.0
510.0,515.0,496.0,515.0
512.0,506.0,496.0,509.0
515.0,490.0,499.0,510.0
519.0,486.0,502.0,505.0
526.0,493.0,505.0,506.0
526.0,501.0,514.0,506.0
530.0,504.0,515.0,499.0
522.0,515.0,515.0,495.0
511.0,508.0,517.0,500.0
511.0,493.0,516.0,499.0
505.0,484.0,516.0,502.0
498.0,476.0,510.0,504.0
495.0,483.0,503.0,510.0
497.0,498.0,504.0,517.0
501.0,508.0,502.0,517.0
499.0,510.0,497.0,517.0
504.0,519.0,499.0,518.0
509.0,518.0,502.0,517.0
509.0,516.0,500.0,512.0
508.0,508.0,496.0,504.0
513.0,509.0,506.0,507.0
520.0,501.0,515.0,507.0
526.0,499.0,514.0,502.0
527.0,496.0,517.0,503.0
521.0,492.0,519.0,503.0
521.0,493.0,527.0,506.0
512.0,500.0,517.0,501.0
502.0,496.0,514.0,508.0
494.0,502.0,510.0,513.0
493.0,503.0,507.0,515.0
496.0,516.0,504.0,520.0
494.0,486.0,503.0,519.0
497.0,483.0,501.0,518.0
503.0,505.0,502.0,517.0
505.0,504.0,501.0,515.0
501.0,490.0,500.0,512.0
503.0,482.0,506.0,512.0
515.0,484.0,509.0,511.0
521.0,508.0,523.0,509.0
535.0,539.0,520.0,511.0
532.0,548.0,519.0,506.0
530.0,517.0,521.0,512.0
520.0,486.0,523.0,507.0
511.0,476.0,518.0,508.0
497.0,461.0,512.0,509.0
497.0,484.0,506.0,515.0
494.0,509.0,508.0,521.0
505.0,517.0,506.0,519.0
497.0,507.0,503.0,516.0
500.0,509.0,500.0,521.0
506.0,502.0,501.0,517.0
503.0,500.0,502.0,513.0
505.0,502.0,501.0,509.0
512.0,495.0,499.0,504.0
516.0,500.0,503.0,500.0
526.0,507.0,508.0,502.0
529.0,513.0,516.0,501.0
520.0,499.0,520.0,501.0
523.0,497.0,520.0,503.0
519.0,500.0,520.0,503.0
507.0,498.0,517.0,506.0
490.0,486.0,513.0,507.0
494.0,490.0,508.0,513.0
496.0,500.0,508.0,517.0
499.0,505.0,506.0,522.0
497.0,507.0,505.0,522.0
502.0,508.0,505.0,516.0
510.0,516.0,502.0,516.0
514.0,517.0,504.0,517.0
512.0,508.0,509.0,515.0
513.0,516.0,514.0,513.0
517.0,504.0,518.0,513.0
523.0,515.0,518.0,505.0
528.0,516.0,518.0,502.0
527.0,502.0,516.0,497.0
523.0,499.0,511.0,492.0
518.0,494.0,510.0,493.0
502.0,479.0,508.0,501.0
501.0,466.0,505.0,504.0
498.0,471.0,504.0,510.0
496.0,480.0,504.0,516.0
497.0,469.0,499.0,517.0
499.0,510.0,499.0,516.0
498.0,522.0,500.0,514.0
505.0,512.0,500.0,506.0
505.0,513.0,496.0,505.0
506.0,514.0,498.0,504.0
511.0,516.0,507.0,504.0
519.0,514.0,504.0,504.0
524.0,518.0,514.0,500.0
523.0,506.0,521.0,501.0
521.0,511.0,524.0,504.0
519.0,506.0,524.0,506.0
515.0,497.0,523.0,510.0
498.0,477.0,518.0,513.0
498.0,474.0,512.0,515.0
500.0,477.0,504.0,514.0
506.0,490.0,498.0,515.0
506.0,512.0,498.0,518.0
499.0,512.0,495.0,513.0
502.0,507.0,497.0,512.0
499.0,500.0,498.0,510.0
499.0,495.0,498.0,507.0
506.0,517.0,499.0,508.0
517.0,501.0,506.0,502.0
532.0,518.0,515.0,505.0
538.0,526.0,521.0,506.0
534.0,509.0,524.0,507.0
526.0,528.0,526.0,509.0
514.0,492.0,523.0,508.0
497.0,493.0,518.0,508.0
485.0,500.0,513.0,513.0
490.0,482.0,508.0,517.0
495.0,480.0,509.0,522.0
499.0,492.0,510.0,527.0
504.0,489.0,507.0,526.0
511.0,495.0,506.0,521.0
509.0,503.0,504.0,515.0
505.0,500.0,504.0,508.0
498.0,486.0,500.0,504.0
505.0,491.0,501.0,504.0
509.0,496.0,508.0,504.0
526.0,494.0,513.0,503.0
527.0,524.0,517.0,502.0
526.0,524.0,519.0,502.0
522.0,504.0,522.0,507.0
516.0,500.0,519.0,509.0
494.0,494.0,517.0,513.0
493.0,487.0,516.0,521.0
497.0,496.0,507.0,515.0
496.0,509.0,505.0,518.0
504.0,532.0,504.0,518.0
507.0,529.0,503.0,519.0
511.0,524.0,500.0,520.0
508.0,513.0,502.0,515.0
506.0,498.0,501.0,512.0
504.0,500.0,504.0,507.0
512.0,503.0,510.0,508.0
525.0,505.0,515.0,508.0
526.0,512.0,517.0,507.0
527.0,503.0,518.0,504.0
527.0,498.0,520.0,503.0
519.0,494.0,520.0,506.0
512.0,493.0,518.0,506.0
498.0,486.0,515.0,508.0
496.0,490.0,512.0,515.0
497.0,492.0,508.0,520.0
507.0,500.0,506.0,524.0
504.0,498.0,507.0,526.0
499.0,496.0,508.0,524.0
506.0,497.0,507.0,517.0
511.0,494.0,504.0,514.0
510.0,489.0,496.0,504.0
511.0,498.0,499.0,498.0
520.0,515.0,505.0,498.0
525.0,507.0,510.0,501.0
529.0,527.0,518.0,502.0
525.0,517.0,526.0,508.0
522.0,518.0,529.0,507.0
519.0,498.0,523.0,506.0
498.0,466.0,516.0,503.0
497.0,479.0,508.0,510.0
491.0,486.0,502.0,507.0
496.0,489.0,501.0,512.0
500.0,504.0,499.0,512.0
504.0,501.0,499.0,516.0
507.0,511.0,500.0,520.0
512.0,506.0,505.0,519.0
503.0,509.0,510.0,517.0
507.0,499.0,501.0,510.0
514.0,496.0,503.0,504.0
515.0,496.0,515.0,512.0
527.0,511.0,512.0,505.0
529.0,506.0,504.0,493.0
525.0,504.0,504.0,497.0
512.0,501.0,525.0,498.0
510.0,495.0,516.0,505.0
502.0,499.0,507.0,510.0
500.0,500.0,506.0,511.0
501.0,520.0,507.0,516.0
503.0,502.0,504.0,522.0
501.0,488.0,505.0,523.0
500.0,501.0,502.0,521.0
506.0,503.0,499.0,519.0
503.0,499.0,498.0,518.0
504.0,488.0,498.0,516.0
508.0,480.0,504.0,511.0
512.0,494.0,509.0,505.0
518.0,517.0,512.0,502.0
525.0,506.0,507.0,504.0
530.0,500.0,519.0,502.0
527.0,513.0,522.0,507.0
520.0,508.0,523.0,508.0
514.0,500.0,520.0,508.0
496.0,495.0,517.0,512.0
492.0,487.0,510.0,512.0
495.0,495.0,509.0,515.0
497.0,503.0,505.0,519.0
502.0,503.0,504.0,522.0
505.0,501.0,502.0,524.0
508.0,506.0,500.0,521.0
509.0,501.0,500.0,514.0
506.0,482.0,500.0,504.0
506.0,479.0,502.0,505.0
511.0,482.0,509.0,505.0
520.0,509.0,517.0,506.0
532.0,539.0,523.0,506.0
526.0,519.0,523.0,507.0
527.0,506.0,524.0,504.0
519.0,504.0,517.0,500.0
508.0,495.0,512.0,505.0
501.0,494.0,511.0,506.0
501.0,488.0,509.0,512.0
503.0,499.0,507.0,518.0
504.0,512.0,505.0,519.0
503.0,514.0,508.0,523.0
508.0,513.0,504.0,527.0
511.0,499.0,507.0,525.0
507.0,493.0,507.0,520.0
511.0,494.0,505.0,510.0
517.0,496.0,504.0,508.0
520.0,496.0,515.0,503.0
524.0,504.0,521.0,508.0
521.0,480.0,518.0,505.0
521.0,488.0,517.0,502.0
520.0,518.0,519.0,501.0
513.0,516.0,521.0,507.0
498.0,483.0,520.0,511.0
501.0,474.0,518.0,511.0
499.0,464.0,511.0,516.0
509.0,497.0,506.0,518.0
513.0,538.0,502.0,517.0
507.0,534.0,504.0,518.0
498.0,522.0,502.0,514.0
493.0,517.0,503.0,511.0
497.0,501.0,499.0,508.0
499.0,497.0,501.0,502.0
509.0,499.0,505.0,504.0
517.0,499.0,514.0,503.0
524.0,500.0,520.0,506.0
524.0,495.0,525.0,506.0
526.0,501.0,526.0,506.0
523.0,503.0,526.0,510.0
516.0,482.0,529.0,513.0
503.0,496.0,521.0,512.0
490.0,495.0,511.0,510.0
496.0,496.0,505.0,510.0
504.0,493.0,500.0,513.0
506.0,489.0,497.0,513.0
507.0,511.0,496.0,511.0
509.0,558.0,495.0,509.0
509.0,549.0,496.0,510.0
509.0,537.0,498.0,507.0
504.0,515.0,504.0,505.0
504.0,468.0,511.0,503.0
517.0,494.0,512.0,504.0
525.0,508.0,518.0,499.0
524.0,507.0,520.0,501.0
523.0,505.0,523.0,501.0
516.0,494.0,520.0,504.0
504.0,484.0,518.0,507.0
498.0,481.0,516.0,509.0
497.0,483.0,511.0,515.0
499.0,489.0,510.0,518.0
504.0,497.0,504.0,521.0
509.0,504.0,513.0,523.0
507.0,494.0,505.0,518.0
510.0,493.0,499.0,520.0
509.0,484.0,505.0,513.0
505.0,471.0,505.0,510.0
506.0,489.0,514.0,508.0
518.0,493.0,511.0,507.0
527.0,513.0,514.0,506.0
531.0,535.0,522.0,506.0
522.0,523.0,527.0,505.0
519.0,508.0,528.0,510.0
516.0,501.0,526.0,510.0
498.0,480.0,520.0,512.0
494.0,478.0,515.0,515.0
490.0,486.0,517.0,517.0
497.0,504.0,516.0,527.0
496.0,505.0,514.0,528.0
501.0,500.0,509.0,530.0
506.0,508.0,504.0,522.0
510.0,529.0,500.0,511.0
506.0,527.0,502.0,510.0
506.0,485.0,513.0,513.0
507.0,483.0,528.0,508.0
514.0,474.0,524.0,501.0
522.0,495.0,528.0,502.0
534.0,531.0,541.0,504.0
518.0,514.0,535.0,504.0
515.0,505.0,525.0,501.0
516.0,497.0,526.0,496.0
502.0,489.0,514.0,499.0
496.0,484.0,509.0,502.0
498.0,484.0,505.0,506.0
503.0,488.0,505.0,509.0
506.0,503.0,504.0,515.0
507.0,504.0,503.0,514.0
501.0,535.0,503.0,509.0
505.0,516.0,509.0,509.0
506.0,492.0,507.0,511.0
511.0,509.0,512.0,505.0
513.0,507.0,524.0,504.0
521.0,512.0,527.0,504.0
523.0,517.0,527.0,499.0
525.0,509.0,527.0,500.0
523.0,512.0,528.0,504.0
516.0,486.0,528.0,507.0
503.0,474.0,526.0,504.0
493.0,479.0,518.0,507.0
495.0,479.0,514.0,507.0
495.0,491.0,506.0,507.0
499.0,498.0,505.0,517.0
502.0,506.0,501.0,517.0
506.0,511.0,502.0,513.0
511.0,498.0,504.0,514.0
514.0,493.0,506.0,509.0
506.0,488.0,510.0,501.0
512.0,508.0,516.0,502.0
522.0,527.0,520.0,503.0
525.0,527.0,518.0,501.0
525.0,517.0,524.0,500.0
525.0,506.0,528.0,501.0
521.0,505.0,530.0,503.0
519.0,497.0,527.0,505.0
507.0,479.0,521.0,503.0
501.0,475.0,514.0,511.0
494.0,482.0,514.0,516.0
499.0,505.0,514.0,520.0
500.0,516.0,513.0,521.0
505.0,519.0,513.0,522.0
502.0,487.0,512.0,522.0
507.0,472.0,515.0,520.0
507.0,485.0,513.0,516.0
505.0,487.0,514.0,509.0
515.0,505.0,512.0,501.0
517.0,512.0,513.0,499.0
525.0,512.0,520.0,498.0
528.0,505.0,530.0,504.0
523.0,490.0,529.0,506.0
524.0,502.0,524.0,504.0
518.0,506.0,516.0,500.0
495.0,494.0,514.0,503.0
492.0,486.0,513.0,509.0
493.0,487.0,512.0,516.0
503.0,493.0,509.0,519.0
504.0,491.0,508.0,515.0
503.0,487.0,510.0,516.0
503.0,517.0,505.0,517.0
509.0,515.0,504.0,513.0
503.0,498.0,504.0,507.0
502.0,492.0,510.0,510.0
506.0,485.0,511.0,505.0
517.0,491.0,517.0,502.0
527.0,522.0,520.0,501.0
528.0,522.0,519.0,506.0
523.0,519.0,520.0,499.0
520.0,531.0,522.0,506.0
507.0,517.0,521.0,510.0
505.0,504.0,518.0,509.0
510.0,501.0,515.0,518.0
506.0,469.0,512.0,524.0
505.0,474.0,514.0,528.0
511.0,502.0,505.0,525.0
511.0,523.0,506.0,521.0
505.0,525.0,504.0,516.0
497.0,516.0,498.0,510.0
503.0,499.0,493.0,502.0
511.0,485.0,508.0,501.0
513.0,513.0,516.0,500.0
521.0,524.0,520.0,504.0
524.0,521.0,530.0,505.0
516.0,477.0,529.0,508.0
513.0,485.0,529.0,507.0
513.0,492.0,525.0,508.0
496.0,479.0,520.0,515.0
497.0,468.0,515.0,518.0
494.0,477.0,510.0,517.0
499.0,494.0,504.0,518.0
505.0,497.0,507.0,513.0
507.0,507.0,505.0,514.0
508.0,528.0,502.0,517.0
507.0,513.0,503.0,516.0
503.0,513.0,503.0,513.0
505.0,510.0,507.0,508.0
513.0,501.0,505.0,510.0
525.0,503.0,515.0,504.0
528.0,505.0,520.0,504.0
529.0,486.0,526.0,505.0
525.0,475.0,526.0,506.0
520.0,487.0,541.0,505.0
514.0,497.0,523.0,512.0
503.0,505.0,511.0,519.0
501.0,518.0,513.0,518.0
504.0,504.0,508.0,518.0
502.0,487.0,506.0,515.0
500.0,505.0,505.0,518.0
500.0,496.0,501.0,521.0
496.0,510.0,503.0,512.0
504.0,514.0,501.0,511.0
504.0,504.0,499.0,503.0
508.0,500.0,501.0,504.0
513.0,499.0,509.0,501.0
516.0,504.0,515.0,502.0
526.0,504.0,522.0,504.0
524.0,501.0,525.0,506.0
521.0,505.0,525.0,504.0
512.0,512.0,518.0,498.0
501.0,498.0,512.0,497.0
504.0,488.0,508.0,501.0
496.0,472.0,511.0,513.0
496.0,488.0,508.0,518.0
504.0,492.0,507.0,517.0
505.0,491.0,502.0,516.0
507.0,487.0,503.0,514.0
514.0,481.0,500.0,511.0
510.0,508.0,498.0,513.0
511.0,521.0,507.0,508.0
514.0,508.0,513.0,503.0
518.0,515.0,514.0,505.0
525.0,524.0,521.0,508.0
523.0,519.0,526.0,508.0
524.0,504.0,526.0,506.0
519.0,499.0,526.0,510.0
509.0,496.0,526.0,514.0
496.0,487.0,525.0,518.0
495.0,500.0,527.0,520.0
493.0,500.0,524.0,523.0
499.0,498.0,517.0,522.0
503.0,489.0,502.0,517.0
502.0,469.0,496.0,513.0
505.0,481.0,494.0,502.0
510.0,508.0,496.0,505.0
506.0,518.0,497.0,502.0
510.0,510.0,505.0,504.0
517.0,501.0,509.0,502.0
522.0,514.0,515.0,502.0
529.0,510.0,516.0,499.0
530.0,510.0,522.0,501.0
526.0,507.0,522.0,500.0
521.0,517.0,522.0,502.0
516.0,500.0,523.0,507.0
503.0,487.0,519.0,510.0
498.0,487.0,514.0,518.0
499.0,488.0,515.0,519.0
504.0,501.0,517.0,526.0
506.0,510.0,513.0,527.0
503.0,519.0,514.0,526.0
504.0,523.0,507.0,521.0
503.0,512.0,506.0,511.0
502.0,500.0,501.0,501.0
507.0,502.0,502.0,500.0
512.0,505.0,509.0,500.0
521.0,495.0,515.0,499.0
530.0,486.0,516.0,499.0
534.0,479.0,520.0,501.0
530.0,466.0,523.0,503.0
525.0,464.0,526.0,505.0
508.0,478.0,529.0,510.0
495.0,483.0,519.0,512.0
494.0,502.0,517.0,521.0
489.0,532.0,512.0,520.0
490.0,526.0,501.0,521.0
494.0,512.0,498.0,517.0
501.0,510.0,496.0,515.0
509.0,513.0,498.0,509.0
507.0,520.0,497.0,509.0
503.0,508.0,498.0,505.0
508.0,504.0,504.0,502.0
516.0,506.0,509.0,505.0
527.0,504.0,516.0,503.0
524.0,498.0,521.0,505.0
523.0,496.0,524.0,506.0
518.0,493.0,527.0,505.0
514.0,493.0,523.0,508.0
497.0,483.0,517.0,510.0
492.0,470.0,515.0,514.0
498.0,483.0,516.0,519.0
500.0,485.0,511.0,522.0
502.0,509.0,506.0,520.0
504.0,520.0,503.0,520.0
505.0,520.0,503.0,522.0
510.0,519.0,504.0,519.0
507.0,457.0,502.0,513.0
504.0,497.0,501.0,506.0
509.0,494.0,509.0,502.0
521.0,508.0,516.0,505.0
523.0,508.0,520.0,504.0
524.0,502.0,530.0,505.0
514.0,493.0,534.0,512.0
509.0,493.0,529.0,511.0
513.0,504.0,522.0,509.0
499.0,485.0,516.0,510.0
493.0,486.0,523.0,513.0
494.0,489.0,511.0,517.0
498.0,512.0,503.0,518.0
502.0,509.0,499.0,514.0
505.0,506.0,499.0,515.0
508.0,514.0,504.0,512.0
507.0,515.0,503.0,512.0
507.0,508.0,502.0,505.0
511.0,500.0,502.0,504.0
514.0,501.0,512.0,499.0
519.0,505.0,520.0,503.0
521.0,506.0,526.0,501.0
523.0,512.0,529.0,505.0
519.0,505.0,530.0,508.0
517.0,496.0,534.0,513.0
507.0,470.0,515.0,509.0
497.0,472.0,515.0,509.0
500.0,483.0,519.0,515.0
504.0,486.0,519.0,519.0
506.0,495.0,512.0,519.0
503.0,503.0,505.0,521.0
503.0,511.0,501.0,515.0
504.0,510.0,499.0,511.0
508.0,509.0,503.0,507.0
507.0,499.0,502.0,502.0
510.0,489.0,506.0,502.0
518.0,489.0,509.0,506.0
524.0,497.0,516.0,498.0
526.0,507.0,521.0,500.0
528.0,520.0,522.0,501.0
522.0,512.0,525.0,503.0
511.0,503.0,522.0,508.0
498.0,474.0,519.0,512.0
499.0,477.0,515.0,513.0
498.0,481.0,516.0,518.0
498.0,494.0,510.0,520.0
500.0,520.0,507.0,522.0
501.0,505.0,506.0,519.0
504.0,499.0,501.0,516.0
513.0,520.0,500.0,515.0
510.0,503.0,503.0,513.0
513.0,501.0,506.0,506.0
516.0,502.0,510.0,504.0
524.0,506.0,515.0,506.0
527.0,514.0,518.0,503.0
516.0,513.0,522.0,503.0
512.0,501.0,525.0,502.0
512.0,493.0,523.0,505.0
513.0,486.0,520.0,507.0
499.0,473.0,516.0,509.0
492.0,481.0,514.0,517.0
494.0,503.0,512.0,520.0
500.0,508.0,507.0,521.0
503.0,505.0,503.0,521.0
503.0,496.0,506.0,520.0
505.0,495.0,506.0,520.0
508.0,496.0,504.0,513.0
504.0,501.0,504.0,509.0
510.0,515.0,507.0,503.0
510.0,513.0,508.0,505.0
520.0,497.0,518.0,504.0
532.0,494.0,526.0,509.0
526.0,496.0,529.0,513.0
523.0,488.0,526.0,511.0
522.0,504.0,520.0,508.0
501.0,494.0,516.0,506.0
491.0,481.0,513.0,508.0
486.0,498.0,510.0,511.0
495.0,500.0,503.0,517.0
506.0,502.0,503.0,518.0
508.0,512.0,504.0,516.0
511.0,515.0,503.0,518.0
513.0,505.0,509.0,517.0
510.0,507.0,510.0,515.0
502.0,488.0,507.0,506.0
505.0,497.0,505.0,505.0
514.0,530.0,508.0,498.0
523.0,518.0,510.0,504.0
523.0,506.0,520.0,501.0
520.0,499.0,523.0,503.0
516.0,489.0,521.0,502.0
512.0,494.0,519.0,502.0
504.0,479.0,512.0,506.0
495.0,477.0,512.0,512.0
495.0,515.0,512.0,518.0
499.0,520.0,515.0,520.0
501.0,510.0,506.0,522.0
505.0,513.0,505.0,520.0
500.0,487.0,506.0,519.0
507.0,494.0,509.0,517.0
509.0,492.0,512.0,518.0
509.0,484.0,512.0,513.0
518.0,485.0,515.0,505.0
527.0,505.0,513.0,503.0
534.0,509.0,516.0,497.0
527.0,502.0,514.0,500.0
516.0,503.0,519.0,497.0
515.0,501.0,523.0,503.0
508.0,495.0,520.0,508.0
495.0,479.0,518.0,512.0
496.0,489.0,516.0,516.0
497.0,491.0,513.0,515.0
498.0,495.0,509.0,517.0
506.0,509.0,502.0,514.0
506.0,529.0,501.0,516.0
507.0,524.0,500.0,515.0
507.0,526.0,506.0,517.0
507.0,505.0,503.0,512.0
512.0,501.0,505.0,508.0
517.0,466.0,515.0,504.0
522.0,472.0,513.0,499.0
529.0,510.0,517.0,497.0
520.0,505.0,519.0,498.0
504.0,512.0,520.0,499.0
500.0,485.0,521.0,504.0
496.0,479.0,520.0,506.0
492.0,478.0,518.0,511.0
491.0,475.0,514.0,518.0
489.0,490.0,513.0,518.0
494.0,499.0,507.0,523.0
499.0,510.0,510.0,523.0
511.0,515.0,508.0,522.0
518.0,508.0,506.0,515.0
512.0,505.0,499.0,513.0
517.0,495.0,501.0,503.0
522.0,507.0,511.0,497.0
527.0,516.0,511.0,499.0
525.0,517.0,518.0,501.0
525.0,513.0,519.0,495.0
516.0,505.0,520.0,503.0
509.0,498.0,519.0,499.0
507.0,497.0,521.0,499.0
496.0,495.0,518.0,502.0
496.0,483.0,513.0,505.0
499.0,488.0,508.0,515.0
497.0,490.0,507.0,516.0
503.0,497.0,504.0,516.0
500.0,506.0,499.0,511.0
502.0,494.0,508.0,510.0
503.0,506.0,505.0,510.0
505.0,499.0,500.0,504.0
506.0,494.0,506.0,500.0
513.0,515.0,516.0,500.0
520.0,518.0,513.0,501.0
526.0,519.0,522.0,509.0
529.0,523.0,531.0,515.0
522.0,476.0,527.0,513.0
508.0,475.0,528.0,514.0
509.0,489.0,518.0,508.0
498.0,479.0,511.0,505.0
495.0,462.0,507.0,509.0
499.0,468.0,505.0,513.0
504.0,481.0,509.0,519.0
513.0,503.0,511.0,522.0
512.0,518.0,503.0,515.0
511.0,570.0,503.0,510.0
510.0,536.0,500.0,507.0
505.0,516.0,502.0,504.0
510.0,508.0,505.0,503.0
516.0,487.0,513.0,501.0
521.0,496.0,518.0,505.0
526.0,518.0,523.0,506.0
525.0,510.0,531.0,503.0
520.0,489.0,530.0,505.0
513.0,490.0,530.0,510.0
508.0,480.0,526.0,511.0
501.0,478.0,518.0,513.0
497.0,493.0,515.0,519.0
497.0,506.0,522.0,529.0
499.0,508.0,522.0,529.0
496.0,501.0,516.0,524.0
498.0,499.0,506.0,517.0
509.0,505.0,503.0,507.0
506.0,509.0,502.0,506.0
504.0,505.0,503.0,496.0
511.0,506.0,500.0,497.0
516.0,509.0,509.0,493.0
516.0,510.0,518.0,497.0
521.0,500.0,523.0,500.0
517.0,486.0,525.0,499.0
513.0,477.0,523.0,501.0
517.0,474.0,519.0,505.0
503.0,471.0,518.0,504.0
495.0,493.0,519.0,514.0
497.0,526.0,514.0,523.0
499.0,536.0,513.0,520.0
498.0,519.0,509.0,521.0
503.0,504.0,508.0,518.0
499.0,486.0,502.0,517.0
508.0,496.0,503.0,515.0
508.0,503.0,501.0,506.0
507.0,497.0,505.0,504.0
511.0,495.0,508.0,500.0
520.0,503.0,515.0,498.0
526.0,514.0,517.0,501.0
526.0,503.0,523.0,499.0
519.0,502.0,520.0,496.0
517.0,505.0,520.0,504.0
512.0,494.0,522.0,506.0
498.0,482.0,519.0,512.0
497.0,477.0,516.0,517.0
494.0,476.0,515.0,518.0
496.0,478.0,518.0,523.0
494.0,475.0,511.0,526.0
500.0,485.0,505.0,520.0
512.0,512.0,505.0,514.0
515.0,526.0,507.0,515.0
511.0,518.0,505.0,511.0
515.0,505.0,510.0,511.0
519.0,498.0,517.0,508.0
524.0,505.0,519.0,504.0
528.0,507.0,522.0,502.0
526.0,514.0,529.0,499.0
518.0,500.0,528.0,502.0
514.0,502.0,525.0,506.0
503.0,488.0,526.0,511.0
502.0,496.0,520.0,515.0
501.0,513.0,519.0,519.0
502.0,496.0,520.0,514.0
507.0,502.0,505.0,511.0
517.0,488.0,500.0,509.0
514.0,455.0,498.0,507.0
525.0,494.0,497.0,506.0
514.0,511.0,503.0,510.0
503.0,496.0,504.0,507.0
499.0,507.0,510.0,505.0
503.0,525.0,514.0,504.0
515.0,517.0,525.0,503.0
523.0,513.0,524.0,502.0
517.0,525.0,527.0,503.0
507.0,518.0,526.0,503.0
507.0,508.0,521.0,504.0
496.0,492.0,516.0,503.0
494.0,484.0,513.0,509.0
495.0,493.0,512.0,512.0
501.0,508.0,510.0,519.0
502.0,513.0,510.0,516.0
509.0,520.0,509.0,518.0
504.0,512.0,506.0,516.0
506.0,476.0,511.0,513.0
502.0,481.0,496.0,510.0
511.0,495.0,501.0,504.0
518.0,516.0,508.0,502.0
521.0,510.0,512.0,507.0
518.0,507.0,525.0,507.0
525.0,495.0,525.0,506.0
522.0,479.0,527.0,508.0
521.0,479.0,526.0,512.0
518.0,486.0,531.0,511.0
496.0,497.0,524.0,509.0
490.0,494.0,513.0,512.0
496.0,504.0,508.0,512.0
500.0,515.0,510.0,512.0
500.0,511.0,507.0,515.0
502.0,514.0,503.0,518.0
505.0,509.0,502.0,513.0
509.0,502.0,510.0,514.0
506.0,500.0,505.0,513.0
512.0,506.0,506.0,505.0
515.0,508.0,511.0,502.0
522.0,503.0,518.0,497.0
528.0,505.0,520.0,498.0
527.0,502.0,525.0,504.0
520.0,495.0,525.0,503.0
519.0,493.0,527.0,506.0
507.0,485.0,521.0,503.0
498.0,485.0,516.0,506.0
495.0,485.0,514.0,511.0
492.0,498.0,510.0,516.0
495.0,495.0,505.0,514.0
500.0,495.0,509.0,511.0
497.0,493.0,506.0,515.0
509.0,502.0,504.0,519.0
510.0,504.0,509.0,513.0
509.0,510.0,508.0,506.0
518.0,510.0,507.0,505.0
523.0,513.0,516.0,504.0
530.0,520.0,525.0,508.0
532.0,520.0,530.0,511.0
521.0,496.0,539.0,515.0
519.0,487.0,535.0,513.0
513.0,493.0,529.0,509.0
501.0,486.0,517.0,506.0
499.0,482.0,510.0,507.0
499.0,488.0,510.0,513.0
500.0,496.0,508.0,517.0
506.0,487.0,506.0,516.0
512.0,492.0,498.0,510.0
504.0,505.0,498.0,510.0
511.0,506.0,499.0,515.0
515.0,519.0,498.0,509.0
517.0,509.0,502.0,504.0
519.0,496.0,506.0,499.0
526.0,482.0,514.0,499.0
527.0,500.0,523.0,500.0
526.0,518.0,527.0,504.0
516.0,515.0,528.0,503.0
508.0,496.0,526.0,503.0
503.0,482.0,521.0,505.0
495.0,472.0,517.0,507.0
490.0,467.0,514.0,512.0
498.0,481.0,513.0,518.0
501.0,493.0,509.0,519.0
496.0,492.0,506.0,521.0
504.0,506.0,506.0,518.0
512.0,528.0,506.0,514.0
516.0,560.0,507.0,513.0
514.0,556.0,507.0,507.0
511.0,474.0,512.0,505.0
511.0,470.0,516.0,507.0
522.0,512.0,524.0,507.0
521.0,513.0,527.0,508.0
530.0,512.0,531.0,508.0
517.0,495.0,526.0,505.0
509.0,487.0,523.0,507.0
503.0,488.0,520.0,507.0
498.0,484.0,518.0,509.0
498.0,479.0,511.0,512.0
497.0,490.0,507.0,515.0
500.0,496.0,503.0,515.0
501.0,531.0,502.0,515.0
506.0,536.0,499.0,517.0
510.0,524.0,500.0,515.0
512.0,519.0,504.0,507.0
508.0,506.0,510.0,507.0
514.0,502.0,516.0,509.0
523.0,496.0,517.0,503.0
523.0,500.0,521.0,506.0
526.0,492.0,525.0,505.0
527.0,489.0,528.0,504.0
512.0,500.0,530.0,501.0
515.0,506.0,520.0,500.0
502.0,491.0,512.0,498.0
500.0,493.0,506.0,500.0
499.0,499.0,515.0,504.0
501.0,496.0,501.0,509.0
502.0,503.0,499.0,512.0
514.0,502.0,500.0,511.0
505.0,506.0,500.0,511.0
510.0,507.0,503.0,511.0
511.0,503.0,504.0,506.0
519.0,499.0,510.0,505.0
523.0,499.0,515.0,503.0
533.0,502.0,519.0,506.0
536.0,506.0,523.0,504.0
527.0,498.0,523.0,501.0
516.0,492.0,526.0,500.0
504.0,496.0,523.0,503.0
504.0,487.0,521.0,504.0
498.0,481.0,511.0,505.0
493.0,493.0,515.0,515.0
495.0,498.0,515.0,519.0
498.0,503.0,509.0,524.0
498.0,499.0,507.0,521.0
503.0,504.0,506.0,515.0
503.0,499.0,499.0,513.0
508.0,510.0,506.0,514.0
506.0,514.0,506.0,507.0
510.0,506.0,511.0,505.0
520.0,514.0,515.0,506.0
526.0,530.0,521.0,511.0
523.0,508.0,525.0,509.0
523.0,509.0,526.0,504.0
512.0,488.0,524.0,504.0
506.0,456.0,519.0,500.0
501.0,466.0,519.0,501.0
497.0,467.0,517.0,509.0
497.0,474.0,511.0,515.0
497.0,487.0,507.0,517.0
509.0,496.0,505.0,516.0
512.0,506.0,502.0,514.0
510.0,501.0,502.0,515.0
511.0,497.0,502.0,513.0
504.0,485.0,505.0,513.0
504.0,486.0,508.0,506.0
508.0,506.0,513.0,506.0
518.0,520.0,522.0,508.0
526.0,530.0,526.0,504.0
529.0,516.0,529.0,503.0
522.0,503.0,526.0,502.0
512.0,490.0,519.0,502.0
513.0,495.0,529.0,501.0
500.0,488.0,519.0,504.0
494.0,499.0,511.0,509.0
499.0,501.0,511.0,516.0
503.0,514.0,511.0,520.0
504.0,503.0,507.0,520.0
507.0,486.0,505.0,519.0
499.0,489.0,502.0,515.0
509.0,485.0,503.0,512.0
509.0,494.0,503.0,503.0
510.0,512.0,506.0,503.0
516.0,516.0,514.0,504.0
521.0,519.0,517.0,502.0
530.0,520.0,520.0,503.0
528.0,515.0,526.0,503.0
522.0,504.0,530.0,502.0
516.0,492.0,524.0,504.0
509.0,483.0,524.0,507.0
496.0,477.0,516.0,506.0
500.0,491.0,512.0,508.0
502.0,497.0,511.0,515.0
503.0,501.0,510.0,520.0
501.0,497.0,510.0,520.0
505.0,496.0,510.0,519.0
506.0,483.0,503.0,508.0
504.0,516.0,504.0,503.0
511.0,523.0,500.0,506.0
518.0,509.0,509.0,500.0
518.0,497.0,513.0,497.0
523.0,489.0,518.0,501.0
525.0,485.0,520.0,506.0
522.0,507.0,532.0,509.0
516.0,495.0,534.0,512.0
520.0,499.0,540.0,514.0
503.0,500.0,532.0,515.0
498.0,491.0,517.0,505.0
500.0,497.0,505.0,503.0
497.0,505.0,502.0,508.0
500.0,516.0,503.0,511.0
500.0,512.0,500.0,511.0
509.0,508.0,497.0,508.0
505.0,498.0,497.0,508.0
512.0,492.0,506.0,509.0
515.0,491.0,507.0,503.0
520.0,508.0,506.0,504.0
522.0,503.0,516.0,505.0
517.0,515.0,519.0,494.0
518.0,524.0,517.0,490.0
519.0,548.0,516.0,491.0
514.0,529.0,522.0,496.0
506.0,482.0,519.0,499.0
490.0,454.0,517.0,501.0
491.0,467.0,514.0,512.0
495.0,477.0,514.0,516.0
495.0,487.0,508.0,518.0
496.0,489.0,507.0,518.0
502.0,503.0,510.0,520.0
502.0,506.0,504.0,521.0
505.0,509.0,507.0,516.0
510.0,495.0,505.0,508.0
509.0,494.0,506.0,504.0
516.0,494.0,511.0,500.0
519.0,502.0,516.0,501.0
529.0,511.0,521.0,502.0
525.0,503.0,525.0,508.0
521.0,492.0,526.0,513.0
520.0,495.0,525.0,515.0
517.0,503.0,525.0,509.0
500.0,492.0,518.0,511.0
497.0,487.0,520.0,517.0
500.0,494.0,520.0,520.0
504.0,499.0,511.0,521.0
504.0,506.0,510.0,518.0
508.0,508.0,507.0,514.0
509.0,501.0,503.0,510.0
509.0,507.0,506.0,512.0
505.0,502.0,507.0,507.0
509.0,493.0,511.0,507.0
511.0,489.0,516.0,504.0
522.0,495.0,518.0,500.0
525.0,505.0,526.0,497.0
529.0,507.0,523.0,501.0
523.0,502.0,525.0,501.0
518.0,489.0,527.0,505.0
499.0,469.0,525.0,509.0
494.0,468.0,522.0,516.0
489.0,477.0,517.0,520.0
498.0,506.0,516.0,527.0
502.0,517.0,517.0,526.0
510.0,503.0,510.0,520.0
518.0,507.0,507.0,517.0
513.0,511.0,504.0,512.0
521.0,498.0,500.0,507.0
518.0,493.0,500.0,503.0
521.0,508.0,519.0,505.0
511.0,499.0,521.0,502.0
507.0,519.0,516.0,500.0
519.0,514.0,519.0,501.0
525.0,517.0,522.0,498.0
516.0,496.0,520.0,495.0
515.0,489.0,515.0,502.0
500.0,478.0,521.0,505.0
498.0,480.0,513.0,508.0
498.0,488.0,512.0,512.0
502.0,500.0,508.0,516.0
502.0,500.0,505.0,521.0
508.0,501.0,507.0,520.0
503.0,502.0,504.0,516.0
510.0,503.0,505.0,516.0
504.0,493.0,508.0,508.0
505.0,491.0,515.0,507.0
517.0,500.0,517.0,506.0
524.0,504.0,517.0,504.0
526.0,491.0,520.0,499.0
527.0,506.0,529.0,498.0
520.0,494.0,526.0,497.0
516.0,520.0,525.0,500.0
510.0,514.0,522.0,504.0
498.0,509.0,521.0,508.0
492.0,513.0,520.0,514.0
491.0,510.0,516.0,513.0
496.0,508.0,513.0,517.0
496.0,479.0,507.0,521.0
501.0,499.0,505.0,518.0
501.0,509.0,505.0,514.0
512.0,510.0,505.0,513.0
506.0,504.0,507.0,510.0
513.0,503.0,512.0,508.0
519.0,500.0,515.0,505.0
533.0,506.0,519.0,505.0
534.0,503.0,524.0,499.0
530.0,491.0,530.0,499.0
519.0,484.0,527.0,499.0
510.0,509.0,528.0,506.0
499.0,514.0,529.0,511.0
493.0,505.0,529.0,522.0
493.0,493.0,520.0,524.0
494.0,500.0,521.0,523.0
497.0,503.0,510.0,523.0
501.0,507.0,503.0,518.0
504.0,505.0,500.0,511.0
504.0,496.0,503.0,511.0
505.0,475.0,508.0,509.0
505.0,485.0,512.0,509.0
510.0,496.0,517.0,509.0
520.0,501.0,524.0,505.0
529.0,488.0,527.0,506.0
522.0,466.0,526.0,501.0
526.0,477.0,530.0,502.0
519.0,506.0,522.0,499.0
518.0,539.0,517.0,503.0
509.0,527.0,512.0,504.0
499.0,458.0,507.0,504.0
498.0,478.0,511.0,512.0
502.0,513.0,517.0,520.0
503.0,529.0,516.0,517.0
516.0,521.0,514.0,519.0
508.0,507.0,506.0,512.0
512.0,484.0,503.0,505.0
501.0,476.0,506.0,507.0
506.0,497.0,511.0,502.0
521.0,502.0,512.0,500.0
521.0,521.0,518.0,501.0
524.0,541.0,522.0,502.0
528.0,535.0,525.0,501.0
521.0,512.0,526.0,500.0
512.0,486.0,525.0,502.0
503.0,489.0,525.0,503.0
498.0,490.0,517.0,504.0
493.0,493.0,513.0,507.0
496.0,496.0,507.0,512.0
499.0,503.0,515.0,512.0
500.0,504.0,510.0,511.0
500.0,506.0,504.0,514.0
502.0,500.0,502.0,517.0
507.0,502.0,508.0,513.0
508.0,498.0,508.0,506.0
506.0,497.0,511.0,503.0
510.0,497.0,516.0,500.0
521.0,496.0,522.0,502.0
529.0,495.0,527.0,498.0
524.0,497.0,530.0,504.0
511.0,480.0,529.0,505.0
513.0,498.0,528.0,507.0
502.0,497.0,527.0,515.0
497.0,499.0,521.0,520.0
503.0,524.0,517.0,528.0
498.0,497.0,517.0,525.0
499.0,477.0,514.0,526.0
506.0,488.0,518.0,528.0
515.0,491.0,523.0,524.0
519.0,488.0,509.0,518.0
513.0,486.0,501.0,508.0
512.0,488.0,496.0,501.0
517.0,500.0,501.0,504.0
513.0,510.0,517.0,504.0
503.0,538.0,519.0,502.0
512.0,522.0,527.0,501.0
522.0,507.0,531.0,502.0
509.0,488.0,526.0,503.0
513.0,499.0,525.0,505.0
497.0,483.0,518.0,508.0
495.0,489.0,515.0,509.0
494.0,491.0,511.0,510.0
505.0,500.0,504.0,510.0
509.0,497.0,500.0,513.0
506.0,512.0,500.0,512.0
503.0,496.0,501.0,513.0
507.0,490.0,503.0,507.0
508.0,498.0,509.0,508.0
508.0,510.0,510.0,504.0
511.0,501.0,523.0,505.0
522.0,523.0,525.0,505.0
528.0,510.0,520.0,500.0
537.0,509.0,523.0,502.0
536.0,509.0,527.0,505.0
523.0,495.0,531.0,506.0
513.0,491.0,531.0,508.0
502.0,489.0,524.0,510.0
488.0,483.0,517.0,514.0
491.0,488.0,509.0,514.0
499.0,480.0,509.0,519.0
504.0,485.0,508.0,519.0
509.0,503.0,510.0,517.0
503.0,484.0,516.0,520.0
507.0,488.0,518.0,523.0
507.0,514.0,515.0,514.0
509.0,514.0,519.0,508.0
511.0,519.0,515.0,501.0
520.0,531.0,511.0,494.0
524.0,518.0,516.0,490.0
524.0,504.0,520.0,492.0
519.0,503.0,524.0,498.0
517.0,500.0,525.0,499.0
506.0,487.0,526.0,500.0
499.0,489.0,520.0,513.0
497.0,497.0,515.0,514.0
500.0,509.0,511.0,514.0
498.0,515.0,508.0,516.0
499.0,516.0,505.0,515.0
504.0,517.0,505.0,517.0
500.0,496.0,508.0,509.0
504.0,492.0,505.0,508.0
506.0,504.0,510.0,503.0
513.0,512.0,510.0,499.0
520.0,505.0,513.0,497.0
525.0,500.0,520.0,497.0
529.0,495.0,528.0,499.0
526.0,492.0,530.0,503.0
511.0,509.0,528.0,504.0
509.0,502.0,525.0,503.0
494.0,476.0,521.0,512.0
494.0,465.0,521.0,521.0
505.0,480.0,531.0,522.0
505.0,497.0,521.0,529.0
504.0,517.0,518.0,527.0
511.0,514.0,517.0,524.0
510.0,502.0,513.0,518.0
511.0,499.0,507.0,514.0
509.0,497.0,504.0,508.0
511.0,500.0,503.0,504.0
514.0,498.0,503.0,499.0
518.0,503.0,509.0,497.0
518.0,516.0,521.0,495.0
524.0,518.0,518.0,499.0
516.0,509.0,520.0,496.0
510.0,502.0,523.0,505.0
510.0,502.0,523.0,504.0
497.0,499.0,519.0,510.0
497.0,505.0,515.0,510.0
503.0,512.0,515.0,520.0
501.0,482.0,509.0,519.0
500.0,485.0,499.0,516.0
510.0,506.0,503.0,512.0
506.0,510.0,501.0,514.0
511.0,525.0,506.0,511.0
501.0,476.0,508.0,509.0
504.0,474.0,510.0,507.0
510.0,498.0,513.0,500.0
519.0,505.0,512.0,498.0
527.0,506.0,516.0,496.0
529.0,495.0,525.0,501.0
520.0,482.0,529.0,498.0
519.0,490.0,520.0,499.0
505.0,489.0,517.0,500.0
501.0,489.0,513.0,506.0
500.0,497.0,513.0,511.0
501.0,492.0,511.0,520.0
501.0,491.0,507.0,522.0
508.0,503.0,507.0,520.0
510.0,507.0,508.0,518.0
513.0,503.0,503.0,515.0
520.0,521.0,506.0,510.0
513.0,497.0,507.0,506.0
508.0,496.0,515.0,504.0
520.0,528.0,516.0,505.0
529.0,526.0,523.0,506.0
526.0,498.0,531.0,505.0
521.0,494.0,529.0,511.0
507.0,470.0,529.0,511.0
510.0,470.0,532.0,512.0
496.0,479.0,531.0,516.0
492.0,503.0,522.0,514.0
496.0,491.0,523.0,520.0
497.0,486.0,519.0,520.0
494.0,480.0,513.0,517.0
507.0,487.0,506.0,513.0
515.0,513.0,503.0,511.0
524.0,521.0,510.0,509.0
519.0,504.0,504.0,499.0
518.0,496.0,502.0,496.0
518.0,494.0,512.0,496.0
511.0,522.0,515.0,495.0
515.0,536.0,519.0,493.0
524.0,511.0,525.0,497.0
520.0,503.0,527.0,502.0
510.0,479.0,525.0,500.0
502.0,481.0,523.0,506.0
497.0,491.0,523.0,512.0
496.0,484.0,523.0,520.0
494.0,508.0,518.0,523.0
495.0,514.0,513.0,520.0
501.0,517.0,509.0,515.0
508.0,516.0,504.0,512.0
499.0,519.0,506.0,512.0
505.0,524.0,508.0,510.0
508.0,523.0,508.0,502.0
510.0,508.0,510.0,498.0
525.0,488.0,512.0,496.0
525.0,488.0,519.0,496.0
524.0,506.0,526.0,504.0
531.0,523.0,528.0,504.0
519.0,504.0,527.0,503.0
512.0,500.0,524.0,506.0
497.0,488.0,523.0,507.0
493.0,484.0,520.0,515.0
496.0,485.0,517.0,519.0
500.0,486.0,517.0,522.0
499.0,496.0,510.0,522.0
501.0,503.0,514.0,521.0
506.0,502.0,514.0,515.0
501.0,495.0,498.0,509.0
506.0,498.0,502.0,509.0
507.0,492.0,510.0,504.0
513.0,506.0,512.0,500.0
520.0,504.0,516.0,504.0
526.0,506.0,522.0,503.0
533.0,520.0,526.0,503.0
528.0,517.0,534.0,504.0
519.0,506.0,531.0,503.0
513.0,482.0,534.0,512.0
495.0,481.0,526.0,513.0
492.0,489.0,523.0,513.0
493.0,491.0,519.0,518.0
497.0,499.0,512.0,517.0
501.0,499.0,512.0,514.0
508.0,510.0,506.0,513.0
504.0,504.0,501.0,512.0
505.0,509.0,510.0,512.0
505.0,507.0,515.0,505.0
510.0,504.0,509.0,504.0
515.0,504.0,508.0,506.0
527.0,508.0,518.0,502.0
531.0,507.0,520.0,496.0
527.0,500.0,524.0,499.0
527.0,483.0,529.0,500.0
513.0,474.0,526.0,504.0
502.0,489.0,529.0,504.0
495.0,496.0,523.0,506.0
494.0,498.0,522.0,512.0
492.0,490.0,522.0,517.0
500.0,481.0,516.0,525.0
506.0,494.0,510.0,516.0
513.0,502.0,498.0,508.0
504.0,505.0,501.0,504.0
510.0,509.0,503.0,503.0
505.0,504.0,506.0,501.0
509.0,492.0,519.0,504.0
514.0,497.0,521.0,508.0
524.0,503.0,527.0,509.0
528.0,510.0,530.0,505.0
530.0,514.0,530.0,498.0
519.0,500.0,528.0,491.0
512.0,505.0,527.0,494.0
501.0,492.0,515.0,499.0
499.0,486.0,508.0,510.0
496.0,489.0,508.0,512.0
495.0,489.0,509.0,521.0
501.0,496.0,505.0,520.0
503.0,500.0,508.0,520.0
502.0,507.0,503.0,512.0
506.0,498.0,501.0,505.0
508.0,498.0,501.0,506.0
511.0,492.0,503.0,506.0
515.0,503.0,508.0,500.0
520.0,495.0,518.0,502.0
522.0,492.0,523.0,505.0
525.0,495.0,531.0,504.0
524.0,488.0,540.0,505.0
511.0,474.0,530.0,506.0
514.0,494.0,525.0,510.0
499.0,481.0,523.0,513.0
503.0,498.0,513.0,515.0
504.0,533.0,512.0,514.0
502.0,532.0,508.0,517.0
503.0,517.0,507.0,520.0
506.0,518.0,505.0,517.0
504.0,509.0,500.0,513.0
507.0,515.0,502.0,516.0
509.0,504.0,509.0,509.0
513.0,496.0,513.0,502.0
519.0,502.0,515.0,502.0
517.0,500.0,516.0,499.0
529.0,504.0,520.0,502.0
530.0,502.0,525.0,503.0
523.0,503.0,531.0,501.0
505.0,512.0,534.0,507.0
503.0,502.0,534.0,514.0
495.0,484.0,527.0,514.0
498.0,481.0,515.0,510.0
493.0,483.0,509.0,512.0
505.0,499.0,504.0,513.0
505.0,517.0,505.0,516.0
510.0,513.0,505.0,514.0
511.0,523.0,507.0,515.0
511.0,493.0,505.0,506.0
508.0,480.0,503.0,502.0
518.0,506.0,506.0,498.0
520.0,511.0,513.0,497.0
523.0,521.0,514.0,497.0
523.0,520.0,519.0,493.0
517.0,510.0,524.0,495.0
508.0,484.0,526.0,502.0
508.0,484.0,530.0,504.0
498.0,473.0,528.0,508.0
495.0,472.0,522.0,512.0
496.0,477.0,514.0,512.0
500.0,504.0,512.0,515.0
503.0,494.0,507.0,515.0
503.0,503.0,504.0,512.0
512.0,490.0,504.0,519.0
508.0,476.0,506.0,515.0
518.0,486.0,509.0,510.0
514.0,481.0,514.0,508.0
517.0,482.0,518.0,507.0
520.0,519.0,520.0,505.0
518.0,547.0,523.0,504.0
510.0,547.0,529.0,505.0
517.0,545.0,530.0,507.0
511.0,519.0,528.0,509.0
501.0,458.0,529.0,511.0
494.0,485.0,525.0,513.0
497.0,495.0,521.0,516.0
497.0,497.0,514.0,518.0
503.0,510.0,511.0,517.0
502.0,514.0,506.0,516.0
508.0,514.0,503.0,518.0
503.0,504.0,511.0,517.0
504.0,495.0,505.0,508.0
505.0,504.0,504.0,511.0
510.0,508.0,512.0,512.0
515.0,504.0,523.0,513.0
522.0,511.0,528.0,513.0
530.0,512.0,535.0,517.0
526.0,513.0,540.0,513.0
522.0,511.0,536.0,509.0
510.0,495.0,531.0,505.0
505.0,497.0,521.0,500.0
495.0,482.0,513.0,499.0
495.0,474.0,508.0,506.0
501.0,489.0,513.0,508.0
498.0,488.0,503.0,514.0
502.0,506.0,500.0,515.0
509.0,510.0,501.0,511.0
503.0,496.0,499.0,507.0
507.0,496.0,504.0,507.0
509.0,495.0,505.0,503.0
515.0,492.0,512.0,503.0
520.0,503.0,514.0,499.0
525.0,513.0,517.0,496.0
525.0,513.0,524.0,494.0
526.0,508.0,528.0,498.0
518.0,499.0,533.0,502.0
513.0,492.0,520.0,502.0
502.0,478.0,522.0,505.0
498.0,482.0,520.0,510.0
499.0,480.0,514.0,515.0
500.0,489.0,512.0,519.0
507.0,500.0,510.0,523.0
504.0,507.0,511.0,520.0
511.0,509.0,510.0,517.0
499.0,512.0,510.0,515.0
503.0,511.0,512.0,511.0
506.0,502.0,515.0,509.0
508.0,503.0,519.0,506.0
519.0,490.0,521.0,505.0
530.0,476.0,530.0,505.0
523.0,471.0,530.0,505.0
523.0,465.0,532.0,503.0
513.0,476.0,532.0,502.0
517.0,486.0,530.0,504.0
496.0,524.0,523.0,511.0
492.0,523.0,517.0,512.0
492.0,494.0,510.0,513.0
498.0,490.0,507.0,516.0
504.0,509.0,503.0,513.0
509.0,529.0,502.0,513.0
509.0,536.0,500.0,510.0
512.0,526.0,501.0,512.0
512.0,475.0,504.0,504.0
516.0,478.0,505.0,499.0
524.0,489.0,511.0,499.0
529.0,500.0,518.0,499.0
526.0,507.0,522.0,497.0
518.0,536.0,529.0,496.0
517.0,538.0,529.0,504.0
507.0,528.0,523.0,503.0
501.0,503.0,521.0,507.0
497.0,481.0,517.0,511.0
494.0,482.0,514.0,509.0
502.0,498.0,519.0,511.0
507.0,504.0,512.0,517.0
507.0,508.0,510.0,517.0
508.0,495.0,508.0,519.0
499.0,492.0,506.0,516.0
499.0,508.0,507.0,512.0
504.0,504.0,508.0,508.0
509.0,503.0,512.0,503.0
521.0,510.0,522.0,506.0
530.0,506.0,521.0,507.0
530.0,507.0,525.0,501.0
525.0,507.0,528.0,499.0
517.0,499.0,525.0,499.0
517.0,503.0,529.0,502.0
498.0,494.0,526.0,508.0
497.0,475.0,521.0,512.0
500.0,486.0,517.0,514.0
505.0,502.0,516.0,517.0
506.0,502.0,511.0,522.0
506.0,502.0,511.0,520.0
507.0,509.0,510.0,523.0
504.0,499.0,509.0,520.0
504.0,500.0,503.0,509.0
506.0,498.0,505.0,505.0
510.0,483.0,512.0,500.0
515.0,493.0,510.0,498.0
528.0,520.0,519.0,499.0
532.0,536.0,519.0,501.0
527.0,533.0,525.0,505.0
517.0,502.0,528.0,505.0
509.0,431.0,529.0,517.0
491.0,460.0,532.0,515.0
499.0,504.0,529.0,520.0
494.0,507.0,523.0,520.0
499.0,512.0,519.0,523.0
505.0,513.0,507.0,521.0
508.0,522.0,508.0,520.0
508.0,511.0,507.0,516.0
504.0,501.0,500.0,506.0
500.0,500.0,498.0,499.0
503.0,494.0,503.0,499.0
506.0,494.0,512.0,497.0
521.0,510.0,521.0,502.0
523.0,508.0,522.0,497.0
528.0,509.0,524.0,496.0
522.0,505.0,525.0,495.0
510.0,498.0,524.0,506.0
503.0,493.0,522.0,513.0
495.0,489.0,522.0,511.0
493.0,483.0,516.0,516.0
501.0,492.0,511.0,515.0
512.0,507.0,507.0,513.0
516.0,507.0,504.0,515.0
516.0,503.0,506.0,515.0
508.0,488.0,505.0,512.0
504.0,480.0,503.0,511.0
501.0,481.0,504.0,508.0
507.0,490.0,508.0,501.0
514.0,506.0,520.0,503.0
521.0,553.0,526.0,501.0
523.0,501.0,522.0,502.0
522.0,503.0,532.0,507.0
512.0,502.0,531.0,510.0
505.0,498.0,529.0,508.0
501.0,489.0,524.0,506.0
497.0,483.0,521.0,510.0
500.0,489.0,512.0,511.0
500.0,501.0,508.0,515.0
506.0,506.0,501.0,513.0
508.0,514.0,504.0,513.0
506.0,510.0,502.0,512.0
494.0,504.0,500.0,505.0
499.0,496.0,503.0,503.0
505.0,502.0,508.0,501.0
511.0,507.0,513.0,503.0
520.0,504.0,517.0,505.0
523.0,509.0,523.0,503.0
515.0,510.0,529.0,503.0
520.0,507.0,527.0,503.0
513.0,493.0,527.0,502.0
514.0,495.0,526.0,509.0
506.0,486.0,524.0,513.0
499.0,487.0,523.0,519.0
500.0,497.0,519.0,521.0
504.0,502.0,514.0,519.0
501.0,506.0,510.0,523.0
506.0,506.0,512.0,519.0
503.0,511.0,502.0,511.0
500.0,503.0,509.0,507.0
504.0,500.0,512.0,507.0
509.0,494.0,513.0,507.0
517.0,500.0,515.0,502.0
523.0,499.0,521.0,504.0
528.0,500.0,523.0,503.0
527.0,516.0,529.0,501.0
526.0,509.0,535.0,505.0
518.0,514.0,531.0,506.0
504.0,509.0,532.0,509.0
499.0,502.0,533.0,511.0
498.0,488.0,519.0,516.0
499.0,470.0,508.0,519.0
501.0,480.0,504.0,520.0
505.0,493.0,508.0,520.0
508.0,498.0,504.0,518.0
503.0,499.0,506.0,515.0
503.0,514.0,514.0,516.0
503.0,496.0,518.0,511.0
504.0,503.0,521.0,509.0
507.0,506.0,524.0,507.0
521.0,501.0,524.0,499.0
526.0,505.0,523.0,498.0
530.0,515.0,526.0,498.0
524.0,502.0,525.0,498.0
511.0,484.0,521.0,501.0
499.0,489.0,520.0,505.0
501.0,497.0,521.0,511.0
496.0,492.0,517.0,514.0
499.0,490.0,512.0,518.0
502.0,489.0,507.0,516.0
510.0,494.0,503.0,517.0
510.0,493.0,502.0,510.0
508.0,501.0,501.0,509.0
512.0,526.0,503.0,506.0
506.0,535.0,509.0,503.0
511.0,534.0,514.0,506.0
521.0,523.0,520.0,507.0
530.0,535.0,526.0,506.0
532.0,512.0,534.0,505.0
530.0,521.0,534.0,501.0
518.0,506.0,528.0,499.0
506.0,442.0,525.0,507.0
495.0,425.0,519.0,508.0
498.0,451.0,515.0,513.0
492.0,461.0,515.0,517.0
498.0,493.0,511.0,517.0
501.0,519.0,508.0,519.0
506.0,521.0,509.0,518.0
511.0,515.0,511.0,516.0
507.0,509.0,505.0,514.0
511.0,503.0,508.0,510.0
514.0,497.0,517.0,509.0
518.0,498.0,518.0,502.0
523.0,498.0,520.0,498.0
521.0,498.0,521.0,497.0
525.0,507.0,526.0,499.0
519.0,523.0,527.0,498.0
512.0,511.0,527.0,499.0
505.0,495.0,523.0,507.0
498.0,493.0,522.0,512.0
495.0,495.0,522.0,520.0
497.0,500.0,522.0,525.0
500.0,504.0,524.0,527.0
506.0,505.0,528.0,526.0
512.0,505.0,524.0,528.0
502.0,502.0,515.0,513.0
505.0,503.0,503.0,503.0
509.0,496.0,499.0,495.0
513.0,500.0,505.0,497.0
524.0,508.0,511.0,497.0
527.0,508.0,518.0,500.0
532.0,509.0,524.0,495.0
526.0,503.0,530.0,497.0
516.0,494.0,526.0,501.0
507.0,489.0,522.0,503.0
495.0,489.0,521.0,508.0
494.0,490.0,522.0,513.0
495.0,495.0,517.0,516.0
496.0,498.0,514.0,520.0
498.0,502.0,515.0,517.0
504.0,513.0,509.0,518.0
507.0,515.0,501.0,512.0
506.0,502.0,499.0,507.0
506.0,496.0,500.0,504.0
507.0,487.0,503.0,501.0
515.0,491.0,512.0,501.0
519.0,496.0,516.0,502.0
527.0,497.0,525.0,498.0
520.0,497.0,523.0,495.0
519.0,508.0,525.0,499.0
513.0,493.0,527.0,504.0
507.0,496.0,529.0,503.0
496.0,491.0,522.0,505.0
491.0,493.0,518.0,513.0
492.0,493.0,516.0,514.0
499.0,498.0,512.0,518.0
503.0,505.0,511.0,516.0
508.0,516.0,507.0,519.0
509.0,514.0,508.0,515.0
507.0,502.0,506.0,514.0
508.0,502.0,508.0,512.0
512.0,504.0,511.0,507.0
516.0,501.0,517.0,507.0
523.0,506.0,523.0,505.0
530.0,499.0,527.0,506.0
532.0,499.0,535.0,507.0
527.0,511.0,531.0,505.0
513.0,490.0,526.0,504.0
502.0,483.0,522.0,504.0
497.0,502.0,517.0,511.0
497.0,492.0,521.0,515.0
500.0,504.0,517.0,520.0
505.0,517.0,516.0,524.0
506.0,510.0,513.0,525.0
504.0,487.0,524.0,517.0
501.0,491.0,515.0,516.0
507.0,516.0,498.0,505.0
506.0,514.0,501.0,504.0
509.0,519.0,509.0,501.0
521.0,520.0,512.0,502.0
522.0,511.0,517.0,499.0
529.0,502.0,520.0,497.0
526.0,501.0,527.0,500.0
519.0,494.0,527.0,504.0
512.0,486.0,522.0,504.0
499.0,485.0,522.0,507.0
499.0,485.0,518.0,513.0
497.0,495.0,513.0,517.0
500.0,511.0,510.0,521.0
504.0,535.0,507.0,519.0
508.0,531.0,508.0,518.0
511.0,520.0,505.0,518.0
502.0,481.0,508.0,515.0
510.0,469.0,515.0,514.0
515.0,478.0,509.0,515.0
515.0,480.0,517.0,513.0
521.0,512.0,524.0,513.0
523.0,502.0,532.0,507.0
524.0,520.0,535.0,509.0
521.0,502.0,532.0,507.0
508.0,500.0,525.0,507.0
508.0,497.0,528.0,506.0
501.0,478.0,516.0,506.0
498.0,478.0,516.0,507.0
502.0,479.0,510.0,515.0
501.0,488.0,505.0,518.0
498.0,499.0,504.0,520.0
498.0,528.0,505.0,523.0
502.0,518.0,505.0,516.0
499.0,512.0,505.0,517.0
508.0,504.0,509.0,510.0
517.0,501.0,513.0,507.0
521.0,508.0,515.0,502.0
530.0,514.0,519.0,504.0
529.0,516.0,526.0,501.0
535.0,510.0,531.0,503.0
527.0,513.0,530.0,503.0
507.0,498.0,528.0,503.0
498.0,490.0,527.0,507.0
492.0,488.0,518.0,512.0
493.0,493.0,514.0,516.0
495.0,500.0,510.0,515.0
499.0,497.0,512.0,516.0
500.0,488.0,511.0,518.0
507.0,488.0,510.0,518.0
497.0,502.0,514.0,515.0
496.0,509.0,507.0,513.0
504.0,521.0,509.0,508.0
513.0,514.0,513.0,503.0
523.0,522.0,516.0,501.0
524.0,518.0,522.0,494.0
524.0,514.0,527.0,494.0
527.0,502.0,526.0,497.0
519.0,483.0,525.0,497.0
511.0,481.0,522.0,501.0
507.0,488.0,522.0,509.0
500.0,481.0,520.0,511.0
505.0,481.0,514.0,515.0
510.0,488.0,514.0,519.0
515.0,487.0,512.0,515.0
517.0,509.0,509.0,522.0
518.0,499.0,510.0,518.0
503.0,494.0,509.0,518.0
502.0,500.0,513.0,515.0
495.0,509.0,518.0,514.0
505.0,507.0,521.0,502.0
520.0,525.0,519.0,502.0
525.0,540.0,525.0,503.0
527.0,525.0,531.0,504.0
525.0,512.0,533.0,505.0
513.0,502.0,528.0,506.0
506.0,496.0,526.0,506.0
495.0,479.0,524.0,514.0
493.0,485.0,521.0,520.0
495.0,490.0,517.0,523.0
500.0,511.0,515.0,524.0
507.0,513.0,509.0,522.0
510.0,523.0,509.0,519.0
512.0,515.0,504.0,512.0
505.0,515.0,501.0,507.0
504.0,508.0,504.0,502.0
505.0,501.0,505.0,499.0
515.0,508.0,512.0,499.0
529.0,530.0,514.0,505.0
531.0,538.0,523.0,501.0
531.0,541.0,530.0,502.0
516.0,471.0,532.0,504.0
506.0,484.0,532.0,504.0
497.0,460.0,527.0,505.0
488.0,436.0,522.0,513.0
491.0,451.0,518.0,517.0
498.0,481.0,513.0,521.0
502.0,503.0,510.0,522.0
506.0,507.0,506.0,519.0
511.0,512.0,506.0,516.0
506.0,499.0,509.0,510.0
501.0,492.0,503.0,509.0
509.0,499.0,507.0,508.0
517.0,501.0,511.0,508.0
519.0,501.0,517.0,505.0
530.0,523.0,525.0,505.0
532.0,509.0,533.0,507.0
525.0,507.0,535.0,504.0
515.0,504.0,538.0,509.0
502.0,497.0,533.0,507.0
497.0,491.0,525.0,513.0
496.0,488.0,520.0,515.0
498.0,489.0,514.0,514.0
501.0,493.0,510.0,516.0
504.0,504.0,511.0,516.0
509.0,516.0,511.0,517.0
511.0,518.0,508.0,514.0
505.0,515.0,506.0,512.0
504.0,499.0,504.0,507.0
508.0,491.0,508.0,507.0
513.0,492.0,516.0,511.0
522.0,499.0,523.0,510.0
528.0,500.0,530.0,505.0
526.0,502.0,530.0,503.0
525.0,512.0,542.0,503.0
513.0,504.0,528.0,500.0
511.0,495.0,521.0,504.0
498.0,473.0,518.0,510.0
498.0,485.0,515.0,514.0
500.0,492.0,511.0,517.0
500.0,495.0,514.0,520.0
502.0,488.0,509.0,520.0
510.0,490.0,508.0,521.0
505.0,515.0,509.0,515.0
506.0,491.0,506.0,519.0
505.0,499.0,510.0,508.0
511.0,494.0,512.0,508.0
512.0,500.0,514.0,508.0
522.0,522.0,520.0,509.0
527.0,502.0,527.0,503.0
531.0,512.0,530.0,503.0
527.0,518.0,533.0,502.0
520.0,505.0,527.0,505.0
504.0,502.0,526.0,506.0
499.0,490.0,522.0,512.0
498.0,501.0,516.0,519.0
495.0,513.0,515.0,517.0
501.0,519.0,508.0,515.0
506.0,520.0,502.0,514.0
510.0,519.0,501.0,517.0
502.0,509.0,504.0,510.0
503.0,507.0,505.0,505.0
504.0,499.0,505.0,500.0
507.0,501.0,508.0,504.0
514.0,498.0,526.0,505.0
525.0,507.0,520.0,506.0
529.0,507.0,525.0,509.0
524.0,496.0,535.0,513.0
521.0,488.0,538.0,514.0
511.0,477.0,531.0,509.0
503.0,489.0,526.0,507.0
503.0,502.0,515.0,508.0
502.0,508.0,507.0,512.0
495.0,506.0,508.0,512.0
496.0,503.0,508.0,517.0
502.0,514.0,505.0,517.0
509.0,528.0,507.0,515.0
504.0,508.0,508.0,513.0
506.0,498.0,506.0,509.0
506.0,478.0,503.0,505.0
510.0,486.0,515.0,504.0
521.0,502.0,522.0,505.0
531.0,508.0,522.0,506.0
527.0,505.0,532.0,503.0
524.0,495.0,532.0,504.0
514.0,484.0,524.0,502.0
507.0,483.0,522.0,504.0
500.0,484.0,520.0,510.0
500.0,486.0,513.0,511.0
505.0,509.0,512.0,517.0
512.0,528.0,510.0,520.0
506.0,523.0,510.0,522.0
504.0,513.0,509.0,519.0
503.0,507.0,510.0,517.0
500.0,498.0,509.0,512.0
503.0,495.0,505.0,505.0
510.0,493.0,511.0,504.0
511.0,500.0,513.0,503.0
521.0,517.0,520.0,505.0
526.0,515.0,525.0,505.0
524.0,512.0,533.0,509.0
522.0,503.0,536.0,512.0
509.0,492.0,534.0,514.0
501.0,487.0,524.0,514.0
497.0,484.0,522.0,516.0
492.0,477.0,516.0,517.0
500.0,496.0,513.0,521.0
504.0,498.0,510.0,523.0
509.0,506.0,508.0,527.0
510.0,518.0,512.0,525.0
509.0,509.0,507.0,518.0
504.0,500.0,506.0,516.0
507.0,497.0,510.0,513.0
509.0,498.0,519.0,511.0
517.0,509.0,524.0,508.0
523.0,519.0,526.0,504.0
528.0,509.0,528.0,505.0
527.0,496.0,531.0,507.0
521.0,488.0,528.0,503.0
518.0,477.0,523.0,501.0
507.0,484.0,525.0,505.0
504.0,493.0,524.0,510.0
509.0,503.0,515.0,514.0
509.0,512.0,506.0,522.0
501.0,515.0,510.0,520.0
492.0,514.0,511.0,518.0
488.0,504.0,505.0,512.0
496.0,508.0,501.0,512.0
498.0,507.0,504.0,510.0
506.0,503.0,513.0,507.0
510.0,498.0,518.0,510.0
521.0,513.0,516.0,502.0
525.0,498.0,518.0,498.0
524.0,488.0,528.0,498.0
525.0,492.0,531.0,501.0
519.0,480.0,528.0,505.0
501.0,485.0,526.0,504.0
494.0,485.0,520.0,512.0
495.0,497.0,515.0,523.0
494.0,495.0,516.0,526.0
505.0,502.0,513.0,527.0
504.0,507.0,512.0,523.0
508.0,514.0,511.0,523.0
505.0,518.0,515.0,519.0
501.0,520.0,512.0,517.0
507.0,516.0,512.0,512.0
513.0,517.0,509.0,509.0
519.0,520.0,517.0,505.0
521.0,515.0,522.0,499.0
529.0,504.0,522.0,496.0
527.0,504.0,522.0,494.0
523.0,500.0,523.0,497.0
513.0,492.0,525.0,502.0
502.0,477.0,523.0,505.0
509.0,501.0,522.0,511.0
507.0,525.0,516.0,520.0
500.0,548.0,519.0,524.0
510.0,564.0,515.0,525.0
503.0,471.0,514.0,522.0
501.0,464.0,505.0,516.0
493.0,492.0,503.0,512.0
493.0,492.0,503.0,507.0
508.0,491.0,507.0,505.0
509.0,495.0,513.0,504.0
516.0,490.0,516.0,505.0
526.0,484.0,526.0,506.0
529.0,479.0,534.0,507.0
524.0,489.0,533.0,507.0
515.0,505.0,532.0,509.0
508.0,500.0,533.0,509.0
503.0,504.0,530.0,518.0
499.0,503.0,526.0,521.0
500.0,508.0,514.0,518.0
500.0,514.0,508.0,521.0
504.0,519.0,505.0,517.0
508.0,524.0,506.0,517.0
509.0,525.0,507.0,513.0
506.0,495.0,501.0,511.0
502.0,501.0,506.0,509.0
506.0,501.0,514.0,506.0
517.0,507.0,517.0,504.0
526.0,498.0,522.0,501.0
524.0,498.0,518.0,501.0
518.0,489.0,524.0,506.0
528.0,504.0,527.0,509.0
521.0,496.0,523.0,506.0
505.0,483.0,532.0,504.0
497.0,508.0,519.0,511.0
492.0,509.0,514.0,511.0
501.0,516.0,513.0,517.0
503.0,504.0,508.0,519.0
502.0,487.0,507.0,517.0
505.0,493.0,508.0,519.0
505.0,484.0,510.0,519.0
504.0,484.0,504.0,515.0
500.0,485.0,510.0,510.0
508.0,497.0,514.0,499.0
513.0,519.0,512.0,498.0
515.0,526.0,518.0,501.0
527.0,525.0,527.0,498.0
526.0,519.0,526.0,503.0
521.0,511.0,525.0,505.0
513.0,497.0,524.0,509.0
500.0,487.0,523.0,507.0
496.0,486.0,525.0,511.0
498.0,488.0,520.0,516.0
497.0,493.0,518.0,519.0
503.0,502.0,514.0,523.0
502.0,510.0,507.0,519.0
506.0,513.0,509.0,518.0
503.0,514.0,504.0,513.0
503.0,509.0,503.0,510.0
506.0,503.0,503.0,509.0
513.0,499.0,511.0,508.0
521.0,502.0,518.0,508.0
526.0,510.0,518.0,506.0
524.0,512.0,525.0,501.0
526.0,516.0,528.0,503.0
521.0,500.0,529.0,507.0
506.0,474.0,528.0,506.0
499.0,475.0,526.0,514.0
492.0,492.0,525.0,517.0
501.0,496.0,520.0,520.0
503.0,495.0,515.0,522.0
501.0,498.0,509.0,520.0
509.0,502.0,506.0,518.0
510.0,510.0,505.0,521.0
504.0,509.0,505.0,512.0
511.0,494.0,505.0,510.0
512.0,495.0,509.0,509.0
515.0,502.0,516.0,509.0
526.0,510.0,519.0,506.0
530.0,512.0,525.0,504.0
526.0,515.0,526.0,506.0
524.0,517.0,531.0,505.0
513.0,505.0,539.0,504.0
504.0,490.0,531.0,510.0
492.0,485.0,528.0,513.0
494.0,490.0,521.0,519.0
497.0,492.0,512.0,528.0
501.0,492.0,509.0,526.0
500.0,496.0,508.0,523.0
508.0,514.0,508.0,518.0
509.0,515.0,515.0,520.0
506.0,503.0,517.0,519.0
513.0,496.0,518.0,515.0
513.0,491.0,516.0,510.0
508.0,500.0,514.0,508.0
516.0,534.0,521.0,509.0
524.0,536.0,520.0,500.0
527.0,545.0,521.0,491.0
520.0,522.0,518.0,486.0
508.0,473.0,516.0,491.0
497.0,469.0,518.0,498.0
495.0,476.0,515.0,503.0
494.0,485.0,510.0,512.0
497.0,497.0,507.0,512.0
503.0,514.0,504.0,512.0
507.0,515.0,503.0,516.0
509.0,516.0,501.0,513.0
506.0,496.0,501.0,512.0
500.0,460.0,500.0,507.0
502.0,476.0,505.0,506.0
514.0,495.0,512.0,506.0
517.0,500.0,519.0,507.0
518.0,525.0,530.0,506.0
529.0,527.0,533.0,507.0
530.0,527.0,535.0,507.0
523.0,506.0,529.0,502.0
517.0,487.0,524.0,502.0
500.0,476.0,527.0,506.0
499.0,481.0,516.0,512.0
501.0,498.0,513.0,517.0
514.0,517.0,512.0,525.0
523.0,520.0,509.0,526.0
524.0,499.0,509.0,521.0
511.0,447.0,506.0,515.0
511.0,500.0,502.0,511.0
500.0,507.0,502.0,514.0
479.0,525.0,505.0,507.0
497.0,536.0,513.0,506.0
516.0,519.0,520.0,506.0
522.0,499.0,528.0,504.0
524.0,492.0,534.0,507.0
526.0,497.0,545.0,513.0
519.0,507.0,540.0,519.0
506.0,510.0,536.0,518.0
498.0,499.0,522.0,513.0
497.0,494.0,514.0,516.0
499.0,493.0,511.0,519.0
500.0,491.0,512.0,518.0
502.0,501.0,511.0,520.0
509.0,512.0,513.0,520.0
504.0,523.0,512.0,519.0
503.0,518.0,505.0,516.0
501.0,510.0,506.0,506.0
511.0,504.0,502.0,500.0
520.0,510.0,513.0,496.0
527.0,514.0,517.0,498.0
529.0,504.0,520.0,499.0
532.0,509.0,528.0,502.0
523.0,504.0,526.0,503.0
507.0,492.0,527.0,504.0
497.0,478.0,523.0,509.0
493.0,476.0,522.0,513.0
488.0,480.0,517.0,519.0
496.0,503.0,516.0,520.0
501.0,521.0,514.0,522.0
505.0,519.0,511.0,524.0
510.0,508.0,514.0,519.0
511.0,502.0,509.0,518.0
510.0,492.0,505.0,511.0
508.0,500.0,505.0,504.0
518.0,514.0,510.0,499.0
522.0,523.0,514.0,500.0
528.0,521.0,516.0,501.0
524.0,513.0,527.0,510.0
520.0,510.0,541.0,505.0
513.0,499.0,526.0,508.0
507.0,509.0,522.0,502.0
499.0,501.0,519.0,508.0
499.0,503.0,515.0,509.0
499.0,507.0,513.0,514.0
496.0,472.0,514.0,522.0
501.0,477.0,515.0,524.0
506.0,504.0,510.0,524.0
505.0,512.0,508.0,521.0
498.0,506.0,509.0,519.0
502.0,499.0,506.0,513.0
506.0,499.0,508.0,508.0
516.0,495.0,520.0,507.0
522.0,507.0,525.0,503.0
524.0,512.0,531.0,508.0
528.0,508.0,534.0,504.0
526.0,494.0,528.0,500.0
519.0,485.0,525.0,503.0
505.0,468.0,526.0,506.0
500.0,461.0,520.0,514.0
489.0,485.0,517.0,519.0
497.0,510.0,513.0,524.0
503.0,523.0,510.0,523.0
505.0,525.0,508.0,522.0
507.0,532.0,505.0,517.0
511.0,533.0,505.0,515.0
504.0,506.0,504.0,513.0
506.0,498.0,505.0,508.0
514.0,503.0,512.0,509.0
517.0,502.0,515.0,512.0
523.0,505.0,532.0,510.0
526.0,506.0,527.0,505.0
524.0,504.0,531.0,504.0
519.0,493.0,535.0,508.0
512.0,485.0,531.0,512.0
498.0,473.0,530.0,513.0
498.0,484.0,527.0,520.0
499.0,491.0,521.0,518.0
502.0,498.0,514.0,518.0
505.0,514.0,508.0,519.0
507.0,512.0,501.0,518.0
512.0,514.0,501.0,513.0
513.0,517.0,503.0,512.0
513.0,514.0,506.0,510.0
517.0,503.0,506.0,514.0
519.0,498.0,509.0,504.0
513.0,481.0,512.0,501.0
522.0,498.0,523.0,500.0
525.0,519.0,527.0,500.0
524.0,524.0,532.0,502.0
517.0,521.0,529.0,504.0
508.0,502.0,524.0,506.0
490.0,472.0,520.0,513.0
492.0,476.0,518.0,516.0
496.0,487.0,518.0,522.0
499.0,491.0,517.0,525.0
504.0,503.0,517.0,526.0
507.0,509.0,513.0,522.0
507.0,502.0,505.0,518.0
505.0,514.0,504.0,516.0
508.0,515.0,502.0,505.0
506.0,517.0,503.0,501.0
511.0,516.0,508.0,498.0
522.0,521.0,516.0,495.0
525.0,511.0,520.0,494.0
521.0,499.0,528.0,502.0
521.0,502.0,531.0,508.0
514.0,510.0,527.0,514.0
509.0,495.0,530.0,512.0
506.0,481.0,522.0,513.0
505.0,484.0,517.0,513.0
500.0,490.0,511.0,516.0
502.0,510.0,508.0,520.0
504.0,511.0,506.0,520.0
499.0,520.0,502.0,519.0
496.0,523.0,500.0,513.0
499.0,510.0,503.0,512.0
508.0,510.0,507.0,508.0
515.0,510.0,513.0,508.0
522.0,536.0,517.0,509.0
528.0,539.0,523.0,504.0
531.0,521.0,527.0,504.0
530.0,482.0,529.0,502.0
515.0,478.0,527.0,508.0
511.0,506.0,528.0,507.0
502.0,513.0,524.0,513.0
497.0,511.0,522.0,515.0
502.0,509.0,513.0,522.0
505.0,493.0,512.0,528.0
506.0,488.0,510.0,529.0
506.0,511.0,506.0,528.0
503.0,522.0,513.0,523.0
502.0,505.0,512.0,519.0
495.0,500.0,507.0,518.0
499.0,500.0,512.0,514.0
507.0,488.0,518.0,507.0
516.0,487.0,524.0,507.0
526.0,496.0,524.0,503.0
525.0,498.0,521.0,502.0
525.0,499.0,523.0,500.0
522.0,502.0,525.0,501.0
510.0,496.0,519.0,498.0
499.0,486.0,516.0,505.0
493.0,483.0,513.0,512.0
499.0,488.0,513.0,518.0
498.0,490.0,515.0,521.0
500.0,492.0,508.0,522.0
507.0,505.0,508.0,521.0
506.0,512.0,511.0,521.0
506.0,505.0,509.0,516.0
503.0,516.0,500.0,511.0
506.0,510.0,506.0,504.0
509.0,506.0,514.0,504.0
525.0,507.0,519.0,504.0
527.0,510.0,525.0,504.0
526.0,508.0,529.0,506.0
522.0,505.0,531.0,506.0
518.0,500.0,532.0,508.0
503.0,485.0,529.0,509.0
497.0,486.0,526.0,512.0
494.0,490.0,529.0,518.0
496.0,489.0,520.0,517.0
501.0,492.0,510.0,521.0
502.0,493.0,508.0,522.0
508.0,504.0,512.0,527.0
506.0,525.0,506.0,514.0
504.0,520.0,501.0,508.0
505.0,513.0,505.0,506.0
510.0,515.0,514.0,500.0
513.0,508.0,511.0,507.0
517.0,510.0,516.0,501.0
521.0,502.0,522.0,501.0
526.0,506.0,528.0,504.0
520.0,495.0,531.0,504.0
511.0,492.0,523.0,507.0
498.0,480.0,526.0,510.0
492.0,490.0,519.0,513.0
495.0,492.0,523.0,521.0
501.0,495.0,516.0,525.0
501.0,501.0,515.0,523.0
507.0,506.0,506.0,522.0
512.0,512.0,502.0,518.0
510.0,512.0,504.0,516.0
508.0,513.0,502.0,518.0
511.0,507.0,507.0,511.0
513.0,502.0,514.0,511.0
524.0,504.0,522.0,508.0
525.0,486.0,522.0,506.0
526.0,490.0,531.0,500.0
534.0,503.0,533.0,505.0
524.0,489.0,532.0,510.0
519.0,470.0,526.0,509.0
503.0,459.0,524.0,515.0
497.0,460.0,519.0,516.0
496.0,475.0,512.0,521.0
497.0,525.0,509.0,520.0
501.0,512.0,504.0,517.0
507.0,510.0,504.0,516.0
512.0,521.0,502.0,511.0
507.0,509.0,503.0,508.0
502.0,509.0,500.0,511.0
512.0,531.0,507.0,506.0
511.0,530.0,512.0,509.0
519.0,536.0,518.0,506.0
523.0,521.0,529.0,502.0
524.0,512.0,535.0,507.0
526.0,509.0,541.0,513.0
515.0,503.0,540.0,514.0
505.0,491.0,532.0,511.0
503.0,485.0,521.0,513.0
500.0,487.0,515.0,520.0
495.0,497.0,512.0,523.0
501.0,506.0,510.0,525.0
507.0,513.0,509.0,524.0
513.0,520.0,510.0,523.0
510.0,516.0,510.0,517.0
499.0,509.0,512.0,518.0
507.0,495.0,513.0,514.0
509.0,509.0,516.0,510.0
522.0,513.0,518.0,502.0
526.0,515.0,516.0,494.0
526.0,518.0,521.0,493.0
521.0,502.0,525.0,494.0
516.0,495.0,523.0,499.0
514.0,506.0,518.0,503.0
497.0,493.0,517.0,505.0
496.0,495.0,521.0,513.0
495.0,510.0,516.0,516.0
500.0,512.0,513.0,521.0
501.0,517.0,514.0,524.0
507.0,509.0,512.0,520.0
506.0,476.0,503.0,515.0
507.0,495.0,505.0,508.0
504.0,492.0,502.0,505.0
504.0,494.0,504.0,504.0
517.0,504.0,512.0,506.0
527.0,516.0,518.0,507.0
529.0,514.0,527.0,509.0
529.0,505.0,534.0,511.0
521.0,478.0,541.0,508.0
511.0,478.0,534.0,507.0
502.0,491.0,530.0,510.0
493.0,479.0,518.0,508.0
493.0,485.0,523.0,519.0
498.0,506.0,513.0,516.0
499.0,506.0,504.0,515.0
502.0,507.0,506.0,512.0
510.0,524.0,504.0,513.0
511.0,517.0,501.0,516.0
514.0,512.0,503.0,514.0
510.0,482.0,502.0,506.0
517.0,489.0,505.0,504.0
515.0,511.0,513.0,506.0
526.0,520.0,521.0,505.0
530.0,521.0,526.0,505.0
515.0,509.0,533.0,506.0
517.0,504.0,536.0,510.0
514.0,495.0,535.0,512.0
506.0,488.0,528.0,511.0
497.0,494.0,515.0,511.0
491.0,509.0,511.0,513.0
495.0,499.0,504.0,513.0
499.0,516.0,505.0,517.0
499.0,515.0,504.0,519.0
505.0,513.0,507.0,517.0
506.0,505.0,503.0,515.0
504.0,506.0,503.0,509.0
508.0,502.0,500.0,506.0
512.0,514.0,510.0,504.0
515.0,526.0,514.0,503.0
523.0,495.0,522.0,502.0
522.0,501.0,525.0,506.0
527.0,507.0,531.0,505.0
522.0,489.0,534.0,509.0
515.0,478.0,529.0,508.0
502.0,467.0,523.0,512.0
492.0,477.0,520.0,515.0
494.0,503.0,516.0,520.0
503.0,509.0,514.0,523.0
504.0,506.0,511.0,525.0
505.0,499.0,511.0,526.0
508.0,515.0,514.0,523.0
507.0,530.0,515.0,524.0
502.0,527.0,512.0,522.0
507.0,516.0,521.0,521.0
515.0,506.0,526.0,513.0
520.0,504.0,525.0,507.0
527.0,502.0,522.0,497.0
523.0,517.0,522.0,498.0
518.0,512.0,528.0,502.0
518.0,507.0,524.0,498.0
510.0,503.0,521.0,503.0
501.0,495.0,517.0,505.0
498.0,498.0,516.0,510.0
496.0,499.0,515.0,519.0
505.0,504.0,513.0,522.0
501.0,492.0,511.0,521.0
506.0,509.0,505.0,518.0
504.0,502.0,502.0,511.0
500.0,507.0,498.0,514.0
501.0,505.0,513.0,504.0
509.0,516.0,514.0,504.0
517.0,521.0,504.0,504.0
523.0,524.0,521.0,504.0
525.0,523.0,522.0,505.0
519.0,481.0,526.0,503.0
516.0,483.0,529.0,504.0
510.0,477.0,531.0,510.0
502.0,476.0,528.0,511.0
495.0,478.0,521.0,516.0
496.0,481.0,519.0,518.0
497.0,501.0,517.0,525.0
501.0,503.0,516.0,527.0
510.0,504.0,508.0,526.0
511.0,510.0,506.0,521.0
509.0,514.0,506.0,515.0
508.0,513.0,506.0,513.0
508.0,505.0,506.0,509.0
511.0,505.0,513.0,510.0
516.0,498.0,514.0,501.0
527.0,494.0,521.0,503.0
528.0,491.0,525.0,503.0
525.0,499.0,527.0,505.0
523.0,497.0,530.0,505.0
523.0,509.0,528.0,507.0
502.0,493.0,522.0,510.0
495.0,484.0,520.0,516.0
498.0,492.0,517.0,520.0
495.0,507.0,513.0,522.0
499.0,509.0,513.0,524.0
507.0,521.0,505.0,525.0
509.0,521.0,505.0,523.0
508.0,510.0,509.0,521.0
506.0,504.0,509.0,519.0
511.0,511.0,504.0,513.0
510.0,509.0,513.0,512.0
521.0,509.0,513.0,501.0
526.0,511.0,520.0,500.0
531.0,506.0,525.0,505.0
528.0,498.0,534.0,506.0
515.0,494.0,533.0,512.0
512.0,483.0,530.0,513.0
500.0,479.0,526.0,515.0
496.0,490.0,521.0,517.0
496.0,496.0,515.0,523.0
496.0,508.0,518.0,524.0
503.0,508.0,518.0,522.0
511.0,508.0,501.0,518.0
513.0,515.0,504.0,516.0
509.0,502.0,507.0,513.0
510.0,506.0,504.0,508.0
510.0,507.0,508.0,511.0
509.0,512.0,515.0,506.0
518.0,502.0,518.0,505.0
525.0,512.0,526.0,505.0
528.0,497.0,530.0,505.0
524.0,488.0,531.0,509.0
518.0,493.0,527.0,511.0
502.0,480.0,526.0,518.0
488.0,478.0,522.0,516.0
492.0,491.0,515.0,518.0
492.0,500.0,510.0,520.0
498.0,506.0,506.0,521.0
503.0,521.0,502.0,521.0
512.0,538.0,502.0,517.0
507.0,529.0,499.0,514.0
505.0,494.0,498.0,513.0
507.0,468.0,503.0,512.0
517.0,473.0,515.0,513.0
519.0,478.0,524.0,517.0
522.0,520.0,543.0,517.0
528.0,557.0,541.0,509.0
531.0,541.0,533.0,506.0
528.0,540.0,523.0,499.0
520.0,510.0,516.0,500.0
507.0,449.0,517.0,505.0
510.0,480.0,509.0,507.0
513.0,485.0,507.0,514.0
508.0,496.0,507.0,521.0
505.0,505.0,507.0,522.0
502.0,508.0,511.0,525.0
489.0,513.0,513.0,521.0
486.0,507.0,506.0,517.0
499.0,504.0,501.0,512.0
504.0,509.0,501.0,507.0
507.0,509.0,502.0,499.0
510.0,511.0,506.0,498.0
525.0,525.0,515.0,494.0
528.0,516.0,521.0,498.0
524.0,520.0,525.0,504.0
515.0,511.0,527.0,501.0
507.0,503.0,521.0,504.0
499.0,491.0,515.0,510.0
497.0,493.0,514.0,516.0
494.0,493.0,513.0,520.0
497.0,507.0,514.0,521.0
501.0,508.0,515.0,523.0
505.0,519.0,512.0,525.0
505.0,514.0,510.0,520.0
509.0,513.0,505.0,514.0
506.0,506.0,504.0,514.0
511.0,502.0,511.0,509.0
509.0,502.0,515.0,508.0
522.0,505.0,525.0,507.0
526.0,499.0,529.0,506.0
529.0,501.0,534.0,507.0
527.0,495.0,533.0,509.0
515.0,491.0,531.0,509.0
504.0,483.0,534.0,515.0
496.0,486.0,531.0,521.0
495.0,491.0,520.0,522.0
499.0,478.0,514.0,523.0
503.0,473.0,503.0,524.0
509.0,485.0,503.0,519.0
517.0,525.0,502.0,514.0
508.0,534.0,500.0,509.0
512.0,526.0,499.0,513.0
512.0,519.0,501.0,504.0
507.0,510.0,504.0,509.0
508.0,509.0,518.0,507.0
522.0,517.0,528.0,510.0
524.0,508.0,536.0,510.0
525.0,510.0,540.0,511.0
519.0,503.0,535.0,510.0
516.0,505.0,524.0,507.0
501.0,491.0,516.0,503.0
501.0,489.0,514.0,507.0
498.0,493.0,508.0,515.0
502.0,500.0,514.0,520.0
507.0,512.0,508.0,518.0
512.0,521.0,503.0,515.0
515.0,523.0,498.0,518.0
502.0,497.0,508.0,510.0
497.0,475.0,501.0,507.0
496.0,479.0,503.0,504.0
506.0,485.0,512.0,503.0
517.0,493.0,519.0,503.0
522.0,496.0,525.0,506.0
524.0,503.0,527.0,502.0
523.0,513.0,533.0,509.0
511.0,502.0,534.0,511.0
506.0,481.0,535.0,515.0
497.0,468.0,535.0,517.0
493.0,471.0,521.0,517.0
497.0,500.0,514.0,523.0
500.0,533.0,513.0,521.0
506.0,530.0,505.0,519.0
513.0,529.0,501.0,517.0
512.0,512.0,503.0,515.0
510.0,511.0,504.0,512.0
512.0,513.0,498.0,509.0
512.0,513.0,508.0,504.0
518.0,514.0,508.0,506.0
524.0,520.0,516.0,499.0
526.0,525.0,519.0,501.0
526.0,514.0,527.0,505.0
522.0,496.0,531.0,508.0
515.0,486.0,530.0,509.0
503.0,469.0,533.0,514.0
498.0,475.0,529.0,520.0
502.0,489.0,521.0,529.0
499.0,500.0,513.0,525.0
505.0,515.0,510.0,522.0
507.0,511.0,507.0,522.0
508.0,533.0,508.0,521.0
510.0,541.0,509.0,518.0
505.0,477.0,508.0,513.0
499.0,482.0,508.0,510.0
509.0,495.0,511.0,509.0
517.0,501.0,508.0,507.0
530.0,510.0,515.0,502.0
530.0,511.0,521.0,497.0
526.0,518.0,526.0,502.0
509.0,483.0,529.0,504.0
512.0,517.0,522.0,508.0
502.0,501.0,525.0,510.0
502.0,483.0,525.0,519.0
505.0,487.0,517.0,523.0
511.0,495.0,513.0,523.0
505.0,507.0,512.0,525.0
512.0,513.0,510.0,527.0
516.0,505.0,510.0,525.0
506.0,496.0,508.0,518.0
499.0,494.0,506.0,508.0
509.0,493.0,500.0,502.0
515.0,502.0,506.0,504.0
518.0,517.0,515.0,499.0
518.0,529.0,517.0,497.0
514.0,534.0,521.0,496.0
520.0,524.0,524.0,499.0
515.0,507.0,521.0,502.0
510.0,504.0,523.0,504.0
496.0,487.0,517.0,513.0
495.0,490.0,522.0,518.0
494.0,493.0,514.0,520.0
500.0,486.0,509.0,524.0
500.0,498.0,507.0,526.0
507.0,521.0,509.0,527.0
506.0,520.0,514.0,525.0
510.0,511.0,508.0,518.0
507.0,520.0,509.0,511.0
502.0,515.0,511.0,508.0
508.0,493.0,512.0,506.0
524.0,503.0,517.0,513.0
525.0,516.0,526.0,512.0
528.0,522.0,541.0,514.0
524.0,527.0,526.0,506.0
519.0,509.0,520.0,503.0
505.0,479.0,516.0,504.0
501.0,484.0,513.0,509.0
497.0,481.0,512.0,516.0
494.0,483.0,509.0,520.0
500.0,495.0,509.0,520.0
501.0,503.0,506.0,522.0
509.0,517.0,506.0,521.0
505.0,512.0,505.0,516.0
506.0,501.0,504.0,510.0
505.0,489.0,504.0,507.0
512.0,486.0,509.0,503.0
514.0,492.0,516.0,504.0
531.0,508.0,520.0,504.0
527.0,507.0,526.0,505.0
533.0,515.0,530.0,507.0
518.0,514.0,533.0,507.0
511.0,509.0,528.0,510.0
496.0,488.0,525.0,513.0
494.0,487.0,517.0,516.0
498.0,494.0,514.0,521.0
500.0,499.0,511.0,528.0
503.0,503.0,511.0,526.0
506.0,512.0,511.0,529.0
506.0,510.0,503.0,526.0
505.0,503.0,511.0,519.0
502.0,497.0,514.0,521.0
507.0,494.0,519.0,514.0
513.0,492.0,516.0,513.0
521.0,505.0,518.0,505.0
526.0,508.0,521.0,501.0
528.0,513.0,528.0,502.0
527.0,517.0,529.0,506.0
522.0,508.0,533.0,506.0
511.0,498.0,529.0,508.0
501.0,490.0,517.0,510.0
494.0,491.0,515.0,515.0
494.0,498.0,517.0,519.0
501.0,504.0,515.0,523.0
501.0,498.0,515.0,526.0
508.0,505.0,510.0,521.0
508.0,504.0,507.0,517.0
508.0,500.0,509.0,511.0
503.0,493.0,500.0,503.0
512.0,506.0,501.0,498.0
517.0,525.0,515.0,504.0
525.0,532.0,525.0,504.0
527.0,522.0,524.0,508.0
528.0,485.0,530.0,519.0
520.0,473.0,543.0,517.0
516.0,485.0,538.0,522.0
498.0,474.0,534.0,519.0
497.0,479.0,522.0,520.0
492.0,490.0,506.0,513.0
492.0,511.0,502.0,510.0
494.0,506.0,499.0,507.0
502.0,493.0,497.0,508.0
512.0,501.0,501.0,512.0
516.0,506.0,505.0,510.0
520.0,516.0,506.0,508.0
510.0,506.0,511.0,506.0
512.0,506.0,511.0,506.0
503.0,499.0,514.0,505.0
513.0,495.0,519.0,501.0
520.0,488.0,523.0,504.0
522.0,493.0,529.0,508.0
520.0,513.0,530.0,510.0
518.0,511.0,533.0,512.0
506.0,499.0,532.0,516.0
500.0,505.0,524.0,513.0
504.0,495.0,509.0,517.0
504.0,502.0,503.0,518.0
501.0,509.0,506.0,517.0
506.0,525.0,502.0,518.0
507.0,528.0,505.0,514.0
512.0,518.0,503.0,514.0
507.0,525.0,501.0,510.0
506.0,532.0,502.0,506.0
515.0,510.0,509.0,509.0
520.0,507.0,518.0,504.0
529.0,510.0,527.0,500.0
531.0,495.0,526.0,504.0
526.0,476.0,529.0,505.0
520.0,475.0,527.0,505.0
509.0,493.0,523.0,509.0
501.0,502.0,519.0,513.0
497.0,525.0,515.0,516.0
501.0,518.0,511.0,521.0
507.0,519.0,508.0,528.0
504.0,489.0,509.0,524.0
506.0,493.0,513.0,524.0
498.0,506.0,512.0,524.0
503.0,495.0,512.0,520.0
504.0,485.0,509.0,511.0
511.0,496.0,508.0,507.0
514.0,494.0,511.0,509.0
518.0,500.0,517.0,509.0
525.0,502.0,522.0,505.0
524.0,532.0,527.0,505.0
522.0,513.0,527.0,507.0
512.0,510.0,524.0,508.0
499.0,500.0,520.0,509.0
498.0,501.0,518.0,517.0
499.0,499.0,518.0,523.0
499.0,501.0,514.0,524.0
503.0,499.0,510.0,527.0
510.0,516.0,505.0,523.0
511.0,519.0,503.0,522.0
507.0,510.0,505.0,518.0
503.0,498.0,506.0,516.0
505.0,492.0,509.0,510.0
507.0,493.0,513.0,509.0
513.0,496.0,516.0,505.0
527.0,506.0,521.0,507.0
528.0,519.0,527.0,502.0
531.0,504.0,529.0,508.0
520.0,497.0,533.0,507.0
512.0,498.0,530.0,508.0
494.0,467.0,525.0,512.0
492.0,485.0,524.0,521.0
493.0,493.0,521.0,530.0
496.0,486.0,527.0,529.0
499.0,504.0,505.0,525.0
505.0,515.0,506.0,519.0
512.0,522.0,502.0,512.0
513.0,529.0,505.0,508.0
514.0,520.0,502.0,508.0
508.0,511.0,505.0,509.0
514.0,509.0,504.0,502.0
520.0,504.0,510.0,501.0
522.0,507.0,516.0,503.0
518.0,505.0,523.0,501.0
520.0,505.0,532.0,504.0
517.0,506.0,534.0,512.0
510.0,490.0,530.0,513.0
499.0,476.0,525.0,514.0
498.0,494.0,517.0,519.0
498.0,507.0,510.0,524.0
502.0,511.0,506.0,521.0
503.0,510.0,501.0,519.0
509.0,502.0,500.0,516.0
509.0,509.0,502.0,519.0
510.0,509.0,502.0,511.0
510.0,494.0,506.0,505.0
517.0,502.0,508.0,502.0
517.0,507.0,513.0,501.0
518.0,510.0,517.0,501.0
518.0,502.0,519.0,498.0
519.0,499.0,524.0,500.0
514.0,492.0,526.0,503.0
511.0,491.0,522.0,505.0
502.0,484.0,524.0,508.0
495.0,488.0,520.0,513.0
500.0,501.0,513.0,519.0
496.0,499.0,515.0,521.0
494.0,511.0,511.0,525.0
501.0,524.0,506.0,523.0
508.0,504.0,509.0,522.0
507.0,504.0,510.0,517.0
508.0,497.0,505.0,512.0
508.0,489.0,507.0,507.0
515.0,489.0,512.0,505.0
521.0,498.0,524.0,506.0
525.0,500.0,529.0,508.0
527.0,497.0,531.0,507.0
528.0,503.0,533.0,508.0
522.0,522.0,526.0,508.0
518.0,518.0,521.0,506.0
502.0,497.0,519.0,509.0
503.0,496.0,514.0,516.0
502.0,501.0,512.0,518.0
504.0,515.0,512.0,525.0
499.0,518.0,506.0,521.0
502.0,520.0,504.0,521.0
506.0,520.0,506.0,516.0
503.0,512.0,506.0,515.0
498.0,510.0,505.0,510.0
506.0,503.0,509.0,516.0
516.0,501.0,514.0,514.0
521.0,488.0,521.0,510.0
519.0,480.0,528.0,506.0
520.0,491.0,532.0,506.0
521.0,504.0,531.0,507.0
518.0,503.0,529.0,505.0
512.0,494.0,524.0,503.0
501.0,480.0,519.0,506.0
496.0,473.0,515.0,513.0
497.0,481.0,512.0,522.0
503.0,487.0,510.0,527.0
504.0,499.0,511.0,527.0
510.0,507.0,513.0,525.0
506.0,516.0,511.0,524.0
516.0,550.0,510.0,522.0
516.0,541.0,508.0,511.0
520.0,526.0,508.0,507.0
526.0,520.0,512.0,507.0
527.0,489.0,518.0,505.0
529.0,501.0,522.0,504.0
533.0,510.0,527.0,501.0
522.0,503.0,526.0,500.0
514.0,489.0,529.0,504.0
494.0,475.0,525.0,507.0
495.0,465.0,517.0,513.0
495.0,470.0,511.0,514.0
499.0,498.0,505.0,518.0
498.0,523.0,504.0,518.0
499.0,518.0,506.0,521.0
506.0,532.0,504.0,520.0
509.0,527.0,505.0,515.0
506.0,522.0,506.0,514.0
503.0,513.0,506.0,509.0
512.0,505.0,510.0,502.0
517.0,492.0,511.0,501.0
524.0,494.0,522.0,499.0
523.0,494.0,525.0,499.0
521.0,521.0,528.0,504.0
521.0,528.0,529.0,506.0
518.0,497.0,527.0,506.0
503.0,494.0,523.0,511.0
498.0,504.0,519.0,514.0
497.0,511.0,515.0,525.0
499.0,512.0,511.0,528.0
499.0,519.0,513.0,524.0
502.0,521.0,512.0,523.0
505.0,511.0,512.0,524.0
505.0,488.0,508.0,520.0
504.0,477.0,500.0,510.0
510.0,488.0,504.0,504.0
516.0,503.0,508.0,500.0
523.0,531.0,514.0,503.0
528.0,521.0,522.0,503.0
524.0,519.0,529.0,505.0
521.0,504.0,532.0,508.0
513.0,497.0,531.0,509.0
508.0,488.0,528.0,513.0
497.0,483.0,522.0,514.0
498.0,493.0,514.0,518.0
498.0,494.0,508.0,523.0
495.0,492.0,505.0,520.0
497.0,506.0,504.0,523.0
506.0,514.0,502.0,519.0
505.0,509.0,503.0,514.0
503.0,509.0,505.0,513.0
504.0,503.0,502.0,508.0
508.0,505.0,507.0,508.0
517.0,503.0,513.0,508.0
524.0,497.0,520.0,508.0
533.0,478.0,524.0,511.0
533.0,467.0,537.0,515.0
532.0,469.0,537.0,514.0
526.0,484.0,530.0,513.0
516.0,512.0,526.0,515.0
503.0,546.0,521.0,517.0
498.0,549.0,516.0,520.0
488.0,542.0,509.0,523.0
487.0,518.0,505.0,522.0
489.0,475.0,506.0,522.0
500.0,497.0,506.0,520.0
506.0,504.0,509.0,521.0
510.0,499.0,513.0,520.0
510.0,496.0,504.0,510.0
515.0,496.0,512.0,506.0
519.0,508.0,513.0,504.0
520.0,517.0,524.0,509.0
517.0,517.0,530.0,506.0
519.0,515.0,530.0,504.0
516.0,500.0,532.0,502.0
512.0,495.0,523.0,507.0
497.0,482.0,522.0,505.0
492.0,485.0,508.0,511.0
498.0,490.0,506.0,516.0
500.0,499.0,508.0,519.0
502.0,499.0,508.0,524.0
504.0,518.0,508.0,525.0
507.0,513.0,507.0,523.0
504.0,500.0,507.0,514.0
502.0,488.0,503.0,512.0
508.0,499.0,511.0,518.0
514.0,490.0,520.0,522.0
517.0,518.0,524.0,517.0
527.0,534.0,526.0,515.0
530.0,516.0,532.0,506.0
524.0,510.0,533.0,500.0
519.0,491.0,522.0,496.0
514.0,484.0,516.0,497.0
500.0,485.0,506.0,501.0
496.0,500.0,504.0,506.0
499.0,496.0,505.0,509.0
504.0,503.0,501.0,519.0
497.0,498.0,503.0,519.0
508.0,496.0,503.0,518.0
509.0,512.0,504.0,517.0
512.0,536.0,507.0,515.0
516.0,525.0,510.0,512.0
524.0,532.0,514.0,505.0
521.0,511.0,510.0,500.0
520.0,491.0,515.0,501.0
524.0,480.0,521.0,497.0
521.0,516.0,519.0,500.0
519.0,510.0,526.0,502.0
517.0,500.0,526.0,505.0
503.0,497.0,521.0,510.0
497.0,498.0,517.0,514.0
494.0,501.0,517.0,522.0
499.0,510.0,509.0,523.0
501.0,510.0,514.0,528.0
504.0,511.0,516.0,526.0
509.0,490.0,513.0,526.0
507.0,490.0,510.0,521.0
506.0,491.0,505.0,513.0
510.0,486.0,507.0,508.0
510.0,526.0,514.0,506.0
513.0,530.0,518.0,503.0
525.0,519.0,521.0,499.0
527.0,515.0,525.0,494.0
523.0,504.0,528.0,500.0
521.0,488.0,526.0,501.0
516.0,502.0,523.0,505.0
508.0,490.0,521.0,512.0
502.0,504.0,516.0,517.0
502.0,500.0,512.0,524.0
501.0,460.0,507.0,520.0
503.0,486.0,504.0,516.0
505.0,513.0,502.0,517.0
514.0,522.0,505.0,514.0
518.0,527.0,506.0,512.0
506.0,511.0,502.0,506.0
506.0,490.0,508.0,508.0
515.0,497.0,514.0,503.0
519.0,511.0,517.0,504.0
516.0,512.0,525.0,505.0
510.0,506.0,524.0,506.0
515.0,506.0,530.0,506.0
518.0,502.0,525.0,509.0
506.0,486.0,525.0,509.0
496.0,477.0,516.0,513.0
494.0,492.0,516.0,520.0
499.0,499.0,513.0,524.0
500.0,516.0,508.0,527.0
502.0,521.0,510.0,529.0
504.0,522.0,507.0,523.0
508.0,515.0,509.0,522.0
505.0,515.0,511.0,523.0
504.0,509.0,515.0,521.0
513.0,508.0,522.0,522.0
518.0,510.0,529.0,523.0
526.0,508.0,529.0,518.0
526.0,504.0,527.0,509.0
522.0,500.0,527.0,507.0
524.0,495.0,531.0,506.0
514.0,492.0,527.0,505.0
500.0,485.0,523.0,507.0
494.0,480.0,519.0,508.0
495.0,492.0,510.0,513.0
503.0,500.0,508.0,518.0
501.0,495.0,508.0,521.0
499.0,509.0,501.0,517.0
509.0,516.0,501.0,515.0
510.0,512.0,499.0,511.0
510.0,513.0,498.0,511.0
509.0,519.0,504.0,507.0
514.0,519.0,505.0,503.0
518.0,520.0,512.0,500.0
529.0,515.0,518.0,500.0
533.0,522.0,524.0,501.0
527.0,507.0,530.0,504.0
519.0,493.0,528.0,510.0
513.0,499.0,527.0,511.0
496.0,487.0,525.0,515.0
488.0,489.0,523.0,523.0
496.0,490.0,519.0,530.0
498.0,498.0,519.0,532.0
500.0,500.0,509.0,530.0
502.0,503.0,515.0,520.0
504.0,505.0,501.0,520.0
504.0,501.0,503.0,508.0
501.0,502.0,502.0,505.0
508.0,502.0,505.0,504.0
514.0,497.0,507.0,505.0
522.0,496.0,522.0,497.0
522.0,495.0,517.0,495.0
525.0,489.0,521.0,498.0
523.0,488.0,527.0,501.0
517.0,488.0,525.0,505.0
510.0,479.0,524.0,508.0
499.0,479.0,519.0,514.0
497.0,500.0,519.0,518.0
498.0,501.0,515.0,525.0
504.0,503.0,511.0,530.0
505.0,521.0,514.0,532.0
514.0,520.0,510.0,524.0
509.0,512.0,506.0,516.0
508.0,523.0,502.0,520.0
504.0,522.0,504.0,512.0
503.0,514.0,512.0,511.0
511.0,516.0,519.0,505.0
517.0,518.0,522.0,505.0
524.0,499.0,516.0,502.0
516.0,499.0,523.0,502.0
515.0,505.0,528.0,501.0
514.0,495.0,526.0,508.0
502.0,485.0,524.0,506.0
495.0,488.0,518.0,515.0
498.0,501.0,510.0,516.0
504.0,512.0,507.0,520.0
505.0,516.0,507.0,518.0
501.0,499.0,507.0,519.0
509.0,509.0,504.0,517.0
507.0,505.0,502.0,510.0
509.0,509.0,501.0,510.0
507.0,525.0,507.0,509.0
513.0,520.0,510.0,507.0
519.0,511.0,521.0,507.0
526.0,512.0,526.0,507.0
532.0,513.0,532.0,508.0
532.0,521.0,537.0,513.0
524.0,509.0,532.0,518.0
521.0,504.0,530.0,518.0
501.0,456.0,524.0,518.0
489.0,450.0,518.0,516.0
488.0,481.0,517.0,519.0
496.0,504.0,512.0,520.0
497.0,539.0,506.0,519.0
502.0,528.0,502.0,518.0
509.0,522.0,499.0,514.0
505.0,492.0,503.0,514.0
506.0,489.0,502.0,510.0
505.0,478.0,507.0,510.0
512.0,475.0,514.0,513.0
516.0,488.0,522.0,507.0
524.0,501.0,528.0,507.0
523.0,526.0,535.0,507.0
523.0,521.0,535.0,514.0
523.0,513.0,535.0,517.0
511.0,526.0,526.0,515.0
506.0,523.0,517.0,514.0
494.0,529.0,512.0,515.0
501.0,518.0,502.0,514.0
499.0,466.0,505.0,515.0
505.0,498.0,500.0,518.0
516.0,504.0,502.0,518.0
519.0,508.0,502.0,514.0
521.0,514.0,498.0,508.0
514.0,490.0,497.0,500.0
512.0,495.0,503.0,500.0
508.0,500.0,510.0,502.0
510.0,502.0,519.0,503.0
519.0,511.0,526.0,504.0
520.0,507.0,526.0,506.0
516.0,506.0,531.0,504.0
514.0,505.0,525.0,505.0
498.0,475.0,522.0,508.0
493.0,469.0,510.0,517.0
492.0,473.0,513.0,523.0
495.0,484.0,519.0,521.0
502.0,502.0,507.0,523.0
504.0,528.0,509.0,524.0
510.0,528.0,514.0,525.0
505.0,516.0,510.0,524.0
508.0,506.0,504.0,518.0
506.0,490.0,510.0,514.0
520.0,500.0,517.0,514.0
529.0,508.0,527.0,513.0
523.0,512.0,526.0,506.0
530.0,513.0,528.0,500.0
523.0,514.0,529.0,493.0
518.0,502.0,516.0,496.0
509.0,517.0,517.0,501.0
495.0,508.0,514.0,507.0
488.0,497.0,514.0,515.0
494.0,498.0,509.0,520.0
495.0,505.0,505.0,520.0
494.0,510.0,504.0,520.0
499.0,512.0,504.0,521.0
506.0,509.0,504.0,519.0
507.0,504.0,506.0,520.0
508.0,497.0,505.0,517.0
512.0,495.0,507.0,512.0
517.0,497.0,512.0,506.0
526.0,508.0,516.0,504.0
524.0,519.0,521.0,500.0
524.0,517.0,531.0,503.0
525.0,516.0,534.0,502.0
520.0,507.0,528.0,502.0
508.0,494.0,522.0,504.0
500.0,491.0,515.0,513.0
496.0,492.0,516.0,523.0
499.0,498.0,513.0,525.0
501.0,508.0,511.0,526.0
504.0,510.0,507.0,521.0
507.0,511.0,505.0,521.0
507.0,514.0,502.0,514.0
509.0,510.0,503.0,513.0
509.0,501.0,503.0,511.0
510.0,496.0,508.0,507.0
518.0,502.0,519.0,505.0
530.0,504.0,529.0,503.0
525.0,500.0,527.0,503.0
524.0,501.0,527.0,504.0
517.0,502.0,532.0,508.0
515.0,499.0,528.0,510.0
501.0,486.0,523.0,511.0
498.0,482.0,518.0,514.0
499.0,485.0,507.0,516.0
493.0,496.0,510.0,518.0
500.0,502.0,497.0,515.0
503.0,507.0,499.0,512.0
507.0,511.0,504.0,516.0
508.0,513.0,502.0,513.0
509.0,503.0,504.0,510.0
512.0,501.0,500.0,511.0
515.0,511.0,508.0,501.0
525.0,518.0,516.0,502.0
528.0,505.0,523.0,504.0
519.0,489.0,528.0,503.0
518.0,495.0,532.0,503.0
514.0,491.0,536.0,512.0
511.0,491.0,532.0,516.0
499.0,502.0,522.0,513.0
498.0,516.0,516.0,514.0
494.0,513.0,512.0,517.0
502.0,517.0,507.0,521.0
500.0,489.0,503.0,519.0
501.0,476.0,501.0,518.0
520.0,491.0,502.0,514.0
525.0,507.0,502.0,515.0
520.0,497.0,503.0,511.0
524.0,500.0,505.0,509.0
511.0,508.0,508.0,508.0
508.0,513.0,519.0,511.0
510.0,525.0,525.0,510.0
514.0,528.0,530.0,510.0
516.0,522.0,537.0,510.0
513.0,512.0,532.0,509.0
503.0,495.0,527.0,512.0
496.0,491.0,520.0,520.0
496.0,486.0,518.0,523.0
498.0,487.0,517.0,528.0
503.0,504.0,511.0,524.0
505.0,503.0,503.0,521.0
505.0,505.0,496.0,514.0
505.0,523.0,501.0,510.0
508.0,517.0,499.0,507.0
506.0,520.0,495.0,501.0
514.0,527.0,500.0,504.0
520.0,503.0,514.0,503.0
525.0,474.0,522.0,505.0
529.0,476.0,530.0,506.0
528.0,476.0,536.0,511.0
518.0,472.0,538.0,511.0
513.0,502.0,531.0,508.0
500.0,488.0,518.0,513.0
488.0,495.0,512.0,511.0
502.0,514.0,511.0,518.0
502.0,534.0,504.0,519.0
505.0,538.0,506.0,520.0
509.0,531.0,507.0,519.0
503.0,520.0,509.0,519.0
504.0,496.0,508.0,517.0
504.0,503.0,506.0,511.0
502.0,492.0,506.0,504.0
507.0,493.0,507.0,501.0
516.0,491.0,514.0,501.0
520.0,497.0,526.0,503.0
519.0,524.0,527.0,506.0
519.0,543.0,529.0,506.0
514.0,530.0,529.0,509.0
511.0,505.0,532.0,506.0
494.0,487.0,514.0,505.0
495.0,489.0,506.0,511.0
500.0,497.0,512.0,517.0
509.0,508.0,513.0,524.0
507.0,516.0,503.0,520.0
509.0,510.0,505.0,520.0
513.0,507.0,509.0,520.0
508.0,501.0,509.0,517.0
499.0,491.0,507.0,514.0
502.0,511.0,517.0,518.0
509.0,511.0,517.0,514.0
522.0,505.0,524.0,506.0
527.0,508.0,524.0,499.0
526.0,504.0,525.0,502.0
522.0,512.0,522.0,504.0
516.0,517.0,526.0,510.0
507.0,482.0,526.0,511.0
501.0,477.0,522.0,513.0
494.0,486.0,518.0,514.0
498.0,492.0,512.0,516.0
501.0,500.0,506.0,517.0
500.0,513.0,502.0,527.0
506.0,523.0,500.0,524.0
506.0,520.0,502.0,517.0
505.0,517.0,503.0,510.0
503.0,504.0,508.0,508.0
508.0,500.0,509.0,507.0
517.0,505.0,517.0,507.0
525.0,507.0,523.0,513.0
526.0,508.0,533.0,515.0
520.0,471.0,540.0,518.0
518.0,499.0,535.0,509.0
522.0,505.0,528.0,507.0
504.0,487.0,521.0,509.0
498.0,491.0,515.0,514.0
497.0,486.0,507.0,515.0
502.0,499.0,504.0,520.0
502.0,521.0,506.0,521.0
504.0,517.0,506.0,523.0
502.0,526.0,503.0,519.0
507.0,527.0,503.0,516.0
503.0,488.0,500.0,513.0
503.0,493.0,504.0,508.0
513.0,498.0,510.0,505.0
520.0,498.0,517.0,504.0
525.0,506.0,524.0,503.0
528.0,515.0,528.0,498.0
526.0,503.0,525.0,500.0
521.0,501.0,523.0,500.0
516.0,492.0,523.0,504.0
501.0,473.0,521.0,512.0
494.0,483.0,516.0,516.0
498.0,500.0,513.0,522.0
498.0,507.0,505.0,517.0
502.0,518.0,504.0,519.0
495.0,508.0,501.0,517.0
506.0,515.0,503.0,511.0
513.0,519.0,503.0,511.0
506.0,518.0,502.0,507.0
509.0,507.0,508.0,506.0
508.0,489.0,511.0,502.0
517.0,475.0,514.0,500.0
523.0,487.0,520.0,505.0
521.0,502.0,525.0,501.0
517.0,513.0,526.0,503.0
512.0,511.0,525.0,501.0
499.0,486.0,523.0,510.0
498.0,482.0,517.0,514.0
495.0,486.0,516.0,521.0
499.0,497.0,514.0,524.0
509.0,501.0,505.0,525.0
512.0,498.0,507.0,524.0
513.0,519.0,504.0,522.0
517.0,529.0,502.0,520.0
521.0,556.0,505.0,519.0
507.0,523.0,506.0,512.0
497.0,499.0,511.0,510.0
518.0,507.0,515.0,509.0
528.0,504.0,517.0,508.0
530.0,508.0,523.0,506.0
524.0,510.0,525.0,505.0
523.0,506.0,526.0,508.0
511.0,498.0,522.0,509.0
498.0,484.0,522.0,513.0
497.0,474.0,518.0,521.0
492.0,484.0,520.0,521.0
500.0,497.0,519.0,527.0
499.0,513.0,512.0,530.0
499.0,526.0,515.0,529.0
507.0,522.0,511.0,522.0
511.0,528.0,509.0,522.0
509.0,511.0,499.0,513.0
511.0,512.0,510.0,510.0
513.0,513.0,513.0,502.0
513.0,510.0,513.0,499.0
519.0,515.0,516.0,497.0
522.0,516.0,522.0,496.0
517.0,505.0,526.0,500.0
511.0,505.0,523.0,500.0
507.0,497.0,519.0,504.0
500.0,495.0,523.0,511.0
498.0,490.0,513.0,518.0
497.0,499.0,509.0,521.0
501.0,510.0,507.0,520.0
509.0,518.0,504.0,524.0
512.0,515.0,508.0,524.0
505.0,484.0,510.0,522.0
504.0,503.0,504.0,521.0
505.0,511.0,507.0,505.0
512.0,509.0,508.0,501.0
518.0,504.0,506.0,499.0
521.0,504.0,511.0,499.0
531.0,514.0,525.0,502.0
523.0,519.0,531.0,502.0
518.0,507.0,532.0,503.0
514.0,503.0,524.0,504.0
503.0,495.0,520.0,506.0
497.0,494.0,512.0,509.0
495.0,496.0,513.0,512.0
500.0,500.0,507.0,518.0
501.0,488.0,500.0,520.0
500.0,498.0,503.0,517.0
503.0,500.0,502.0,517.0
506.0,507.0,505.0,514.0
506.0,506.0,506.0,513.0
508.0,500.0,510.0,510.0
508.0,499.0,514.0,511.0
515.0,498.0,517.0,508.0
525.0,503.0,521.0,506.0
530.0,505.0,527.0,502.0
523.0,496.0,524.0,493.0
517.0,501.0,524.0,504.0
513.0,513.0,522.0,504.0
500.0,496.0,520.0,508.0
498.0,486.0,512.0,513.0
496.0,489.0,509.0,513.0
504.0,507.0,506.0,521.0
504.0,505.0,513.0,523.0
506.0,512.0,501.0,519.0
506.0,520.0,501.0,518.0
508.0,512.0,502.0,515.0
505.0,501.0,505.0,513.0
510.0,497.0,510.0,508.0
516.0,498.0,511.0,505.0
522.0,513.0,517.0,507.0
531.0,507.0,522.0,507.0
531.0,497.0,526.0,505.0
526.0,502.0,531.0,508.0
515.0,495.0,529.0,511.0
506.0,504.0,528.0,514.0
493.0,497.0,526.0,520.0
496.0,495.0,518.0,522.0
498.0,491.0,513.0,524.0
508.0,503.0,510.0,527.0
513.0,506.0,507.0,527.0
511.0,497.0,503.0,524.0
507.0,501.0,508.0,523.0
501.0,501.0,502.0,522.0
502.0,491.0,504.0,515.0
502.0,516.0,511.0,512.0
506.0,529.0,513.0,509.0
519.0,532.0,524.0,513.0
529.0,519.0,532.0,513.0
524.0,492.0,534.0,510.0
523.0,492.0,532.0,505.0
523.0,485.0,522.0,506.0
503.0,467.0,516.0,504.0
490.0,480.0,511.0,512.0
493.0,482.0,513.0,518.0
493.0,485.0,511.0,522.0
499.0,520.0,509.0,521.0
498.0,534.0,505.0,523.0
501.0,527.0,505.0,519.0
507.0,529.0,505.0,512.0
507.0,518.0,500.0,510.0
502.0,496.0,505.0,509.0
510.0,517.0,511.0,505.0
521.0,527.0,518.0,504.0
526.0,519.0,519.0,500.0
526.0,515.0,521.0,500.0
519.0,513.0,522.0,502.0
517.0,514.0,527.0,504.0
513.0,510.0,522.0,511.0
496.0,492.0,518.0,509.0
498.0,474.0,517.0,514.0
499.0,482.0,514.0,522.0
501.0,502.0,510.0,524.0
499.0,505.0,512.0,525.0
500.0,522.0,506.0,520.0
503.0,498.0,505.0,516.0
507.0,488.0,504.0,515.0
505.0,495.0,502.0,510.0
509.0,502.0,504.0,512.0
517.0,526.0,512.0,509.0
522.0,553.0,518.0,505.0
529.0,559.0,522.0,508.0
524.0,495.0,525.0,506.0
514.0,472.0,527.0,502.0
518.0,487.0,526.0,504.0
504.0,491.0,525.0,505.0
494.0,478.0,519.0,513.0
496.0,485.0,518.0,518.0
494.0,491.0,514.0,522.0
501.0,501.0,510.0,523.0
505.0,512.0,507.0,523.0
507.0,505.0,506.0,520.0
508.0,508.0,503.0,516.0
510.0,510.0,503.0,513.0
512.0,505.0,499.0,509.0
519.0,507.0,502.0,506.0
521.0,511.0,515.0,510.0
527.0,513.0,525.0,513.0
526.0,500.0,530.0,512.0
520.0,484.0,529.0,510.0
521.0,481.0,530.0,509.0
517.0,490.0,532.0,510.0
502.0,501.0,521.0,504.0
501.0,505.0,511.0,508.0
501.0,496.0,508.0,514.0
502.0,502.0,507.0,522.0
506.0,514.0,505.0,520.0
509.0,521.0,500.0,517.0
511.0,510.0,500.0,513.0
506.0,512.0,501.0,513.0
500.0,510.0,502.0,510.0
497.0,503.0,502.0,508.0
508.0,506.0,509.0,504.0
520.0,513.0,513.0,506.0
522.0,510.0,523.0,507.0
529.0,500.0,524.0,512.0
529.0,489.0,532.0,513.0
525.0,485.0,538.0,516.0
521.0,487.0,530.0,510.0
507.0,474.0,524.0,520.0
499.0,489.0,517.0,520.0
492.0,518.0,510.0,521.0
484.0,522.0,504.0,521.0
490.0,517.0,503.0,522.0
500.0,516.0,498.0,524.0
506.0,516.0,503.0,521.0
505.0,513.0,505.0,518.0
508.0,512.0,503.0,510.0
508.0,516.0,504.0,506.0
511.0,509.0,511.0,508.0
521.0,513.0,516.0,509.0
529.0,515.0,521.0,513.0
526.0,489.0,523.0,511.0
518.0,490.0,526.0,505.0
515.0,500.0,521.0,508.0
510.0,503.0,519.0,511.0
503.0,490.0,515.0,512.0
495.0,483.0,515.0,513.0
494.0,489.0,513.0,528.0
500.0,491.0,514.0,527.0
501.0,499.0,510.0,527.0
506.0,514.0,509.0,520.0
506.0,511.0,507.0,514.0
507.0,502.0,500.0,508.0
504.0,498.0,500.0,508.0
512.0,499.0,510.0,508.0
519.0,504.0,507.0,507.0
525.0,495.0,515.0,506.0
534.0,505.0,520.0,503.0
531.0,542.0,527.0,509.0
516.0,538.0,533.0,511.0
508.0,487.0,527.0,514.0
499.0,479.0,529.0,516.0
495.0,477.0,532.0,522.0
500.0,478.0,526.0,530.0
505.0,480.0,514.0,529.0
502.0,488.0,505.0,526.0
506.0,512.0,497.0,518.0
507.0,533.0,498.0,515.0
516.0,564.0,494.0,510.0
504.0,554.0,496.0,504.0
503.0,528.0,500.0,507.0
513.0,508.0,511.0,501.0
524.0,500.0,519.0,501.0
528.0,507.0,517.0,503.0
526.0,501.0,524.0,504.0
525.0,500.0,526.0,506.0
516.0,493.0,526.0,508.0
511.0,495.0,526.0,509.0
498.0,489.0,524.0,512.0
497.0,493.0,518.0,518.0
504.0,503.0,515.0,525.0
506.0,495.0,509.0,526.0
502.0,494.0,506.0,526.0
502.0,515.0,507.0,524.0
505.0,512.0,502.0,518.0
511.0,529.0,502.0,519.0
505.0,521.0,503.0,513.0
515.0,524.0,502.0,509.0
518.0,521.0,517.0,508.0
523.0,498.0,518.0,505.0
530.0,491.0,519.0,505.0
527.0,493.0,529.0,505.0
508.0,487.0,531.0,505.0
510.0,507.0,530.0,505.0
505.0,508.0,525.0,507.0
498.0,529.0,516.0,512.0
497.0,527.0,509.0,514.0
501.0,535.0,510.0,517.0
501.0,504.0,506.0,516.0
498.0,473.0,504.0,519.0
501.0,496.0,505.0,519.0
507.0,495.0,504.0,519.0
509.0,502.0,505.0,516.0
506.0,496.0,503.0,511.0
514.0,498.0,512.0,504.0
507.0,517.0,511.0,503.0
516.0,514.0,518.0,503.0
523.0,513.0,523.0,502.0
525.0,514.0,525.0,499.0
518.0,502.0,532.0,506.0
515.0,498.0,526.0,512.0
501.0,490.0,521.0,516.0
500.0,495.0,514.0,516.0
493.0,500.0,507.0,512.0
496.0,511.0,500.0,516.0
502.0,507.0,497.0,518.0
507.0,494.0,495.0,516.0
513.0,501.0,501.0,515.0
518.0,504.0,505.0,517.0
518.0,489.0,498.0,515.0
517.0,489.0,505.0,512.0
514.0,493.0,517.0,513.0
512.0,509.0,522.0,513.0
518.0,524.0,527.0,514.0
517.0,501.0,540.0,511.0
517.0,500.0,531.0,511.0
515.0,506.0,527.0,513.0
512.0,489.0,526.0,509.0
500.0,470.0,520.0,514.0
498.0,478.0,511.0,508.0
500.0,494.0,510.0,515.0
499.0,503.0,504.0,514.0
501.0,521.0,500.0,516.0
506.0,539.0,503.0,518.0
503.0,534.0,499.0,515.0
507.0,523.0,501.0,510.0
507.0,515.0,499.0,508.0
506.0,505.0,507.0,507.0
514.0,505.0,517.0,503.0
524.0,515.0,519.0,504.0
524.0,512.0,525.0,501.0
529.0,512.0,528.0,501.0
519.0,507.0,526.0,499.0
518.0,502.0,527.0,505.0
510.0,494.0,524.0,506.0
500.0,488.0,515.0,511.0
492.0,487.0,513.0,517.0
500.0,494.0,509.0,524.0
506.0,510.0,510.0,527.0
508.0,510.0,507.0,521.0
507.0,505.0,505.0,523.0
505.0,498.0,506.0,524.0
504.0,497.0,507.0,524.0
504.0,506.0,509.0,520.0
515.0,510.0,514.0,514.0
517.0,507.0,516.0,510.0
531.0,506.0,521.0,505.0
534.0,514.0,519.0,505.0
527.0,521.0,523.0,501.0
522.0,500.0,520.0,505.0
518.0,475.0,521.0,505.0
505.0,457.0,518.0,509.0
491.0,462.0,513.0,510.0
493.0,487.0,512.0,518.0
498.0,548.0,514.0,522.0
501.0,543.0,505.0,526.0
502.0,531.0,499.0,524.0
501.0,521.0,498.0,517.0
501.0,521.0,497.0,512.0
503.0,514.0,502.0,508.0
503.0,504.0,507.0,507.0
510.0,505.0,509.0,513.0
521.0,507.0,517.0,506.0
526.0,504.0,521.0,506.0
527.0,506.0,523.0,504.0
521.0,508.0,525.0,502.0
518.0,512.0,527.0,505.0
515.0,502.0,524.0,509.0
504.0,483.0,517.0,513.0
497.0,493.0,515.0,515.0
493.0,487.0,515.0,519.0
500.0,505.0,505.0,521.0
498.0,487.0,501.0,524.0
506.0,491.0,506.0,525.0
503.0,522.0,503.0,523.0
506.0,521.0,499.0,518.0
507.0,506.0,503.0,515.0
510.0,512.0,517.0,510.0
517.0,499.0,514.0,509.0
522.0,491.0,519.0,509.0
530.0,503.0,522.0,507.0
527.0,510.0,524.0,504.0
520.0,504.0,524.0,503.0
509.0,513.0,524.0,508.0
506.0,513.0,525.0,512.0
495.0,519.0,520.0,514.0
500.0,516.0,511.0,518.0
501.0,529.0,508.0,523.0
501.0,518.0,510.0,528.0
500.0,490.0,506.0,523.0
504.0,511.0,502.0,526.0
511.0,537.0,502.0,522.0
511.0,529.0,499.0,510.0
508.0,516.0,498.0,508.0
515.0,501.0,503.0,506.0
511.0,454.0,511.0,507.0
525.0,484.0,518.0,508.0
527.0,501.0,526.0,507.0
525.0,502.0,528.0,508.0
522.0,500.0,527.0,506.0
525.0,501.0,527.0,509.0
513.0,499.0,520.0,512.0
501.0,505.0,521.0,521.0
498.0,504.0,520.0,528.0
500.0,494.0,516.0,530.0
499.0,504.0,507.0,523.0
490.0,515.0,502.0,520.0
488.0,508.0,499.0,517.0
500.0,507.0,501.0,518.0
499.0,499.0,500.0,505.0
504.0,500.0,505.0,504.0
507.0,493.0,510.0,504.0
512.0,500.0,514.0,502.0
525.0,518.0,517.0,503.0
532.0,521.0,526.0,510.0
518.0,507.0,526.0,509.0
517.0,508.0,528.0,511.0
515.0,504.0,527.0,511.0
502.0,492.0,518.0,516.0
498.0,493.0,517.0,516.0
504.0,500.0,510.0,518.0
510.0,507.0,511.0,525.0
504.0,497.0,512.0,529.0
508.0,509.0,508.0,527.0
499.0,508.0,506.0,519.0
500.0,515.0,508.0,517.0
507.0,509.0,503.0,511.0
508.0,506.0,499.0,503.0
511.0,514.0,501.0,498.0
521.0,519.0,509.0,496.0
526.0,517.0,515.0,499.0
530.0,510.0,523.0,495.0
524.0,488.0,520.0,499.0
520.0,482.0,519.0,507.0
509.0,492.0,522.0,503.0
498.0,495.0,518.0,513.0
496.0,494.0,507.0,517.0
500.0,499.0,506.0,519.0
503.0,499.0,506.0,520.0
505.0,506.0,500.0,518.0
503.0,509.0,498.0,517.0
506.0,498.0,498.0,513.0
510.0,496.0,504.0,511.0
505.0,487.0,499.0,509.0
510.0,490.0,507.0,509.0
514.0,509.0,516.0,508.0
523.0,514.0,521.0,510.0
530.0,527.0,526.0,512.0
532.0,518.0,527.0,509.0
520.0,501.0,520.0,503.0
520.0,489.0,515.0,508.0
502.0,468.0,522.0,504.0
498.0,468.0,516.0,516.0
500.0,479.0,507.0,521.0
495.0,520.0,507.0,521.0
497.0,537.0,506.0,523.0
506.0,532.0,507.0,525.0
502.0,516.0,498.0,518.0
504.0,524.0,500.0,516.0
502.0,511.0,501.0,513.0
503.0,497.0,503.0,510.0
515.0,508.0,509.0,510.0
521.0,516.0,520.0,508.0
526.0,508.0,526.0,506.0
522.0,508.0,527.0,507.0
523.0,511.0,529.0,508.0
525.0,518.0,523.0,505.0
518.0,506.0,521.0,504.0
500.0,482.0,515.0,509.0
495.0,484.0,513.0,514.0
501.0,500.0,512.0,522.0
502.0,527.0,508.0,521.0
505.0,532.0,506.0,529.0
513.0,549.0,508.0,526.0
504.0,537.0,500.0,519.0
509.0,489.0,506.0,518.0
502.0,452.0,507.0,517.0
512.0,466.0,507.0,516.0
517.0,486.0,514.0,513.0
526.0,509.0,516.0,511.0
525.0,526.0,516.0,509.0
521.0,541.0,517.0,504.0
515.0,504.0,520.0,503.0
513.0,493.0,523.0,508.0
506.0,494.0,524.0,509.0
498.0,484.0,519.0,514.0
491.0,497.0,518.0,517.0
494.0,501.0,517.0,519.0
501.0,520.0,499.0,519.0
502.0,519.0,493.0,518.0
503.0,525.0,494.0,516.0
504.0,517.0,492.0,508.0
512.0,504.0,494.0,508.0
516.0,493.0,498.0,506.0
527.0,495.0,503.0,504.0
529.0,502.0,503.0,506.0
531.0,506.0,515.0,505.0
520.0,509.0,520.0,505.0
505.0,532.0,528.0,508.0
503.0,516.0,531.0,508.0
511.0,503.0,529.0,515.0
503.0,494.0,528.0,522.0
499.0,484.0,518.0,524.0
498.0,483.0,514.0,526.0
499.0,490.0,508.0,524.0
498.0,498.0,505.0,522.0
499.0,513.0,507.0,528.0
502.0,521.0,503.0,523.0
502.0,526.0,504.0,519.0
507.0,522.0,501.0,514.0
509.0,533.0,502.0,509.0
516.0,528.0,505.0,503.0
525.0,530.0,507.0,500.0
526.0,500.0,515.0,503.0
529.0,474.0,523.0,508.0
522.0,501.0,527.0,510.0
519.0,498.0,530.0,515.0
517.0,498.0,519.0,514.0
501.0,491.0,517.0,510.0
495.0,498.0,506.0,507.0
495.0,483.0,501.0,515.0
502.0,489.0,502.0,518.0
502.0,503.0,502.0,517.0
507.0,504.0,499.0,518.0
504.0,503.0,496.0,515.0
507.0,512.0,500.0,511.0
510.0,504.0,499.0,509.0
514.0,497.0,501.0,507.0
515.0,504.0,511.0,504.0
523.0,503.0,513.0,504.0
527.0,508.0,517.0,505.0
525.0,502.0,524.0,505.0
517.0,483.0,528.0,507.0
517.0,482.0,523.0,509.0
502.0,480.0,523.0,512.0
497.0,500.0,516.0,516.0
494.0,517.0,511.0,519.0
502.0,534.0,507.0,524.0
503.0,521.0,508.0,526.0
501.0,516.0,505.0,526.0
504.0,515.0,505.0,524.0
507.0,514.0,507.0,524.0
508.0,512.0,509.0,526.0
508.0,502.0,507.0,520.0
512.0,498.0,510.0,510.0
519.0,499.0,518.0,503.0
531.0,506.0,522.0,502.0
531.0,515.0,531.0,512.0
529.0,515.0,528.0,513.0
516.0,504.0,519.0,507.0
510.0,507.0,516.0,504.0
506.0,496.0,513.0,508.0
496.0,492.0,511.0,510.0
488.0,491.0,509.0,515.0
497.0,493.0,504.0,519.0
499.0,492.0,500.0,519.0
504.0,506.0,496.0,517.0
503.0,504.0,497.0,518.0
502.0,514.0,499.0,514.0
500.0,515.0,499.0,513.0
501.0,509.0,506.0,510.0
511.0,515.0,513.0,507.0
522.0,526.0,520.0,506.0
527.0,520.0,519.0,509.0
524.0,478.0,523.0,511.0
517.0,484.0,523.0,506.0
516.0,500.0,528.0,508.0
511.0,504.0,526.0,509.0
502.0,489.0,522.0,514.0
498.0,484.0,512.0,517.0
502.0,485.0,508.0,523.0
505.0,498.0,503.0,521.0
503.0,496.0,500.0,520.0
511.0,507.0,500.0,516.0
509.0,498.0,496.0,516.0
510.0,503.0,502.0,514.0
506.0,514.0,506.0,510.0
510.0,516.0,506.0,512.0
518.0,515.0,509.0,514.0
519.0,536.0,514.0,506.0
527.0,532.0,521.0,505.0
526.0,524.0,530.0,507.0
520.0,512.0,529.0,511.0
519.0,506.0,529.0,514.0
504.0,489.0,525.0,512.0
497.0,486.0,514.0,512.0
498.0,495.0,507.0,523.0
501.0,502.0,504.0,524.0
501.0,506.0,502.0,524.0
503.0,512.0,498.0,519.0
503.0,521.0,497.0,516.0
511.0,507.0,495.0,515.0
509.0,499.0,501.0,514.0
517.0,497.0,501.0,511.0
521.0,504.0,504.0,505.0
527.0,503.0,509.0,501.0
531.0,503.0,514.0,499.0
529.0,496.0,521.0,502.0
522.0,496.0,527.0,504.0
512.0,501.0,524.0,510.0
522.0,505.0,522.0,511.0
508.0,482.0,516.0,514.0
502.0,491.0,509.0,516.0
495.0,502.0,507.0,517.0
497.0,500.0,505.0,519.0
499.0,495.0,503.0,518.0
498.0,514.0,501.0,519.0
491.0,520.0,503.0,520.0
493.0,522.0,499.0,521.0
499.0,529.0,502.0,514.0
506.0,518.0,508.0,514.0
517.0,519.0,512.0,513.0
524.0,511.0,514.0,511.0
531.0,511.0,516.0,510.0
528.0,501.0,522.0,506.0
521.0,491.0,524.0,507.0
518.0,499.0,521.0,503.0
505.0,501.0,518.0,509.0
495.0,492.0,507.0,510.0
491.0,496.0,510.0,513.0
491.0,493.0,518.0,517.0
499.0,500.0,505.0,522.0
506.0,519.0,504.0,520.0
506.0,509.0,497.0,516.0
494.0,509.0,491.0,512.0
502.0,515.0,496.0,511.0
504.0,503.0,497.0,512.0
510.0,495.0,504.0,514.0
515.0,490.0,514.0,515.0
524.0,513.0,522.0,513.0
529.0,531.0,525.0,507.0
537.0,550.0,525.0,506.0
528.0,532.0,520.0,501.0
511.0,469.0,520.0,504.0
495.0,453.0,513.0,506.0
497.0,488.0,506.0,509.0
498.0,494.0,505.0,516.0
503.0,499.0,502.0,521.0
505.0,498.0,501.0,525.0
506.0,500.0,500.0,524.0
507.0,503.0,505.0,521.0
506.0,499.0,503.0,519.0
509.0,531.0,498.0,515.0
505.0,536.0,502.0,512.0
512.0,537.0,505.0,507.0
515.0,499.0,507.0,502.0
523.0,506.0,511.0,499.0
525.0,510.0,517.0,504.0
531.0,493.0,525.0,506.0
522.0,485.0,520.0,507.0
520.0,488.0,520.0,509.0
503.0,483.0,518.0,514.0
503.0,481.0,517.0,522.0
493.0,501.0,509.0,525.0
491.0,516.0,507.0,522.0
500.0,510.0,504.0,523.0
504.0,502.0,505.0,519.0
503.0,503.0,502.0,519.0
505.0,508.0,502.0,520.0
507.0,510.0,508.0,519.0
507.0,528.0,505.0,514.0
516.0,523.0,504.0,508.0
525.0,520.0,509.0,504.0
525.0,515.0,513.0,502.0
525.0,501.0,517.0,504.0
525.0,495.0,521.0,506.0
513.0,487.0,521.0,512.0
510.0,489.0,524.0,514.0
501.0,503.0,516.0,513.0
500.0,499.0,513.0,519.0
500.0,491.0,511.0,522.0
506.0,501.0,503.0,525.0
499.0,509.0,499.0,526.0
501.0,516.0,494.0,521.0
503.0,509.0,495.0,515.0
509.0,516.0,494.0,511.0
506.0,508.0,496.0,507.0
510.0,507.0,505.0,504.0
521.0,507.0,509.0,504.0
523.0,510.0,514.0,504.0
527.0,510.0,521.0,503.0
525.0,513.0,527.0,501.0
515.0,510.0,519.0,502.0
520.0,502.0,520.0,511.0
507.0,492.0,519.0,511.0
502.0,476.0,515.0,518.0
495.0,459.0,510.0,523.0
495.0,476.0,507.0,519.0
502.0,507.0,502.0,520.0
507.0,509.0,502.0,520.0
513.0,511.0,499.0,520.0
515.0,498.0,500.0,519.0
522.0,491.0,501.0,518.0
510.0,484.0,504.0,513.0
499.0,509.0,508.0,510.0
502.0,513.0,511.0,505.0
517.0,531.0,516.0,503.0
526.0,544.0,521.0,503.0
523.0,526.0,524.0,506.0
510.0,514.0,523.0,509.0
512.0,517.0,529.0,515.0
499.0,504.0,522.0,518.0
497.0,502.0,516.0,521.0
497.0,507.0,510.0,517.0
503.0,511.0,506.0,523.0
501.0,508.0,500.0,520.0
507.0,512.0,500.0,519.0
508.0,512.0,497.0,514.0
505.0,518.0,498.0,515.0
506.0,527.0,495.0,510.0
512.0,522.0,496.0,511.0
514.0,519.0,507.0,505.0
526.0,495.0,516.0,508.0
517.0,488.0,516.0,506.0
519.0,495.0,532.0,505.0
525.0,500.0,531.0,509.0
514.0,509.0,522.0,508.0
508.0,519.0,522.0,509.0
501.0,514.0,516.0,512.0
495.0,490.0,508.0,514.0
504.0,493.0,508.0,518.0
505.0,511.0,502.0,522.0
509.0,514.0,500.0,522.0
510.0,507.0,497.0,522.0
503.0,502.0,501.0,522.0
502.0,502.0,501.0,518.0
502.0,507.0,507.0,519.0
512.0,505.0,512.0,517.0
517.0,510.0,518.0,515.0
524.0,508.0,527.0,517.0
528.0,520.0,524.0,510.0
527.0,511.0,521.0,503.0
517.0,502.0,516.0,498.0
514.0,497.0,516.0,501.0
502.0,472.0,514.0,506.0
498.0,476.0,509.0,513.0
494.0,461.0,506.0,516.0
489.0,473.0,509.0,522.0
498.0,515.0,504.0,526.0
502.0,512.0,504.0,525.0
511.0,520.0,501.0,519.0
505.0,508.0,494.0,511.0
509.0,508.0,495.0,506.0
510.0,505.0,494.0,498.0
512.0,485.0,501.0,498.0
519.0,493.0,502.0,496.0
531.0,510.0,513.0,499.0
532.0,516.0,522.0,501.0
532.0,514.0,530.0,506.0
518.0,514.0,525.0,507.0
516.0,508.0,529.0,509.0
498.0,493.0,517.0,510.0
488.0,505.0,506.0,511.0
486.0,507.0,501.0,512.0
495.0,506.0,499.0,513.0
499.0,511.0,493.0,512.0
505.0,519.0,497.0,513.0
500.0,510.0,493.0,513.0
505.0,513.0,495.0,514.0
507.0,509.0,497.0,508.0
510.0,505.0,500.0,507.0
516.0,500.0,509.0,503.0
525.0,507.0,510.0,504.0
530.0,511.0,518.0,506.0
532.0,510.0,523.0,504.0
528.0,501.0,529.0,507.0
517.0,497.0,531.0,507.0
505.0,507.0,522.0,511.0
493.0,500.0,514.0,510.0
496.0,500.0,508.0,519.0
496.0,497.0,510.0,520.0
495.0,497.0,505.0,520.0
497.0,497.0,497.0,522.0
502.0,499.0,500.0,521.0
501.0,497.0,502.0,520.0
505.0,509.0,504.0,517.0
508.0,508.0,505.0,513.0
508.0,504.0,509.0,510.0
517.0,511.0,511.0,506.0
524.0,510.0,512.0,505.0
529.0,517.0,518.0,504.0
533.0,519.0,522.0,507.0
524.0,502.0,522.0,512.0
518.0,517.0,522.0,510.0
511.0,532.0,518.0,514.0
503.0,563.0,512.0,518.0
502.0,561.0,509.0,519.0
493.0,471.0,508.0,523.0
492.0,429.0,506.0,526.0
504.0,458.0,505.0,529.0
512.0,477.0,507.0,525.0
512.0,483.0,497.0,517.0
516.0,524.0,499.0,514.0
520.0,511.0,500.0,509.0
519.0,511.0,506.0,503.0
511.0,525.0,510.0,503.0
511.0,513.0,512.0,504.0
517.0,498.0,518.0,502.0
521.0,494.0,529.0,506.0
511.0,491.0,522.0,504.0
513.0,489.0,517.0,506.0
502.0,484.0,513.0,506.0
500.0,495.0,506.0,513.0
496.0,505.0,504.0,515.0
503.0,519.0,502.0,522.0
498.0,526.0,499.0,519.0
502.0,511.0,497.0,520.0
497.0,500.0,494.0,517.0
502.0,507.0,499.0,518.0
506.0,501.0,497.0,515.0
508.0,502.0,503.0,511.0
515.0,517.0,510.0,506.0
519.0,523.0,513.0,504.0
517.0,517.0,518.0,506.0
521.0,504.0,524.0,512.0
524.0,499.0,526.0,516.0
511.0,497.0,528.0,512.0
501.0,487.0,524.0,515.0
498.0,486.0,516.0,515.0
501.0,490.0,512.0,520.0
503.0,491.0,508.0,523.0
504.0,490.0,503.0,522.0
509.0,488.0,501.0,526.0
513.0,481.0,504.0,528.0
500.0,499.0,498.0,519.0
497.0,539.0,496.0,513.0
504.0,526.0,494.0,511.0
507.0,536.0,503.0,511.0
514.0,536.0,514.0,508.0
521.0,524.0,519.0,507.0
528.0,515.0,522.0,504.0
530.0,514.0,522.0,506.0
519.0,502.0,519.0,507.0
515.0,500.0,516.0,501.0
505.0,479.0,512.0,505.0
499.0,481.0,509.0,510.0
504.0,501.0,507.0,517.0
506.0,506.0,508.0,519.0
507.0,512.0,512.0,525.0
508.0,520.0,506.0,522.0
507.0,517.0,498.0,523.0
498.0,510.0,495.0,516.0
501.0,512.0,500.0,515.0
501.0,509.0,504.0,513.0
508.0,512.0,509.0,511.0
517.0,506.0,512.0,509.0
523.0,510.0,519.0,504.0
525.0,505.0,524.0,501.0
522.0,504.0,520.0,502.0
515.0,507.0,519.0,503.0
