CH1,CH2,CH3,CH4,CH5
518,491,532,500,501
524,494,530,504,495
531,504,528,518,489
534,509,526,524,494
538,515,518,530,494
534,518,515,534,496
522,520,502,532,505
515,519,494,534,509
500,514,486,521,523
492,513,488,515,542
491,508,493,512,526
494,506,502,505,515
500,502,513,500,519
500,500,520,499,522
501,494,523,495,515
506,492,529,494,525
510,488,529,493,514
525,491,532,501,504
531,497,530,510,499
536,503,528,518,496
541,509,524,530,491
537,513,514,534,494
527,517,506,535,500
520,522,502,534,513
504,514,488,524,524
496,514,486,518,534
497,516,491,515,535
492,509,496,512,530
494,507,507,505,534
497,500,512,498,527
502,497,521,498,519
507,496,528,498,514
507,493,529,494,512
515,491,530,496,507
523,494,534,502,503
527,501,529,510,491
535,507,528,522,484
536,512,520,529,485
532,517,514,534,489
526,519,504,535,495
517,519,496,532,509
503,514,487,526,530
494,511,485,518,536
495,513,493,511,533
495,508,498,509,528
499,503,506,502,524
502,500,517,503,522
502,498,524,498,517
501,491,525,492,517
511,492,531,493,517
516,490,530,497,507
521,494,529,504,504
531,498,527,513,489
538,506,525,523,479
532,514,517,532,485
529,519,511,534,493
519,516,499,531,505
515,521,496,531,518
498,512,485,520,530
496,513,490,516,533
490,510,495,510,538
494,508,505,507,533
496,503,512,501,526
498,495,513,500,520
504,497,525,496,521
506,492,526,490,516
513,491,531,494,513
519,493,533,498,501
527,499,531,509,499
530,504,527,517,491
536,511,525,525,491
529,514,514,530,497
529,518,508,535,498
526,523,502,536,504
511,517,489,529,516
500,516,485,522,523
494,514,489,515,529
495,510,497,512,530
502,506,505,503,531
492,500,512,497,535
499,500,524,498,520
517,497,535,495,518
516,495,542,497,507
517,494,545,496,506
518,495,541,505,503
531,500,536,512,499
538,507,522,522,493
537,512,504,530,489
533,516,504,532,491
529,520,500,535,494
517,520,496,535,505
499,515,485,524,530
497,512,485,518,534
490,512,490,513,536
492,509,495,507,535
495,504,506,504,530
500,503,514,498,524
508,503,518,494,518
509,494,522,492,517
510,491,525,491,512
517,490,528,498,507
524,497,528,504,498
529,504,526,512,496
534,510,519,520,494
532,514,517,527,500
532,520,512,531,499
526,522,507,532,507
519,529,503,532,509
502,518,491,523,520
491,511,461,511,528
496,515,482,505,527
500,507,510,502,522
502,507,518,501,527
493,497,526,497,526
501,494,536,502,517
503,489,535,499,514
515,491,542,497,505
525,495,543,508,495
528,497,536,511,497
527,500,520,515,493
531,502,516,525,494
528,506,513,530,498
529,518,510,536,501
515,515,501,535,513
505,518,488,530,518
501,517,453,519,525
496,506,462,514,529
495,501,472,504,536
493,495,482,498,531
493,486,484,492,530
498,486,497,490,526
501,480,500,485,520
509,489,516,486,515
513,497,535,492,508
521,499,547,498,508
532,507,560,515,495
535,509,551,526,492
536,509,534,533,490
540,507,512,542,489
539,519,521,544,492
523,516,502,538,498
511,517,492,526,517
500,511,494,521,519
493,496,502,524,520
494,498,515,515,529
491,491,512,505,528
494,495,526,509,531
505,495,529,502,515
507,493,537,501,511
511,492,542,497,504
519,496,547,504,497
526,506,541,507,494
534,500,543,515,488
531,509,519,520,499
530,517,520,527,498
525,522,522,535,498
511,517,513,558,506
514,521,505,542,512
511,529,495,501,509
499,527,495,511,521
488,508,476,511,528
495,506,495,507,531
502,505,507,505,523
513,498,509,504,515
519,494,516,502,508
511,481,521,504,506
529,480,533,504,503
530,493,534,518,489
526,501,524,518,492
533,508,524,528,488
533,514,521,532,497
529,516,514,533,496
522,531,515,543,492
518,522,510,548,503
509,505,505,534,518
499,509,511,527,525
491,512,514,516,533
495,512,515,509,537
491,502,506,493,533
487,469,469,494,529
501,452,494,499,517
514,438,505,496,516
525,445,504,501,507
522,462,531,497,513
513,462,535,499,507
513,484,515,502,502
533,537,511,527,502
540,587,520,554,491
532,563,511,571,488
526,530,508,564,501
525,497,493,546,508
518,503,485,546,508
524,504,457,538,498
515,506,452,522,500
490,500,425,491,526
478,491,458,479,534
489,516,488,506,521
500,505,487,516,513
507,493,519,522,509
519,479,524,527,506
506,482,533,522,521
524,515,524,521,511
537,547,498,523,500
526,529,513,538,498
515,519,522,544,516
528,537,521,533,502
531,555,529,553,499
527,531,509,578,502
503,507,492,561,514
501,493,505,558,515
494,476,500,556,522
497,464,484,545,534
500,472,476,522,533
502,495,500,515,525
503,507,511,503,524
507,548,523,499,513
516,533,536,499,511
518,538,545,516,512
537,546,527,541,496
554,523,545,555,478
568,532,577,571,454
546,535,568,588,458
522,521,496,557,479
517,505,468,541,507
511,494,457,536,523
499,510,473,539,527
478,513,473,544,546
477,492,470,552,542
494,508,500,521,521
494,524,541,518,518
513,527,538,532,507
519,517,512,534,504
532,491,514,527,500
529,456,518,522,501
515,460,529,537,510
518,482,551,561,486
542,496,600,568,467
544,488,650,582,482
524,498,659,601,497
522,526,652,571,495
522,520,605,567,511
500,489,518,565,531
493,498,430,577,537
514,548,489,590,508
520,554,508,579,494
522,570,528,540,515
504,547,507,508,525
507,513,562,515,517
504,502,579,524,521
517,492,583,539,514
531,468,497,524,492
528,468,488,487,487
531,452,492,492,492
535,459,507,512,482
540,490,533,586,488
552,530,521,579,484
523,527,510,570,514
510,517,526,601,507
509,521,484,588,522
520,557,526,586,518
506,553,543,565,516
489,491,491,541,542
498,481,526,533,521
514,466,532,539,504
502,415,533,536,508
501,408,575,576,503
499,389,583,595,511
489,436,544,577,509
509,473,563,550,520
541,526,589,583,488
557,568,647,617,489
536,561,554,603,500
513,530,491,527,529
535,506,497,494,513
517,498,483,529,529
495,507,481,503,547
496,507,502,528,540
499,525,525,548,540
513,500,534,529,513
522,498,563,499,512
501,510,492,508,527
509,522,474,548,520
548,485,530,563,475
556,463,522,551,473
521,435,547,619,491
495,405,480,609,516
503,475,494,559,511
533,562,603,572,474
544,608,700,623,457
527,611,671,631,489
516,518,493,585,514
511,458,490,551,494
511,401,399,525,495
505,338,414,553,502
484,432,412,546,528
480,564,488,505,531
485,535,563,519,537
492,583,654,610,538
495,532,607,562,560
518,487,500,491,546
534,485,379,491,511
527,508,504,522,481
516,564,578,599,492
541,578,585,543,479
548,555,527,534,476
528,607,615,565,502
536,603,543,595,509
524,588,494,578,512
513,567,491,604,507
497,508,458,624,502
488,470,428,600,525
474,488,470,548,550
490,485,558,555,537
512,505,590,531,516
511,522,610,529,514
495,520,525,491,533
519,520,558,496,513
522,489,529,512,493
513,489,568,509,489
517,489,491,498,523
542,485,457,549,486
541,469,466,560,492
532,507,514,560,488
513,527,557,584,507
501,564,554,567,529
508,558,494,533,532
505,529,455,522,520
494,506,502,548,507
487,456,512,540,485
510,438,440,518,485
498,462,519,570,493
502,493,527,542,475
502,527,567,490,478
500,508,596,461,506
507,488,516,500,541
519,486,517,539,536
535,458,558,560,503
544,486,568,584,469
519,535,529,561,488
532,561,460,564,481
546,521,511,589,498
534,501,539,555,499
499,397,586,544,496
473,375,607,515,565
470,445,407,492,584
504,528,438,493,541
498,537,602,502,537
521,594,625,506,518
500,550,542,397,533
509,514,488,408,520
520,508,644,513,522
538,477,754,646,493
485,462,629,591,527
480,490,412,435,535
531,518,513,511,503
538,535,601,562,502
523,543,589,537,529
508,500,433,515,517
504,492,329,498,505
494,494,417,540,529
489,520,474,526,517
500,483,498,517,523
500,455,504,489,526
494,512,544,521,545
516,516,569,539,521
540,525,506,501,494
511,531,605,500,512
513,485,553,509,484
509,478,514,460,508
502,457,489,441,513
516,572,547,483,492
510,535,624,505,506
521,553,618,509,510
522,556,510,477,527
523,538,445,499,510
507,503,472,502,506
488,496,475,509,544
485,450,449,491,545
482,492,495,486,542
518,593,554,463,520
511,573,605,438,520
523,538,557,490,498
516,479,516,511,504
513,506,700,464,497
500,425,722,447,508
492,452,659,474,508
529,524,544,546,485
522,504,473,546,519
529,517,477,484,502
545,557,415,523,467
543,577,481,584,456
532,542,468,522,479
489,494,460,513,518
483,468,484,497,536
494,456,535,517,545
470,395,596,499,553
477,520,644,495,544
495,551,547,436,490
492,595,529,470,510
520,531,530,521,506
532,475,609,512,499
536,450,577,483,489
523,536,414,475,513
521,521,481,480,494
533,558,501,500,511
534,524,520,482,510
523,551,584,527,520
527,476,523,594,488
526,450,454,536,492
497,492,435,427,515
483,536,477,395,550
482,558,481,429,571
493,554,543,457,539
501,542,546,449,507
491,514,520,453,537
487,500,555,465,525
503,534,606,506,499
520,517,563,533,482
530,496,523,498,490
547,497,624,506,468
543,502,573,517,468
551,562,601,550,450
531,548,692,561,475
508,504,661,464,524
497,491,591,464,557
498,483,414,487,543
489,489,404,553,532
477,472,528,569,566
483,495,553,505,549
503,538,470,496,521
507,518,456,511,504
523,470,528,480,496
507,412,535,460,491
510,525,501,427,495
540,535,639,480,457
536,533,630,477,472
541,516,552,468,494
553,509,564,551,491
521,469,540,563,521
496,460,407,487,539
513,573,487,479,530
508,572,549,506,538
491,462,530,493,557
472,426,466,462,591
469,465,471,458,574
488,495,486,503,556
501,514,515,516,524
524,527,529,512,478
512,509,539,468,482
507,560,495,437,486
519,567,557,484,476
525,545,615,507,472
524,563,613,544,494
540,530,570,513,505
543,519,457,493,509
523,512,499,506,513
529,587,541,520,490
527,568,476,513,517
506,517,483,512,529
488,499,542,566,530
465,455,526,572,551
489,502,513,494,543
513,525,528,462,536
526,542,559,512,507
510,522,587,495,517
504,499,503,469,534
515,477,471,476,498
510,481,584,528,492
496,496,699,499,516
527,516,647,460,482
534,468,440,420,498
534,502,415,477,493
549,550,515,561,461
528,546,496,544,485
522,555,530,535,505
498,493,495,531,542
483,506,475,512,579
480,489,496,516,574
480,456,540,526,555
478,438,495,471,565
490,508,542,451,543
490,536,525,458,529
514,529,486,429,516
510,500,537,446,523
523,462,553,483,501
515,461,517,490,495
522,408,487,505,482
537,478,524,542,477
531,474,458,551,490
541,556,572,560,470
535,571,687,579,478
509,527,536,537,508
485,527,390,516,532
486,541,436,537,534
497,550,481,501,541
507,565,488,500,528
495,515,455,464,537
492,473,488,488,526
512,550,522,502,511
522,549,603,518,492
533,534,636,491,484
552,511,635,483,470
552,458,593,523,448
541,459,623,593,460
527,507,632,518,522
524,502,409,419,501
516,543,449,453,517
522,565,574,559,542
500,528,497,579,528
486,527,421,513,542
501,533,459,502,522
507,511,453,494,510
508,489,467,526,478
513,513,479,525,479
503,504,512,466,505
498,498,589,465,509
506,492,617,463,504
528,495,547,469,530
525,512,482,481,540
521,506,537,520,514
543,495,512,542,489
524,472,482,542,512
518,542,574,546,516
539,554,546,549,509
507,549,503,548,524
505,524,495,506,536
484,502,508,485,562
489,508,500,491,556
498,513,509,495,538
504,493,484,531,518
498,476,582,509,533
505,503,593,512,526
515,531,509,503,516
524,508,468,484,496
533,488,533,498,495
520,468,570,519,483
510,471,568,512,500
527,530,549,495,500
538,560,554,532,498
525,513,483,565,505
498,494,459,525,532
504,477,447,515,521
490,471,436,506,539
505,526,470,513,523
500,524,509,503,531
498,470,484,503,520
502,396,564,552,517
484,358,609,581,523
474,353,525,446,538
496,528,523,465,524
521,612,539,496,506
534,616,533,468,507
539,571,551,481,492
549,554,510,498,480
549,528,490,531,483
539,515,540,580,494
529,576,663,602,495
520,522,570,482,509
524,529,480,452,513
510,465,466,565,518
483,468,499,554,533
482,519,433,475,554
489,511,400,486,537
524,494,488,497,511
514,498,469,493,510
514,516,480,484,515
516,521,504,490,512
518,528,524,483,519
531,535,532,496,499
525,510,594,524,511
537,523,666,558,471
527,538,617,558,481
531,492,489,554,493
528,476,449,534,498
509,453,392,505,514
515,490,478,479,509
513,553,518,545,533
501,554,454,556,547
509,543,524,559,519
501,502,540,531,523
498,501,505,518,526
493,474,616,519,512
491,478,677,510,503
506,441,648,504,509
506,534,513,518,497
514,475,420,517,469
530,477,478,504,479
532,501,479,514,476
536,549,486,537,494
531,535,485,542,524
525,561,498,537,538
498,522,481,528,538
489,521,482,529,543
482,487,495,521,553
495,498,500,516,539
511,515,503,512,525
515,521,569,506,504
508,510,574,514,515
504,490,503,477,513
499,450,452,451,515
515,451,526,496,511
526,461,508,503,505
525,483,497,506,497
534,561,555,549,484
531,512,608,552,491
529,532,588,541,489
519,549,502,530,509
510,544,467,532,516
507,530,474,534,514
512,518,506,519,529
499,470,494,519,524
488,440,598,488,535
463,396,536,518,568
475,506,444,550,561
516,535,519,462,528
522,544,512,496,504
523,536,486,493,505
513,513,582,525,509
530,502,609,534,489
540,553,534,524,495
545,533,477,505,484
558,521,554,582,444
544,513,582,570,452
531,569,589,559,468
500,557,485,531,517
485,503,463,497,541
505,521,433,458,518
508,508,433,480,521
488,501,438,525,543
487,470,465,546,533
478,448,477,497,532
498,495,507,497,498
501,466,572,507,507
511,486,629,521,514
529,530,599,532,494
527,505,529,519,483
520,530,455,508,512
530,519,459,510,519
536,538,491,550,513
539,538,493,553,500
536,525,488,555,502
519,501,488,548,510
509,470,484,519,530
515,502,486,494,534
498,516,549,525,548
481,514,573,511,550
476,477,475,457,549
478,478,563,482,576
489,466,516,522,547
505,529,495,525,525
519,484,473,490,510
529,491,508,491,496
554,523,523,525,461
545,519,534,545,448
532,551,528,549,473
527,543,514,546,468
532,511,497,540,459
521,504,500,553,494
499,494,519,570,542
505,562,576,561,540
496,528,516,516,552
469,434,386,469,583
484,493,532,483,570
506,554,579,498,527
506,511,561,530,516
496,470,479,518,512
501,506,467,500,512
511,512,517,508,529
521,522,537,506,510
539,524,545,515,491
544,512,573,525,481
556,522,574,562,478
536,515,518,543,481
539,519,447,535,492
546,528,465,558,500
505,466,461,529,531
481,463,441,511,542
485,476,467,518,537
483,497,476,512,521
500,518,492,489,498
502,536,522,491,486
503,527,526,497,480
505,505,535,500,499
512,490,543,512,498
524,481,529,511,492
516,454,519,524,486
516,509,564,546,534
532,532,571,555,514
523,486,548,552,510
518,497,506,523,515
524,567,457,535,515
524,540,471,523,512
512,527,443,457,530
497,503,475,524,553
480,453,535,560,546
490,492,520,529,546
492,483,526,507,556
499,529,524,507,545
498,477,509,489,536
511,527,502,502,515
524,520,526,527,506
526,499,547,545,501
522,492,541,542,494
537,511,538,544,476
537,533,607,554,480
533,504,568,544,492
534,552,469,552,489
517,516,449,531,512
520,517,486,546,510
500,516,476,550,536
487,488,457,505,545
496,513,450,507,551
497,539,514,546,531
511,502,496,503,516
506,499,487,469,526
500,507,537,476,518
507,485,516,481,516
515,481,548,511,501
528,487,518,540,492
526,499,532,531,486
530,525,504,521,487
532,538,530,536,492
532,526,533,549,475
531,533,569,562,488
512,524,577,587,516
493,509,510,547,530
483,518,428,490,549
494,520,486,483,533
490,500,453,533,536
490,522,506,537,521
500,503,516,508,509
507,490,510,502,519
511,474,512,495,515
508,485,529,512,509
523,501,542,528,513
526,491,529,525,500
545,507,523,507,490
532,505,550,537,496
526,518,532,543,504
527,521,504,563,491
521,522,489,551,508
518,527,482,539,511
497,518,487,534,520
490,502,474,529,529
493,515,501,513,541
489,492,517,508,539
500,507,523,507,530
495,497,510,499,527
501,482,490,503,520
515,496,511,501,506
512,485,517,489,506
514,480,529,514,508
534,515,548,532,484
548,515,535,533,479
540,482,533,545,485
530,467,524,539,488
522,491,488,528,494
522,566,525,543,501
510,520,497,559,503
501,520,473,558,499
492,531,470,529,510
488,508,489,526,512
489,511,492,514,529
498,519,523,498,521
504,511,545,501,542
499,504,517,495,553
512,492,551,492,519
508,480,497,486,506
520,471,499,502,507
525,486,513,524,489
537,520,516,542,488
536,524,530,553,493
534,511,500,545,494
528,524,498,546,512
517,529,503,555,517
500,524,493,541,531
496,520,488,529,533
497,519,486,520,549
490,513,496,522,552
488,504,499,502,539
497,500,508,503,524
503,498,519,507,516
506,493,523,502,523
507,479,518,497,516
515,483,524,505,504
533,509,533,519,496
534,502,533,529,490
530,513,529,536,486
532,505,515,546,494
525,503,504,550,498
519,506,493,546,501
512,519,493,544,520
502,528,491,537,530
489,511,479,536,535
495,517,486,519,537
499,518,499,513,531
496,507,506,507,537
498,500,512,502,528
506,497,520,501,511
504,492,524,499,511
509,491,527,506,505
521,499,530,512,496
519,499,527,520,498
524,506,527,532,488
526,508,521,545,491
526,515,513,554,483
515,522,504,550,497
516,523,501,554,503
506,516,484,541,516
505,516,480,532,531
501,509,485,528,529
500,513,491,516,541
505,507,496,507,532
510,501,505,505,526
506,503,516,504,522
512,496,520,502,508
510,488,519,499,510
514,486,523,509,511
525,497,530,509,507
536,501,527,522,493
540,509,528,536,491
534,511,519,548,498
532,518,509,548,499
529,522,502,550,498
522,521,496,550,508
506,514,484,540,526
499,510,482,531,533
491,506,484,526,535
488,508,493,516,539
493,504,500,508,531
496,498,509,506,526
503,496,518,506,515
502,491,519,500,518
510,494,527,504,515
524,496,530,509,505
522,497,531,521,498
516,503,537,536,500
526,507,520,534,494
528,513,514,541,496
520,519,506,552,491
510,520,500,551,501
499,516,492,548,508
476,509,482,540,529
457,506,479,529,541
461,505,484,513,534
469,506,492,509,530
488,507,503,506,526
489,500,513,505,524
505,496,519,500,515
514,490,520,500,509
542,495,530,504,506
558,499,533,513,497
553,499,529,518,492
549,507,527,527,489
551,514,522,539,487
541,518,513,545,498
536,522,511,549,512
531,522,500,548,519
516,518,489,538,537
502,516,482,529,546
502,513,487,525,544
502,509,490,517,543
505,505,501,511,551
510,501,508,506,546
513,497,517,505,530
511,493,519,499,517
512,490,525,500,512
518,492,528,501,507
524,492,530,512,491
533,501,530,522,485
537,508,526,530,471
532,511,520,542,466
524,513,511,545,473
514,517,504,552,489
509,521,498,549,491
495,514,485,536,527
490,512,483,528,542
496,516,488,521,531
498,507,495,514,526
498,503,502,507,515
498,501,511,502,518
507,497,521,503,505
517,494,525,500,501
512,491,530,501,522
513,493,531,509,515
525,494,529,511,507
535,504,530,519,518
545,509,526,532,503
550,516,519,545,485
538,519,511,546,491
527,522,501,544,504
521,521,494,543,513
505,512,482,530,528
502,513,485,526,539
499,512,491,519,527
500,509,501,514,512
502,503,506,506,511
504,499,515,502,532
506,497,527,501,532
507,493,526,496,530
503,490,529,499,528
513,491,530,505,507
523,494,527,513,480
532,501,529,528,469
534,512,527,542,468
538,514,515,544,477
542,519,508,542,504
540,521,500,542,496
522,517,488,534,528
511,514,485,529,531
502,513,488,523,535
500,509,492,515,517
500,504,500,511,507
503,500,511,504,507
502,499,520,502,512
494,494,523,496,517
494,493,527,495,542
505,490,531,501,535
517,495,531,509,514
533,499,530,522,498
527,507,529,533,498
524,513,524,538,493
527,522,516,541,508
518,520,505,539,517
512,518,499,544,516
507,514,487,537,535
482,511,485,526,555
482,511,489,517,541
512,514,497,506,535
506,507,504,506,517
505,503,515,502,513
512,501,523,500,500
519,498,525,496,506
524,498,531,496,509
524,493,528,498,511
527,496,531,505,531
534,503,529,515,514
546,510,527,529,477
541,514,518,536,475
530,516,511,540,491
519,517,501,544,503
519,520,494,539,513
510,513,483,527,532
505,512,483,520,529
503,514,491,515,535
500,508,500,510,539
494,501,506,504,535
498,498,513,498,529
489,498,522,495,538
497,497,530,499,503
519,494,531,497,478
525,492,527,498,485
523,497,529,507,497
532,509,532,519,537
545,516,531,529,532
530,516,512,535,527
514,524,505,543,536
508,526,504,546,519
507,519,491,538,499
498,512,483,532,485
500,516,486,524,505
484,509,494,515,524
480,506,502,508,515
488,501,507,501,515
495,500,519,499,520
499,496,525,496,544
491,490,527,489,556
498,488,526,491,524
519,493,530,500,512
541,500,529,512,508
544,507,526,526,494
549,514,521,534,480
551,517,509,538,459
540,519,501,539,471
528,521,500,540,484
516,515,484,531,489
505,511,482,523,511
502,511,486,517,521
506,512,497,514,508
505,509,503,505,510
509,504,514,503,505
513,503,524,498,517
505,495,524,489,532
502,491,530,490,556
512,491,527,496,530
520,494,527,504,505
533,500,526,516,488
540,506,523,522,483
541,515,518,528,499
528,518,507,533,522
523,523,498,534,515
518,521,494,534,508
503,514,482,523,517
502,512,482,520,519
500,511,489,510,531
501,509,502,504,539
498,504,507,500,538
508,500,516,497,533
520,498,526,495,522
514,494,528,493,492
521,497,529,493,489
529,496,529,495,478
532,496,525,501,469
540,504,527,517,476
537,511,523,525,498
532,518,515,530,534
532,521,507,533,530
529,521,499,533,513
514,517,489,528,528
499,514,483,518,538
495,510,483,511,536
488,508,492,506,544
484,506,503,501,544
490,502,511,496,533
491,498,517,490,532
500,495,524,489,534
499,489,527,487,540
504,491,530,491,533
516,497,535,499,516
520,501,531,506,509
527,507,528,517,496
522,511,524,528,492
515,516,512,531,496
521,520,504,533,478
520,521,497,529,486
499,513,482,521,511
486,512,481,516,530
476,513,488,508,563
480,510,498,508,558
473,505,505,496,571
485,501,515,495,556
508,498,522,490,536
519,491,523,487,515
523,494,528,486,500
531,492,532,490,476
533,497,529,503,470
539,503,531,509,482
545,509,528,523,489
549,514,518,523,480
552,519,510,530,486
555,521,501,531,477
549,523,497,529,485
522,513,480,516,511
509,511,481,510,528
493,509,489,506,548
486,507,499,502,565
484,503,507,494,549
497,500,515,492,533
504,497,523,488,531
500,492,527,486,513
499,490,529,486,501
509,492,531,491,498
518,493,530,498,494
530,501,529,510,482
540,516,527,521,473
522,515,517,527,503
520,516,506,531,485
519,517,496,527,504
507,518,490,524,511
489,512,483,522,523
498,513,488,508,525
493,509,494,501,528
504,507,506,497,535
512,503,509,488,546
511,498,516,485,549
512,496,525,484,549
517,494,530,482,552
518,493,532,483,537
517,493,532,488,505
522,496,528,497,487
536,506,529,514,465
536,509,520,520,460
534,516,512,526,464
533,517,503,528,463
526,520,496,529,476
513,514,485,521,492
502,515,484,514,514
497,513,490,506,539
501,514,495,497,553
509,508,510,490,562
508,501,512,484,524
503,496,519,479,520
502,489,522,476,535
507,488,526,476,518
524,490,530,480,507
535,494,530,487,496
537,499,529,498,490
538,508,527,510,489
535,510,517,517,488
522,514,509,521,510
512,519,503,526,512
512,522,500,528,515
502,516,487,515,531
498,511,484,505,534
495,509,490,501,535
493,509,500,492,541
492,503,506,483,533
494,498,514,480,521
504,498,524,477,517
506,492,525,474,512
512,491,530,476,510
515,492,531,479,506
521,493,529,487,498
527,501,527,497,495
532,508,524,509,508
536,518,517,519,499
528,519,509,523,495
516,518,499,522,499
508,517,491,518,504
494,513,482,506,524
492,512,486,501,538
493,510,496,494,537
492,505,501,485,536
506,505,511,481,535
507,497,517,476,525
509,494,523,474,514
511,494,528,472,515
515,491,529,472,513
520,497,531,486,512
531,500,533,489,513
533,505,528,500,509
539,512,523,512,498
534,514,512,516,498
530,518,505,520,499
516,518,497,520,505
497,512,485,511,513
491,513,484,507,521
495,512,491,496,535
497,509,495,487,544
495,505,504,481,545
503,501,512,480,536
511,499,520,473,529
512,491,522,467,522
511,490,528,470,515
511,491,534,477,497
519,493,530,480,475
530,500,530,493,476
530,505,525,504,476
531,511,518,512,483
529,515,509,517,495
520,520,503,518,501
513,521,497,518,509
493,515,485,507,531
487,510,483,496,545
489,510,492,492,546
488,507,498,484,542
495,503,505,476,546
491,499,513,471,532
496,496,528,471,513
507,493,530,471,497
513,490,531,471,489
524,492,531,474,497
539,496,530,484,490
539,501,528,488,494
538,507,526,504,490
528,511,514,512,489
525,515,506,519,491
518,517,499,516,488
506,520,495,516,514
493,514,485,503,533
492,510,486,497,515
497,509,491,489,532
487,506,498,485,545
491,499,507,473,527
509,499,517,469,528
507,496,524,468,537
492,490,525,464,527
495,489,529,467,516
516,493,532,474,509
518,495,527,482,495
533,503,526,494,486
539,510,521,504,480
549,515,513,513,485
539,518,505,515,492
523,520,499,515,506
512,515,486,507,526
504,516,482,499,534
506,516,489,495,535
516,512,495,484,534
508,506,502,478,532
506,505,509,473,531
506,499,524,474,515
504,496,524,468,507
506,495,531,470,504
514,493,530,469,502
522,498,532,477,497
526,501,531,488,497
535,509,528,498,504
535,514,521,510,506
531,517,510,516,504
524,520,502,515,500
519,520,500,514,505
497,512,482,504,523
486,509,483,497,529
485,511,489,491,529
497,511,502,485,533
501,503,505,479,530
498,500,518,474,525
512,498,522,473,513
515,493,525,473,514
512,490,528,469,512
518,492,531,475,508
522,494,526,481,503
532,501,528,496,495
542,509,525,504,485
539,513,513,513,487
534,521,508,520,494
524,519,499,520,500
514,523,492,515,510
499,514,484,506,526
492,511,485,498,533
493,511,493,494,534
494,507,500,487,531
494,501,508,480,529
499,499,517,477,525
501,496,525,476,518
505,494,528,474,518
513,490,528,473,513
519,495,533,482,513
522,497,529,488,509
532,503,526,500,500
540,510,524,512,495
531,511,511,515,488
528,516,503,519,502
526,520,498,520,509
513,516,488,514,513
500,512,483,505,518
491,508,487,498,528
489,507,493,493,529
493,504,502,486,522
499,499,509,482,520
506,499,521,481,517
505,493,523,478,510
511,492,528,477,506
519,493,530,480,504
523,492,527,484,496
528,498,529,496,492
531,500,523,504,487
538,509,519,518,491
537,514,509,520,499
533,520,503,523,506
524,519,496,521,507
507,511,483,510,518
495,512,484,506,523
482,511,490,500,522
477,510,496,492,529
479,502,504,486,538
489,500,514,485,539
501,501,522,482,522
506,490,523,476,515
514,488,528,478,510
524,488,529,484,505
529,495,529,490,497
531,501,527,498,493
542,509,525,510,486
538,512,516,518,486
532,517,507,521,491
522,518,499,522,497
514,520,495,522,514
497,515,484,509,540
490,512,485,503,548
495,512,491,498,543
500,508,499,492,531
496,503,509,487,525
494,498,516,483,521
498,494,525,481,513
502,494,528,482,506
509,492,529,480,501
518,495,531,486,501
531,497,527,492,494
532,504,527,505,494
534,511,521,515,485
535,516,514,522,491
531,517,505,524,495
522,523,499,529,508
513,518,491,517,522
497,514,483,509,530
493,512,486,505,530
491,509,493,497,539
491,505,502,491,543
496,505,508,486,536
503,497,518,484,526
508,496,525,482,515
510,491,526,483,502
516,490,528,482,502
514,491,528,488,497
525,498,529,498,493
532,506,525,508,489
536,513,519,520,492
526,516,510,523,494
528,522,505,528,508
521,521,498,526,506
499,514,486,515,526
490,512,484,509,534
489,513,489,504,536
496,510,498,498,531
504,509,503,491,534
502,500,512,486,537
511,498,521,486,520
514,494,524,481,508
516,492,528,483,505
520,491,528,487,497
525,495,529,493,494
536,505,530,506,490
535,507,527,514,485
535,513,518,523,491
530,515,506,527,493
527,520,505,529,497
519,519,494,527,504
503,513,485,517,525
495,511,483,508,533
492,510,494,503,534
492,508,501,496,530
496,507,509,493,531
500,499,516,487,522
504,496,522,484,520
516,494,525,483,521
524,492,529,485,516
526,493,531,490,509
526,495,528,498,501
530,504,528,508,489
532,509,526,521,487
521,513,514,529,481
518,518,506,534,496
520,520,501,536,508
516,512,489,524,516
506,516,484,518,525
494,511,488,510,531
494,509,495,503,534
497,506,503,498,528
499,501,510,491,525
501,496,518,488,519
507,496,526,487,519
506,491,526,482,517
508,492,529,486,517
515,493,532,495,507
531,500,529,505,497
533,505,526,515,492
536,510,521,524,497
532,514,511,533,495
528,517,503,533,499
521,518,497,533,503
507,515,486,527,514
495,509,479,513,528
491,510,489,509,540
491,504,496,500,527
494,506,504,499,531
498,500,512,491,527
502,498,521,489,518
507,495,527,489,518
506,490,530,484,514
516,492,530,492,509
520,492,525,497,502
532,501,529,511,498
534,506,524,521,490
535,513,519,529,497
528,516,507,531,500
525,519,504,534,507
518,520,497,533,510
500,512,485,522,525
494,513,486,516,529
488,510,489,508,527
491,508,502,507,530
495,503,508,496,535
500,499,516,492,526
505,497,523,491,524
507,494,526,488,522
517,492,529,491,517
520,497,528,493,507
523,494,526,501,494
531,506,527,513,483
537,513,525,526,489
528,511,514,530,494
533,517,505,533,500
523,517,498,532,506
513,517,491,531,515
497,512,484,520,521
495,514,489,514,526
494,509,493,505,529
495,505,501,500,528
491,505,508,497,528
502,500,520,493,523
509,497,524,489,513
510,494,529,489,512
512,493,528,492,502
520,493,530,497,494
528,500,530,508,497
531,503,526,517,492
537,511,520,528,485
535,519,515,534,491
530,521,505,536,496
525,521,499,536,505
505,515,485,527,538
492,514,485,517,542
488,509,487,510,532
489,509,496,506,534
491,505,504,500,528
492,500,517,495,529
504,499,521,493,520
513,495,526,491,516
516,495,526,487,510
517,495,528,491,509
524,494,529,500,506
537,501,529,512,502
534,505,524,522,496
533,512,518,530,495
536,517,511,535,497
530,521,502,538,499
521,521,497,536,506
502,518,485,524,523
488,511,483,516,530
486,510,492,512,534
483,508,500,505,528
486,501,505,499,526
488,500,515,496,525
499,497,521,491,520
508,494,526,493,511
512,493,526,490,506
517,493,529,496,496
523,498,533,504,492
536,504,527,516,493
539,510,523,524,497
545,515,514,532,496
533,517,507,538,500
522,520,499,536,511
515,519,492,533,519
499,513,481,523,529
492,512,486,516,536
487,514,492,511,537
487,507,501,504,531
485,501,508,498,527
493,498,515,492,525
495,494,521,493,518
503,496,526,491,519
533,492,527,493,510
533,496,530,500,506
538,499,527,505,495
545,506,525,519,488
545,511,524,529,495
540,514,511,532,497
535,519,504,538,501
524,519,497,536,506
506,516,486,529,522
497,512,482,519,526
492,514,486,514,527
491,510,495,509,524
494,506,503,500,526
493,503,512,496,517
500,499,520,494,512
505,495,524,491,520
508,493,527,489,523
510,490,527,491,517
520,495,528,502,506
530,502,530,513,493
532,508,526,524,484
531,513,516,531,489
524,515,507,535,499
518,518,499,534,496
518,520,497,537,508
507,516,486,526,524
492,511,483,517,533
489,512,492,512,534
501,512,500,505,530
512,504,505,500,523
507,499,514,494,523
504,498,522,495,526
508,498,526,490,517
507,490,528,488,506
518,493,529,495,504
523,496,528,500,500
533,501,528,515,491
532,508,524,525,487
538,514,518,533,488
526,515,506,535,496
519,519,500,540,504
508,518,494,531,511
499,515,484,523,528
494,513,486,515,531
493,508,491,506,529
498,507,501,501,529
498,503,510,496,530
500,499,516,491,524
505,495,522,488,517
508,494,526,490,514
516,492,529,490,508
523,494,534,497,505
528,501,530,506,500
533,504,526,517,495
536,511,522,527,490
533,516,513,533,496
529,517,505,536,500
522,519,498,536,502
506,516,487,533,518
496,517,485,519,528
496,513,489,513,530
496,510,499,505,528
492,505,503,502,525
495,501,510,494,520
501,498,524,492,517
504,496,526,489,515
504,492,529,487,527
513,495,530,491,521
524,494,527,498,510
535,503,531,511,501
540,507,527,522,490
538,512,519,529,492
530,516,512,534,497
524,518,503,536,500
517,520,498,538,504
498,513,486,524,522
489,511,483,520,533
491,510,490,510,531
493,508,500,504,527
496,506,508,499,527
501,502,516,494,524
505,504,523,496,519
506,493,525,487,512
514,492,529,489,509
518,492,531,496,502
524,496,529,502,495
537,504,528,514,488
539,510,527,529,486
533,513,518,532,492
527,518,508,535,497
516,519,501,536,505
518,521,496,535,512
500,514,486,525,524
491,511,484,513,531
490,511,494,508,535
491,508,503,505,532
507,505,510,496,529
502,498,517,492,525
506,498,525,493,514
508,492,525,486,506
517,491,530,489,499
526,497,533,497,493
525,497,528,505,488
532,505,527,517,498
539,511,525,528,494
533,515,518,532,499
523,518,507,538,503
516,519,505,536,512
503,516,488,526,521
497,514,484,522,532
499,513,491,514,534
488,507,495,505,537
499,508,507,500,539
502,502,513,494,525
505,499,520,493,517
507,495,526,488,517
520,496,529,487,520
520,490,528,489,514
525,493,533,501,502
533,499,531,512,496
536,507,528,519,487
534,513,521,530,489
529,518,511,533,489
528,519,505,535,495
517,517,498,536,510
501,514,488,526,531
491,510,486,518,537
490,511,491,510,542
489,506,498,504,538
494,505,507,497,527
498,501,515,495,517
497,504,522,497,516
504,495,528,489,506
502,491,529,488,515
512,494,531,492,512
518,494,527,500,503
547,503,527,513,493
551,510,527,525,485
545,513,518,532,495
530,517,507,536,494
526,521,504,539,502
518,521,498,532,513
502,514,487,524,531
491,512,487,514,533
488,511,495,510,536
486,508,501,505,533
490,506,510,498,537
492,498,517,491,529
507,496,524,490,517
521,494,528,487,516
548,495,531,491,506
535,492,531,496,500
532,497,530,504,491
527,500,526,515,486
537,509,524,528,487
534,516,516,535,489
533,520,505,537,490
523,521,502,539,502
506,515,490,530,519
496,513,489,522,535
493,512,490,515,533
490,509,495,509,535
493,507,506,501,535
496,502,513,495,520
504,500,524,492,523
501,497,526,489,519
508,493,527,487,513
514,493,531,492,510
518,495,531,498,504
526,498,531,512,498
533,506,528,520,493
535,513,522,530,492
532,517,515,537,498
523,518,504,537,500
519,521,500,538,506
503,512,485,525,524
496,512,485,518,535
493,512,492,512,538
491,513,498,506,535
494,505,507,499,533
500,502,517,494,529
499,496,521,491,518
509,496,527,490,512
511,491,528,491,504
520,493,535,493,502
522,495,529,502,498
531,503,530,516,494
535,509,525,525,489
535,513,519,532,490
531,517,510,538,496
524,516,501,537,502
519,520,497,537,514
499,513,487,525,527
492,512,488,517,533
496,514,495,511,535
491,508,502,503,535
493,503,511,498,532
497,499,517,493,526
507,497,526,494,519
509,498,528,489,515
515,492,530,491,508
522,495,531,498,501
523,494,529,504,501
530,504,530,518,500
534,510,525,531,497
536,514,516,534,496
529,519,509,539,493
523,519,501,537,494
507,520,491,530,519
496,512,487,522,532
492,510,489,518,533
490,511,498,508,540
494,507,505,500,530
499,501,511,495,517
504,500,521,493,513
508,497,526,489,509
516,493,530,488,511
516,491,529,491,506
526,494,531,502,512
527,500,532,510,503
535,508,529,522,495
536,513,523,532,493
538,516,513,536,495
532,519,506,538,496
518,520,502,539,506
496,514,488,528,521
491,513,486,521,530
491,511,492,512,531
494,511,501,507,530
494,505,508,499,531
503,503,517,495,532
512,500,523,492,516
507,495,526,491,516
510,493,528,487,511
513,492,531,493,506
519,496,530,502,503
529,499,529,514,493
533,508,527,526,490
532,514,520,533,495
532,517,512,542,501
528,520,506,539,507
520,521,499,537,513
501,513,487,525,524
494,513,488,516,537
491,511,493,510,535
489,507,502,503,526
493,502,511,497,523
497,499,516,492,519
507,497,524,492,516
508,494,527,489,515
510,492,531,489,510
519,493,532,495,500
524,497,529,507,500
534,504,528,515,495
541,512,528,527,487
539,518,517,536,490
533,515,504,537,496
525,519,501,540,503
509,518,492,532,512
496,513,487,520,521
492,513,490,514,526
491,511,496,507,533
492,508,505,502,534
495,501,511,496,526
500,499,520,493,521
504,497,524,489,515
511,497,529,490,512
511,489,528,493,505
523,494,530,499,498
527,498,530,509,496
533,503,530,518,490
536,510,520,530,486
534,516,512,537,492
528,519,507,539,500
515,518,499,538,505
498,518,488,529,518
492,514,486,524,529
493,513,490,515,531
492,510,499,511,533
498,505,504,498,530
505,503,516,495,527
505,499,522,492,518
505,496,527,490,519
509,492,530,489,515
517,492,530,493,507
524,494,531,500,503
533,501,530,512,493
545,509,527,525,491
537,514,520,534,495
533,517,510,536,498
529,520,504,540,504
518,520,499,539,511
500,514,486,525,527
492,513,487,516,537
489,509,492,510,537
490,510,504,504,536
489,504,510,498,534
496,500,517,493,525
505,498,527,491,517
505,494,528,491,509
509,492,531,491,502
526,492,531,497,497
535,497,530,504,500
535,505,530,520,490
537,511,527,529,488
535,516,517,535,489
528,517,507,537,493
522,520,502,538,501
513,519,493,532,516
498,513,486,523,526
495,514,489,516,539
498,509,496,508,541
501,507,503,501,536
500,503,511,498,532
504,499,522,495,530
505,496,526,491,520
503,492,529,490,512
510,490,528,490,500
519,494,531,499,497
525,499,531,509,496
530,505,528,518,490
535,511,524,529,488
537,517,514,537,494
526,517,506,543,501
521,520,501,539,508
507,514,492,529,522
497,511,486,520,529
490,510,492,515,534
488,506,496,508,531
488,503,505,500,528
498,502,516,497,522
501,499,524,493,516
508,496,527,491,523
514,491,529,487,517
523,493,531,493,506
536,494,529,500,504
537,499,530,508,495
541,507,528,523,494
531,513,521,535,490
524,514,511,538,496
520,518,504,539,504
514,522,499,540,512
498,513,487,525,528
493,512,490,517,533
488,510,496,513,536
488,507,502,506,533
488,507,507,504,533
497,498,516,495,520
504,499,525,492,514
502,492,526,488,514
508,492,531,490,511
519,493,532,498,505
522,496,529,502,499
530,501,529,516,493
542,509,525,527,488
541,515,518,534,491
537,518,509,538,497
529,520,503,539,504
516,521,494,534,520
499,512,485,523,531
494,512,488,516,538
491,510,494,510,541
491,506,504,501,537
503,503,514,497,527
511,499,519,492,516
507,495,527,489,513
513,494,530,492,508
515,492,532,490,507
522,493,531,502,496
530,499,532,511,494
536,504,529,519,495
532,509,523,529,497
533,515,516,536,494
532,519,506,539,502
522,520,503,537,517
504,513,488,527,525
500,514,487,521,526
493,511,491,514,529
493,510,500,506,530
494,505,509,499,528
501,506,514,497,530
503,499,523,493,522
508,494,531,491,516
513,492,528,489,511
517,493,532,493,507
522,494,531,501,499
530,506,530,513,493
538,509,529,525,489
535,514,522,533,490
527,514,511,537,497
521,515,504,544,503
517,519,498,537,511
504,517,488,529,528
489,511,485,517,539
497,510,492,512,536
498,509,501,508,532
497,503,505,500,531
501,506,516,498,529
507,499,524,493,525
508,493,528,491,523
514,492,531,491,513
517,493,537,495,510
525,497,530,504,505
535,505,530,516,496
540,510,527,529,490
537,513,517,539,490
527,516,505,536,493
521,521,504,540,499
513,518,491,534,512
500,516,487,525,535
490,511,489,520,540
488,507,492,509,537
487,505,502,505,529
490,504,513,499,530
496,500,518,493,527
501,498,529,493,519
507,493,529,491,510
512,492,530,493,507
531,495,531,498,503
533,499,530,509,497
535,504,527,517,494
543,512,523,531,492
533,515,516,537,497
523,518,506,537,499
518,524,501,539,506
500,515,489,528,519
496,514,486,526,529
498,511,489,514,529
497,510,498,508,534
497,506,506,500,530
500,502,515,499,528
505,500,524,494,524
512,501,529,491,520
514,495,527,488,511
520,492,530,493,503
529,496,531,501,503
532,503,530,510,493
531,508,528,523,486
528,515,522,532,491
520,515,511,534,498
515,519,504,537,510
506,520,499,537,514
494,515,487,526,527
497,515,487,519,535
506,512,492,512,533
500,508,500,506,529
500,506,514,499,526
501,502,520,493,522
506,497,523,494,516
512,497,529,490,524
517,495,529,488,520
524,495,531,495,508
525,495,529,503,498
533,503,530,515,493
539,511,527,526,491
538,515,522,533,498
533,516,509,534,497
526,520,506,537,506
517,519,495,536,516
504,514,485,525,525
490,510,487,516,530
491,512,495,510,532
493,506,502,503,528
495,503,511,499,531
497,500,518,493,525
502,496,526,494,522
509,494,529,489,517
518,493,531,491,514
519,495,532,498,502
521,497,528,504,499
531,504,528,518,493
539,513,525,530,490
535,515,514,535,493
526,518,506,538,498
520,522,502,539,506
503,514,488,529,520
506,515,487,523,528
497,512,488,514,533
493,510,495,506,541
498,508,505,501,539
504,504,515,496,531
506,498,521,493,526
509,496,526,491,518
508,494,529,490,517
516,491,529,493,508
522,495,531,498,499
527,501,531,512,495
532,509,528,523,486
535,515,522,533,484
529,514,511,535,497
520,518,504,538,502
522,523,499,539,509
508,514,485,528,523
500,514,486,520,533
493,511,490,511,534
496,511,501,508,532
495,505,507,500,528
497,499,515,495,520
502,500,525,495,515
505,494,526,493,511
516,493,531,492,509
521,491,530,496,499
528,495,531,508,501
529,501,528,513,497
535,506,525,526,492
537,511,518,536,495
530,516,509,539,503
520,519,503,539,501
516,520,497,537,508
502,515,485,525,524
494,513,488,517,534
488,510,492,510,536
494,511,504,505,533
496,505,511,498,529
497,499,518,494,524
507,498,526,493,518
506,491,527,490,516
511,490,530,491,513
517,492,530,497,503
523,497,530,507,497
531,504,528,516,487
538,512,524,530,486
542,514,512,535,493
534,518,506,537,503
518,520,500,539,507
509,517,490,532,522
500,512,482,521,529
495,514,490,516,535
493,510,495,507,537
495,507,505,502,535
497,503,513,496,529
498,497,520,490,520
506,498,527,493,516
508,493,533,488,512
517,493,531,494,507
520,494,532,498,498
526,501,531,513,498
529,504,526,521,495
533,513,521,531,494
530,519,511,538,495
524,523,506,541,499
518,520,498,539,505
503,514,486,528,525
499,515,486,520,534
497,514,488,511,534
497,513,500,508,534
492,506,505,499,532
501,502,520,495,526
509,499,523,493,518
509,494,527,491,514
513,494,529,490,509
522,494,533,497,507
527,495,529,501,496
535,502,531,514,490
538,509,527,527,479
533,512,518,535,484
522,515,509,539,496
517,518,503,539,502
513,520,498,537,515
496,514,486,528,529
492,513,490,516,531
497,512,495,512,530
497,509,503,505,526
497,504,509,497,527
505,500,521,494,520
507,497,523,491,517
512,496,527,489,517
519,492,533,489,510
519,494,532,498,508
518,494,529,506,504
529,504,529,518,494
534,511,527,531,496
530,512,516,535,497
527,517,507,539,497
522,521,502,540,503
503,515,488,532,517
497,516,487,523,531
491,513,491,517,532
489,511,496,509,534
491,506,504,502,531
502,504,513,494,524
506,498,520,493,519
510,496,527,493,518
509,493,528,489,514
517,493,531,493,509
522,494,529,499,501
530,501,530,511,494
534,505,532,523,492
536,511,522,533,491
531,514,513,537,494
527,518,505,540,498
519,520,500,539,506
502,513,490,527,526
496,513,485,520,532
495,512,492,517,532
492,510,499,508,530
493,505,506,501,530
503,505,517,497,526
504,499,523,493,520
502,495,527,494,517
506,490,529,491,510
512,490,532,497,506
515,493,530,504,501
528,502,533,514,497
530,509,526,526,490
546,514,518,533,491
543,517,511,538,496
525,521,504,541,503
512,519,497,540,509
495,513,487,525,530
502,509,486,517,530
505,511,495,513,534
501,509,505,507,532
498,503,509,499,530
499,497,516,493,526
505,496,526,494,519
509,492,528,490,513
513,494,531,492,510
520,490,529,499,501
532,500,531,507,498
537,502,527,518,491
539,509,522,528,491
536,515,516,535,492
526,520,507,540,500
520,519,502,538,506
513,516,494,533,523
496,512,485,523,530
491,513,490,517,538
486,508,494,506,537
493,507,504,504,529
493,501,512,497,522
493,501,517,498,521
507,497,526,491,513
517,495,531,491,509
516,493,531,491,505
528,495,533,501,501
529,498,530,507,495
537,506,529,522,495
541,513,523,533,498
534,514,511,536,503
527,517,503,537,496
521,518,498,542,503
505,513,485,528,520
494,510,484,520,528
496,512,490,515,525
491,507,497,506,528
497,507,507,502,528
499,501,514,496,522
502,497,522,494,514
506,495,525,489,514
510,493,529,490,508
516,491,529,492,508
524,495,532,499,508
528,501,530,515,493
535,509,527,528,490
533,513,518,535,494
526,514,508,535,498
522,520,502,539,506
513,520,496,535,510
503,514,485,525,527
492,513,488,518,533
494,511,493,511,534
496,510,502,505,531
497,504,509,499,531
501,500,519,492,525
506,497,522,493,514
508,495,531,488,514
511,491,532,492,516
515,492,530,496,508
521,498,530,509,501
531,503,530,518,494
535,510,524,527,493
533,514,513,533,491
523,518,507,539,497
514,519,506,538,504
515,519,491,533,519
500,516,486,527,529
493,514,489,518,531
493,509,493,510,529
494,508,505,504,534
494,502,511,497,525
501,498,518,495,518
507,496,524,492,513
508,494,529,492,513
512,490,529,493,509
521,494,532,501,503
526,500,531,511,497
531,504,527,521,488
531,511,523,531,485
533,517,513,537,490
527,517,506,543,501
520,520,499,537,509
506,516,488,529,523
497,512,485,521,528
499,513,490,516,525
492,508,498,507,522
497,508,507,503,535
501,504,515,497,532
507,500,523,496,520
508,496,526,490,518
511,492,530,490,517
516,492,530,495,507
524,497,533,503,501
526,500,530,515,493
532,507,528,527,489
531,512,519,533,489
531,518,511,537,497
533,519,503,542,497
520,521,498,537,506
503,515,487,529,523
494,511,487,521,524
493,514,494,512,535
495,512,503,506,538
499,505,511,501,530
499,497,516,494,528
511,498,526,492,520
507,494,528,490,517
513,492,531,489,507
523,494,532,499,499
524,496,531,505,497
530,502,529,515,492
535,510,525,527,488
537,516,518,535,493
531,518,510,538,500
522,519,502,539,502
511,518,493,534,518
496,512,486,521,532
491,512,490,518,538
487,509,494,509,540
493,508,507,505,536
495,501,511,497,530
504,498,519,494,525
511,498,523,491,514
511,493,532,491,507
513,489,531,493,505
520,492,531,499,495
525,498,529,509,491
529,501,527,522,485
534,510,524,533,482
531,515,514,537,499
522,518,505,536,502
520,520,501,539,508
503,512,486,528,523
493,513,485,522,535
489,512,495,515,536
488,510,495,507,537
493,510,508,502,534
494,502,514,496,526
501,499,523,498,520
509,496,527,491,515
526,495,531,491,510
527,493,535,493,508
528,493,530,501,496
533,501,532,515,493
539,508,528,526,492
540,512,520,532,493
536,517,512,538,498
528,521,506,540,502
519,520,502,535,504
506,515,487,527,519
492,511,485,518,526
493,513,495,514,534
495,510,502,507,529
497,505,513,499,530
500,502,517,496,521
504,498,525,494,514
503,496,528,491,512
509,491,530,491,508
519,493,533,496,503
523,494,528,504,499
532,502,528,516,492
539,510,527,528,489
535,514,517,536,491
527,514,507,536,496
525,519,505,539,505
514,518,494,534,516
498,514,487,524,529
495,514,490,518,535
494,512,494,509,535
495,509,505,506,535
495,504,510,499,531
499,500,520,495,529
505,498,527,494,521
509,494,531,492,515
514,492,529,492,502
522,496,534,501,500
524,496,529,508,493
533,505,529,521,486
534,511,524,531,486
530,515,516,538,492
522,516,506,540,498
523,520,501,540,504
503,513,487,529,521
493,512,485,521,533
500,514,491,515,534
496,516,497,509,535
495,506,506,501,531
497,503,514,498,531
505,498,521,494,525
512,499,528,493,519
509,493,530,492,507
518,493,530,497,493
527,495,528,501,482
537,502,531,514,479
542,508,528,528,485
538,512,521,533,492
530,516,509,536,501
526,519,505,538,514
517,523,499,540,514
499,514,486,527,527
493,513,488,519,534
493,511,498,512,534
492,507,501,507,532
496,505,511,499,528
500,502,517,502,521
503,497,523,493,519
505,495,527,491,519
516,493,533,493,512
517,493,531,496,508
527,500,532,506,502
529,503,532,514,492
534,510,527,527,487
536,515,517,534,489
531,518,509,539,497
526,520,502,539,505
514,518,492,534,519
502,515,487,525,533
489,512,488,520,537
491,512,495,511,525
495,509,505,505,526
497,505,512,501,520
495,497,518,493,519
503,498,526,494,521
505,493,528,491,515
512,498,532,495,504
515,495,532,501,499
518,498,530,507,496
522,503,527,518,493
526,509,524,529,492
521,514,514,536,504
532,519,506,538,505
538,522,502,539,512
518,516,489,531,526
505,515,487,522,531
498,512,489,515,537
494,511,497,508,538
496,506,504,502,534
503,504,514,498,531
509,499,520,493,523
518,500,527,492,517
510,492,527,493,509
514,490,531,494,504
518,494,530,503,492
529,500,531,515,490
537,507,527,526,487
538,513,522,531,491
530,515,512,535,494
523,519,505,539,501
513,519,496,537,507
507,519,486,528,525
494,511,489,519,534
495,514,490,512,533
494,511,499,508,534
502,507,506,500,528
500,506,515,496,522
507,498,521,493,514
507,494,525,492,511
514,493,530,491,512
522,494,530,494,500
525,497,529,503,501
530,502,526,513,490
536,509,526,527,488
535,513,518,536,492
530,515,505,537,497
522,520,503,539,505
513,520,496,537,511
501,515,487,526,529
492,511,487,517,536
493,512,497,512,537
494,507,501,505,532
496,504,510,500,531
501,500,521,494,520
501,495,523,492,515
507,495,529,491,514
513,492,531,490,507
519,493,532,500,503
524,499,530,507,503
528,502,526,517,494
540,511,524,530,493
541,516,515,537,497
529,517,505,538,503
523,522,502,540,509
506,515,487,529,520
502,515,485,523,528
493,512,489,516,529
492,512,496,509,532
492,505,503,503,531
498,503,511,499,528
501,501,519,494,523
507,495,525,491,518
513,495,530,493,515
516,492,529,492,509
523,494,534,500,503
528,500,530,512,495
533,508,528,526,489
535,513,522,535,488
532,516,513,537,494
528,519,505,539,500
520,520,498,541,508
503,515,487,528,526
494,514,487,521,536
489,511,490,512,535
492,511,500,510,535
493,504,506,500,530
501,501,516,497,520
506,499,523,492,514
516,496,527,491,515
517,492,529,490,514
523,495,531,495,509
527,496,529,503,505
531,501,530,514,496
534,509,526,527,487
526,512,519,534,479
521,515,507,539,489
522,519,503,538,501
516,519,497,537,502
502,512,485,524,523
495,514,487,519,530
489,508,491,511,538
489,508,502,504,556
493,505,511,499,546
496,498,516,497,525
506,498,525,494,515
507,490,526,490,513
518,491,531,489,506
522,492,531,498,497
528,495,527,505,493
529,502,528,518,491
536,510,526,531,488
533,516,516,538,493
525,517,507,538,496
529,520,500,538,502
509,515,490,529,515
493,513,486,522,529
488,513,491,516,538
485,509,496,508,541
487,506,505,501,542
498,505,514,499,534
510,500,520,492,524
514,500,526,492,519
512,494,530,492,512
517,492,531,493,504
524,495,532,501,496
523,498,530,511,490
530,506,527,522,489
534,512,522,536,487
529,515,514,538,494
525,518,503,538,498
525,520,499,540,504
510,514,488,532,523
495,512,483,518,529
488,512,491,510,534
487,509,498,508,532
490,505,506,500,530
501,503,516,498,522
503,500,523,493,519
506,495,529,492,514
510,492,529,490,511
518,494,532,496,509
525,497,527,500,504
531,502,528,514,498
538,509,527,524,492
536,514,519,534,495
532,515,509,538,501
524,518,506,539,505
515,521,496,537,507
500,514,486,527,517
494,514,488,521,526
490,511,493,510,536
491,507,499,504,535
501,505,510,499,530
503,498,515,493,522
504,497,524,491,519
505,495,528,491,513
511,496,529,495,508
517,491,530,496,501
523,496,528,505,498
532,503,527,517,495
543,511,527,530,490
536,515,518,536,497
531,518,510,539,506
523,520,500,538,508
511,516,490,529,521
502,515,489,522,530
496,513,492,516,531
492,509,493,506,529
499,512,505,503,528
496,502,512,496,527
496,498,518,493,527
499,495,525,491,518
506,492,528,489,514
511,491,529,495,508
522,493,531,498,495
528,498,529,509,492
534,506,528,522,491
535,510,522,532,490
533,515,510,537,496
527,519,503,537,500
518,520,499,538,507
508,516,488,528,522
497,512,485,521,529
493,513,491,515,529
493,511,498,509,533
499,505,506,500,526
504,502,515,496,525
505,499,523,493,523
507,499,528,491,523
506,493,529,490,515
515,493,529,494,507
521,492,528,503,492
530,501,528,514,484
535,508,528,525,482
534,513,519,530,491
532,518,509,538,502
529,520,504,539,506
518,518,496,537,510
504,514,486,526,526
498,514,488,519,532
490,511,493,511,530
497,510,502,509,532
496,509,507,497,527
501,502,517,495,530
504,497,523,492,518
507,495,528,491,514
514,496,529,495,510
522,493,529,497,501
527,498,529,506,498
532,503,530,518,496
536,510,525,530,492
531,513,517,533,495
527,518,510,538,504
520,520,501,542,509
510,520,491,532,520
496,518,485,524,531
495,512,489,517,534
494,514,493,511,542
496,506,503,505,533
501,501,510,498,527
506,499,518,494,524
507,496,526,492,513
505,496,528,495,506
511,492,530,493,505
520,495,535,501,502
527,499,530,510,498
535,507,528,526,493
538,510,522,532,490
533,515,513,537,494
528,519,507,540,500
521,518,499,538,504
505,517,487,530,521
495,512,485,521,531
493,512,491,513,536
495,511,499,508,538
495,506,506,501,536
497,503,514,499,532
503,499,522,494,525
509,496,527,494,516
514,493,529,490,509
516,491,530,495,501
522,495,530,502,497
529,501,530,519,498
534,508,527,526,498
537,514,519,536,498
530,514,509,537,508
527,519,502,538,510
523,520,499,538,498
510,515,486,526,515
493,511,484,517,525
496,512,494,513,529
497,510,503,507,526
496,504,508,500,532
496,499,515,496,524
501,498,525,494,517
506,497,525,489,513
512,493,533,490,511
519,492,531,499,503
521,496,528,503,500
538,503,531,519,491
540,509,526,530,489
536,512,519,533,491
535,516,506,538,496
521,517,501,539,502
511,518,495,532,518
498,513,487,527,530
492,513,490,516,532
490,512,495,511,538
500,508,503,503,532
498,502,512,498,524
502,499,521,493,521
503,494,526,492,516
508,493,530,490,513
517,493,532,493,508
524,494,530,499,501
529,500,530,508,496
537,506,530,522,491
537,511,525,533,489
532,514,513,537,495
525,517,505,539,505
513,520,499,540,510
500,514,488,529,523
492,513,487,522,534
487,510,491,515,534
487,509,498,507,534
495,506,506,504,532
502,503,515,503,525
503,498,522,493,522
508,496,528,492,517
512,494,532,492,515
519,493,532,497,506
528,498,532,503,505
532,501,530,512,494
542,508,528,526,486
540,512,519,532,491
530,514,510,537,497
521,516,507,538,505
514,520,498,536,508
498,513,486,526,525
499,512,488,520,532
496,511,495,515,523
491,507,499,509,523
494,508,508,505,527
496,501,516,494,527
506,500,524,496,519
506,495,528,491,512
512,496,531,492,512
514,493,530,495,507
519,495,530,503,502
524,501,526,514,496
536,509,528,525,491
545,515,517,536,491
532,513,505,536,500
525,525,501,539,509
512,521,494,536,522
497,515,489,521,538
500,515,489,515,540
497,511,494,508,532
495,514,503,509,529
498,504,512,499,520
501,499,519,494,513
506,498,526,495,513
511,495,530,489,513
517,493,532,494,507
528,496,533,501,491
529,501,532,510,488
525,505,528,520,486
530,510,525,528,484
529,516,513,538,492
518,519,505,537,503
518,522,502,539,509
501,514,488,529,523
500,515,487,523,534
496,513,491,515,536
492,509,501,508,537
494,507,507,504,533
498,502,515,498,521
501,498,521,494,518
507,496,527,492,514
513,492,530,491,506
520,494,531,494,500
524,495,531,505,496
532,503,529,511,495
540,508,527,527,488
536,511,519,532,490
531,516,511,536,497
522,519,504,538,507
516,521,499,538,510
502,514,491,525,528
492,514,484,516,536
486,514,491,513,536
487,507,500,506,528
496,508,508,502,530
496,501,517,496,525
501,499,527,494,519
504,495,527,490,515
509,493,531,491,511
514,492,531,496,504
520,495,530,504,502
531,506,530,516,494
537,511,527,528,492
531,513,518,539,492
523,516,508,539,498
516,521,502,542,507
507,518,494,536,513
492,513,486,525,530
494,513,489,519,534
500,511,495,511,535
499,507,503,505,527
501,504,512,500,525
500,498,518,493,520
507,496,528,495,513
509,493,528,491,513
518,491,532,492,513
522,494,532,497,504
530,502,532,509,500
536,502,527,520,491
541,510,524,531,486
534,515,515,537,498
523,515,505,537,497
519,520,501,540,506
502,513,486,528,513
495,513,487,524,522
489,514,489,516,526
492,511,498,510,538
497,506,506,504,535
498,500,514,498,530
503,499,521,495,523
506,495,526,494,517
510,492,530,491,515
515,491,531,495,508
521,494,532,504,499
524,501,531,513,493
530,506,529,524,493
535,510,521,533,488
531,516,511,536,490
525,519,505,540,501
517,518,498,538,505
504,515,487,530,522
495,512,487,521,531
492,511,492,515,529
491,507,499,507,529
493,506,507,503,530
496,504,516,498,525
499,498,524,493,524
508,495,529,491,522
514,492,531,492,511
520,493,532,497,502
525,495,530,505,497
532,505,529,520,493
535,508,526,526,487
534,511,517,534,498
530,515,507,538,504
523,520,502,542,504
513,520,497,538,515
499,515,486,524,529
494,513,488,516,534
492,510,495,511,533
498,510,504,505,531
499,504,511,498,528
502,499,517,493,525
505,499,527,494,521
511,491,525,489,512
515,491,530,491,506
518,494,531,497,500
517,497,530,508,507
526,502,527,519,498
538,510,525,531,483
541,515,516,537,492
525,517,507,538,505
521,521,503,540,512
512,515,490,531,526
499,517,483,522,534
491,514,491,516,538
488,509,500,508,539
491,506,505,503,530
498,502,512,496,519
503,501,523,492,518
507,498,526,490,511
511,495,532,490,512
518,493,531,495,511
521,495,530,503,505
529,502,531,513,497
534,505,526,524,487
535,511,521,533,488
530,515,511,536,490
525,520,505,541,499
516,520,499,540,507
500,514,486,528,524
495,511,486,522,533
490,511,492,514,531
493,509,501,508,529
489,503,507,500,529
499,505,516,496,525
499,497,523,493,519
505,495,528,493,516
506,491,529,489,512
517,494,531,497,507
528,496,530,504,497
532,502,530,517,493
534,507,526,527,489
532,511,518,535,489
527,516,510,539,498
523,520,503,537,505
516,520,497,538,517
498,514,486,524,528
493,514,489,519,535
492,513,491,509,534
503,509,503,504,531
500,504,510,501,529
502,500,518,495,523
508,499,528,492,521
512,495,529,491,515
522,492,531,492,514
523,494,532,496,503
527,497,530,509,499
532,503,527,518,490
537,509,524,530,488
535,514,516,536,495
525,519,506,539,498
522,520,502,540,508
509,515,490,533,519
499,514,487,524,529
499,516,491,517,536
490,508,495,506,533
494,506,506,505,530
499,503,513,501,526
501,498,520,493,524
504,495,525,490,521
507,493,528,490,515
518,491,531,493,509
522,494,531,502,499
528,500,530,515,494
536,506,528,522,489
536,511,520,533,490
531,515,512,536,495
525,519,502,538,503
520,519,497,538,508
506,515,486,531,521
496,511,485,521,530
496,512,493,514,534
492,510,500,510,530
497,508,510,502,533
497,501,516,497,525
508,499,526,494,523
508,495,527,491,515
510,493,531,493,512
519,493,530,497,510
521,496,528,501,499
531,507,533,515,494
542,511,531,532,485
540,515,523,536,483
526,517,514,539,498
517,519,504,537,505
515,521,505,536,517
502,516,489,523,529
493,514,494,518,537
491,509,487,510,535
499,509,496,506,529
497,503,508,501,525
497,498,518,500,522
507,501,524,493,513
512,493,527,490,513
522,492,529,490,506
523,493,531,496,505
526,496,527,504,501
530,504,529,518,497
537,511,526,530,495
533,515,520,534,494
528,516,506,537,501
524,517,498,538,508
513,517,489,533,515
502,514,487,530,520
492,516,494,522,528
494,514,496,511,538
495,510,495,502,536
496,510,512,497,533
500,497,517,492,524
503,492,511,492,516
510,489,507,488,512
515,488,512,489,509
520,493,523,497,500
526,498,524,510,502
537,507,526,523,492
537,511,520,532,489
528,514,505,529,499
524,523,505,530,503
520,522,500,528,506
502,514,485,516,527
492,509,487,507,536
493,513,498,506,538
493,508,514,503,539
498,503,536,505,531
502,501,538,513,522
506,495,532,504,515
505,494,571,504,511
511,491,554,502,506
519,496,525,489,507
526,498,532,478,500
541,509,521,493,492
538,509,482,511,494
531,512,497,525,500
532,516,489,528,505
522,527,504,547,503
515,525,503,556,512
500,515,485,538,530
491,504,476,517,541
496,508,490,507,537
493,505,486,506,537
499,510,511,512,525
500,498,506,510,519
507,491,487,502,511
520,493,473,499,508
511,476,491,490,506
508,471,518,495,509
523,488,528,510,500
530,487,522,521,498
532,481,520,537,494
528,488,524,548,491
524,498,520,556,500
518,506,520,555,506
505,503,498,543,517
495,510,484,519,525
493,521,488,494,526
498,525,517,501,521
507,516,513,506,517
506,503,505,498,518
497,500,516,489,527
501,519,536,491,522
510,515,544,504,512
515,512,552,513,513
528,516,550,497,510
532,514,554,501,496
543,521,550,527,486
543,523,544,540,477
533,523,530,543,486
533,526,518,543,494
534,522,507,540,494
519,512,496,530,508
504,515,496,527,523
500,517,499,520,520
500,511,503,510,524
495,501,516,502,529
504,499,520,498,518
498,497,524,490,521
518,498,532,487,513
520,499,542,487,506
514,500,543,488,500
514,495,536,490,504
526,489,528,497,505
533,493,521,521,498
531,504,505,544,502
520,508,504,559,510
521,523,521,562,509
526,533,506,557,507
506,527,469,538,521
489,514,461,513,533
503,514,462,499,530
494,499,471,493,533
503,503,499,491,516
514,495,513,491,503
516,490,525,491,499
507,481,524,495,514
513,475,514,494,519
519,473,508,495,521
519,476,519,504,518
522,488,557,533,505
546,503,574,542,492
549,505,547,556,489
554,538,530,563,479
520,524,488,554,500
494,520,513,555,520
491,517,494,560,537
482,522,450,530,539
489,541,435,517,533
498,545,468,518,534
500,528,481,532,529
511,517,493,522,518
515,495,506,512,514
508,487,534,513,516
512,482,516,504,513
527,497,515,517,500
540,517,524,529,487
544,532,543,544,481
541,521,517,552,478
541,526,505,551,485
531,522,502,563,491
516,504,534,590,500
507,493,524,607,514
487,487,443,578,544
476,482,453,544,555
483,497,476,507,537
507,522,516,501,523
511,531,543,506,510
505,495,538,514,508
507,508,526,500,510
511,491,529,514,520
525,482,546,546,505
518,513,560,547,499
521,532,510,526,511
531,540,479,524,493
524,527,493,569,494
522,526,531,579,501
513,510,495,567,511
514,513,522,571,514
504,518,494,595,520
500,523,514,581,518
503,510,522,571,522
504,487,555,566,519
485,452,560,536,531
493,465,560,524,530
513,480,568,531,520
499,476,578,528,527
493,456,572,531,516
526,505,544,543,492
537,512,560,552,487
529,518,570,587,489
565,527,612,599,468
565,523,619,595,462
529,521,576,595,492
514,519,475,532,527
493,476,445,495,541
489,498,539,552,538
501,520,536,591,520
501,506,537,569,513
488,472,487,522,523
484,474,444,518,528
509,513,529,525,526
516,567,577,531,507
517,540,566,536,502
530,536,548,516,505
531,531,548,511,501
513,488,509,531,513
524,486,475,525,512
517,488,500,589,513
516,509,493,588,509
528,559,513,550,498
522,555,510,573,502
516,534,481,578,505
498,527,531,552,518
487,503,527,550,533
491,495,523,538,535
482,486,447,484,547
491,464,458,483,535
507,490,562,521,517
508,508,593,509,508
495,482,612,502,517
503,486,594,538,516
519,488,518,553,503
534,488,524,511,487
535,469,523,519,486
547,530,508,565,481
537,549,447,577,479
523,546,475,572,497
522,514,437,563,500
500,491,429,557,518
490,482,470,558,538
477,455,548,563,558
486,459,605,518,552
505,516,565,481,535
496,557,469,508,533
512,522,502,556,507
520,503,530,568,493
514,467,412,502,500
510,465,452,483,517
523,480,513,543,492
521,460,499,555,495
526,486,546,574,486
544,510,596,608,460
525,449,558,540,496
521,428,533,488,515
507,430,453,481,525
500,543,501,488,537
508,595,427,500,526
498,559,510,532,535
491,546,550,540,543
515,541,535,536,513
498,511,595,544,516
506,513,623,487,506
525,561,636,486,511
540,518,609,506,491
527,483,578,560,494
537,442,534,532,489
528,452,403,497,484
521,483,392,507,497
525,516,396,526,498
542,560,447,590,482
558,573,483,652,481
521,517,482,629,494
480,519,458,559,538
485,505,524,500,541
494,494,486,495,538
482,470,586,458,553
498,418,635,459,514
502,414,578,501,515
492,366,458,507,527
492,342,432,535,520
513,472,640,534,501
522,551,686,501,502
527,520,685,490,517
515,528,582,540,521
527,502,427,513,499
536,492,493,574,492
537,561,516,606,468
531,537,468,548,477
515,562,471,572,505
492,521,506,533,533
488,513,513,463,534
503,524,452,392,526
502,469,459,435,520
505,440,631,529,498
506,390,482,487,483
514,435,413,502,498
500,467,496,576,507
516,442,496,528,474
527,477,525,485,476
507,406,603,458,512
507,371,534,467,517
530,603,434,533,501
540,646,494,600,483
538,564,563,583,493
507,442,532,504,531
496,454,540,445,560
485,451,523,461,573
489,486,568,473,544
517,564,505,502,516
503,616,487,464,519
508,604,494,481,484
518,597,491,513,478
496,598,517,425,515
519,620,508,449,498
532,550,524,493,484
530,556,579,520,518
546,549,563,548,510
550,540,570,539,497
533,534,576,528,506
524,512,438,535,504
508,512,405,514,506
497,536,442,464,540
495,501,447,475,545
491,505,508,491,544
487,510,536,536,534
483,510,463,465,549
489,522,441,393,552
481,496,521,457,555
501,496,532,462,525
534,532,562,470,493
532,505,545,472,499
528,480,523,473,511
533,488,551,505,490
520,469,559,508,499
524,469,548,527,504
522,462,546,527,505
519,473,563,511,511
508,515,604,488,527
511,554,634,529,526
497,509,639,519,537
497,489,658,471,532
491,499,612,464,534
488,432,296,472,516
510,438,377,446,496
517,444,475,507,492
515,447,497,445,525
511,522,438,456,531
506,462,429,490,515
506,466,457,482,501
545,598,530,498,486
551,505,524,487,498
538,532,483,490,490
528,584,494,538,484
522,616,536,520,504
504,574,541,518,539
501,563,566,522,520
505,553,520,493,519
516,534,535,483,514
505,482,511,479,520
498,485,586,449,513
502,410,525,466,513
492,401,514,493,517
504,425,522,460,520
501,469,522,475,530
486,493,482,453,541
534,578,515,492,497
533,557,637,592,485
519,510,705,455,508
526,535,666,448,489
527,504,489,462,488
529,538,474,549,485
500,537,527,589,515
502,570,551,487,523
512,562,542,461,518
500,520,524,483,519
500,480,451,467,519
497,425,516,458,517
496,445,663,566,507
512,523,599,563,516
507,513,506,460,522
512,490,429,425,532
526,433,470,499,497
518,505,516,490,498
526,562,498,499,483
521,567,477,494,493
527,487,453,508,501
515,409,469,522,509
522,521,492,513,523
519,550,517,512,526
500,571,528,520,532
495,568,528,480,526
511,569,580,486,515
512,493,536,512,509
483,404,460,533,524
497,402,472,461,510
512,505,611,421,487
513,595,717,450,517
488,579,613,482,528
502,503,494,437,522
537,497,486,456,494
529,428,457,499,498
521,427,464,530,501
525,467,519,551,479
537,547,622,574,455
547,605,663,566,453
527,614,512,533,481
510,555,509,505,488
498,512,677,522,499
500,506,555,520,494
493,450,374,493,551
499,422,442,451,535
498,463,504,468,520
501,527,458,429,541
517,579,525,431,526
523,601,618,494,513
517,573,578,505,510
540,563,527,504,513
535,557,477,552,518
534,556,492,528,504
518,537,498,504,533
520,525,511,529,525
515,460,490,517,531
499,386,484,505,538
479,418,510,490,538
484,499,571,484,545
487,509,591,518,552
503,539,551,488,525
505,614,569,525,521
496,569,514,460,547
508,540,480,433,539
514,510,486,450,508
536,494,551,508,488
525,489,588,511,502
531,513,580,523,513
535,525,602,536,500
549,564,539,539,468
546,564,468,513,466
519,519,555,511,502
499,486,409,486,536
488,525,390,474,536
488,508,485,515,537
481,452,473,478,547
477,396,439,469,552
486,406,488,471,540
506,468,526,480,525
530,532,600,554,486
527,503,683,516,489
511,518,590,461,513
501,513,488,457,527
511,478,448,438,518
544,521,502,517,482
547,504,506,543,466
515,420,499,544,482
503,487,447,530,506
521,592,454,524,513
526,619,518,535,517
493,506,517,522,545
474,447,470,473,552
491,475,515,507,538
498,472,483,497,527
504,554,512,501,501
498,547,556,518,509
504,559,599,489,529
502,547,583,484,516
522,534,472,476,507
534,507,454,464,495
533,501,578,521,498
537,484,595,506,495
536,510,534,530,497
532,516,487,540,497
535,542,557,553,494
516,579,551,550,507
502,568,513,493,531
490,492,470,463,537
509,475,535,475,521
495,459,589,552,529
481,436,524,491,520
492,507,519,444,528
506,505,537,484,510
512,496,534,539,493
519,552,478,489,509
528,499,550,515,506
531,528,561,478,496
537,532,503,484,490
521,540,492,518,482
514,498,505,511,516
523,502,512,574,501
526,512,517,572,506
506,486,478,528,522
493,476,452,509,541
482,449,459,506,550
490,503,494,495,541
518,597,535,507,526
501,515,572,507,515
491,482,627,499,530
506,502,697,494,539
529,538,720,490,506
523,477,466,477,489
522,486,486,478,490
556,538,453,467,453
558,497,491,535,449
526,470,461,539,452
523,514,484,569,486
529,547,444,534,515
522,495,466,550,501
492,529,491,547,523
483,569,572,508,541
500,523,561,494,552
511,475,520,459,538
492,479,481,498,540
480,422,478,478,532
497,470,558,473,511
508,469,463,459,508
510,464,523,489,509
528,576,539,519,497
533,552,514,499,500
543,548,567,541,493
534,513,590,551,501
524,451,543,531,513
523,500,498,525,509
533,579,488,528,509
518,606,541,544,528
493,552,592,529,546
489,516,505,506,541
481,518,517,475,546
494,515,624,508,532
496,493,494,479,533
497,481,406,432,546
508,475,428,471,522
505,491,543,508,512
518,493,541,491,518
535,523,559,518,496
538,522,547,529,486
515,503,534,513,500
523,515,441,528,505
543,534,468,541,490
528,530,504,555,484
526,521,520,542,484
514,519,539,537,491
487,462,493,526,521
477,474,398,492,554
490,481,413,481,540
494,483,420,467,512
512,532,533,484,500
522,527,594,506,519
496,508,534,489,552
507,539,544,482,542
515,521,596,517,514
514,491,591,498,499
528,476,490,509,499
526,463,475,523,501
536,511,564,550,474
536,529,552,533,494
527,478,547,552,479
525,490,526,536,508
494,493,408,471,553
492,517,417,520,541
497,559,537,527,544
495,574,533,485,536
491,516,477,490,543
494,480,488,489,553
512,438,523,472,520
515,396,518,498,512
519,464,554,506,513
522,529,615,491,496
530,592,611,501,490
535,521,516,490,494
542,540,644,550,478
554,542,588,594,453
519,535,450,567,495
500,501,378,483,540
502,527,465,453,553
492,510,477,479,546
486,486,464,541,562
496,505,471,538,534
496,540,483,497,534
501,532,505,492,533
503,511,516,495,528
522,508,527,487,504
513,492,522,490,503
523,501,521,494,496
519,489,543,496,496
524,501,631,512,499
534,468,600,508,495
535,442,518,514,494
504,412,427,542,522
516,544,478,520,513
533,537,499,548,506
525,547,476,574,515
503,537,621,593,517
475,514,619,538,537
484,541,573,458,533
492,531,445,448,524
494,493,384,521,512
501,505,480,517,505
518,484,492,479,496
532,444,493,478,477
526,472,479,482,497
526,437,487,489,502
531,538,585,541,505
537,553,665,557,501
528,568,531,480,504
512,559,411,547,516
526,507,484,559,489
510,498,565,558,507
493,530,512,529,541
492,528,451,491,560
507,557,496,525,533
510,520,480,505,528
500,523,491,498,535
502,492,501,479,534
505,473,508,490,517
524,491,505,483,489
520,498,542,498,497
512,493,625,512,517
537,513,650,544,482
526,521,496,509,495
532,542,482,500,501
537,520,467,539,495
530,525,487,525,495
517,516,454,529,494
509,524,486,522,501
497,524,545,521,545
495,519,537,531,547
490,517,463,520,551
479,498,463,503,541
497,473,502,450,534
494,418,493,485,526
503,441,520,500,502
509,470,511,482,498
505,508,511,493,510
515,547,569,514,503
533,536,563,510,488
542,532,535,524,492
536,533,625,546,492
528,522,478,529,493
525,522,463,523,518
516,506,522,546,523
516,514,483,533,522
515,512,460,538,526
500,513,518,561,538
485,469,458,515,552
491,442,446,473,532
488,431,472,486,533
491,473,506,498,534
507,562,513,505,518
521,529,542,452,494
532,508,564,482,499
520,510,589,497,500
524,524,532,522,490
541,520,520,507,496
544,482,504,575,479
540,459,488,567,481
508,419,458,555,516
509,532,508,587,497
505,573,515,551,510
481,526,505,526,539
486,529,487,533,526
507,537,485,520,519
501,520,498,479,533
502,497,511,454,555
494,487,544,490,550
493,470,510,503,542
506,489,526,489,525
529,573,604,520,501
533,536,604,539,490
533,503,522,543,483
534,499,466,538,494
539,512,479,541,488
522,503,496,556,499
520,555,550,570,509
511,529,552,549,523
497,512,485,517,538
493,511,478,525,535
488,523,602,540,542
500,532,640,524,529
496,504,491,496,534
502,503,436,509,529
492,492,459,514,528
500,472,480,493,526
517,480,500,495,516
521,468,494,519,511
526,502,518,549,499
535,486,525,555,490
538,478,513,560,487
538,543,508,574,493
534,527,483,533,502
525,526,496,539,506
510,512,486,535,519
499,517,477,540,532
488,513,486,546,542
502,519,480,506,523
493,509,499,507,526
495,513,514,516,517
494,505,506,509,526
499,505,557,509,531
511,498,538,508,520
515,495,509,505,516
523,491,509,518,498
523,496,522,541,501
532,505,522,544,485
535,504,519,559,484
527,506,510,571,495
531,498,497,555,509
527,529,493,560,487
495,512,506,554,533
488,506,496,549,536
488,510,457,530,540
498,520,518,525,527
505,527,492,509,527
498,510,505,506,525
500,498,513,514,515
508,498,516,518,510
516,499,532,510,508
523,497,522,519,507
524,492,525,503,504
534,508,530,505,489
549,528,540,553,482
538,517,521,596,475
537,518,507,577,488
522,512,500,578,510
514,513,492,549,515
494,515,468,544,552
490,517,470,533,549
491,500,492,535,533
491,488,490,524,540
488,472,478,510,536
494,491,522,523,534
511,502,510,506,523
503,493,520,504,523
510,486,525,510,512
521,494,542,519,505
530,494,534,533,497
536,501,508,540,495
539,532,510,535,479
538,536,530,559,486
533,520,506,556,505
520,508,486,570,506
504,512,479,578,524
494,500,485,560,537
491,479,497,541,534
493,494,492,527,541
489,480,482,505,536
498,497,510,521,528
506,516,514,511,523
505,518,521,512,516
517,516,528,513,513
524,502,528,517,511
519,498,527,530,508
524,503,525,544,495
525,494,522,551,492
536,510,515,555,493
534,527,509,558,489
526,538,503,564,500
522,531,500,568,506
507,522,491,559,523
495,520,487,552,532
495,515,497,544,530
494,513,506,527,531
495,506,485,513,526
501,503,501,514,526
501,499,512,511,526
503,499,518,511,527
509,499,525,512,517
517,498,528,519,507
520,496,524,527,502
524,498,524,542,497
528,509,523,553,491
530,519,518,561,490
525,516,506,566,497
520,519,500,566,509
515,517,493,566,503
500,516,479,549,527
487,508,481,536,540
496,508,483,528,536
502,516,495,526,535
499,507,505,520,527
500,500,511,515,525
499,496,515,510,522
495,492,520,508,514
500,492,526,512,507
507,490,527,518,504
512,494,524,526,502
519,500,524,540,494
520,508,522,552,490
530,515,516,561,485
531,521,506,561,492
533,529,501,565,507
512,517,488,552,517
494,515,484,548,524
487,513,486,535,532
485,510,491,531,537
499,509,498,521,534
504,503,510,516,529
505,498,513,508,525
515,494,518,508,515
523,493,523,509,509
532,499,534,517,508
541,499,529,518,503
538,500,528,532,489
524,506,529,549,482
488,510,524,556,487
470,509,512,560,486
463,508,501,560,498
461,511,495,552,521
453,511,483,544,537
445,507,476,533,551
466,506,481,523,552
522,512,495,520,544
584,512,505,520,510
579,519,519,520,498
548,504,521,508,507
537,498,525,506,501
539,498,529,508,500
546,498,529,516,506
541,500,528,515,530
543,507,531,532,525
553,513,528,549,501
541,515,521,554,509
523,518,509,549,504
526,521,502,553,502
517,520,496,556,499
497,511,482,539,512
499,510,483,526,529
500,510,487,525,537
498,509,497,519,539
505,507,506,513,540
510,505,513,506,535
498,498,522,506,529
489,495,529,503,522
494,492,528,506,505
509,493,531,513,498
519,497,529,521,496
523,503,528,533,490
538,512,528,549,493
541,514,515,553,507
548,519,510,552,516
539,523,504,559,523
518,518,492,550,548
514,517,489,542,553
510,515,489,532,555
497,507,490,517,548
498,505,498,511,531
509,504,511,510,517
514,500,516,502,499
526,499,521,501,467
532,497,524,501,460
532,493,526,503,476
541,499,529,515,478
536,500,527,522,484
547,505,526,535,488
542,512,519,543,497
540,519,514,552,501
534,516,506,549,488
531,521,502,554,495
514,517,491,543,515
502,513,485,532,522
494,510,486,524,522
487,506,493,516,519
480,502,501,510,528
484,501,508,505,523
495,496,515,501,506
502,497,525,502,507
506,495,528,503,518
516,495,533,509,534
523,497,532,515,542
529,503,532,528,503
539,512,532,541,488
536,513,519,545,492
527,515,507,543,506
524,520,503,544,508
517,520,497,540,507
499,515,486,533,524
501,513,485,524,542
502,513,491,523,547
505,513,502,515,537
501,507,508,508,538
504,501,514,503,532
513,497,521,505,520
522,496,525,503,503
531,493,525,502,497
527,489,528,510,490
532,501,531,523,488
534,505,530,533,483
533,511,526,540,488
517,511,516,542,493
501,513,505,542,499
486,515,499,541,507
471,511,488,537,524
464,513,482,525,535
463,506,485,518,548
471,506,495,515,546
508,514,503,509,541
521,509,514,508,543
522,504,517,501,551
518,502,527,504,537
510,497,531,505,529
504,492,529,507,515
514,495,531,513,504
522,501,529,526,487
527,507,529,535,464
529,513,523,543,452
524,515,513,545,462
529,519,504,543,489
503,517,496,542,504
489,512,484,532,509
487,511,484,526,517
497,508,488,517,533
498,505,495,513,533
496,505,503,509,533
506,501,510,501,547
530,496,514,493,535
565,502,525,500,516
565,499,529,499,522
551,498,531,508,514
535,497,530,512,503
519,498,526,523,488
518,505,524,535,477
507,510,518,543,484
491,513,509,547,497
488,516,502,545,513
496,517,496,545,499
505,515,483,532,506
537,515,485,524,500
525,515,493,521,519
510,512,500,513,528
510,507,509,506,533
514,502,515,502,534
511,497,521,500,541
509,495,526,500,527
509,494,528,501,512
526,495,531,510,501
525,500,530,518,515
528,505,529,525,516
539,514,528,538,509
536,516,516,541,506
527,518,505,542,500
531,517,495,540,507
530,516,489,535,503
523,514,483,528,517
507,511,486,517,520
505,515,491,514,522
507,509,501,510,521
512,505,507,498,517
516,498,514,497,497
499,493,520,501,497
501,491,524,497,498
505,493,525,499,497
509,491,527,507,513
516,502,526,519,506
526,505,529,528,510
536,511,521,538,508
545,517,513,544,509
547,520,503,544,502
533,521,498,541,511
506,513,485,529,526
493,513,482,522,525
496,514,490,519,524
494,512,498,512,525
489,507,506,508,541
497,503,512,502,546
509,496,517,498,556
509,496,523,496,533
509,495,527,496,522
523,496,530,503,499
529,494,526,508,487
529,499,527,519,468
540,511,528,534,460
537,513,518,536,494
529,516,509,541,515
521,521,504,540,532
508,520,496,538,529
491,513,485,530,515
477,507,481,517,512
483,506,486,514,508
496,509,500,512,516
490,504,506,502,540
488,498,511,494,575
511,499,524,496,573
514,495,529,497,539
516,495,531,495,514
522,494,530,500,505
532,499,526,506,480
539,505,529,521,465
532,508,521,528,473
535,515,517,539,487
531,517,505,543,498
520,519,499,540,512
511,517,491,536,514
496,512,482,523,516
489,507,483,512,520
488,507,489,509,528
491,506,500,503,534
512,504,509,499,530
524,499,515,494,522
520,496,526,488,514
520,493,523,488,508
521,490,526,491,492
524,493,527,499,486
529,499,527,510,483
545,507,527,521,480
542,516,521,531,506
533,518,514,539,528
519,518,504,538,527
506,519,498,541,515
501,513,486,531,520
496,513,485,524,528
490,512,490,520,538
480,510,497,507,545
471,503,502,495,559
489,502,512,495,550
499,498,518,487,530
498,496,524,487,513
505,491,525,485,515
515,491,528,490,508
542,498,530,501,495
555,504,530,511,492
549,509,527,523,479
549,513,519,531,480
541,516,508,534,493
530,519,500,534,493
528,520,494,533,508
500,514,484,520,547
485,515,487,514,557
482,511,490,507,548
483,508,499,498,556
490,505,509,496,565
501,503,517,492,530
498,495,522,486,514
507,493,521,484,503
526,492,526,487,497
524,492,526,489,489
517,491,523,493,483
522,499,523,505,493
531,507,524,523,498
540,513,517,533,499
524,512,503,533,494
515,514,498,537,481
523,517,491,530,503
512,515,486,508,551
499,515,488,499,578
494,514,493,493,572
504,510,499,488,545
505,502,506,485,522
508,502,514,482,518
518,496,522,478,497
516,495,526,480,472
523,499,531,485,474
519,498,528,488,479
521,495,525,493,484
535,504,523,508,479
536,507,518,518,483
538,518,511,527,495
540,516,502,530,503
523,521,499,532,505
511,516,489,522,504
498,517,484,514,516
495,515,492,508,526
496,512,501,498,529
495,507,505,489,532
498,503,514,486,524
505,497,517,476,509
508,495,522,474,513
506,491,526,473,516
510,489,528,480,496
518,494,529,490,493
535,503,531,504,489
537,508,528,518,486
538,513,521,524,488
544,516,509,528,489
531,517,503,526,499
522,520,497,528,506
506,516,488,522,520
496,513,487,510,538
485,513,494,501,542
488,512,504,498,533
484,509,506,485,528
487,500,514,480,519
493,497,521,477,510
502,496,526,476,511
512,493,529,478,511
524,494,530,482,504
521,495,527,490,505
528,503,527,504,499
531,509,524,516,494
522,515,518,526,494
519,516,506,528,500
523,523,501,531,503
524,520,495,527,513
503,517,486,516,530
489,512,488,504,541
487,509,492,498,539
489,509,501,492,539
491,505,509,486,535
508,499,515,486,521
519,498,522,482,518
514,494,526,477,516
519,494,529,479,506
515,493,529,486,505
508,498,526,494,502
514,501,524,505,490
514,508,519,519,476
522,515,513,524,477
520,517,504,529,484
521,521,496,529,491
521,516,488,520,540
501,518,485,513,546
501,516,494,506,548
506,512,499,501,543
508,511,503,488,532
511,504,508,480,519
516,496,516,475,512
520,495,522,479,509
516,497,526,478,514
521,494,534,481,522
527,495,528,480,518
533,498,526,492,497
529,505,525,506,500
530,509,518,518,501
535,514,508,523,519
531,517,502,525,528
511,516,494,524,524
496,513,487,520,518
507,515,489,511,522
497,510,491,500,518
490,510,499,494,501
493,504,505,484,514
499,501,515,479,521
499,497,520,473,526
505,494,525,473,521
509,492,528,476,515
513,492,528,478,507
524,497,529,489,478
531,503,529,497,486
535,510,526,511,495
534,514,515,519,498
524,512,506,519,505
519,519,501,524,506
514,520,496,522,515
508,514,485,512,517
493,511,486,501,514
491,509,489,491,522
496,508,501,483,522
499,503,509,478,513
498,498,515,471,518
503,497,523,469,514
507,496,527,469,515
512,494,529,476,509
519,495,531,480,500
524,499,529,488,502
533,505,527,501,491
542,510,523,513,480
539,516,514,523,485
527,517,503,522,499
521,518,499,527,506
504,514,486,513,523
494,512,483,505,534
487,515,490,500,534
486,511,497,492,535
489,508,505,489,532
502,504,515,480,528
504,498,517,473,518
511,496,524,473,509
509,494,525,472,508
517,492,529,476,505
524,495,530,485,502
528,500,529,495,496
530,505,526,508,495
529,510,519,518,489
528,513,510,522,498
525,516,500,522,503
515,520,497,524,508
503,513,485,514,524
495,513,485,506,534
492,513,491,500,538
492,511,498,493,532
494,505,505,484,530
499,506,514,483,523
503,499,521,479,521
505,496,525,478,516
510,493,529,477,511
515,492,530,483,508
525,497,529,493,499
531,503,527,503,491
534,510,525,514,489
538,516,517,525,491
532,516,506,525,498
522,521,499,528,503
516,519,494,526,514
498,513,483,513,526
488,516,489,507,530
495,513,494,502,532
493,508,502,494,532
493,507,508,489,526
495,499,517,484,524
498,496,524,483,522
505,493,527,479,520
510,492,528,480,510
529,494,529,488,500
535,499,530,498,494
535,505,527,509,495
535,512,522,516,501
533,515,515,526,505
525,514,502,524,512
525,518,497,527,509
507,513,487,520,504
501,511,485,511,517
496,512,489,506,524
498,509,494,499,533
507,508,504,493,532
507,503,512,488,533
514,500,521,483,521
514,498,525,482,506
512,492,528,481,503
507,488,529,483,495
519,493,529,488,500
524,504,528,499,500
536,508,528,512,492
536,512,521,519,487
534,514,510,523,485
528,516,503,525,496
522,518,497,525,503
502,511,483,515,522
477,507,483,508,539
466,507,489,502,539
478,509,497,494,535
489,503,506,487,530
512,505,517,490,518
514,500,521,482,527
515,496,526,478,527
514,494,526,476,521
519,491,530,483,514
530,495,527,490,503
534,501,527,502,491
537,508,526,515,475
539,515,521,524,482
534,517,514,526,492
525,519,503,528,496
522,518,498,527,497
507,515,488,516,521
498,513,488,508,527
498,511,494,504,537
496,508,502,495,538
494,501,507,486,535
499,499,516,485,532
502,496,524,482,512
506,492,525,478,509
514,490,529,479,503
522,494,530,488,505
525,496,529,496,503
529,503,528,508,502
534,509,524,520,491
536,515,515,527,496
531,515,506,529,505
525,520,502,530,511
509,515,494,523,526
497,514,486,515,539
489,513,488,508,537
488,509,495,500,536
500,506,502,494,528
516,501,509,486,525
508,496,516,482,519
507,495,525,481,511
506,493,528,482,509
518,491,528,484,505
525,493,528,491,501
527,503,528,503,502
534,507,529,517,497
533,511,520,526,483
529,514,512,534,486
524,518,504,537,496
529,521,500,537,508
512,515,487,525,526
504,513,485,513,535
496,511,490,506,538
495,508,498,500,536
496,504,505,492,533
501,501,515,488,525
504,495,517,482,521
506,492,525,482,514
511,495,528,483,512
519,493,530,489,505
525,495,528,496,499
530,502,526,510,490
534,510,524,523,491
535,513,518,531,487
527,516,509,533,493
522,519,502,536,503
518,522,498,536,516
499,513,485,523,528
492,513,485,515,535
495,512,493,507,538
495,509,499,498,537
494,503,508,489,537
500,499,515,487,529
505,497,522,484,524
515,495,527,483,519
519,492,528,481,509
522,492,529,493,503
530,499,530,504,498
534,505,527,518,491
535,511,523,526,486
531,515,515,533,489
527,517,504,536,498
521,521,500,538,504
506,517,491,531,518
496,515,482,520,527
492,512,487,512,530
487,507,492,503,533
485,507,502,498,535
500,503,510,496,532
504,500,518,489,528
508,494,523,485,525
514,494,528,486,521
517,491,527,486,512
523,492,527,493,500
530,499,528,507,493
535,507,528,519,493
534,511,520,528,489
532,516,512,539,495
524,517,503,536,498
520,519,498,537,503
503,514,484,524,521
496,513,487,518,531
491,513,491,513,531
486,509,495,503,536
486,504,502,494,539
493,502,511,492,528
493,497,518,488,526
522,497,525,488,513
516,492,526,490,508
526,492,528,493,499
527,495,528,500,503
527,498,528,515,498
537,510,528,523,492
537,513,518,531,489
534,516,508,534,500
527,520,500,536,511
521,520,497,536,514
505,514,485,526,528
496,509,483,515,531
496,510,490,510,527
496,513,498,506,521
496,504,507,498,524
498,501,514,498,524
497,497,520,491,520
498,493,523,490,507
501,490,526,488,500
511,493,529,498,499
526,499,527,504,501
532,504,527,516,507
532,509,523,527,499
537,514,514,534,498
526,518,507,536,500
523,523,502,541,500
513,518,491,533,518
493,512,483,522,540
498,515,488,517,544
506,510,493,509,542
502,507,501,505,540
498,501,508,497,530
502,499,514,491,522
501,494,521,490,513
507,493,524,488,512
524,494,527,490,503
534,495,532,499,496
533,500,528,510,492
534,505,524,521,482
539,514,523,535,486
533,518,514,541,493
522,517,503,538,503
536,523,498,544,504
520,516,488,530,528
504,513,482,522,533
498,513,490,519,530
495,509,496,511,529
490,505,504,501,534
492,503,513,496,525
497,498,517,491,523
508,496,524,490,516
510,492,526,489,509
516,492,527,492,502
530,495,528,500,504
532,501,529,513,497
541,508,525,526,493
545,512,517,535,494
536,517,509,541,501
528,519,505,540,505
521,520,494,540,508
502,513,483,527,528
499,513,485,522,532
502,512,495,512,534
497,511,501,506,533
500,504,507,499,532
502,500,515,497,523
504,494,520,492,520
509,493,524,490,513
516,492,528,493,508
523,494,530,499,501
529,496,530,507,499
532,503,526,520,493
540,510,526,530,492
536,516,519,540,491
526,517,506,542,502
521,519,500,542,506
513,518,492,538,515
500,512,482,527,525
493,510,486,519,532
490,510,492,510,537
494,508,501,506,532
493,502,508,498,530
499,498,515,493,523
504,496,522,493,519
509,494,526,491,514
515,494,527,497,510
527,495,528,501,503
527,500,529,512,499
535,505,526,523,492
537,511,521,534,490
532,516,513,540,496
521,515,501,539,504
518,519,498,542,505
504,513,485,532,521
492,512,485,525,529
490,510,488,517,530
491,507,495,510,527
497,506,505,503,528
498,503,515,499,524
498,502,519,493,520
504,495,526,492,515
506,493,528,489,515
515,492,529,493,507
523,495,528,502,500
535,503,530,517,495
538,510,528,529,489
537,513,521,536,491
533,517,511,539,496
525,519,502,540,505
518,520,497,539,515
503,516,489,528,532
496,513,485,519,537
493,511,491,512,530
494,510,499,506,534
492,505,507,500,533
497,501,514,496,532
497,497,522,491,529
501,495,527,494,513
509,491,532,493,492
521,493,532,498,491
524,499,527,507,496
529,502,526,516,493
536,511,524,532,497
534,515,517,535,499
526,515,507,538,505
526,521,502,540,507
520,518,494,536,513
501,516,485,526,521
494,512,487,522,527
499,508,497,511,531
499,511,501,504,528
497,501,508,498,522
501,499,514,492,519
504,494,522,490,516
508,492,525,489,512
520,492,529,491,501
527,497,529,500,499
529,498,529,508,497
534,504,526,521,487
538,509,523,533,481
535,518,514,541,492
523,515,504,539,504
515,517,498,542,504
502,512,485,530,520
494,511,483,522,530
491,511,490,516,531
498,509,499,508,532
495,504,503,500,537
498,501,511,495,532
502,496,516,491,528
504,494,523,490,519
506,492,527,491,511
509,488,527,495,508
518,497,528,501,507
532,501,533,516,496
534,505,526,527,484
531,511,518,533,488
528,515,513,539,494
521,517,503,542,499
519,520,500,542,506
500,514,487,530,528
498,513,485,522,532
495,512,489,515,531
510,511,500,510,528
514,507,511,501,526
507,503,516,496,527
504,496,519,491,523
504,493,525,489,520
519,494,528,490,515
518,493,529,496,509
521,496,528,505,500
529,502,527,517,491
530,510,527,531,488
525,514,517,538,492
523,515,511,537,500
525,518,502,541,505
535,520,496,539,514
509,514,485,527,531
495,510,485,518,530
493,509,493,515,534
494,507,502,506,535
489,507,509,497,529
502,500,518,495,519
511,497,523,491,515
513,494,526,490,516
518,493,528,494,509
525,496,531,501,501
530,500,534,509,495
536,504,527,521,490
538,512,525,537,489
530,517,516,540,495
523,516,504,538,507
520,521,505,539,512
507,517,490,533,525
497,514,486,524,531
495,512,488,517,531
490,509,494,508,530
493,506,505,502,528
500,502,512,497,526
497,498,518,492,527
504,495,525,490,517
509,494,529,490,513
515,493,530,495,505
520,495,530,502,498
529,500,529,512,488
536,506,527,524,487
535,513,522,536,493
530,515,511,538,498
523,518,502,540,508
522,519,498,546,515
506,514,487,530,529
496,512,485,522,536
491,508,491,510,533
490,508,497,507,531
499,504,505,498,527
499,501,514,499,522
501,495,520,490,517
507,494,524,492,511
512,492,528,490,503
517,491,529,497,499
521,495,527,506,498
531,504,529,518,498
536,508,525,532,488
535,518,519,538,491
530,516,508,540,498
520,519,502,542,509
512,517,496,542,517
501,515,487,526,524
499,514,488,521,534
492,515,491,511,531
496,507,502,505,529
497,502,512,498,521
501,500,518,496,511
506,498,525,493,507
509,494,528,491,508
515,494,531,493,509
515,494,531,498,523
523,496,533,506,507
528,503,528,522,493
535,512,525,532,488
534,514,516,539,486
529,517,507,540,498
518,519,501,546,507
507,518,491,534,524
500,516,488,526,528
497,519,492,517,534
490,510,496,509,538
492,506,504,502,535
508,504,514,499,528
512,499,520,494,524
517,497,526,491,519
520,495,532,489,512
521,491,529,493,508
529,494,529,501,502
529,502,527,511,501
533,507,528,524,491
533,511,522,534,494
530,516,513,540,500
524,519,505,540,508
518,522,501,542,506
501,514,489,532,523
495,512,486,521,532
492,510,490,515,532
492,507,501,509,528
494,505,507,502,527
499,502,516,497,518
497,496,520,492,521
499,495,526,490,517
506,491,530,487,511
511,493,528,494,504
519,495,527,502,499
532,504,532,518,493
541,510,528,529,491
544,514,519,536,491
536,517,515,538,500
528,520,504,541,510
522,522,499,540,518
507,514,488,529,532
498,513,490,521,537
496,513,495,515,535
498,511,503,506,529
498,502,508,498,521
497,498,514,494,519
498,495,526,488,518
504,492,524,487,516
507,489,527,489,513
518,492,530,496,501
526,494,527,503,491
526,500,526,517,491
537,514,525,530,493
527,515,516,536,500
528,516,505,537,508
525,520,503,539,508
522,516,491,537,522
507,513,486,523,532
496,512,490,517,526
492,508,501,509,525
493,506,503,501,523
495,500,510,495,527
503,499,519,492,527
515,495,525,489,521
515,493,528,489,512
517,493,529,490,504
524,496,529,501,499
529,500,529,511,488
531,507,525,520,487
535,513,522,533,488
531,517,519,539,496
522,517,504,539,505
520,520,498,539,508
502,513,489,531,526
494,515,487,521,532
493,512,491,515,532
496,510,499,507,525
494,509,506,502,524
497,503,516,496,520
500,497,520,490,518
505,495,526,489,512
509,493,529,489,508
515,492,528,494,500
525,494,526,501,498
528,504,527,514,496
535,510,527,530,491
535,514,519,536,497
526,517,508,538,506
524,521,500,539,502
514,522,495,538,505
498,515,490,528,521
495,513,487,519,539
490,510,492,510,543
487,508,500,507,543
488,503,508,497,545
493,499,517,495,527
499,495,521,491,506
500,494,530,486,500
518,494,530,491,491
525,494,529,497,490
530,496,527,505,496
537,505,531,518,494
540,511,524,530,487
540,516,515,539,492
530,517,506,539,501
523,520,501,540,501
517,515,488,531,517
499,512,485,525,533
491,512,490,518,533
489,510,495,509,540
491,507,504,503,535
494,503,511,497,527
503,501,519,493,519
510,499,526,492,515
512,495,527,490,512
516,493,530,493,507
527,495,532,498,503
528,500,529,508,496
533,507,530,524,495
534,512,522,533,488
535,517,515,539,492
522,518,505,540,504
517,521,501,542,509
501,513,488,531,527
494,512,486,523,546
495,512,492,516,545
493,511,499,511,533
492,505,505,498,533
497,500,514,495,529
500,496,519,490,523
505,493,524,490,515
516,492,529,492,510
518,494,531,497,506
521,495,529,504,500
528,500,530,516,493
532,510,527,528,490
536,513,517,535,497
529,515,508,537,497
520,516,501,538,502
517,520,499,539,511
510,514,486,528,522
499,512,487,519,529
494,509,492,512,530
491,507,501,506,531
488,507,508,500,530
493,499,517,497,523
489,495,521,490,516
495,494,527,490,514
515,494,531,492,510
515,494,529,497,506
522,497,527,506,499
548,505,529,520,493
548,510,525,530,489
539,515,517,538,492
528,516,507,540,499
524,521,504,542,505
513,517,493,535,519
500,513,490,528,530
496,514,491,518,533
489,512,494,511,533
493,508,503,503,526
493,501,510,496,523
500,497,517,492,523
507,498,523,490,519
516,495,529,489,514
518,493,530,489,509
520,493,529,498,502
519,498,529,509,501
526,506,528,522,495
526,509,521,531,488
537,517,517,540,492
524,516,503,537,499
527,520,499,541,506
514,516,487,530,520
497,513,487,520,528
496,513,492,514,533
494,511,499,508,534
496,507,507,500,532
498,503,515,495,526
498,497,517,490,520
500,494,525,488,515
512,494,530,489,513
524,499,530,494,504
525,495,531,502,497
533,502,530,515,493
538,509,528,528,488
535,514,519,534,490
529,520,510,541,499
521,519,503,538,512
517,520,498,538,512
503,512,486,527,524
495,512,488,521,534
497,511,493,512,535
494,509,502,505,537
490,503,509,496,536
496,499,517,495,526
506,498,521,491,518
511,494,531,487,512
513,491,531,489,506
519,493,531,495,503
525,496,528,504,493
533,503,529,521,487
537,510,526,529,483
535,515,519,538,495
525,516,504,538,502
519,518,503,541,510
510,517,494,535,519
495,512,487,526,525
491,513,491,522,524
491,510,495,510,529
497,507,504,505,522
499,503,512,497,520
504,502,518,491,522
506,495,523,491,520
507,491,527,487,515
514,491,529,491,505
527,494,530,500,497
526,496,529,510,491
533,506,530,527,484
535,511,525,535,488
530,516,516,539,491
525,515,508,537,506
523,521,502,540,516
510,519,489,531,527
498,512,487,522,536
493,511,491,516,541
492,508,498,506,537
496,505,506,501,530
497,500,513,496,522
498,496,521,493,519
500,493,525,489,518
508,490,529,491,514
519,490,530,493,508
519,492,528,502,502
528,502,533,515,497
534,507,529,527,493
537,512,522,535,492
534,517,514,541,502
526,518,504,538,506
521,519,500,541,508
504,513,492,527,523
495,510,485,518,529
492,514,491,515,533
494,508,502,508,532
500,504,509,500,526
508,502,518,497,520
508,496,521,489,521
510,492,525,489,518
514,490,529,490,512
521,494,533,502,501
521,497,531,509,499
524,501,529,518,495
535,509,527,531,491
538,513,519,541,481
531,514,508,542,487
520,520,504,543,497
508,518,496,536,515
494,513,486,524,529
490,509,489,517,531
492,509,494,508,535
495,507,502,503,535
497,502,511,497,529
502,498,518,495,524
503,495,524,491,518
506,492,528,490,516
514,495,529,491,509
519,494,530,502,503
524,497,532,508,498
529,505,528,522,492
541,513,526,535,488
537,517,521,540,496
528,517,509,537,504
519,516,501,542,506
506,514,490,532,523
497,513,487,520,528
489,512,492,520,534
490,513,497,509,534
492,505,505,501,533
493,499,513,495,525
500,500,520,492,524
508,494,526,492,514
513,492,529,487,508
522,492,530,495,505
526,495,534,500,499
532,501,530,513,495
538,507,529,528,490
537,511,521,536,488
528,516,513,540,495
521,519,504,539,508
518,521,500,541,514
505,516,488,529,530
491,509,485,521,534
483,508,491,515,538
495,509,501,508,534
494,505,508,499,534
503,508,516,496,526
501,497,521,488,521
503,494,525,488,514
521,493,531,488,508
524,494,530,494,503
524,498,529,503,500
529,502,528,514,497
536,511,527,529,496
529,515,519,537,498
533,517,510,538,506
534,522,504,541,504
521,519,495,535,512
509,518,488,527,530
504,514,489,517,533
498,511,495,511,531
497,508,503,503,530
497,503,510,495,529
501,498,517,493,522
507,499,525,490,517
510,494,526,487,509
504,491,528,493,509
511,495,531,500,511
516,498,530,507,503
530,505,529,520,493
543,513,524,530,492
544,519,519,538,501
535,518,506,539,503
525,520,503,541,506
513,516,490,533,519
500,513,486,523,531
496,511,491,517,535
495,511,499,509,539
497,507,507,502,535
499,503,514,497,524
504,498,521,493,516
506,496,529,488,513
509,493,528,490,511
514,490,529,493,504
522,494,533,502,498
532,501,532,513,491
535,506,527,526,487
537,511,522,536,487
534,514,512,541,491
527,517,506,542,501
518,522,502,540,512
501,513,490,529,525
494,513,491,519,538
492,510,492,513,533
490,507,501,508,529
487,501,505,498,529
493,504,517,496,524
487,492,519,491,525
490,491,526,492,521
498,494,530,486,508
519,494,530,494,504
553,498,532,504,502
548,501,530,517,501
544,508,526,528,497
544,517,519,536,494
535,515,508,537,500
524,519,504,541,506
515,519,497,537,510
496,513,486,525,523
494,514,491,521,529
490,510,494,512,534
490,507,501,500,538
502,502,512,495,535
504,501,518,493,528
506,496,523,491,517
508,493,526,489,510
513,491,529,491,507
518,495,535,498,503
527,499,530,508,497
534,506,528,519,492
539,513,526,532,488
535,516,516,538,491
526,517,507,539,504
518,520,502,540,505
505,515,489,530,518
495,515,485,524,532
497,513,491,518,530
500,509,496,508,529
501,506,504,502,527
501,502,512,498,523
503,497,518,492,522
508,494,524,489,515
512,494,530,489,515
519,492,535,492,511
518,494,530,502,502
525,499,530,511,494
532,507,527,527,494
532,512,522,536,494
530,519,515,541,500
522,518,506,540,504
518,521,501,542,508
504,515,488,531,525
498,513,487,522,535
493,511,492,512,534
494,513,499,507,538
498,507,507,500,532
504,502,517,496,521
504,494,517,489,518
508,495,526,491,513
511,494,530,491,509
518,498,529,496,505
523,496,528,504,495
531,503,533,517,493
533,509,527,531,487
534,513,520,538,491
528,516,510,540,497
518,518,502,538,506
512,519,498,537,516
506,515,488,527,527
493,513,489,518,531
490,510,494,512,535
491,508,503,505,529
490,505,508,500,527
496,500,518,493,525
499,495,522,488,524
509,494,527,489,516
526,494,531,492,509
524,493,529,497,500
529,498,530,506,495
532,503,528,519,484
539,512,525,534,479
536,517,518,540,488
524,515,507,541,503
514,523,501,543,515
503,516,490,532,528
490,512,486,525,535
485,516,489,516,538
492,512,497,509,535
498,508,508,501,526
511,504,514,496,525
510,499,519,493,519
508,496,526,490,511
513,493,528,489,507
519,492,531,494,505
527,496,532,502,499
530,500,532,509,499
538,507,534,522,494
537,511,521,531,490
537,517,516,541,497
525,517,504,539,504
517,520,500,540,511
503,516,489,531,526
491,513,486,520,532
489,511,494,514,536
493,510,501,506,537
492,504,507,498,535
505,501,514,494,524
509,496,520,489,520
509,494,527,490,516
512,495,529,491,508
525,491,528,494,502
526,495,529,506,502
531,501,528,515,497
540,513,528,528,492
533,512,519,535,493
531,517,510,540,501
521,517,503,543,509
521,524,500,540,520
500,514,488,526,536
497,513,488,518,535
491,511,495,512,539
496,511,502,507,526
491,505,509,499,525
497,501,519,496,525
503,496,523,489,521
504,493,527,488,516
511,492,528,490,508
524,494,536,498,500
533,497,530,508,498
537,502,528,520,491
542,514,526,532,488
532,515,518,538,494
519,514,506,537,503
515,519,503,540,510
506,516,493,533,521
491,512,483,521,531
494,510,489,515,533
500,509,498,509,530
494,506,507,503,531
497,503,513,497,528
497,499,518,492,521
504,495,525,491,514
509,492,529,489,513
517,492,531,492,510
523,494,531,499,504
529,498,530,509,499
536,505,529,525,497
538,512,523,532,496
532,514,515,537,499
521,516,504,539,507
522,527,502,541,503
504,514,490,530,520
492,509,484,519,529
494,510,491,517,534
495,509,502,508,530
490,507,504,500,530
499,505,517,498,522
502,496,522,490,521
502,494,527,490,515
506,495,528,489,506
510,491,530,495,506
522,495,530,504,498
532,503,531,514,493
532,511,527,532,492
538,513,520,535,490
536,518,512,540,500
524,518,503,539,509
517,518,498,537,512
502,513,487,527,530
494,512,487,518,535
491,509,492,510,534
492,507,507,507,532
497,504,510,500,527
501,502,519,496,522
501,495,522,489,518
508,493,526,493,506
514,491,530,490,509
522,493,530,498,508
526,497,530,506,503
531,502,528,519,497
536,509,525,531,494
533,514,518,538,493
526,515,507,539,502
521,520,503,540,510
508,515,491,532,517
498,512,487,524,529
497,514,492,518,532
494,510,496,508,532
497,509,505,504,527
503,504,513,496,525
500,499,519,492,527
504,494,524,490,522
510,495,529,491,516
513,492,529,491,510
522,495,533,500,502
532,500,529,511,494
530,506,527,521,488
535,511,523,533,487
534,515,519,540,493
526,516,505,538,503
519,519,500,539,514
507,516,490,531,530
492,511,486,518,537
492,512,490,516,539
494,510,498,507,537
495,506,506,497,535
497,502,515,496,526
501,497,520,492,524
505,496,527,490,519
509,494,529,491,511
513,491,529,495,498
523,494,529,503,496
531,501,531,515,494
533,508,528,525,495
534,512,520,533,496
530,515,511,540,497
522,517,500,537,505
519,520,500,541,511
502,514,488,527,529
494,512,487,518,538
497,512,494,513,536
491,508,501,504,533
492,502,506,496,522
499,501,518,495,513
501,495,518,488,515
507,496,523,487,513
512,492,530,491,505
517,495,530,499,503
519,496,529,506,501
540,505,531,519,490
539,509,526,529,486
539,518,517,537,488
529,515,507,539,499
524,521,503,542,508
511,517,493,535,518
497,513,486,525,528
491,511,490,517,525
487,508,494,508,529
488,504,505,501,528
497,501,509,494,528
499,498,523,493,523
504,497,527,493,516
513,494,529,491,511
514,490,529,491,509
522,494,532,499,505
524,499,529,508,500
530,504,530,520,494
533,512,525,532,495
531,515,515,538,496
533,516,506,539,506
524,519,501,537,505
506,511,487,530,521
497,512,488,523,532
496,512,492,516,533
493,508,496,508,529
497,503,504,498,525
497,499,513,495,520
500,495,519,496,521
506,495,527,490,516
509,492,529,489,511
518,490,530,493,505
530,495,531,503,500
535,501,530,513,491
541,506,529,527,490
539,510,519,533,490
531,516,513,540,498
520,518,504,541,506
514,520,500,540,512
501,515,489,528,528
490,512,489,518,534
497,512,496,511,533
493,510,503,507,533
499,505,510,499,528
498,502,520,496,521
493,495,521,489,523
505,494,525,488,516
527,494,531,491,508
521,492,529,496,504
522,495,529,505,506
524,501,532,515,497
530,508,525,529,491
539,516,521,538,493
541,517,509,540,499
531,520,502,541,507
518,519,495,537,517
500,513,486,526,527
493,511,486,515,528
495,508,493,507,527
498,507,501,503,524
508,503,508,496,524
510,499,517,494,520
509,494,524,490,517
510,493,527,489,517
514,491,529,492,507
526,495,531,500,498
528,497,530,510,496
535,506,529,523,488
541,510,524,534,482
541,515,516,539,487
527,513,502,536,502
527,519,503,538,506
507,513,489,531,525
496,511,486,522,533
492,511,491,513,534
491,507,496,506,536
493,506,507,504,536
499,506,516,498,529
501,498,523,492,527
506,494,526,490,519
508,492,528,491,511
517,492,535,495,506
523,495,533,502,500
530,501,530,513,483
538,508,528,526,488
534,511,522,531,491
531,517,513,540,499
522,518,502,541,500
518,522,499,541,508
506,514,488,527,524
492,510,484,517,532
491,509,491,512,533
491,510,502,504,536
493,506,509,499,535
503,504,522,496,526
498,496,518,490,524
511,495,531,488,519
516,494,532,492,510
520,494,531,497,499
526,496,529,504,496
530,507,528,517,492
535,514,525,534,491
537,517,517,536,491
529,518,510,539,501
521,519,503,539,504
513,517,495,535,512
502,515,488,526,525
493,513,488,520,528
492,509,495,510,535
495,507,506,503,540
500,502,512,499,531
502,503,519,502,518
503,496,523,490,524
512,494,527,491,511
518,490,528,492,508
521,493,530,501,504
520,497,529,509,502
526,504,528,520,499
532,511,523,530,488
535,520,517,540,494
523,516,504,537,502
520,518,500,538,505
511,520,488,534,521
505,515,491,522,535
495,512,490,514,531
491,509,495,506,534
496,506,503,503,532
500,502,511,495,522
498,497,519,492,513
503,495,526,490,510
506,497,528,495,511
516,493,532,494,508
522,495,530,500,498
531,501,531,517,493
540,507,528,524,490
544,512,520,535,492
530,515,511,537,501
516,516,502,539,507
513,521,499,540,509
498,515,487,527,523
488,511,485,519,533
489,512,493,515,536
496,509,500,504,531
495,505,507,499,526
511,503,518,497,518
507,497,521,490,516
509,495,528,488,510
516,493,530,491,511
524,494,531,497,504
526,495,527,502,498
536,502,530,516,497
536,509,527,529,489
537,514,521,537,493
531,518,509,540,500
526,519,503,538,505
521,521,496,537,514
506,516,489,527,526
499,514,490,517,532
491,509,493,508,535
500,508,503,503,530
496,504,510,498,529
499,502,520,495,527
504,497,525,492,519
509,494,528,490,513
515,492,530,491,511
521,493,530,499,503
527,498,529,509,494
532,504,527,523,486
540,513,525,532,494
535,516,517,540,496
523,517,506,538,509
515,520,501,540,512
502,518,489,531,522
499,518,488,525,532
492,512,491,517,532
494,509,495,509,529
492,506,504,503,530
498,506,512,498,527
504,499,521,495,520
503,496,525,490,517
502,493,528,486,517
508,495,528,496,509
521,496,531,501,504
531,500,529,512,500
536,506,528,525,493
539,513,520,532,489
539,519,514,540,496
529,516,501,538,503
522,521,500,544,507
504,515,489,530,523
490,512,485,520,528
495,513,492,513,524
501,510,499,508,520
501,506,507,500,522
504,506,517,497,523
503,498,519,488,532
510,496,527,493,527
515,495,531,492,520
516,493,531,496,512
519,495,528,503,492
528,502,532,514,491
531,509,523,526,487
529,514,519,538,487
530,517,514,539,495
521,521,504,542,502
513,521,497,537,513
505,513,486,525,529
505,515,490,520,536
499,512,494,511,535
495,509,502,504,535
498,502,508,498,528
504,499,518,495,516
507,496,523,491,514
512,493,527,489,511
518,492,530,490,518
526,495,532,498,507
529,498,530,507,503
536,504,527,519,495
539,512,527,532,494
533,514,517,537,498
532,517,505,538,501
524,520,501,539,503
506,515,491,535,523
497,513,488,527,531
488,509,493,514,533
486,508,497,510,532
489,505,505,502,529
493,500,512,496,527
499,496,519,491,522
504,495,526,490,518
509,495,530,489,512
515,490,529,490,507
522,494,531,499,500
527,498,529,511,492
534,506,531,525,490
533,509,521,533,497
532,517,516,541,499
520,516,503,537,508
515,520,500,538,510
503,514,488,533,526
499,513,487,521,534
493,511,491,513,534
492,507,501,504,534
494,503,505,499,531
498,502,516,496,522
505,495,518,489,516
505,494,524,487,513
511,496,527,490,515
518,494,531,495,508
528,495,530,504,502
533,503,531,520,494
537,509,527,527,490
537,514,520,537,485
528,516,512,538,490
521,518,503,540,507
515,519,498,538,515
500,514,487,526,528
494,511,488,518,533
494,512,496,513,534
502,510,504,504,529
498,505,510,498,526
502,501,518,495,520
504,494,521,489,519
506,495,524,487,516
514,491,529,492,507
520,494,532,499,505
523,498,529,505,500
530,504,528,519,496
535,510,525,530,490
535,517,519,539,491
529,517,506,538,499
521,524,502,543,511
509,515,491,533,524
497,512,486,524,534
496,512,491,517,538
495,509,495,507,538
496,507,504,500,537
505,502,511,494,529
507,501,516,490,523
507,496,524,488,517
513,496,528,491,509
517,494,531,495,503
521,495,531,499,495
520,499,528,509,491
535,508,528,522,491
538,511,522,532,493
532,517,514,539,496
521,515,501,536,506
518,524,501,540,514
504,515,488,530,527
494,512,486,520,531
491,510,489,512,534
497,507,497,505,534
500,504,504,499,532
500,501,515,496,529
501,497,523,490,522
505,496,526,492,514
508,493,529,489,506
518,492,532,493,496
524,494,529,503,498
530,503,530,515,492
537,513,526,525,490
534,513,520,535,503
528,515,510,538,505
521,519,503,538,511
513,519,497,538,516
500,516,489,528,531
497,513,488,518,532
497,510,495,509,526
501,506,501,504,528
499,503,510,496,524
504,501,516,493,520
508,494,521,487,518
512,493,525,489,514
517,492,531,491,509
522,494,531,498,507
524,497,528,505,503
528,502,528,517,491
537,511,526,529,486
533,513,515,538,494
530,517,507,538,501
522,520,501,540,499
513,517,492,536,517
498,513,485,522,532
496,511,487,514,534
494,510,497,509,535
494,508,506,502,532
497,503,515,495,528
503,498,523,491,521
507,496,524,490,516
512,494,528,491,510
515,491,529,491,507
521,495,529,498,502
526,497,528,509,497
530,506,527,525,495
533,512,524,534,491
533,520,516,541,503
525,517,506,540,510
520,520,501,540,517
505,517,485,528,526
498,514,488,521,532
496,513,492,515,532
494,509,498,507,537
496,505,506,499,536
496,501,515,495,531
497,495,519,489,522
507,494,526,491,514
507,493,529,490,508
515,495,529,494,504
519,494,529,503,500
526,500,528,514,493
536,508,529,529,492
536,511,521,534,491
532,518,513,541,500
522,518,503,540,510
514,518,497,537,518
505,518,488,528,535
498,513,489,518,529
490,509,493,512,532
491,509,501,507,531
494,504,508,499,524
499,501,517,494,520
505,496,519,489,517
507,493,526,489,516
514,494,530,491,512
519,493,530,497,501
525,497,528,506,492
532,503,528,519,492
536,517,525,531,487
533,515,517,539,492
529,518,507,540,507
523,520,501,541,508
513,515,491,535,517
500,514,487,526,529
493,512,488,516,531
490,509,493,510,531
490,510,502,503,530
493,503,510,498,528
499,500,518,495,519
504,496,523,491,516
513,494,526,489,511
516,492,530,491,508
522,495,531,506,501
523,502,529,510,496
529,505,528,522,491
532,510,522,534,490
533,517,518,540,493
521,519,503,539,503
523,522,501,543,504
509,514,489,532,521
499,513,487,528,541
498,513,491,515,541
496,510,498,509,536
499,505,506,505,530
502,503,515,498,523
506,497,520,491,521
507,494,522,489,516
513,491,528,489,516
515,492,529,494,508
523,494,528,502,504
529,501,527,514,501
534,507,526,526,490
537,513,520,536,490
533,515,510,538,496
530,520,504,541,505
521,522,499,537,512
500,514,488,532,531
493,513,487,520,535
493,511,492,512,530
497,509,501,506,524
494,505,509,501,524
500,503,519,498,521
506,497,520,491,523
504,495,525,487,519
511,496,528,491,512
519,495,531,496,501
523,496,528,505,491
537,507,529,519,485
534,508,523,529,482
532,516,518,539,496
523,515,507,538,508
516,519,501,541,512
509,517,494,535,525
497,515,487,526,530
501,513,488,516,532
500,512,495,511,531
501,510,503,505,530
498,503,507,494,530
500,497,517,487,527
501,495,526,487,520
506,495,528,489,517
513,492,529,490,513
523,494,534,498,505
526,500,530,509,500
531,504,531,519,491
539,511,524,536,489
537,515,516,540,492
527,517,505,539,504
521,519,500,540,509
503,512,485,529,525
494,513,485,523,534
494,513,492,516,535
491,510,497,508,533
494,506,505,501,532
501,502,515,497,526
503,498,519,490,525
506,494,524,489,517
511,493,528,491,512
517,492,533,494,508
521,494,529,500,501
529,500,531,515,493
534,508,528,528,482
536,514,522,536,494
531,515,512,538,501
523,514,502,537,502
520,520,500,540,510
502,513,488,532,528
494,516,487,519,534
493,511,493,512,532
493,506,498,503,529
495,501,506,496,528
502,504,515,494,518
502,494,518,487,511
507,493,526,488,511
516,492,530,489,511
521,493,530,495,502
527,494,529,504,498
535,504,529,517,495
538,509,526,526,487
538,515,519,538,494
525,515,507,538,504
517,519,503,540,505
512,518,495,536,514
498,511,487,530,528
491,513,489,518,535
490,510,495,509,540
493,513,502,502,535
494,502,510,496,533
498,500,517,491,527
500,495,522,489,519
511,496,527,490,512
515,493,530,492,509
521,493,531,499,502
523,497,529,506,494
530,503,527,522,489
536,512,523,531,485
535,517,521,540,489
529,517,506,538,503
520,519,502,537,509
506,513,489,531,526
498,514,488,524,535
493,513,492,517,532
489,507,497,507,534
490,506,510,499,530
496,505,515,498,519
500,496,519,495,516
507,496,526,490,512
513,494,530,490,507
523,492,530,492,501
526,494,527,498,497
529,499,529,512,487
540,508,528,525,487
533,511,521,534,498
536,517,514,540,496
523,515,501,537,505
518,518,500,544,517
500,512,488,529,526
494,510,486,515,529
492,510,491,512,532
494,508,500,507,530
495,504,508,499,532
507,503,517,498,523
505,497,521,494,523
512,495,527,490,516
516,493,532,491,508
519,491,530,498,505
525,494,528,502,507
535,504,529,517,493
530,507,526,528,484
529,511,519,541,491
523,513,509,540,498
518,518,500,539,506
513,518,497,539,517
508,516,493,529,526
503,514,491,520,530
497,510,496,512,531
494,507,503,503,530
496,502,508,502,525
499,498,518,494,521
501,495,526,489,518
509,494,528,489,510
515,491,528,492,504
521,493,530,498,495
528,500,532,512,491
534,504,529,523,490
534,512,524,533,495
533,515,517,539,492
523,515,505,538,501
519,517,500,540,509
508,513,490,533,523
495,512,486,524,532
492,512,491,515,539
494,511,501,507,540
497,509,505,502,534
500,502,514,502,526
506,503,521,492,526
505,496,525,490,523
511,495,529,488,518
516,493,530,494,514
523,496,530,500,500
528,501,529,511,486
534,506,529,525,485
535,511,520,535,485
534,518,515,541,496
524,516,503,538,509
520,519,499,540,514
505,515,488,530,529
497,513,487,521,536
496,508,490,511,532
494,508,498,505,525
492,503,508,500,524
496,502,517,498,518
504,496,521,495,516
510,493,525,490,512
518,492,531,490,507
517,493,530,494,505
525,495,528,501,504
530,502,529,517,497
536,509,527,533,495
536,517,517,536,497
527,517,509,543,508
522,520,503,539,516
514,520,497,538,518
499,513,487,526,525
497,512,488,518,525
495,510,496,514,522
496,508,503,505,526
498,504,512,498,522
505,502,520,495,510
508,495,524,489,514
511,495,529,490,518
517,492,529,490,510
523,493,531,499,504
526,495,528,506,497
533,502,529,524,489
531,510,526,533,488
533,517,517,542,493
527,517,507,540,503
519,520,502,545,509
505,513,489,531,526
497,514,490,524,537
495,517,493,517,534
495,510,501,510,532
494,506,512,504,535
492,500,512,493,531
502,497,521,490,530
507,496,528,489,520
509,492,523,489,514
515,488,522,490,511
523,493,527,500,503
534,501,530,513,498
534,506,528,521,493
536,512,523,535,494
534,517,515,540,496
523,514,502,537,506
520,520,500,543,512
505,514,489,531,525
497,511,487,522,530
494,512,494,515,529
497,510,499,505,530
494,503,500,498,534
496,502,515,494,535
502,496,519,490,526
507,493,527,488,517
514,491,529,488,511
518,493,533,494,506
528,500,530,504,500
533,500,530,516,491
536,509,526,529,495
532,511,518,535,495
529,514,508,539,500
523,517,500,544,506
518,520,496,541,518
502,514,486,527,525
492,512,486,517,534
491,510,494,511,535
493,507,502,503,535
494,502,513,496,528
504,501,519,496,522
500,497,521,487,526
510,495,528,488,518
515,491,536,490,511
523,494,539,497,503
527,496,538,508,499
534,503,542,520,495
536,508,531,533,496
541,515,508,538,493
530,520,500,539,498
522,519,500,545,506
510,516,489,533,522
497,513,485,524,530
493,511,488,516,533
492,510,493,510,534
496,506,505,503,530
499,502,512,497,526
499,501,518,493,522
506,492,522,490,519
510,487,524,488,513
514,487,529,492,508
521,496,533,502,504
530,499,534,511,495
535,502,531,525,488
538,506,521,533,489
537,512,515,542,491
528,519,509,542,503
516,526,506,542,510
501,513,486,531,522
497,511,480,521,532
491,511,493,513,537
497,513,499,513,529
493,504,504,502,530
497,501,514,494,528
503,495,520,489,522
505,493,526,489,516
512,490,528,491,511
518,490,529,496,508
524,494,531,503,504
535,503,529,518,494
533,507,524,528,490
534,512,522,537,496
529,514,516,541,500
523,517,514,543,509
519,520,509,543,512
501,515,503,532,528
492,511,491,520,529
495,509,482,516,527
491,506,491,511,533
491,502,504,498,534
501,500,514,494,526
504,494,518,488,522
510,492,523,490,515
518,490,527,494,502
516,493,531,502,498
524,498,529,512,499
532,503,527,522,493
535,506,517,530,490
532,513,510,539,498
525,514,502,546,506
518,515,498,543,511
507,505,484,535,522
501,503,480,528,529
495,502,486,521,533
493,504,491,511,535
498,504,502,504,531
502,503,507,500,526
503,505,522,497,521
508,500,531,496,517
509,497,536,497,510
515,492,529,497,506
523,495,533,514,501
529,500,519,518,498
539,506,517,524,495
536,508,516,536,494
533,509,515,542,498
522,510,514,546,505
519,519,514,545,510
506,506,491,534,522
498,505,490,525,526
496,521,503,526,529
501,526,488,523,525
503,523,505,515,525
499,508,518,497,527
497,500,519,482,528
511,498,523,487,522
512,500,534,488,510
514,496,529,499,502
524,495,527,508,495
532,507,531,525,489
540,506,521,536,483
539,509,523,548,487
530,513,518,549,498
519,521,511,542,517
517,527,506,542,519
500,518,498,533,527
493,520,491,529,531
498,516,501,522,530
503,514,505,514,525
501,507,510,507,517
499,513,514,499,520
502,500,524,481,529
502,489,520,481,524
511,490,533,486,514
520,493,527,498,504
525,501,528,507,501
533,505,532,518,497
542,507,538,546,488
548,507,524,565,488
533,509,524,558,492
520,511,519,559,497
516,501,484,556,502
496,498,474,544,525
490,504,486,526,534
491,517,499,525,530
492,522,508,513,527
493,523,515,502,532
502,506,518,494,524
507,500,524,498,516
505,491,526,503,518
506,487,529,501,508
529,489,532,512,501
525,491,531,525,503
531,493,527,530,500
537,496,520,542,486
535,499,511,553,490
521,494,496,554,504
516,505,498,558,509
500,500,485,542,529
496,503,489,539,530
506,518,503,542,520
505,511,507,524,520
494,488,491,506,526
513,468,497,503,508
507,444,503,504,502
509,445,502,501,506
518,457,505,494,508
505,472,505,502,509
503,493,502,497,521
520,539,527,517,505
536,552,536,543,486
534,538,522,554,495
527,518,509,555,512
516,510,512,555,517
507,520,513,565,524
507,526,501,549,524
497,523,494,531,534
497,531,500,541,533
499,542,514,538,532
492,518,509,524,535
503,513,516,508,520
505,519,530,507,519
510,519,560,511,511
522,498,566,507,506
530,483,550,526,505
523,487,533,544,506
528,483,504,554,496
526,484,515,565,490
545,501,512,557,487
538,509,496,549,492
525,495,482,562,501
516,500,468,553,518
509,518,454,532,518
501,536,465,529,519
499,531,470,527,527
487,517,470,503,545
493,479,485,516,537
497,446,502,539,532
514,459,504,509,514
510,457,515,515,511
498,481,523,514,519
510,512,550,517,510
523,535,559,521,507
542,556,559,547,493
549,558,539,560,483
549,568,524,574,479
529,562,507,578,498
519,539,492,576,504
506,526,466,564,511
510,506,453,545,518
494,465,473,531,531
501,472,491,527,526
490,471,512,519,538
492,460,517,521,533
501,447,503,514,528
494,445,551,552,522
507,480,571,537,508
506,479,569,536,512
511,479,573,509,516
527,485,581,502,494
539,509,588,528,484
532,550,553,564,489
538,555,545,569,493
537,567,543,565,494
525,536,547,565,516
500,494,533,526,531
485,472,513,535,532
485,489,475,519,532
499,500,510,550,516
504,481,537,554,519
515,457,531,546,511
512,429,478,510,522
505,448,440,489,520
500,471,504,518,516
502,450,512,518,523
511,493,529,530,508
538,550,541,551,486
560,529,532,573,472
546,497,501,578,483
525,484,500,558,490
525,453,481,502,521
506,442,492,497,533
495,479,510,513,530
495,536,531,548,526
479,518,500,540,555
463,485,494,490,569
483,506,521,503,546
508,556,559,520,516
513,535,610,539,506
516,545,620,521,511
532,591,649,509,492
547,566,564,523,478
554,514,495,545,475
552,505,554,577,478
534,486,614,626,493
538,485,642,632,493
504,478,557,584,499
477,513,516,537,524
494,529,480,509,546
494,521,444,545,544
513,522,497,547,526
524,482,414,506,491
504,455,475,521,501
509,413,515,508,512
503,339,525,467,525
477,369,523,419,553
498,491,565,495,515
509,647,540,577,493
534,639,563,582,506
534,637,549,560,513
543,594,536,540,498
549,567,515,564,488
557,521,537,565,479
517,439,491,534,503
514,461,460,523,507
497,572,453,574,518
494,560,498,593,518
510,578,489,529,509
501,556,514,531,527
512,546,516,494,524
504,530,588,493,536
504,489,618,516,522
526,515,649,550,481
529,527,587,503,479
510,511,606,473,507
523,479,524,512,508
520,450,470,504,507
517,461,455,524,510
534,442,530,552,480
534,441,632,599,469
511,387,602,544,506
482,411,518,502,554
495,481,532,520,525
496,515,503,566,517
496,531,460,549,529
510,605,467,539,518
504,622,425,555,516
530,590,467,522,504
502,556,517,493,518
507,535,601,513,516
509,501,561,495,501
511,514,571,495,508
532,505,522,499,498
533,484,546,508,500
521,470,549,561,505
521,489,531,574,491
542,556,567,603,482
520,545,451,573,504
502,499,444,551,529
486,439,392,534,535
487,426,480,472,536
492,447,505,404,540
469,460,554,381,554
477,462,550,458,548
518,518,553,500,508
546,534,569,575,490
517,505,575,591,500
514,532,537,508,500
529,502,513,485,496
527,428,458,481,513
525,406,442,556,506
518,414,437,552,505
525,516,440,566,488
516,535,530,549,507
517,571,552,514,498
518,503,605,525,509
492,397,591,557,515
472,487,487,534,544
498,575,426,466,541
504,496,451,443,517
500,504,538,466,492
504,548,668,468,507
512,529,688,483,497
514,577,510,481,507
530,530,539,479,479
532,513,535,497,482
524,493,486,482,510
539,535,650,485,498
547,531,632,499,497
529,469,601,543,503
510,457,487,557,500
494,459,465,529,513
506,373,460,439,516
511,438,506,466,514
499,522,563,524,506
473,615,484,507,538
505,614,419,461,517
526,565,495,501,499
506,534,501,497,516
508,475,539,497,504
514,480,536,517,498
510,463,528,493,499
514,464,516,437,499
514,471,576,450,504
524,514,614,470,495
523,515,600,530,519
516,508,475,505,540
516,551,409,497,526
515,565,432,501,520
490,522,503,487,548
500,599,529,498,533
495,566,473,482,538
490,512,453,402,544
492,464,491,440,538
495,470,554,502,527
506,502,753,518,512
505,499,680,510,510
505,507,517,502,521
515,480,547,480,517
526,444,521,472,508
527,432,494,460,500
535,425,444,481,476
547,588,468,524,462
548,586,554,559,453
519,584,588,503,513
497,559,557,494,542
490,524,522,550,540
493,533,530,524,520
485,511,431,444,547
490,547,469,473,540
504,531,492,461,519
501,529,493,439,516
496,503,523,439,513
513,524,543,424,509
525,533,610,452,503
523,530,643,498,487
530,509,493,503,492
529,507,438,484,507
520,489,512,480,503
531,477,564,504,496
524,448,585,538,496
531,482,563,526,488
508,463,502,464,514
494,480,572,451,531
473,444,583,489,540
485,486,589,514,549
477,449,540,510,545
493,524,453,447,528
514,564,473,466,507
521,591,468,484,499
516,530,446,440,504
520,479,521,485,498
522,439,587,546,473
526,455,547,536,483
542,489,453,496,487
528,544,617,540,512
524,582,615,519,515
525,571,534,432,504
502,534,492,498,527
479,440,462,521,533
474,466,455,473,539
472,495,506,462,542
497,589,605,481,528
497,539,614,468,532
492,437,440,457,518
492,429,420,481,506
514,411,477,468,483
525,400,572,456,495
527,435,545,451,497
522,442,500,507,478
538,595,676,534,499
546,520,571,509,493
553,535,531,483,489
532,492,627,550,486
526,594,652,519,507
500,611,424,485,531
488,607,510,486,540
478,550,477,476,553
490,547,386,497,542
501,550,445,484,520
504,554,473,469,530
507,541,492,459,524
508,540,510,468,502
512,536,529,479,508
518,517,538,461,511
525,512,560,464,491
533,499,549,513,469
533,505,575,557,471
535,467,553,559,465
534,453,480,487,490
517,482,526,546,511
519,589,620,544,531
492,529,558,479,556
480,467,496,492,555
480,463,543,524,550
476,485,478,471,535
493,509,470,461,534
498,494,490,497,514
504,520,515,463,522
527,536,464,473,504
528,509,504,458,502
526,495,538,466,492
515,498,572,483,505
521,534,577,491,513
540,522,523,510,494
526,492,509,525,509
538,548,502,527,512
536,553,536,558,507
515,504,546,586,511
484,489,652,525,529
491,479,631,440,533
487,471,450,411,545
486,417,406,461,530
510,458,426,476,511
494,528,476,495,532
490,559,528,478,532
499,502,475,483,502
502,435,481,463,512
529,417,508,489,491
541,427,559,508,491
533,485,601,514,491
540,545,493,524,485
535,562,466,529,488
519,543,498,523,499
533,570,538,544,493
509,544,528,530,517
492,475,492,505,544
476,455,434,471,558
480,499,548,499,549
497,569,561,454,540
503,557,572,437,530
501,498,558,461,514
505,557,499,506,516
506,537,482,519,514
519,516,443,476,512
523,515,490,486,507
537,501,540,528,490
538,449,534,529,494
535,461,498,523,480
524,522,533,542,482
532,566,567,553,496
526,555,560,541,503
503,516,524,507,525
512,525,502,503,520
502,530,504,537,531
477,518,503,485,556
487,532,494,431,536
504,532,513,469,509
505,468,482,490,522
505,490,514,471,515
512,497,515,484,511
531,521,525,513,503
533,509,559,520,503
540,519,613,530,485
534,533,621,542,475
538,530,629,543,480
524,494,439,536,498
501,481,468,521,520
503,514,600,582,511
501,544,586,528,528
487,494,426,483,534
490,500,449,441,545
481,477,461,425,537
484,503,417,408,534
519,538,517,506,493
504,502,519,518,526
531,472,527,494,499
530,436,524,480,508
514,469,611,518,506
514,476,634,522,525
524,473,557,507,504
533,505,565,524,507
529,608,595,514,518
524,564,519,534,503
524,522,513,558,499
518,482,449,514,504
494,483,478,504,525
492,499,493,546,525
