CH1,CH2
492.0,505.0
483.0,511.0
515.0,510.0
517.0,497.0
516.0,499.0
526.0,503.0
527.0,498.0
496.0,504.0
473.0,490.0
500.0,497.0
514.0,505.0
527.0,525.0
518.0,519.0
512.0,525.0
509.0,520.0
511.0,493.0
503.0,494.0
528.0,490.0
543.0,484.0
538.0,498.0
535.0,505.0
493.0,505.0
490.0,501.0
462.0,501.0
474.0,494.0
499.0,496.0
518.0,506.0
530.0,514.0
537.0,521.0
521.0,519.0
520.0,511.0
514.0,505.0
500.0,499.0
492.0,479.0
499.0,470.0
494.0,515.0
497.0,490.0
498.0,495.0
499.0,495.0
505.0,496.0
497.0,499.0
508.0,498.0
495.0,498.0
518.0,502.0
514.0,508.0
494.0,511.0
483.0,505.0
487.0,510.0
525.0,527.0
512.0,528.0
498.0,507.0
501.0,494.0
506.0,487.0
505.0,501.0
496.0,497.0
479.0,491.0
511.0,504.0
504.0,495.0
507.0,489.0
509.0,500.0
524.0,516.0
530.0,516.0
528.0,511.0
519.0,509.0
517.0,510.0
512.0,499.0
513.0,508.0
513.0,503.0
504.0,493.0
496.0,501.0
491.0,505.0
499.0,495.0
510.0,493.0
503.0,488.0
509.0,501.0
510.0,505.0
523.0,499.0
528.0,503.0
516.0,512.0
502.0,510.0
504.0,511.0
500.0,507.0
509.0,512.0
516.0,506.0
517.0,506.0
521.0,501.0
516.0,499.0
511.0,496.0
507.0,495.0
497.0,486.0
487.0,489.0
489.0,497.0
506.0,515.0
531.0,510.0
536.0,515.0
537.0,501.0
489.0,504.0
506.0,513.0
510.0,506.0
518.0,500.0
508.0,497.0
507.0,496.0
507.0,501.0
507.0,500.0
533.0,494.0
503.0,494.0
493.0,492.0
513.0,494.0
475.0,495.0
487.0,501.0
502.0,506.0
523.0,516.0
546.0,515.0
548.0,509.0
524.0,511.0
504.0,505.0
504.0,504.0
503.0,501.0
492.0,495.0
490.0,504.0
492.0,494.0
490.0,495.0
507.0,518.0
520.0,526.0
518.0,518.0
514.0,505.0
518.0,482.0
523.0,495.0
521.0,517.0
508.0,506.0
511.0,507.0
498.0,495.0
496.0,493.0
491.0,490.0
497.0,491.0
492.0,505.0
507.0,507.0
495.0,512.0
497.0,489.0
517.0,482.0
517.0,488.0
518.0,502.0
524.0,501.0
524.0,500.0
532.0,505.0
516.0,510.0
509.0,511.0
514.0,514.0
508.0,511.0
509.0,505.0
484.0,517.0
505.0,507.0
516.0,496.0
503.0,502.0
498.0,486.0
499.0,492.0
489.0,494.0
505.0,491.0
501.0,496.0
515.0,509.0
513.0,508.0
520.0,513.0
511.0,509.0
515.0,504.0
517.0,507.0
512.0,506.0
513.0,499.0
508.0,497.0
500.0,499.0
500.0,497.0
490.0,494.0
499.0,494.0
499.0,495.0
494.0,486.0
503.0,493.0
509.0,497.0
518.0,505.0
522.0,507.0
530.0,512.0
527.0,509.0
517.0,517.0
510.0,514.0
513.0,510.0
501.0,491.0
504.0,498.0
508.0,495.0
505.0,497.0
496.0,492.0
490.0,491.0
491.0,496.0
493.0,500.0
497.0,503.0
521.0,506.0
525.0,507.0
523.0,513.0
531.0,507.0
523.0,511.0
529.0,514.0
513.0,507.0
518.0,506.0
517.0,501.0
502.0,497.0
488.0,505.0
497.0,498.0
495.0,500.0
485.0,498.0
503.0,489.0
534.0,495.0
527.0,505.0
533.0,507.0
528.0,509.0
527.0,511.0
516.0,511.0
511.0,507.0
501.0,508.0
496.0,513.0
490.0,508.0
493.0,505.0
495.0,501.0
496.0,502.0
502.0,497.0
503.0,495.0
494.0,496.0
507.0,496.0
512.0,499.0
516.0,513.0
521.0,510.0
509.0,500.0
516.0,500.0
515.0,509.0
505.0,514.0
490.0,509.0
488.0,517.0
511.0,506.0
514.0,498.0
511.0,489.0
521.0,496.0
507.0,499.0
500.0,496.0
510.0,497.0
520.0,498.0
511.0,500.0
509.0,504.0
512.0,498.0
521.0,510.0
520.0,513.0
523.0,510.0
518.0,521.0
501.0,515.0
513.0,524.0
513.0,506.0
507.0,499.0
499.0,499.0
490.0,491.0
484.0,495.0
490.0,488.0
503.0,493.0
523.0,501.0
524.0,503.0
507.0,503.0
520.0,494.0
540.0,496.0
535.0,493.0
536.0,508.0
532.0,505.0
530.0,510.0
521.0,512.0
500.0,503.0
471.0,502.0
474.0,508.0
487.0,497.0
490.0,493.0
485.0,485.0
488.0,486.0
497.0,497.0
514.0,501.0
516.0,506.0
519.0,502.0
527.0,516.0
515.0,513.0
513.0,513.0
508.0,504.0
510.0,501.0
504.0,497.0
499.0,495.0
503.0,494.0
506.0,499.0
499.0,505.0
501.0,489.0
501.0,482.0
500.0,484.0
499.0,491.0
509.0,506.0
516.0,508.0
525.0,513.0
524.0,509.0
524.0,507.0
516.0,509.0
504.0,514.0
496.0,511.0
498.0,495.0
499.0,497.0
485.0,502.0
497.0,504.0
511.0,490.0
498.0,485.0
489.0,485.0
511.0,493.0
522.0,497.0
512.0,506.0
524.0,519.0
530.0,523.0
523.0,508.0
518.0,505.0
521.0,509.0
517.0,507.0
501.0,505.0
512.0,495.0
504.0,508.0
507.0,505.0
504.0,503.0
505.0,503.0
511.0,494.0
524.0,493.0
521.0,494.0
516.0,497.0
516.0,504.0
519.0,512.0
523.0,512.0
530.0,513.0
529.0,506.0
518.0,506.0
510.0,507.0
498.0,510.0
504.0,501.0
496.0,485.0
499.0,492.0
492.0,495.0
493.0,497.0
500.0,489.0
497.0,500.0
502.0,491.0
507.0,505.0
510.0,507.0
514.0,506.0
528.0,511.0
530.0,512.0
533.0,509.0
520.0,504.0
505.0,508.0
499.0,501.0
496.0,498.0
490.0,492.0
488.0,499.0
510.0,501.0
507.0,494.0
503.0,498.0
517.0,486.0
527.0,496.0
531.0,503.0
518.0,510.0
509.0,512.0
516.0,514.0
521.0,511.0
515.0,514.0
515.0,518.0
506.0,511.0
489.0,511.0
495.0,491.0
495.0,495.0
499.0,494.0
507.0,487.0
501.0,492.0
499.0,486.0
502.0,506.0
500.0,506.0
514.0,502.0
514.0,508.0
522.0,519.0
522.0,520.0
523.0,516.0
518.0,506.0
514.0,504.0
509.0,499.0
504.0,500.0
499.0,492.0
501.0,493.0
501.0,502.0
495.0,497.0
498.0,489.0
497.0,499.0
499.0,499.0
506.0,502.0
509.0,502.0
511.0,511.0
515.0,512.0
513.0,511.0
520.0,514.0
523.0,514.0
517.0,514.0
515.0,518.0
499.0,501.0
492.0,494.0
490.0,487.0
495.0,496.0
502.0,490.0
507.0,501.0
509.0,494.0
517.0,502.0
525.0,499.0
527.0,513.0
529.0,518.0
525.0,511.0
529.0,503.0
514.0,497.0
507.0,494.0
490.0,502.0
474.0,507.0
503.0,496.0
495.0,501.0
492.0,499.0
510.0,494.0
521.0,487.0
527.0,490.0
522.0,492.0
526.0,494.0
536.0,507.0
531.0,513.0
513.0,511.0
494.0,509.0
504.0,509.0
511.0,510.0
509.0,497.0
510.0,513.0
502.0,503.0
493.0,503.0
497.0,499.0
491.0,497.0
487.0,497.0
487.0,489.0
505.0,490.0
514.0,505.0
513.0,507.0
512.0,506.0
522.0,506.0
520.0,510.0
529.0,510.0
529.0,514.0
519.0,509.0
502.0,509.0
497.0,501.0
499.0,497.0
499.0,507.0
505.0,497.0
499.0,480.0
487.0,492.0
497.0,490.0
489.0,490.0
496.0,499.0
504.0,503.0
515.0,510.0
515.0,515.0
514.0,514.0
536.0,501.0
536.0,504.0
520.0,510.0
505.0,510.0
517.0,510.0
509.0,503.0
516.0,503.0
508.0,493.0
497.0,487.0
502.0,487.0
507.0,493.0
520.0,493.0
525.0,500.0
519.0,501.0
535.0,513.0
523.0,507.0
509.0,510.0
502.0,510.0
502.0,501.0
497.0,503.0
500.0,504.0
502.0,512.0
512.0,501.0
510.0,491.0
508.0,496.0
501.0,497.0
498.0,503.0
488.0,490.0
501.0,479.0
503.0,504.0
516.0,507.0
521.0,499.0
524.0,513.0
527.0,514.0
519.0,512.0
514.0,517.0
503.0,516.0
508.0,507.0
506.0,506.0
502.0,492.0
500.0,492.0
501.0,492.0
502.0,496.0
498.0,493.0
496.0,494.0
500.0,494.0
513.0,502.0
517.0,501.0
526.0,513.0
522.0,515.0
503.0,503.0
507.0,507.0
493.0,508.0
490.0,511.0
499.0,509.0
501.0,511.0
495.0,512.0
498.0,499.0
474.0,495.0
488.0,493.0
507.0,493.0
524.0,496.0
524.0,503.0
531.0,502.0
538.0,512.0
532.0,508.0
520.0,514.0
505.0,510.0
503.0,508.0
499.0,500.0
489.0,501.0
502.0,503.0
515.0,499.0
505.0,504.0
500.0,497.0
497.0,497.0
506.0,493.0
502.0,491.0
506.0,501.0
511.0,507.0
515.0,506.0
520.0,509.0
518.0,511.0
519.0,508.0
516.0,513.0
512.0,514.0
503.0,515.0
502.0,498.0
497.0,503.0
490.0,504.0
502.0,500.0
503.0,495.0
499.0,497.0
501.0,488.0
509.0,494.0
510.0,499.0
518.0,503.0
523.0,507.0
526.0,511.0
523.0,510.0
518.0,509.0
511.0,507.0
504.0,504.0
504.0,506.0
497.0,504.0
498.0,504.0
495.0,503.0
504.0,497.0
499.0,494.0
510.0,493.0
503.0,487.0
492.0,501.0
503.0,506.0
521.0,517.0
521.0,503.0
516.0,508.0
521.0,518.0
519.0,502.0
515.0,501.0
508.0,507.0
514.0,506.0
504.0,495.0
509.0,490.0
489.0,506.0
488.0,487.0
476.0,495.0
500.0,500.0
513.0,493.0
518.0,494.0
526.0,488.0
520.0,491.0
527.0,504.0
527.0,507.0
528.0,511.0
525.0,508.0
522.0,523.0
511.0,518.0
515.0,506.0
508.0,508.0
514.0,500.0
506.0,498.0
505.0,493.0
501.0,489.0
503.0,494.0
504.0,494.0
509.0,499.0
512.0,504.0
520.0,503.0
525.0,513.0
518.0,503.0
517.0,512.0
513.0,514.0
517.0,510.0
510.0,506.0
504.0,504.0
491.0,503.0
498.0,500.0
485.0,492.0
481.0,498.0
502.0,494.0
500.0,491.0
512.0,493.0
520.0,496.0
528.0,503.0
520.0,505.0
526.0,517.0
536.0,517.0
533.0,505.0
522.0,510.0
508.0,500.0
499.0,507.0
500.0,508.0
509.0,501.0
503.0,486.0
507.0,501.0
514.0,493.0
503.0,490.0
500.0,489.0
510.0,496.0
508.0,493.0
514.0,500.0
513.0,516.0
512.0,509.0
508.0,513.0
516.0,521.0
506.0,516.0
507.0,511.0
502.0,492.0
499.0,489.0
499.0,506.0
505.0,501.0
505.0,497.0
505.0,493.0
493.0,498.0
499.0,494.0
504.0,495.0
502.0,504.0
510.0,514.0
519.0,511.0
520.0,516.0
516.0,516.0
509.0,511.0
505.0,505.0
504.0,502.0
495.0,509.0
503.0,501.0
499.0,500.0
504.0,493.0
491.0,497.0
487.0,498.0
499.0,486.0
497.0,502.0
510.0,499.0
507.0,499.0
509.0,507.0
518.0,510.0
515.0,516.0
520.0,515.0
519.0,506.0
511.0,512.0
504.0,505.0
506.0,506.0
507.0,491.0
498.0,502.0
496.0,505.0
502.0,494.0
499.0,488.0
504.0,492.0
498.0,490.0
501.0,499.0
508.0,503.0
514.0,502.0
521.0,512.0
519.0,510.0
523.0,512.0
514.0,505.0
503.0,508.0
507.0,509.0
502.0,494.0
498.0,504.0
505.0,497.0
500.0,487.0
503.0,486.0
502.0,490.0
504.0,492.0
506.0,499.0
513.0,502.0
516.0,503.0
517.0,509.0
524.0,516.0
517.0,508.0
510.0,512.0
504.0,510.0
501.0,500.0
507.0,503.0
507.0,501.0
511.0,499.0
500.0,501.0
493.0,502.0
495.0,493.0
497.0,492.0
494.0,486.0
504.0,499.0
512.0,501.0
520.0,498.0
528.0,511.0
521.0,515.0
521.0,510.0
519.0,520.0
512.0,509.0
508.0,501.0
505.0,494.0
502.0,505.0
500.0,499.0
501.0,492.0
496.0,489.0
496.0,488.0
488.0,496.0
501.0,496.0
497.0,497.0
505.0,509.0
502.0,508.0
511.0,513.0
499.0,508.0
512.0,507.0
516.0,511.0
507.0,508.0
496.0,516.0
514.0,505.0
520.0,501.0
526.0,491.0
520.0,491.0
502.0,498.0
501.0,481.0
503.0,493.0
514.0,493.0
516.0,503.0
533.0,504.0
527.0,506.0
524.0,517.0
521.0,505.0
527.0,514.0
521.0,510.0
507.0,510.0
506.0,498.0
506.0,501.0
500.0,494.0
501.0,500.0
497.0,498.0
490.0,493.0
484.0,493.0
505.0,493.0
505.0,493.0
512.0,499.0
528.0,507.0
527.0,507.0
526.0,514.0
516.0,515.0
509.0,514.0
503.0,514.0
503.0,504.0
504.0,501.0
505.0,498.0
510.0,494.0
517.0,498.0
509.0,508.0
519.0,498.0
518.0,488.0
507.0,495.0
512.0,502.0
512.0,506.0
508.0,507.0
515.0,506.0
505.0,511.0
513.0,513.0
508.0,513.0
502.0,506.0
497.0,507.0
501.0,505.0
502.0,511.0
503.0,505.0
503.0,502.0
503.0,498.0
511.0,492.0
507.0,504.0
516.0,515.0
506.0,506.0
518.0,501.0
513.0,501.0
512.0,509.0
514.0,514.0
510.0,505.0
508.0,504.0
504.0,497.0
495.0,504.0
499.0,507.0
505.0,506.0
490.0,497.0
492.0,491.0
498.0,486.0
494.0,494.0
492.0,499.0
502.0,507.0
521.0,511.0
528.0,507.0
527.0,504.0
531.0,511.0
523.0,508.0
515.0,509.0
511.0,507.0
498.0,506.0
497.0,505.0
496.0,511.0
503.0,506.0
500.0,504.0
500.0,498.0
496.0,490.0
502.0,485.0
498.0,501.0
508.0,502.0
512.0,501.0
517.0,502.0
527.0,513.0
523.0,511.0
521.0,513.0
527.0,511.0
511.0,511.0
509.0,505.0
509.0,502.0
508.0,499.0
507.0,497.0
505.0,496.0
502.0,493.0
498.0,494.0
497.0,490.0
509.0,502.0
507.0,507.0
510.0,508.0
520.0,514.0
537.0,510.0
540.0,510.0
529.0,511.0
529.0,509.0
514.0,501.0
513.0,496.0
510.0,505.0
509.0,504.0
505.0,500.0
503.0,496.0
493.0,498.0
506.0,492.0
509.0,494.0
518.0,504.0
522.0,502.0
522.0,506.0
519.0,513.0
520.0,514.0
519.0,509.0
518.0,514.0
524.0,513.0
520.0,513.0
513.0,508.0
501.0,512.0
500.0,507.0
502.0,496.0
499.0,498.0
499.0,497.0
496.0,483.0
488.0,501.0
493.0,495.0
493.0,500.0
491.0,497.0
509.0,509.0
521.0,507.0
523.0,511.0
519.0,517.0
518.0,516.0
511.0,513.0
513.0,506.0
518.0,501.0
519.0,502.0
512.0,507.0
517.0,489.0
517.0,493.0
510.0,485.0
514.0,486.0
523.0,495.0
517.0,500.0
509.0,500.0
514.0,506.0
518.0,515.0
510.0,517.0
500.0,517.0
491.0,508.0
483.0,508.0
493.0,504.0
492.0,504.0
508.0,499.0
503.0,489.0
501.0,499.0
515.0,487.0
518.0,496.0
516.0,484.0
518.0,496.0
524.0,499.0
524.0,501.0
526.0,502.0
523.0,510.0
517.0,513.0
505.0,512.0
503.0,513.0
507.0,502.0
510.0,497.0
515.0,500.0
519.0,500.0
505.0,495.0
513.0,499.0
492.0,496.0
498.0,492.0
492.0,484.0
502.0,499.0
515.0,507.0
509.0,506.0
517.0,510.0
517.0,515.0
516.0,503.0
514.0,513.0
501.0,511.0
498.0,503.0
496.0,500.0
487.0,495.0
474.0,497.0
491.0,489.0
509.0,496.0
516.0,483.0
514.0,486.0
510.0,499.0
518.0,504.0
521.0,509.0
527.0,507.0
529.0,508.0
525.0,506.0
526.0,511.0
521.0,512.0
515.0,501.0
507.0,504.0
502.0,508.0
504.0,497.0
496.0,503.0
502.0,500.0
496.0,492.0
498.0,497.0
495.0,493.0
506.0,504.0
518.0,517.0
524.0,515.0
524.0,508.0
531.0,505.0
522.0,504.0
519.0,509.0
514.0,505.0
507.0,508.0
502.0,494.0
500.0,495.0
498.0,502.0
501.0,497.0
504.0,500.0
507.0,481.0
505.0,478.0
494.0,488.0
501.0,484.0
518.0,496.0
528.0,504.0
526.0,507.0
526.0,520.0
525.0,528.0
518.0,521.0
512.0,503.0
504.0,505.0
504.0,501.0
508.0,506.0
513.0,504.0
506.0,507.0
508.0,496.0
513.0,486.0
497.0,486.0
519.0,494.0
526.0,504.0
531.0,502.0
523.0,511.0
512.0,509.0
520.0,511.0
522.0,512.0
518.0,511.0
504.0,511.0
491.0,506.0
489.0,503.0
497.0,500.0
497.0,501.0
499.0,493.0
501.0,493.0
488.0,490.0
491.0,491.0
494.0,503.0
504.0,503.0
521.0,507.0
518.0,508.0
528.0,512.0
519.0,509.0
520.0,512.0
515.0,513.0
513.0,506.0
510.0,504.0
500.0,506.0
499.0,494.0
501.0,496.0
481.0,500.0
497.0,491.0
495.0,490.0
502.0,499.0
507.0,490.0
527.0,500.0
532.0,503.0
542.0,513.0
539.0,512.0
526.0,512.0
514.0,508.0
503.0,512.0
499.0,510.0
499.0,506.0
500.0,507.0
503.0,492.0
499.0,498.0
496.0,495.0
500.0,493.0
501.0,492.0
500.0,492.0
510.0,500.0
518.0,502.0
524.0,510.0
526.0,513.0
519.0,515.0
514.0,512.0
506.0,512.0
506.0,511.0
501.0,494.0
513.0,499.0
506.0,500.0
504.0,499.0
505.0,490.0
503.0,492.0
502.0,492.0
498.0,500.0
505.0,497.0
515.0,500.0
522.0,503.0
529.0,513.0
528.0,518.0
521.0,515.0
517.0,507.0
515.0,510.0
514.0,510.0
511.0,499.0
508.0,503.0
506.0,498.0
503.0,502.0
504.0,484.0
504.0,500.0
499.0,498.0
497.0,505.0
510.0,502.0
516.0,494.0
518.0,501.0
519.0,510.0
508.0,507.0
526.0,509.0
523.0,515.0
511.0,511.0
511.0,508.0
517.0,504.0
505.0,498.0
499.0,494.0
473.0,500.0
473.0,492.0
475.0,492.0
486.0,486.0
502.0,490.0
521.0,490.0
533.0,501.0
530.0,508.0
535.0,517.0
522.0,520.0
523.0,517.0
520.0,523.0
516.0,508.0
522.0,499.0
525.0,507.0
518.0,509.0
514.0,498.0
508.0,499.0
517.0,495.0
508.0,488.0
506.0,483.0
519.0,491.0
516.0,501.0
515.0,503.0
524.0,499.0
535.0,515.0
545.0,514.0
526.0,510.0
516.0,502.0
510.0,500.0
499.0,498.0
504.0,489.0
506.0,489.0
504.0,498.0
497.0,491.0
490.0,490.0
491.0,489.0
506.0,497.0
504.0,491.0
506.0,498.0
520.0,504.0
516.0,513.0
518.0,522.0
504.0,520.0
498.0,506.0
520.0,505.0
520.0,501.0
510.0,494.0
510.0,492.0
511.0,493.0
514.0,496.0
501.0,497.0
510.0,492.0
504.0,484.0
517.0,496.0
508.0,494.0
513.0,503.0
518.0,509.0
520.0,512.0
507.0,505.0
500.0,508.0
500.0,501.0
509.0,506.0
511.0,503.0
504.0,492.0
508.0,507.0
498.0,510.0
501.0,499.0
500.0,493.0
504.0,495.0
509.0,500.0
510.0,505.0
516.0,497.0
520.0,504.0
521.0,506.0
523.0,509.0
525.0,515.0
520.0,509.0
510.0,511.0
501.0,505.0
511.0,504.0
499.0,507.0
502.0,496.0
507.0,498.0
500.0,488.0
497.0,492.0
492.0,498.0
494.0,506.0
495.0,494.0
511.0,495.0
518.0,501.0
535.0,518.0
535.0,519.0
523.0,513.0
515.0,515.0
508.0,501.0
509.0,512.0
508.0,499.0
496.0,507.0
502.0,500.0
503.0,499.0
501.0,495.0
499.0,492.0
500.0,494.0
496.0,492.0
508.0,495.0
518.0,505.0
520.0,508.0
524.0,511.0
522.0,511.0
521.0,514.0
520.0,515.0
507.0,516.0
497.0,512.0
498.0,491.0
505.0,498.0
485.0,502.0
499.0,498.0
495.0,484.0
494.0,490.0
501.0,486.0
510.0,494.0
505.0,495.0
513.0,503.0
517.0,518.0
511.0,517.0
517.0,515.0
526.0,515.0
524.0,515.0
518.0,515.0
526.0,509.0
517.0,500.0
513.0,496.0
505.0,500.0
498.0,497.0
498.0,485.0
496.0,493.0
500.0,497.0
502.0,501.0
508.0,505.0
512.0,502.0
515.0,499.0
519.0,509.0
519.0,508.0
518.0,508.0
509.0,512.0
509.0,509.0
502.0,505.0
500.0,504.0
494.0,492.0
512.0,498.0
524.0,494.0
504.0,495.0
504.0,497.0
502.0,497.0
503.0,503.0
512.0,500.0
530.0,505.0
521.0,508.0
522.0,509.0
527.0,508.0
523.0,511.0
511.0,507.0
494.0,502.0
504.0,501.0
494.0,508.0
500.0,495.0
502.0,506.0
503.0,512.0
488.0,516.0
493.0,511.0
514.0,487.0
510.0,493.0
513.0,499.0
522.0,505.0
522.0,512.0
517.0,507.0
504.0,497.0
505.0,503.0
506.0,505.0
513.0,501.0
511.0,501.0
516.0,489.0
518.0,483.0
517.0,485.0
515.0,489.0
504.0,481.0
496.0,496.0
500.0,493.0
508.0,504.0
510.0,506.0
518.0,502.0
523.0,511.0
520.0,514.0
513.0,505.0
513.0,509.0
515.0,505.0
507.0,507.0
514.0,498.0
516.0,504.0
506.0,500.0
502.0,492.0
492.0,492.0
485.0,500.0
483.0,500.0
505.0,500.0
513.0,509.0
516.0,509.0
516.0,508.0
516.0,514.0
509.0,511.0
509.0,517.0
512.0,512.0
505.0,504.0
513.0,501.0
509.0,502.0
503.0,500.0
498.0,487.0
503.0,495.0
507.0,493.0
501.0,497.0
502.0,498.0
522.0,504.0
513.0,506.0
510.0,511.0
518.0,518.0
515.0,516.0
520.0,514.0
522.0,513.0
518.0,505.0
504.0,496.0
508.0,502.0
503.0,505.0
503.0,498.0
507.0,500.0
487.0,501.0
501.0,491.0
498.0,487.0
505.0,492.0
518.0,494.0
524.0,499.0
533.0,510.0
526.0,519.0
525.0,520.0
523.0,515.0
523.0,510.0
517.0,506.0
513.0,499.0
510.0,502.0
503.0,501.0
498.0,495.0
488.0,495.0
487.0,497.0
496.0,493.0
495.0,495.0
500.0,499.0
517.0,505.0
522.0,509.0
525.0,517.0
515.0,510.0
516.0,514.0
508.0,506.0
510.0,508.0
500.0,500.0
492.0,509.0
505.0,503.0
503.0,494.0
501.0,500.0
497.0,492.0
495.0,493.0
500.0,480.0
505.0,495.0
514.0,495.0
526.0,508.0
529.0,507.0
537.0,515.0
535.0,517.0
524.0,514.0
510.0,515.0
485.0,514.0
483.0,506.0
491.0,507.0
498.0,505.0
498.0,504.0
491.0,496.0
487.0,484.0
494.0,481.0
503.0,483.0
510.0,489.0
513.0,498.0
526.0,498.0
536.0,509.0
533.0,509.0
530.0,511.0
523.0,518.0
520.0,519.0
513.0,503.0
505.0,504.0
501.0,498.0
495.0,494.0
497.0,496.0
503.0,495.0
489.0,496.0
499.0,494.0
500.0,496.0
504.0,502.0
507.0,503.0
517.0,506.0
519.0,512.0
523.0,512.0
521.0,514.0
519.0,516.0
510.0,513.0
499.0,509.0
502.0,498.0
505.0,498.0
496.0,503.0
495.0,503.0
493.0,496.0
497.0,496.0
499.0,488.0
507.0,491.0
505.0,500.0
514.0,507.0
523.0,506.0
525.0,506.0
517.0,509.0
517.0,512.0
510.0,513.0
519.0,508.0
500.0,504.0
505.0,499.0
499.0,493.0
490.0,504.0
500.0,501.0
491.0,507.0
495.0,509.0
505.0,501.0
500.0,492.0
523.0,499.0
534.0,507.0
539.0,508.0
534.0,509.0
527.0,509.0
517.0,509.0
513.0,505.0
502.0,500.0
499.0,488.0
496.0,487.0
496.0,490.0
500.0,493.0
500.0,496.0
505.0,486.0
502.0,487.0
521.0,492.0
530.0,500.0
539.0,506.0
546.0,509.0
549.0,517.0
524.0,512.0
519.0,516.0
503.0,513.0
493.0,498.0
500.0,505.0
494.0,510.0
495.0,492.0
496.0,502.0
495.0,498.0
493.0,494.0
491.0,489.0
497.0,480.0
505.0,490.0
504.0,504.0
515.0,512.0
513.0,514.0
503.0,509.0
507.0,513.0
499.0,505.0
517.0,511.0
527.0,504.0
516.0,504.0
527.0,498.0
519.0,492.0
512.0,493.0
515.0,493.0
508.0,489.0
502.0,495.0
509.0,496.0
508.0,493.0
517.0,496.0
522.0,507.0
524.0,509.0
534.0,519.0
529.0,516.0
522.0,509.0
517.0,515.0
512.0,497.0
514.0,496.0
501.0,504.0
494.0,506.0
495.0,496.0
493.0,489.0
493.0,494.0
487.0,499.0
491.0,500.0
499.0,493.0
513.0,505.0
527.0,507.0
530.0,509.0
525.0,517.0
526.0,517.0
520.0,515.0
504.0,502.0
505.0,497.0
497.0,507.0
500.0,496.0
510.0,499.0
506.0,505.0
508.0,501.0
506.0,500.0
502.0,493.0
506.0,487.0
514.0,502.0
508.0,503.0
521.0,512.0
525.0,519.0
520.0,506.0
518.0,508.0
509.0,503.0
501.0,506.0
508.0,507.0
512.0,497.0
516.0,500.0
511.0,494.0
501.0,497.0
498.0,494.0
487.0,493.0
495.0,492.0
505.0,497.0
516.0,508.0
513.0,518.0
520.0,519.0
522.0,518.0
521.0,510.0
525.0,511.0
518.0,502.0
507.0,501.0
500.0,512.0
506.0,500.0
510.0,505.0
509.0,508.0
504.0,485.0
505.0,486.0
505.0,490.0
503.0,488.0
511.0,501.0
519.0,503.0
524.0,510.0
526.0,513.0
515.0,513.0
516.0,514.0
512.0,507.0
514.0,509.0
500.0,511.0
498.0,500.0
498.0,504.0
513.0,494.0
516.0,489.0
510.0,498.0
514.0,493.0
500.0,500.0
514.0,499.0
511.0,501.0
513.0,507.0
516.0,510.0
525.0,516.0
516.0,515.0
509.0,509.0
516.0,512.0
514.0,505.0
512.0,505.0
515.0,503.0
498.0,498.0
502.0,501.0
508.0,497.0
507.0,489.0
482.0,492.0
487.0,488.0
508.0,497.0
525.0,510.0
530.0,511.0
540.0,521.0
531.0,522.0
515.0,519.0
514.0,517.0
510.0,522.0
512.0,512.0
510.0,497.0
503.0,498.0
510.0,490.0
504.0,495.0
489.0,485.0
479.0,482.0
483.0,490.0
498.0,505.0
502.0,509.0
513.0,496.0
522.0,489.0
524.0,498.0
523.0,512.0
515.0,505.0
514.0,513.0
508.0,509.0
506.0,504.0
505.0,495.0
506.0,502.0
500.0,491.0
504.0,495.0
495.0,501.0
499.0,497.0
502.0,488.0
503.0,500.0
510.0,499.0
515.0,501.0
525.0,509.0
524.0,512.0
522.0,515.0
514.0,516.0
522.0,515.0
513.0,513.0
515.0,496.0
508.0,496.0
500.0,491.0
492.0,506.0
499.0,496.0
493.0,502.0
500.0,498.0
503.0,493.0
508.0,497.0
519.0,497.0
524.0,504.0
525.0,507.0
523.0,504.0
525.0,517.0
523.0,516.0
507.0,514.0
492.0,507.0
507.0,501.0
509.0,497.0
513.0,498.0
506.0,491.0
491.0,502.0
502.0,493.0
507.0,492.0
500.0,500.0
506.0,496.0
516.0,507.0
513.0,510.0
520.0,513.0
520.0,515.0
511.0,512.0
513.0,510.0
510.0,501.0
508.0,504.0
507.0,499.0
510.0,501.0
495.0,496.0
501.0,500.0
499.0,494.0
493.0,485.0
498.0,498.0
506.0,503.0
510.0,504.0
504.0,510.0
503.0,514.0
525.0,521.0
534.0,522.0
541.0,514.0
531.0,506.0
512.0,506.0
518.0,506.0
510.0,506.0
512.0,498.0
500.0,486.0
498.0,488.0
490.0,491.0
499.0,491.0
501.0,494.0
504.0,492.0
515.0,501.0
501.0,501.0
509.0,509.0
515.0,509.0
523.0,511.0
513.0,505.0
515.0,513.0
506.0,505.0
513.0,503.0
502.0,497.0
508.0,499.0
504.0,501.0
499.0,498.0
496.0,492.0
492.0,488.0
501.0,491.0
512.0,498.0
518.0,496.0
526.0,508.0
528.0,513.0
517.0,508.0
521.0,514.0
512.0,514.0
512.0,509.0
501.0,515.0
511.0,506.0
519.0,485.0
521.0,493.0
514.0,485.0
502.0,485.0
501.0,492.0
502.0,500.0
505.0,499.0
503.0,507.0
513.0,513.0
517.0,511.0
521.0,505.0
517.0,501.0
517.0,514.0
508.0,504.0
496.0,502.0
503.0,496.0
497.0,499.0
509.0,501.0
502.0,497.0
501.0,496.0
499.0,493.0
506.0,494.0
508.0,496.0
509.0,500.0
513.0,508.0
513.0,508.0
525.0,511.0
526.0,516.0
519.0,511.0
519.0,510.0
512.0,508.0
505.0,502.0
505.0,502.0
507.0,494.0
509.0,500.0
504.0,501.0
515.0,496.0
513.0,494.0
507.0,497.0
509.0,491.0
504.0,507.0
513.0,519.0
528.0,524.0
523.0,510.0
515.0,501.0
516.0,502.0
519.0,505.0
498.0,507.0
504.0,494.0
504.0,491.0
510.0,499.0
504.0,504.0
494.0,501.0
492.0,495.0
490.0,483.0
501.0,486.0
507.0,494.0
510.0,502.0
520.0,514.0
522.0,520.0
526.0,522.0
510.0,504.0
517.0,490.0
517.0,497.0
512.0,493.0
504.0,492.0
507.0,482.0
504.0,501.0
501.0,494.0
491.0,501.0
474.0,502.0
479.0,497.0
473.0,499.0
496.0,497.0
503.0,496.0
523.0,500.0
536.0,510.0
545.0,520.0
533.0,511.0
526.0,518.0
505.0,505.0
502.0,503.0
515.0,501.0
523.0,485.0
524.0,498.0
528.0,490.0
512.0,486.0
488.0,485.0
470.0,492.0
479.0,489.0
486.0,491.0
509.0,495.0
519.0,497.0
523.0,505.0
520.0,506.0
509.0,514.0
506.0,520.0
499.0,517.0
490.0,512.0
495.0,496.0
506.0,499.0
510.0,503.0
500.0,502.0
508.0,498.0
498.0,500.0
489.0,503.0
503.0,507.0
519.0,502.0
517.0,494.0
523.0,508.0
517.0,514.0
526.0,513.0
529.0,498.0
523.0,500.0
525.0,496.0
513.0,497.0
515.0,497.0
501.0,499.0
504.0,488.0
503.0,488.0
497.0,497.0
500.0,499.0
507.0,501.0
510.0,492.0
511.0,504.0
514.0,506.0
518.0,504.0
522.0,514.0
516.0,508.0
518.0,510.0
512.0,507.0
508.0,511.0
501.0,501.0
499.0,503.0
505.0,502.0
485.0,487.0
500.0,475.0
498.0,487.0
500.0,490.0
494.0,498.0
506.0,514.0
518.0,519.0
519.0,523.0
520.0,513.0
522.0,509.0
518.0,500.0
512.0,505.0
510.0,510.0
499.0,519.0
500.0,502.0
497.0,506.0
502.0,505.0
499.0,494.0
494.0,495.0
496.0,476.0
496.0,476.0
506.0,481.0
509.0,494.0
514.0,504.0
528.0,511.0
532.0,511.0
528.0,515.0
524.0,522.0
519.0,510.0
511.0,510.0
502.0,504.0
503.0,505.0
502.0,492.0
509.0,491.0
504.0,507.0
505.0,521.0
499.0,517.0
510.0,504.0
510.0,484.0
504.0,482.0
495.0,499.0
508.0,508.0
513.0,508.0
509.0,507.0
504.0,507.0
511.0,509.0
513.0,505.0
523.0,493.0
534.0,490.0
525.0,500.0
532.0,488.0
530.0,476.0
524.0,492.0
498.0,488.0
480.0,498.0
481.0,495.0
499.0,501.0
507.0,502.0
498.0,514.0
492.0,517.0
509.0,512.0
511.0,499.0
500.0,502.0
498.0,487.0
500.0,498.0
508.0,487.0
520.0,492.0
521.0,488.0
512.0,492.0
499.0,497.0
471.0,494.0
476.0,494.0
489.0,493.0
497.0,506.0
525.0,515.0
556.0,518.0
543.0,516.0
538.0,518.0
539.0,520.0
525.0,514.0
518.0,495.0
534.0,493.0
540.0,493.0
527.0,496.0
515.0,491.0
505.0,498.0
504.0,500.0
506.0,504.0
506.0,502.0
503.0,501.0
503.0,504.0
514.0,505.0
514.0,508.0
513.0,512.0
513.0,508.0
514.0,508.0
499.0,502.0
504.0,499.0
512.0,494.0
487.0,479.0
500.0,479.0
508.0,480.0
514.0,485.0
516.0,490.0
524.0,499.0
530.0,496.0
526.0,507.0
502.0,515.0
487.0,522.0
514.0,523.0
524.0,521.0
532.0,512.0
518.0,507.0
508.0,503.0
508.0,491.0
508.0,485.0
504.0,469.0
494.0,479.0
497.0,481.0
494.0,489.0
489.0,500.0
496.0,488.0
501.0,481.0
501.0,495.0
510.0,503.0
519.0,518.0
526.0,525.0
523.0,520.0
514.0,506.0
496.0,509.0
517.0,501.0
513.0,502.0
509.0,508.0
496.0,515.0
488.0,512.0
493.0,501.0
489.0,505.0
488.0,498.0
491.0,487.0
501.0,493.0
519.0,497.0
524.0,500.0
529.0,502.0
516.0,504.0
499.0,506.0
462.0,511.0
469.0,503.0
483.0,503.0
504.0,494.0
530.0,498.0
524.0,509.0
528.0,496.0
529.0,493.0
514.0,484.0
504.0,491.0
512.0,503.0
527.0,492.0
522.0,502.0
538.0,514.0
542.0,519.0
523.0,511.0
491.0,513.0
485.0,509.0
477.0,507.0
489.0,502.0
497.0,504.0
526.0,501.0
516.0,487.0
486.0,486.0
476.0,486.0
490.0,488.0
494.0,494.0
487.0,491.0
491.0,502.0
519.0,525.0
515.0,526.0
510.0,505.0
502.0,512.0
529.0,510.0
538.0,507.0
537.0,512.0
601.0,512.0
598.0,511.0
538.0,512.0
478.0,496.0
476.0,481.0
480.0,475.0
457.0,493.0
463.0,493.0
486.0,512.0
516.0,505.0
557.0,516.0
577.0,523.0
565.0,503.0
537.0,486.0
524.0,491.0
516.0,496.0
500.0,480.0
503.0,479.0
510.0,491.0
519.0,491.0
511.0,493.0
495.0,495.0
508.0,480.0
506.0,478.0
499.0,479.0
504.0,491.0
520.0,507.0
532.0,509.0
519.0,506.0
518.0,521.0
510.0,517.0
500.0,498.0
500.0,494.0
508.0,495.0
506.0,500.0
510.0,493.0
505.0,476.0
496.0,461.0
496.0,491.0
498.0,499.0
503.0,526.0
521.0,526.0
527.0,511.0
541.0,514.0
551.0,514.0
541.0,520.0
510.0,526.0
491.0,512.0
478.0,503.0
478.0,494.0
500.0,495.0
517.0,506.0
519.0,500.0
510.0,494.0
493.0,496.0
470.0,501.0
475.0,503.0
483.0,507.0
505.0,501.0
519.0,504.0
521.0,518.0
526.0,518.0
522.0,517.0
528.0,520.0
527.0,509.0
529.0,507.0
510.0,505.0
496.0,494.0
488.0,500.0
522.0,497.0
539.0,497.0
534.0,506.0
531.0,495.0
496.0,498.0
475.0,500.0
468.0,506.0
486.0,510.0
505.0,507.0
519.0,507.0
510.0,507.0
527.0,507.0
525.0,495.0
542.0,494.0
553.0,491.0
553.0,490.0
530.0,489.0
515.0,478.0
521.0,488.0
507.0,485.0
484.0,507.0
481.0,506.0
491.0,524.0
500.0,527.0
512.0,520.0
531.0,517.0
523.0,505.0
514.0,515.0
486.0,509.0
465.0,502.0
435.0,503.0
472.0,507.0
484.0,511.0
472.0,501.0
462.0,481.0
492.0,487.0
519.0,483.0
534.0,495.0
535.0,497.0
540.0,505.0
533.0,499.0
534.0,506.0
524.0,508.0
525.0,491.0
527.0,507.0
527.0,510.0
528.0,502.0
523.0,501.0
519.0,486.0
502.0,478.0
482.0,483.0
492.0,482.0
487.0,495.0
502.0,490.0
513.0,494.0
522.0,517.0
536.0,513.0
521.0,512.0
517.0,510.0
511.0,493.0
512.0,504.0
530.0,496.0
527.0,513.0
525.0,510.0
543.0,514.0
552.0,494.0
555.0,489.0
559.0,518.0
530.0,515.0
487.0,507.0
469.0,487.0
445.0,492.0
475.0,486.0
503.0,502.0
523.0,505.0
525.0,520.0
515.0,528.0
518.0,501.0
522.0,496.0
523.0,500.0
497.0,484.0
495.0,500.0
492.0,524.0
488.0,490.0
465.0,479.0
492.0,488.0
499.0,503.0
536.0,514.0
549.0,511.0
560.0,494.0
549.0,494.0
525.0,520.0
525.0,515.0
497.0,498.0
485.0,496.0
519.0,512.0
506.0,516.0
519.0,520.0
507.0,494.0
511.0,482.0
521.0,489.0
485.0,520.0
480.0,518.0
497.0,502.0
508.0,520.0
515.0,507.0
538.0,518.0
520.0,510.0
548.0,502.0
557.0,498.0
519.0,515.0
485.0,489.0
453.0,482.0
456.0,484.0
475.0,490.0
483.0,519.0
492.0,500.0
504.0,506.0
503.0,499.0
506.0,474.0
493.0,479.0
498.0,482.0
496.0,505.0
497.0,512.0
516.0,520.0
527.0,516.0
518.0,515.0
527.0,511.0
505.0,525.0
493.0,514.0
480.0,496.0
492.0,512.0
507.0,494.0
526.0,475.0
509.0,477.0
514.0,494.0
489.0,489.0
491.0,478.0
493.0,502.0
516.0,502.0
534.0,486.0
563.0,511.0
560.0,537.0
535.0,530.0
578.0,528.0
611.0,523.0
592.0,496.0
547.0,504.0
516.0,504.0
473.0,504.0
448.0,475.0
437.0,491.0
463.0,519.0
468.0,484.0
480.0,489.0
494.0,476.0
525.0,481.0
537.0,495.0
544.0,503.0
527.0,493.0
473.0,485.0
477.0,498.0
480.0,503.0
473.0,513.0
498.0,533.0
482.0,532.0
484.0,527.0
469.0,502.0
488.0,510.0
475.0,521.0
493.0,511.0
484.0,508.0
476.0,497.0
516.0,521.0
538.0,529.0
539.0,528.0
549.0,530.0
548.0,517.0
499.0,506.0
498.0,509.0
512.0,499.0
521.0,472.0
531.0,502.0
523.0,495.0
505.0,470.0
487.0,481.0
471.0,474.0
491.0,498.0
503.0,489.0
518.0,493.0
551.0,514.0
582.0,546.0
590.0,530.0
584.0,511.0
540.0,508.0
497.0,531.0
467.0,524.0
463.0,502.0
471.0,487.0
470.0,500.0
512.0,520.0
493.0,500.0
515.0,487.0
503.0,488.0
505.0,488.0
497.0,471.0
497.0,476.0
504.0,521.0
516.0,532.0
505.0,513.0
501.0,515.0
490.0,496.0
488.0,515.0
474.0,498.0
487.0,497.0
490.0,520.0
513.0,517.0
496.0,494.0
506.0,491.0
505.0,503.0
498.0,503.0
506.0,498.0
546.0,509.0
597.0,517.0
602.0,512.0
606.0,526.0
586.0,511.0
584.0,481.0
525.0,517.0
490.0,507.0
427.0,503.0
423.0,495.0
453.0,488.0
491.0,501.0
503.0,481.0
502.0,489.0
510.0,480.0
510.0,489.0
536.0,497.0
547.0,495.0
537.0,490.0
527.0,508.0
511.0,526.0
467.0,528.0
501.0,525.0
514.0,511.0
492.0,512.0
486.0,495.0
483.0,515.0
494.0,504.0
508.0,502.0
497.0,504.0
486.0,491.0
466.0,513.0
477.0,522.0
478.0,498.0
495.0,514.0
509.0,491.0
506.0,500.0
498.0,502.0
486.0,531.0
505.0,515.0
503.0,522.0
507.0,526.0
515.0,504.0
532.0,492.0
534.0,495.0
495.0,492.0
487.0,484.0
488.0,468.0
485.0,482.0
508.0,472.0
533.0,482.0
547.0,466.0
558.0,479.0
563.0,476.0
515.0,530.0
501.0,560.0
509.0,544.0
526.0,524.0
532.0,519.0
495.0,531.0
499.0,509.0
466.0,512.0
459.0,505.0
465.0,504.0
506.0,490.0
515.0,470.0
496.0,478.0
510.0,497.0
518.0,513.0
545.0,508.0
502.0,516.0
506.0,526.0
513.0,538.0
521.0,543.0
530.0,553.0
506.0,526.0
523.0,520.0
563.0,510.0
583.0,505.0
563.0,506.0
497.0,522.0
454.0,469.0
474.0,487.0
499.0,490.0
503.0,503.0
479.0,485.0
491.0,506.0
532.0,519.0
541.0,537.0
539.0,535.0
501.0,526.0
500.0,500.0
459.0,498.0
471.0,492.0
458.0,487.0
454.0,484.0
469.0,486.0
469.0,488.0
502.0,463.0
536.0,501.0
570.0,501.0
578.0,507.0
566.0,494.0
533.0,504.0
528.0,477.0
563.0,455.0
562.0,503.0
513.0,513.0
479.0,488.0
459.0,486.0
473.0,459.0
476.0,517.0
491.0,520.0
508.0,487.0
502.0,487.0
493.0,495.0
503.0,479.0
495.0,466.0
514.0,473.0
496.0,489.0
457.0,454.0
457.0,486.0
513.0,532.0
520.0,506.0
517.0,518.0
526.0,531.0
536.0,514.0
528.0,505.0
532.0,486.0
515.0,483.0
472.0,484.0
490.0,486.0
511.0,561.0
515.0,568.0
526.0,483.0
545.0,490.0
533.0,483.0
532.0,507.0
520.0,530.0
489.0,517.0
497.0,547.0
498.0,531.0
520.0,528.0
524.0,536.0
505.0,524.0
466.0,524.0
463.0,508.0
490.0,477.0
495.0,489.0
507.0,484.0
504.0,483.0
516.0,520.0
519.0,537.0
535.0,537.0
572.0,523.0
564.0,516.0
525.0,502.0
461.0,484.0
425.0,490.0
451.0,491.0
482.0,478.0
478.0,507.0
529.0,497.0
558.0,495.0
564.0,483.0
583.0,476.0
585.0,459.0
592.0,466.0
582.0,459.0
559.0,493.0
562.0,516.0
507.0,488.0
487.0,528.0
438.0,538.0
416.0,519.0
470.0,511.0
446.0,493.0
450.0,507.0
486.0,551.0
500.0,524.0
480.0,485.0
426.0,488.0
455.0,507.0
502.0,493.0
485.0,479.0
495.0,486.0
537.0,527.0
545.0,578.0
534.0,527.0
545.0,532.0
529.0,495.0
532.0,507.0
522.0,481.0
515.0,459.0
505.0,479.0
525.0,523.0
526.0,529.0
515.0,534.0
496.0,522.0
515.0,503.0
515.0,471.0
520.0,472.0
547.0,480.0
551.0,441.0
531.0,430.0
518.0,442.0
509.0,452.0
541.0,488.0
544.0,514.0
530.0,552.0
477.0,563.0
431.0,552.0
479.0,512.0
489.0,471.0
492.0,488.0
484.0,508.0
507.0,467.0
510.0,451.0
528.0,483.0
519.0,540.0
523.0,547.0
506.0,551.0
518.0,548.0
528.0,545.0
531.0,536.0
526.0,515.0
516.0,507.0
494.0,517.0
501.0,516.0
506.0,514.0
497.0,504.0
504.0,523.0
509.0,515.0
507.0,496.0
518.0,502.0
511.0,500.0
496.0,515.0
504.0,507.0
527.0,493.0
552.0,489.0
536.0,523.0
533.0,531.0
495.0,509.0
453.0,513.0
452.0,482.0
527.0,474.0
576.0,489.0
563.0,494.0
503.0,499.0
484.0,496.0
495.0,459.0
460.0,479.0
487.0,481.0
526.0,483.0
510.0,512.0
484.0,528.0
517.0,511.0
534.0,494.0
533.0,524.0
538.0,536.0
530.0,485.0
468.0,484.0
506.0,507.0
517.0,496.0
485.0,481.0
466.0,477.0
525.0,474.0
518.0,472.0
503.0,500.0
495.0,506.0
523.0,514.0
527.0,544.0
532.0,548.0
527.0,519.0
504.0,477.0
488.0,466.0
497.0,499.0
500.0,514.0
518.0,440.0
525.0,484.0
511.0,522.0
500.0,511.0
492.0,528.0
516.0,506.0
512.0,462.0
529.0,456.0
527.0,497.0
513.0,499.0
474.0,475.0
482.0,530.0
505.0,572.0
495.0,504.0
512.0,499.0
523.0,510.0
515.0,486.0
511.0,476.0
498.0,470.0
464.0,478.0
464.0,465.0
517.0,487.0
541.0,512.0
548.0,509.0
538.0,512.0
521.0,529.0
506.0,524.0
506.0,515.0
529.0,518.0
546.0,494.0
554.0,493.0
521.0,478.0
508.0,485.0
494.0,504.0
484.0,513.0
476.0,538.0
477.0,542.0
527.0,533.0
542.0,516.0
561.0,499.0
543.0,486.0
496.0,497.0
477.0,526.0
497.0,544.0
518.0,541.0
502.0,505.0
487.0,499.0
521.0,487.0
494.0,514.0
492.0,505.0
487.0,489.0
505.0,488.0
510.0,490.0
495.0,504.0
480.0,507.0
482.0,500.0
491.0,478.0
518.0,469.0
524.0,480.0
533.0,490.0
539.0,523.0
551.0,526.0
568.0,522.0
533.0,520.0
447.0,527.0
472.0,505.0
510.0,506.0
486.0,488.0
488.0,460.0
505.0,457.0
525.0,503.0
551.0,470.0
552.0,490.0
523.0,499.0
529.0,439.0
510.0,479.0
508.0,508.0
511.0,523.0
493.0,558.0
495.0,549.0
486.0,535.0
493.0,511.0
506.0,520.0
506.0,482.0
523.0,442.0
525.0,433.0
521.0,442.0
520.0,449.0
519.0,472.0
504.0,489.0
480.0,506.0
490.0,541.0
509.0,539.0
525.0,544.0
529.0,556.0
533.0,547.0
518.0,525.0
514.0,499.0
502.0,493.0
501.0,522.0
512.0,530.0
512.0,495.0
523.0,512.0
502.0,520.0
488.0,525.0
495.0,490.0
499.0,496.0
509.0,507.0
511.0,535.0
518.0,547.0
521.0,514.0
506.0,494.0
523.0,507.0
532.0,513.0
559.0,487.0
618.0,479.0
592.0,510.0
509.0,537.0
444.0,522.0
378.0,508.0
435.0,448.0
474.0,448.0
505.0,507.0
515.0,509.0
500.0,489.0
518.0,477.0
540.0,517.0
527.0,528.0
509.0,535.0
499.0,516.0
472.0,513.0
499.0,493.0
505.0,502.0
512.0,508.0
569.0,527.0
571.0,544.0
555.0,523.0
500.0,466.0
461.0,461.0
461.0,459.0
465.0,477.0
498.0,500.0
537.0,504.0
542.0,511.0
534.0,544.0
515.0,541.0
490.0,499.0
512.0,473.0
510.0,479.0
515.0,507.0
507.0,501.0
492.0,476.0
462.0,475.0
480.0,496.0
487.0,473.0
506.0,458.0
548.0,510.0
552.0,522.0
541.0,468.0
522.0,496.0
501.0,505.0
531.0,498.0
518.0,533.0
505.0,533.0
521.0,534.0
498.0,513.0
510.0,479.0
508.0,495.0
506.0,482.0
501.0,500.0
508.0,524.0
516.0,540.0
524.0,519.0
501.0,497.0
511.0,527.0
516.0,518.0
512.0,526.0
502.0,519.0
505.0,512.0
508.0,493.0
519.0,471.0
523.0,510.0
508.0,505.0
515.0,489.0
530.0,488.0
540.0,492.0
524.0,501.0
482.0,508.0
486.0,539.0
517.0,554.0
509.0,507.0
492.0,514.0
491.0,531.0
518.0,530.0
513.0,529.0
495.0,526.0
485.0,528.0
497.0,511.0
507.0,504.0
494.0,515.0
445.0,496.0
469.0,490.0
491.0,466.0
496.0,497.0
495.0,512.0
484.0,516.0
524.0,496.0
537.0,460.0
530.0,488.0
535.0,518.0
586.0,513.0
608.0,508.0
613.0,508.0
547.0,531.0
455.0,549.0
427.0,487.0
477.0,445.0
497.0,467.0
510.0,455.0
502.0,471.0
516.0,483.0
521.0,488.0
486.0,517.0
480.0,529.0
511.0,552.0
535.0,523.0
517.0,533.0
525.0,529.0
505.0,518.0
497.0,493.0
511.0,480.0
497.0,499.0
478.0,520.0
507.0,502.0
510.0,476.0
501.0,490.0
503.0,509.0
508.0,512.0
516.0,481.0
551.0,464.0
555.0,474.0
525.0,465.0
553.0,471.0
548.0,506.0
523.0,545.0
500.0,515.0
507.0,476.0
483.0,511.0
492.0,506.0
496.0,507.0
501.0,509.0
494.0,485.0
500.0,483.0
507.0,496.0
522.0,485.0
524.0,502.0
529.0,498.0
520.0,509.0
515.0,521.0
509.0,518.0
502.0,515.0
494.0,547.0
491.0,539.0
501.0,534.0
488.0,528.0
520.0,502.0
512.0,508.0
490.0,512.0
488.0,516.0
483.0,501.0
511.0,467.0
516.0,487.0
517.0,495.0
537.0,482.0
583.0,502.0
573.0,519.0
519.0,516.0
486.0,518.0
429.0,496.0
448.0,488.0
506.0,520.0
488.0,539.0
504.0,509.0
511.0,496.0
503.0,463.0
514.0,475.0
522.0,488.0
519.0,503.0
515.0,516.0
499.0,522.0
498.0,505.0
506.0,508.0
507.0,501.0
530.0,499.0
497.0,510.0
485.0,512.0
523.0,538.0
531.0,509.0
554.0,508.0
535.0,490.0
535.0,484.0
491.0,479.0
482.0,477.0
487.0,478.0
460.0,489.0
488.0,500.0
524.0,505.0
528.0,516.0
504.0,514.0
528.0,527.0
532.0,497.0
511.0,503.0
469.0,518.0
506.0,507.0
517.0,498.0
515.0,487.0
507.0,501.0
514.0,494.0
505.0,503.0
503.0,491.0
490.0,483.0
478.0,497.0
512.0,499.0
521.0,481.0
537.0,512.0
533.0,542.0
528.0,518.0
544.0,511.0
567.0,512.0
571.0,514.0
545.0,495.0
501.0,461.0
481.0,457.0
460.0,475.0
474.0,496.0
486.0,513.0
465.0,527.0
478.0,509.0
486.0,502.0
512.0,509.0
535.0,531.0
525.0,519.0
530.0,504.0
528.0,504.0
533.0,496.0
514.0,496.0
508.0,491.0
503.0,498.0
507.0,509.0
501.0,503.0
495.0,493.0
493.0,504.0
493.0,531.0
499.0,512.0
496.0,499.0
510.0,497.0
517.0,494.0
536.0,516.0
538.0,529.0
520.0,522.0
515.0,512.0
513.0,507.0
511.0,512.0
508.0,526.0
511.0,515.0
504.0,500.0
501.0,519.0
489.0,517.0
483.0,505.0
481.0,491.0
501.0,488.0
510.0,494.0
514.0,489.0
505.0,483.0
512.0,508.0
511.0,514.0
508.0,517.0
501.0,527.0
497.0,530.0
492.0,517.0
525.0,507.0
525.0,504.0
531.0,503.0
515.0,502.0
469.0,497.0
494.0,488.0
491.0,468.0
490.0,485.0
508.0,485.0
516.0,479.0
518.0,493.0
553.0,508.0
563.0,503.0
555.0,508.0
541.0,507.0
516.0,502.0
517.0,509.0
510.0,504.0
523.0,498.0
506.0,501.0
497.0,496.0
501.0,484.0
500.0,476.0
503.0,485.0
500.0,483.0
494.0,497.0
504.0,496.0
523.0,506.0
522.0,509.0
530.0,525.0
522.0,517.0
510.0,511.0
498.0,507.0
499.0,498.0
501.0,487.0
501.0,476.0
518.0,507.0
511.0,502.0
503.0,491.0
506.0,490.0
513.0,493.0
526.0,490.0
530.0,493.0
524.0,507.0
531.0,513.0
539.0,506.0
535.0,497.0
525.0,495.0
514.0,501.0
508.0,500.0
492.0,500.0
510.0,497.0
517.0,491.0
499.0,504.0
494.0,507.0
504.0,495.0
507.0,496.0
504.0,498.0
513.0,493.0
509.0,481.0
520.0,489.0
519.0,491.0
515.0,493.0
516.0,501.0
510.0,522.0
512.0,531.0
517.0,521.0
513.0,511.0
502.0,500.0
507.0,499.0
508.0,504.0
506.0,513.0
502.0,507.0
494.0,507.0
509.0,502.0
514.0,501.0
513.0,505.0
519.0,517.0
525.0,527.0
519.0,516.0
510.0,514.0
505.0,500.0
503.0,502.0
512.0,492.0
513.0,485.0
499.0,484.0
486.0,486.0
467.0,490.0
475.0,502.0
487.0,498.0
496.0,498.0
487.0,504.0
493.0,503.0
509.0,510.0
506.0,510.0
516.0,496.0
527.0,496.0
520.0,499.0
506.0,501.0
532.0,506.0
543.0,502.0
535.0,489.0
532.0,503.0
506.0,494.0
503.0,500.0
489.0,493.0
484.0,498.0
476.0,492.0
481.0,496.0
506.0,490.0
560.0,496.0
568.0,496.0
565.0,504.0
552.0,513.0
515.0,512.0
478.0,501.0
462.0,512.0
476.0,507.0
496.0,508.0
514.0,506.0
525.0,491.0
555.0,490.0
554.0,492.0
527.0,506.0
508.0,503.0
499.0,499.0
506.0,480.0
522.0,493.0
539.0,509.0
528.0,511.0
525.0,510.0
519.0,496.0
516.0,496.0
500.0,500.0
500.0,486.0
508.0,495.0
512.0,492.0
510.0,491.0
496.0,504.0
505.0,491.0
505.0,485.0
512.0,496.0
510.0,490.0
513.0,492.0
523.0,507.0
532.0,512.0
525.0,520.0
512.0,489.0
506.0,489.0
490.0,484.0
493.0,492.0
497.0,476.0
498.0,477.0
490.0,498.0
505.0,515.0
503.0,497.0
500.0,494.0
493.0,500.0
495.0,507.0
505.0,507.0
519.0,508.0
526.0,509.0
521.0,511.0
515.0,510.0
492.0,502.0
498.0,503.0
509.0,498.0
511.0,509.0
495.0,504.0
487.0,510.0
499.0,499.0
499.0,485.0
506.0,483.0
501.0,487.0
512.0,479.0
524.0,505.0
511.0,499.0
512.0,506.0
510.0,512.0
479.0,509.0
492.0,512.0
495.0,518.0
462.0,526.0
470.0,525.0
508.0,509.0
522.0,502.0
533.0,505.0
530.0,496.0
521.0,494.0
537.0,496.0
514.0,508.0
530.0,514.0
550.0,530.0
529.0,536.0
538.0,498.0
536.0,476.0
505.0,483.0
515.0,497.0
518.0,502.0
535.0,504.0
526.0,508.0
532.0,499.0
532.0,499.0
515.0,488.0
501.0,502.0
498.0,482.0
509.0,479.0
508.0,468.0
512.0,475.0
526.0,480.0
524.0,519.0
522.0,522.0
530.0,523.0
531.0,513.0
512.0,505.0
501.0,509.0
493.0,519.0
492.0,523.0
499.0,520.0
496.0,505.0
500.0,487.0
513.0,482.0
516.0,459.0
509.0,473.0
504.0,505.0
504.0,518.0
503.0,508.0
510.0,514.0
523.0,533.0
507.0,518.0
496.0,506.0
503.0,502.0
501.0,508.0
487.0,506.0
494.0,508.0
503.0,492.0
515.0,487.0
525.0,502.0
521.0,525.0
522.0,510.0
504.0,510.0
509.0,487.0
511.0,487.0
503.0,486.0
495.0,491.0
504.0,498.0
512.0,489.0
513.0,470.0
511.0,449.0
511.0,485.0
509.0,521.0
495.0,522.0
472.0,523.0
482.0,494.0
503.0,493.0
525.0,514.0
542.0,515.0
549.0,515.0
552.0,524.0
510.0,502.0
501.0,494.0
523.0,508.0
553.0,513.0
510.0,511.0
502.0,508.0
493.0,508.0
473.0,514.0
466.0,513.0
481.0,498.0
488.0,493.0
488.0,490.0
484.0,500.0
488.0,505.0
499.0,499.0
511.0,501.0
525.0,496.0
524.0,501.0
519.0,502.0
523.0,505.0
523.0,508.0
496.0,524.0
493.0,525.0
510.0,527.0
524.0,517.0
510.0,512.0
506.0,497.0
510.0,501.0
497.0,516.0
514.0,509.0
527.0,490.0
520.0,474.0
519.0,496.0
523.0,507.0
516.0,506.0
517.0,493.0
531.0,499.0
531.0,512.0
530.0,517.0
515.0,531.0
498.0,515.0
506.0,508.0
515.0,502.0
522.0,502.0
552.0,486.0
545.0,476.0
527.0,475.0
501.0,479.0
499.0,504.0
471.0,516.0
462.0,503.0
444.0,505.0
483.0,510.0
521.0,515.0
517.0,522.0
521.0,533.0
532.0,549.0
521.0,537.0
534.0,518.0
546.0,497.0
540.0,446.0
528.0,469.0
537.0,511.0
496.0,502.0
481.0,488.0
466.0,489.0
485.0,494.0
468.0,513.0
503.0,532.0
524.0,522.0
521.0,505.0
537.0,494.0
529.0,473.0
523.0,480.0
506.0,496.0
513.0,484.0
502.0,494.0
506.0,491.0
502.0,498.0
503.0,495.0
512.0,486.0
495.0,509.0
499.0,521.0
515.0,529.0
516.0,524.0
498.0,503.0
499.0,498.0
495.0,498.0
511.0,508.0
525.0,504.0
542.0,505.0
540.0,501.0
530.0,491.0
517.0,491.0
494.0,499.0
508.0,490.0
490.0,489.0
483.0,494.0
466.0,498.0
459.0,510.0
455.0,508.0
453.0,510.0
477.0,505.0
522.0,503.0
555.0,512.0
574.0,519.0
589.0,520.0
566.0,517.0
510.0,504.0
515.0,482.0
516.0,477.0
514.0,490.0
519.0,518.0
494.0,524.0
514.0,497.0
518.0,496.0
492.0,495.0
489.0,497.0
502.0,484.0
522.0,506.0
533.0,529.0
519.0,523.0
520.0,530.0
518.0,516.0
510.0,514.0
495.0,510.0
492.0,500.0
495.0,512.0
487.0,507.0
500.0,481.0
518.0,479.0
519.0,498.0
530.0,487.0
515.0,485.0
511.0,499.0
539.0,507.0
524.0,500.0
533.0,507.0
509.0,518.0
502.0,533.0
495.0,509.0
481.0,508.0
473.0,493.0
474.0,495.0
469.0,493.0
490.0,498.0
529.0,489.0
533.0,495.0
521.0,491.0
512.0,495.0
489.0,504.0
512.0,516.0
522.0,520.0
513.0,518.0
503.0,522.0
503.0,519.0
508.0,519.0
517.0,517.0
521.0,513.0
502.0,509.0
477.0,516.0
513.0,502.0
512.0,487.0
510.0,485.0
512.0,491.0
501.0,495.0
503.0,500.0
518.0,500.0
530.0,509.0
536.0,505.0
539.0,517.0
539.0,519.0
526.0,523.0
495.0,496.0
497.0,487.0
497.0,532.0
491.0,526.0
452.0,502.0
495.0,476.0
510.0,472.0
480.0,483.0
461.0,494.0
473.0,494.0
497.0,504.0
522.0,506.0
529.0,511.0
527.0,523.0
525.0,516.0
552.0,520.0
542.0,516.0
531.0,508.0
534.0,503.0
497.0,500.0
509.0,507.0
500.0,503.0
478.0,502.0
486.0,481.0
515.0,480.0
536.0,497.0
543.0,502.0
539.0,507.0
541.0,515.0
517.0,513.0
482.0,517.0
498.0,521.0
505.0,510.0
509.0,504.0
514.0,494.0
504.0,495.0
490.0,499.0
485.0,501.0
498.0,496.0
499.0,503.0
506.0,491.0
499.0,502.0
496.0,508.0
507.0,503.0
500.0,502.0
515.0,506.0
519.0,513.0
527.0,523.0
523.0,515.0
521.0,510.0
519.0,508.0
508.0,503.0
498.0,506.0
500.0,505.0
504.0,503.0
494.0,501.0
487.0,500.0
475.0,496.0
483.0,492.0
500.0,501.0
509.0,497.0
486.0,508.0
489.0,522.0
520.0,531.0
536.0,518.0
542.0,507.0
526.0,501.0
515.0,495.0
514.0,499.0
509.0,492.0
501.0,494.0
493.0,489.0
509.0,499.0
504.0,501.0
499.0,498.0
513.0,493.0
514.0,499.0
507.0,510.0
498.0,514.0
486.0,512.0
518.0,515.0
545.0,516.0
550.0,514.0
510.0,506.0
527.0,512.0
551.0,506.0
520.0,511.0
485.0,505.0
490.0,506.0
494.0,500.0
501.0,480.0
481.0,494.0
471.0,506.0
484.0,498.0
494.0,494.0
508.0,512.0
523.0,510.0
545.0,519.0
557.0,513.0
546.0,515.0
531.0,511.0
489.0,505.0
487.0,505.0
473.0,510.0
483.0,497.0
480.0,499.0
493.0,495.0
524.0,490.0
508.0,486.0
516.0,495.0
528.0,493.0
508.0,500.0
526.0,503.0
575.0,509.0
542.0,526.0
486.0,530.0
458.0,519.0
480.0,514.0
507.0,502.0
507.0,506.0
493.0,506.0
499.0,489.0
495.0,464.0
487.0,472.0
501.0,510.0
497.0,498.0
482.0,498.0
514.0,503.0
541.0,505.0
536.0,511.0
529.0,515.0
490.0,514.0
497.0,513.0
515.0,506.0
518.0,508.0
508.0,503.0
511.0,502.0
518.0,500.0
506.0,499.0
501.0,499.0
495.0,497.0
502.0,496.0
499.0,501.0
505.0,497.0
507.0,505.0
517.0,509.0
526.0,513.0
529.0,517.0
524.0,516.0
519.0,516.0
510.0,510.0
506.0,507.0
491.0,510.0
494.0,504.0
488.0,500.0
492.0,508.0
495.0,497.0
499.0,500.0
493.0,492.0
512.0,489.0
508.0,499.0
526.0,514.0
523.0,516.0
520.0,520.0
518.0,504.0
520.0,499.0
526.0,504.0
520.0,494.0
521.0,504.0
515.0,496.0
482.0,508.0
476.0,501.0
501.0,502.0
500.0,489.0
498.0,496.0
481.0,498.0
499.0,503.0
527.0,507.0
524.0,502.0
522.0,508.0
509.0,510.0
514.0,514.0
496.0,510.0
482.0,505.0
481.0,498.0
500.0,507.0
524.0,505.0
543.0,500.0
509.0,506.0
479.0,491.0
507.0,492.0
502.0,493.0
509.0,486.0
510.0,496.0
519.0,504.0
525.0,502.0
530.0,513.0
522.0,511.0
540.0,517.0
547.0,520.0
536.0,511.0
490.0,514.0
503.0,505.0
528.0,492.0
499.0,495.0
498.0,492.0
475.0,504.0
480.0,508.0
481.0,502.0
502.0,487.0
529.0,494.0
557.0,503.0
561.0,501.0
563.0,520.0
544.0,517.0
504.0,516.0
480.0,511.0
478.0,497.0
475.0,495.0
467.0,497.0
463.0,495.0
493.0,493.0
526.0,492.0
514.0,495.0
496.0,506.0
506.0,496.0
518.0,499.0
521.0,503.0
527.0,513.0
533.0,515.0
534.0,517.0
533.0,524.0
508.0,501.0
506.0,512.0
497.0,503.0
499.0,501.0
480.0,505.0
500.0,498.0
495.0,494.0
501.0,492.0
510.0,500.0
510.0,496.0
507.0,502.0
511.0,513.0
516.0,513.0
519.0,504.0
520.0,499.0
522.0,497.0
514.0,511.0
519.0,514.0
508.0,504.0
506.0,511.0
508.0,506.0
514.0,493.0
510.0,499.0
519.0,492.0
506.0,489.0
494.0,483.0
483.0,483.0
507.0,484.0
542.0,493.0
548.0,510.0
535.0,510.0
506.0,512.0
527.0,519.0
524.0,511.0
510.0,512.0
486.0,519.0
465.0,507.0
477.0,503.0
489.0,504.0
492.0,506.0
479.0,482.0
479.0,493.0
492.0,497.0
493.0,498.0
538.0,503.0
551.0,504.0
540.0,505.0
511.0,515.0
499.0,519.0
526.0,529.0
521.0,529.0
519.0,522.0
502.0,498.0
494.0,495.0
494.0,492.0
489.0,486.0
506.0,477.0
493.0,481.0
495.0,507.0
496.0,489.0
507.0,489.0
501.0,494.0
513.0,498.0
516.0,505.0
514.0,507.0
517.0,508.0
520.0,511.0
521.0,513.0
522.0,503.0
526.0,506.0
524.0,501.0
515.0,496.0
515.0,496.0
509.0,499.0
510.0,491.0
516.0,489.0
510.0,493.0
505.0,501.0
500.0,501.0
503.0,501.0
509.0,504.0
496.0,510.0
529.0,515.0
547.0,511.0
530.0,511.0
526.0,504.0
504.0,504.0
502.0,501.0
501.0,499.0
491.0,504.0
490.0,498.0
507.0,486.0
504.0,473.0
501.0,484.0
502.0,488.0
515.0,502.0
523.0,518.0
522.0,524.0
524.0,515.0
500.0,505.0
495.0,492.0
528.0,511.0
538.0,504.0
540.0,505.0
535.0,504.0
514.0,494.0
498.0,494.0
482.0,498.0
494.0,495.0
497.0,493.0
515.0,499.0
529.0,501.0
532.0,505.0
532.0,505.0
534.0,503.0
513.0,511.0
493.0,508.0
514.0,504.0
506.0,514.0
508.0,506.0
507.0,514.0
501.0,509.0
480.0,494.0
489.0,482.0
492.0,493.0
485.0,497.0
490.0,492.0
485.0,489.0
494.0,492.0
499.0,500.0
510.0,503.0
521.0,503.0
542.0,510.0
531.0,519.0
521.0,514.0
522.0,505.0
518.0,502.0
514.0,495.0
511.0,498.0
506.0,492.0
485.0,485.0
481.0,497.0
481.0,501.0
472.0,496.0
495.0,500.0
514.0,503.0
533.0,504.0
542.0,512.0
529.0,512.0
520.0,513.0
526.0,514.0
528.0,516.0
515.0,512.0
512.0,507.0
518.0,502.0
511.0,499.0
501.0,499.0
498.0,500.0
504.0,488.0
494.0,497.0
500.0,494.0
504.0,499.0
496.0,511.0
500.0,508.0
496.0,497.0
506.0,504.0
525.0,516.0
521.0,510.0
520.0,508.0
516.0,511.0
508.0,487.0
518.0,497.0
522.0,506.0
529.0,506.0
517.0,502.0
484.0,494.0
499.0,481.0
516.0,491.0
524.0,484.0
522.0,494.0
530.0,508.0
501.0,511.0
504.0,512.0
522.0,508.0
531.0,515.0
501.0,517.0
495.0,509.0
508.0,503.0
504.0,483.0
498.0,497.0
494.0,497.0
528.0,491.0
524.0,489.0
517.0,488.0
513.0,491.0
511.0,495.0
530.0,503.0
528.0,513.0
490.0,516.0
465.0,506.0
477.0,518.0
493.0,513.0
500.0,499.0
514.0,504.0
524.0,497.0
513.0,494.0
515.0,496.0
519.0,495.0
504.0,497.0
500.0,495.0
491.0,501.0
502.0,501.0
504.0,511.0
513.0,509.0
525.0,520.0
525.0,510.0
517.0,509.0
525.0,506.0
516.0,503.0
510.0,509.0
497.0,515.0
505.0,504.0
499.0,501.0
498.0,493.0
496.0,492.0
498.0,487.0
499.0,493.0
496.0,493.0
511.0,500.0
521.0,507.0
528.0,511.0
525.0,514.0
525.0,514.0
517.0,507.0
498.0,500.0
505.0,507.0
501.0,493.0
502.0,501.0
502.0,491.0
497.0,492.0
497.0,485.0
491.0,489.0
491.0,493.0
502.0,493.0
511.0,489.0
521.0,497.0
516.0,511.0
515.0,513.0
513.0,513.0
509.0,512.0
507.0,511.0
496.0,509.0
495.0,505.0
486.0,506.0
511.0,502.0
518.0,494.0
512.0,499.0
503.0,497.0
495.0,494.0
489.0,490.0
495.0,486.0
501.0,497.0
507.0,509.0
518.0,507.0
537.0,509.0
544.0,508.0
529.0,501.0
486.0,512.0
521.0,509.0
513.0,518.0
509.0,509.0
508.0,507.0
518.0,498.0
515.0,493.0
510.0,490.0
519.0,488.0
509.0,487.0
504.0,488.0
498.0,497.0
496.0,506.0
497.0,512.0
531.0,506.0
553.0,515.0
534.0,509.0
521.0,522.0
483.0,518.0
492.0,497.0
496.0,495.0
493.0,492.0
501.0,496.0
492.0,504.0
486.0,494.0
493.0,479.0
483.0,495.0
501.0,500.0
507.0,502.0
517.0,503.0
517.0,494.0
536.0,507.0
540.0,511.0
530.0,503.0
531.0,499.0
535.0,504.0
526.0,499.0
531.0,511.0
536.0,506.0
514.0,506.0
487.0,492.0
438.0,491.0
459.0,488.0
479.0,486.0
500.0,490.0
524.0,504.0
526.0,501.0
531.0,512.0
524.0,510.0
522.0,512.0
518.0,507.0
509.0,512.0
504.0,523.0
507.0,505.0
504.0,496.0
503.0,486.0
501.0,492.0
501.0,501.0
495.0,503.0
503.0,494.0
503.0,495.0
512.0,490.0
513.0,497.0
515.0,502.0
527.0,514.0
522.0,512.0
518.0,508.0
514.0,522.0
513.0,514.0
501.0,512.0
506.0,498.0
503.0,493.0
501.0,490.0
508.0,486.0
500.0,481.0
500.0,491.0
493.0,500.0
507.0,498.0
514.0,504.0
523.0,516.0
535.0,518.0
536.0,509.0
527.0,510.0
509.0,495.0
507.0,505.0
507.0,533.0
504.0,503.0
503.0,489.0
493.0,492.0
496.0,499.0
489.0,496.0
493.0,488.0
487.0,485.0
492.0,494.0
510.0,508.0
506.0,503.0
525.0,505.0
521.0,505.0
520.0,523.0
524.0,513.0
538.0,513.0
539.0,508.0
529.0,500.0
524.0,497.0
499.0,503.0
507.0,496.0
517.0,488.0
539.0,494.0
505.0,504.0
514.0,490.0
473.0,493.0
489.0,496.0
529.0,512.0
524.0,512.0
510.0,505.0
523.0,508.0
517.0,507.0
495.0,507.0
495.0,500.0
509.0,505.0
508.0,502.0
511.0,504.0
507.0,497.0
502.0,488.0
500.0,491.0
494.0,493.0
496.0,489.0
509.0,488.0
518.0,495.0
524.0,507.0
525.0,515.0
521.0,509.0
517.0,514.0
519.0,514.0
515.0,499.0
510.0,510.0
510.0,504.0
506.0,493.0
503.0,497.0
505.0,497.0
497.0,501.0
492.0,509.0
500.0,502.0
508.0,503.0
515.0,511.0
517.0,487.0
522.0,494.0
520.0,511.0
525.0,513.0
514.0,506.0
505.0,506.0
503.0,510.0
510.0,507.0
509.0,500.0
512.0,492.0
513.0,491.0
510.0,489.0
495.0,485.0
494.0,485.0
494.0,488.0
502.0,500.0
513.0,507.0
523.0,513.0
526.0,509.0
522.0,511.0
526.0,518.0
516.0,519.0
519.0,516.0
511.0,505.0
510.0,493.0
498.0,495.0
501.0,500.0
502.0,497.0
502.0,497.0
499.0,493.0
498.0,492.0
495.0,491.0
498.0,498.0
511.0,494.0
549.0,507.0
545.0,506.0
539.0,516.0
526.0,515.0
495.0,512.0
456.0,517.0
452.0,509.0
493.0,499.0
491.0,495.0
499.0,499.0
507.0,505.0
523.0,499.0
522.0,492.0
521.0,494.0
519.0,489.0
524.0,497.0
523.0,503.0
517.0,502.0
528.0,512.0
521.0,513.0
519.0,519.0
521.0,512.0
513.0,501.0
507.0,507.0
510.0,495.0
503.0,489.0
486.0,497.0
465.0,505.0
512.0,499.0
507.0,508.0
511.0,492.0
510.0,492.0
506.0,501.0
509.0,506.0
520.0,507.0
530.0,506.0
538.0,515.0
530.0,509.0
512.0,505.0
510.0,510.0
501.0,511.0
511.0,498.0
510.0,497.0
509.0,495.0
513.0,491.0
505.0,490.0
510.0,488.0
504.0,493.0
520.0,499.0
510.0,504.0
481.0,508.0
498.0,510.0
503.0,514.0
492.0,511.0
510.0,513.0
505.0,512.0
486.0,513.0
485.0,506.0
509.0,509.0
513.0,499.0
519.0,504.0
506.0,489.0
507.0,489.0
507.0,491.0
522.0,492.0
512.0,497.0
523.0,500.0
532.0,504.0
539.0,518.0
537.0,521.0
531.0,511.0
521.0,507.0
505.0,504.0
497.0,503.0
501.0,502.0
501.0,501.0
499.0,495.0
505.0,494.0
500.0,495.0
504.0,490.0
505.0,496.0
503.0,498.0
503.0,505.0
501.0,506.0
510.0,514.0
507.0,504.0
506.0,508.0
515.0,511.0
514.0,506.0
505.0,517.0
501.0,506.0
514.0,501.0
519.0,503.0
510.0,493.0
497.0,505.0
493.0,501.0
517.0,490.0
503.0,484.0
502.0,498.0
501.0,501.0
519.0,501.0
517.0,501.0
524.0,518.0
517.0,517.0
516.0,514.0
514.0,517.0
498.0,496.0
504.0,499.0
502.0,499.0
502.0,496.0
504.0,495.0
505.0,488.0
503.0,491.0
490.0,498.0
493.0,488.0
501.0,495.0
503.0,502.0
513.0,509.0
523.0,508.0
533.0,517.0
523.0,516.0
511.0,518.0
508.0,515.0
495.0,511.0
491.0,506.0
490.0,495.0
506.0,492.0
501.0,503.0
501.0,496.0
516.0,490.0
521.0,494.0
535.0,495.0
526.0,498.0
522.0,503.0
523.0,507.0
524.0,514.0
518.0,515.0
508.0,509.0
513.0,509.0
523.0,512.0
520.0,504.0
514.0,504.0
478.0,504.0
477.0,505.0
508.0,511.0
504.0,514.0
498.0,508.0
499.0,495.0
516.0,485.0
509.0,487.0
522.0,500.0
523.0,504.0
527.0,514.0
526.0,512.0
511.0,514.0
517.0,513.0
503.0,510.0
502.0,507.0
513.0,505.0
506.0,501.0
507.0,485.0
496.0,494.0
505.0,488.0
502.0,488.0
503.0,491.0
494.0,491.0
506.0,493.0
509.0,504.0
518.0,512.0
516.0,515.0
507.0,516.0
511.0,514.0
507.0,510.0
501.0,513.0
516.0,504.0
517.0,505.0
504.0,507.0
502.0,500.0
497.0,489.0
498.0,492.0
513.0,489.0
500.0,497.0
503.0,498.0
521.0,504.0
527.0,508.0
524.0,507.0
520.0,509.0
529.0,515.0
520.0,511.0
518.0,509.0
519.0,507.0
531.0,500.0
527.0,496.0
517.0,494.0
519.0,495.0
503.0,493.0
484.0,494.0
454.0,491.0
483.0,498.0
516.0,511.0
515.0,512.0
523.0,514.0
522.0,514.0
503.0,512.0
510.0,512.0
512.0,500.0
511.0,500.0
508.0,506.0
518.0,501.0
506.0,512.0
516.0,503.0
517.0,504.0
519.0,500.0
508.0,505.0
510.0,491.0
504.0,482.0
491.0,494.0
501.0,504.0
510.0,506.0
512.0,512.0
521.0,515.0
527.0,513.0
520.0,505.0
515.0,505.0
502.0,498.0
489.0,500.0
500.0,495.0
494.0,490.0
490.0,492.0
501.0,486.0
500.0,495.0
511.0,498.0
511.0,499.0
520.0,503.0
523.0,507.0
528.0,517.0
524.0,510.0
518.0,509.0
518.0,514.0
505.0,504.0
502.0,510.0
496.0,490.0
496.0,504.0
493.0,505.0
508.0,505.0
504.0,500.0
501.0,482.0
489.0,490.0
497.0,496.0
518.0,502.0
520.0,498.0
528.0,500.0
535.0,511.0
529.0,517.0
527.0,517.0
514.0,513.0
506.0,505.0
492.0,508.0
502.0,507.0
493.0,496.0
510.0,480.0
477.0,490.0
478.0,479.0
485.0,489.0
494.0,492.0
505.0,498.0
510.0,513.0
511.0,514.0
529.0,520.0
534.0,525.0
524.0,515.0
520.0,515.0
518.0,514.0
506.0,508.0
499.0,498.0
496.0,498.0
498.0,505.0
495.0,503.0
503.0,494.0
507.0,497.0
504.0,489.0
502.0,485.0
510.0,491.0
518.0,502.0
521.0,512.0
523.0,516.0
532.0,517.0
525.0,507.0
513.0,512.0
498.0,509.0
488.0,504.0
491.0,509.0
497.0,504.0
480.0,496.0
487.0,503.0
512.0,486.0
517.0,476.0
500.0,490.0
503.0,495.0
512.0,510.0
524.0,512.0
535.0,517.0
533.0,513.0
539.0,517.0
538.0,519.0
531.0,518.0
517.0,503.0
501.0,492.0
495.0,494.0
510.0,499.0
510.0,497.0
503.0,493.0
488.0,496.0
495.0,487.0
497.0,493.0
499.0,493.0
514.0,505.0
525.0,508.0
514.0,512.0
524.0,515.0
519.0,513.0
515.0,511.0
516.0,505.0
510.0,508.0
509.0,502.0
507.0,501.0
504.0,500.0
508.0,497.0
503.0,497.0
493.0,496.0
503.0,490.0
508.0,495.0
513.0,499.0
518.0,501.0
524.0,504.0
525.0,511.0
527.0,516.0
525.0,516.0
517.0,511.0
511.0,503.0
505.0,502.0
514.0,499.0
505.0,501.0
497.0,491.0
496.0,494.0
484.0,496.0
494.0,491.0
478.0,499.0
496.0,491.0
512.0,503.0
529.0,511.0
536.0,515.0
520.0,507.0
514.0,507.0
514.0,508.0
510.0,512.0
514.0,509.0
521.0,505.0
516.0,500.0
501.0,507.0
491.0,499.0
485.0,495.0
495.0,487.0
504.0,489.0
503.0,495.0
507.0,496.0
519.0,505.0
528.0,519.0
532.0,519.0
531.0,512.0
526.0,499.0
523.0,500.0
517.0,508.0
510.0,500.0
505.0,505.0
503.0,503.0
501.0,501.0
495.0,498.0
492.0,496.0
491.0,495.0
500.0,483.0
504.0,491.0
511.0,502.0
518.0,507.0
527.0,513.0
519.0,514.0
522.0,516.0
521.0,507.0
512.0,510.0
504.0,509.0
506.0,503.0
498.0,504.0
503.0,498.0
504.0,494.0
501.0,487.0
500.0,492.0
502.0,499.0
500.0,489.0
498.0,495.0
497.0,500.0
515.0,501.0
521.0,505.0
524.0,508.0
520.0,506.0
516.0,500.0
515.0,517.0
501.0,525.0
509.0,513.0
507.0,511.0
505.0,513.0
499.0,500.0
495.0,509.0
488.0,500.0
492.0,504.0
504.0,500.0
508.0,485.0
507.0,497.0
512.0,509.0
519.0,509.0
514.0,505.0
520.0,505.0
525.0,510.0
530.0,512.0
523.0,502.0
516.0,493.0
505.0,484.0
493.0,503.0
493.0,497.0
488.0,497.0
499.0,493.0
515.0,490.0
506.0,491.0
505.0,497.0
516.0,506.0
516.0,500.0
522.0,509.0
516.0,507.0
521.0,517.0
515.0,515.0
502.0,511.0
509.0,510.0
504.0,505.0
510.0,507.0
514.0,500.0
501.0,499.0
504.0,497.0
528.0,496.0
513.0,487.0
509.0,499.0
511.0,505.0
521.0,516.0
532.0,522.0
532.0,522.0
521.0,524.0
505.0,520.0
488.0,515.0
501.0,505.0
497.0,495.0
503.0,487.0
510.0,493.0
518.0,494.0
524.0,493.0
514.0,491.0
495.0,495.0
489.0,497.0
500.0,495.0
513.0,503.0
516.0,507.0
514.0,512.0
529.0,519.0
523.0,512.0
517.0,510.0
514.0,515.0
500.0,506.0
504.0,506.0
494.0,504.0
501.0,499.0
506.0,493.0
501.0,493.0
499.0,495.0
486.0,495.0
489.0,498.0
515.0,501.0
524.0,499.0
527.0,513.0
535.0,516.0
521.0,513.0
522.0,518.0
500.0,502.0
490.0,500.0
512.0,505.0
508.0,513.0
500.0,512.0
499.0,510.0
495.0,505.0
507.0,483.0
503.0,484.0
506.0,481.0
507.0,490.0
508.0,495.0
508.0,506.0
513.0,509.0
529.0,509.0
535.0,515.0
525.0,507.0
520.0,509.0
510.0,504.0
509.0,506.0
511.0,505.0
512.0,502.0
512.0,494.0
513.0,482.0
511.0,492.0
495.0,495.0
497.0,494.0
498.0,499.0
500.0,497.0
513.0,504.0
523.0,515.0
523.0,518.0
522.0,515.0
519.0,511.0
509.0,505.0
506.0,511.0
504.0,506.0
492.0,504.0
490.0,503.0
502.0,494.0
493.0,499.0
494.0,489.0
497.0,484.0
516.0,490.0
528.0,496.0
530.0,498.0
535.0,507.0
529.0,513.0
524.0,511.0
514.0,520.0
493.0,522.0
492.0,520.0
503.0,511.0
506.0,489.0
513.0,486.0
503.0,498.0
493.0,494.0
496.0,493.0
490.0,494.0
500.0,491.0
524.0,498.0
512.0,497.0
531.0,507.0
524.0,510.0
517.0,511.0
518.0,515.0
513.0,509.0
510.0,507.0
513.0,509.0
505.0,514.0
508.0,511.0
510.0,508.0
504.0,505.0
507.0,493.0
502.0,498.0
496.0,496.0
512.0,481.0
519.0,491.0
529.0,493.0
533.0,510.0
521.0,519.0
499.0,510.0
498.0,508.0
513.0,506.0
517.0,513.0
516.0,504.0
505.0,496.0
498.0,484.0
507.0,492.0
502.0,499.0
506.0,486.0
502.0,494.0
513.0,489.0
519.0,489.0
515.0,494.0
511.0,491.0
506.0,506.0
515.0,511.0
512.0,516.0
501.0,512.0
514.0,516.0
519.0,512.0
512.0,509.0
502.0,507.0
498.0,508.0
503.0,499.0
488.0,501.0
494.0,493.0
496.0,497.0
498.0,497.0
495.0,491.0
515.0,502.0
514.0,508.0
525.0,509.0
528.0,510.0
526.0,512.0
526.0,509.0
531.0,513.0
520.0,506.0
506.0,509.0
496.0,509.0
498.0,505.0
500.0,495.0
497.0,484.0
500.0,491.0
491.0,495.0
513.0,496.0
506.0,493.0
514.0,495.0
523.0,501.0
534.0,514.0
534.0,511.0
524.0,502.0
521.0,515.0
524.0,513.0
525.0,510.0
516.0,503.0
502.0,501.0
478.0,493.0
485.0,499.0
487.0,497.0
484.0,499.0
502.0,494.0
496.0,496.0
515.0,494.0
514.0,500.0
519.0,512.0
529.0,512.0
526.0,521.0
525.0,521.0
522.0,517.0
513.0,508.0
502.0,494.0
505.0,502.0
504.0,502.0
501.0,492.0
500.0,495.0
502.0,486.0
495.0,503.0
495.0,491.0
497.0,499.0
503.0,501.0
520.0,517.0
531.0,519.0
536.0,513.0
529.0,505.0
520.0,511.0
512.0,515.0
508.0,501.0
511.0,506.0
498.0,507.0
492.0,500.0
491.0,497.0
486.0,500.0
490.0,496.0
506.0,495.0
503.0,497.0
506.0,502.0
510.0,509.0
516.0,513.0
534.0,512.0
539.0,510.0
531.0,514.0
527.0,514.0
522.0,500.0
509.0,500.0
510.0,504.0
515.0,502.0
508.0,503.0
506.0,495.0
503.0,496.0
493.0,496.0
500.0,492.0
500.0,495.0
496.0,495.0
505.0,499.0
525.0,509.0
527.0,502.0
517.0,507.0
521.0,510.0
514.0,511.0
513.0,512.0
499.0,504.0
499.0,493.0
515.0,498.0
505.0,499.0
488.0,492.0
504.0,480.0
508.0,489.0
505.0,487.0
508.0,481.0
515.0,505.0
512.0,515.0
524.0,510.0
519.0,513.0
510.0,511.0
522.0,512.0
505.0,510.0
507.0,512.0
499.0,505.0
505.0,502.0
502.0,500.0
510.0,499.0
500.0,498.0
500.0,494.0
499.0,485.0
509.0,493.0
503.0,486.0
517.0,502.0
527.0,509.0
526.0,510.0
530.0,510.0
527.0,513.0
520.0,508.0
515.0,504.0
504.0,503.0
498.0,497.0
493.0,491.0
496.0,491.0
497.0,502.0
491.0,498.0
502.0,503.0
500.0,501.0
503.0,492.0
504.0,504.0
519.0,523.0
526.0,523.0
526.0,510.0
522.0,499.0
510.0,505.0
521.0,519.0
514.0,518.0
509.0,504.0
505.0,485.0
499.0,486.0
493.0,485.0
489.0,486.0
490.0,484.0
502.0,488.0
518.0,489.0
530.0,495.0
537.0,502.0
544.0,514.0
549.0,508.0
547.0,512.0
504.0,513.0
492.0,513.0
499.0,514.0
501.0,505.0
489.0,505.0
484.0,514.0
492.0,509.0
494.0,504.0
491.0,495.0
465.0,503.0
470.0,498.0
480.0,494.0
498.0,500.0
509.0,496.0
519.0,500.0
517.0,503.0
519.0,507.0
513.0,505.0
519.0,508.0
502.0,504.0
500.0,503.0
496.0,502.0
503.0,488.0
507.0,491.0
503.0,494.0
500.0,491.0
496.0,496.0
491.0,490.0
495.0,491.0
508.0,503.0
520.0,507.0
530.0,510.0
526.0,512.0
520.0,514.0
523.0,516.0
519.0,513.0
518.0,511.0
515.0,502.0
498.0,500.0
508.0,492.0
502.0,503.0
503.0,490.0
490.0,488.0
488.0,489.0
489.0,487.0
500.0,497.0
504.0,506.0
511.0,511.0
522.0,520.0
531.0,521.0
527.0,527.0
525.0,522.0
527.0,522.0
533.0,517.0
526.0,517.0
535.0,499.0
534.0,500.0
511.0,490.0
497.0,483.0
489.0,488.0
501.0,486.0
520.0,496.0
527.0,493.0
515.0,501.0
508.0,516.0
523.0,517.0
514.0,522.0
505.0,508.0
527.0,504.0
538.0,501.0
533.0,507.0
515.0,503.0
507.0,509.0
499.0,485.0
498.0,477.0
512.0,489.0
515.0,496.0
499.0,500.0
471.0,484.0
461.0,508.0
497.0,509.0
504.0,508.0
508.0,518.0
504.0,515.0
498.0,519.0
498.0,521.0
511.0,516.0
507.0,506.0
516.0,504.0
522.0,495.0
509.0,486.0
505.0,486.0
506.0,486.0
504.0,486.0
494.0,489.0
509.0,493.0
509.0,491.0
520.0,499.0
524.0,500.0
524.0,511.0
520.0,511.0
520.0,509.0
512.0,503.0
514.0,503.0
505.0,495.0
495.0,483.0
508.0,490.0
511.0,494.0
509.0,496.0
510.0,502.0
514.0,490.0
512.0,500.0
515.0,504.0
488.0,508.0
487.0,514.0
517.0,511.0
530.0,517.0
524.0,503.0
522.0,508.0
518.0,512.0
494.0,506.0
490.0,486.0
489.0,477.0
498.0,473.0
503.0,479.0
499.0,483.0
491.0,488.0
495.0,480.0
502.0,474.0
515.0,493.0
518.0,506.0
524.0,509.0
528.0,506.0
521.0,494.0
507.0,498.0
508.0,515.0
505.0,527.0
497.0,526.0
492.0,523.0
505.0,505.0
503.0,508.0
507.0,505.0
507.0,499.0
504.0,499.0
498.0,490.0
500.0,501.0
498.0,505.0
518.0,524.0
523.0,531.0
530.0,526.0
530.0,514.0
526.0,504.0
518.0,496.0
511.0,504.0
497.0,503.0
480.0,505.0
484.0,488.0
489.0,491.0
483.0,495.0
464.0,500.0
450.0,498.0
468.0,499.0
475.0,508.0
501.0,512.0
543.0,520.0
588.0,518.0
607.0,515.0
600.0,507.0
581.0,508.0
551.0,519.0
510.0,500.0
488.0,498.0
505.0,493.0
512.0,495.0
503.0,475.0
473.0,479.0
489.0,480.0
497.0,484.0
510.0,484.0
507.0,478.0
521.0,503.0
527.0,506.0
534.0,508.0
541.0,530.0
538.0,526.0
520.0,513.0
508.0,508.0
509.0,503.0
483.0,501.0
472.0,507.0
462.0,500.0
481.0,491.0
498.0,488.0
507.0,489.0
494.0,485.0
488.0,486.0
485.0,501.0
483.0,503.0
506.0,514.0
514.0,522.0
518.0,512.0
534.0,505.0
522.0,503.0
515.0,505.0
513.0,506.0
513.0,496.0
505.0,494.0
496.0,481.0
493.0,491.0
506.0,483.0
504.0,494.0
497.0,493.0
503.0,479.0
527.0,491.0
533.0,494.0
537.0,488.0
535.0,486.0
536.0,492.0
534.0,511.0
501.0,515.0
485.0,525.0
490.0,506.0
489.0,500.0
493.0,487.0
508.0,497.0
497.0,500.0
488.0,501.0
489.0,502.0
487.0,499.0
508.0,501.0
512.0,513.0
508.0,508.0
515.0,518.0
520.0,529.0
512.0,537.0
507.0,539.0
505.0,536.0
500.0,519.0
492.0,493.0
496.0,490.0
509.0,490.0
522.0,501.0
529.0,486.0
513.0,496.0
518.0,500.0
506.0,496.0
507.0,505.0
514.0,500.0
525.0,496.0
522.0,492.0
527.0,497.0
523.0,497.0
525.0,498.0
529.0,495.0
521.0,479.0
512.0,498.0
518.0,503.0
515.0,512.0
504.0,499.0
501.0,477.0
500.0,485.0
502.0,491.0
511.0,500.0
520.0,503.0
527.0,515.0
524.0,514.0
533.0,522.0
542.0,518.0
536.0,509.0
529.0,515.0
520.0,517.0
499.0,508.0
491.0,494.0
479.0,491.0
465.0,497.0
481.0,491.0
481.0,491.0
494.0,485.0
524.0,490.0
542.0,498.0
547.0,502.0
561.0,508.0
550.0,509.0
546.0,518.0
524.0,516.0
504.0,509.0
480.0,501.0
494.0,501.0
502.0,503.0
487.0,498.0
498.0,484.0
507.0,487.0
485.0,488.0
489.0,471.0
503.0,482.0
507.0,489.0
522.0,507.0
510.0,503.0
513.0,506.0
524.0,510.0
518.0,517.0
518.0,521.0
497.0,516.0
494.0,521.0
506.0,509.0
482.0,504.0
490.0,486.0
494.0,495.0
489.0,496.0
495.0,488.0
502.0,490.0
501.0,491.0
507.0,504.0
515.0,506.0
521.0,504.0
521.0,508.0
526.0,516.0
525.0,519.0
518.0,503.0
513.0,504.0
508.0,508.0
498.0,507.0
515.0,493.0
521.0,491.0
507.0,499.0
517.0,477.0
514.0,490.0
498.0,488.0
488.0,492.0
498.0,497.0
523.0,512.0
524.0,520.0
526.0,522.0
522.0,520.0
516.0,508.0
503.0,508.0
508.0,515.0
501.0,510.0
499.0,503.0
502.0,500.0
505.0,486.0
512.0,497.0
519.0,513.0
530.0,503.0
532.0,486.0
519.0,496.0
498.0,504.0
507.0,508.0
512.0,514.0
498.0,516.0
510.0,507.0
523.0,509.0
528.0,518.0
518.0,519.0
497.0,502.0
481.0,483.0
488.0,504.0
508.0,500.0
508.0,496.0
504.0,497.0
504.0,489.0
496.0,499.0
495.0,485.0
510.0,502.0
512.0,510.0
513.0,522.0
515.0,522.0
521.0,513.0
531.0,518.0
528.0,516.0
505.0,516.0
515.0,506.0
533.0,501.0
556.0,506.0
559.0,511.0
536.0,496.0
464.0,482.0
422.0,485.0
440.0,499.0
496.0,489.0
508.0,499.0
504.0,501.0
516.0,514.0
511.0,530.0
510.0,505.0
497.0,496.0
497.0,495.0
495.0,503.0
506.0,508.0
515.0,510.0
507.0,509.0
501.0,493.0
489.0,497.0
495.0,496.0
499.0,499.0
520.0,501.0
523.0,497.0
519.0,496.0
530.0,515.0
532.0,514.0
524.0,523.0
526.0,530.0
514.0,523.0
490.0,504.0
501.0,480.0
507.0,489.0
505.0,495.0
492.0,499.0
512.0,496.0
501.0,488.0
494.0,479.0
500.0,481.0
517.0,487.0
540.0,500.0
530.0,508.0
515.0,523.0
499.0,521.0
513.0,498.0
528.0,490.0
512.0,503.0
507.0,511.0
538.0,520.0
545.0,507.0
548.0,512.0
526.0,504.0
464.0,496.0
474.0,488.0
489.0,486.0
490.0,485.0
495.0,484.0
505.0,495.0
517.0,506.0
536.0,514.0
526.0,507.0
518.0,511.0
527.0,521.0
513.0,516.0
479.0,493.0
484.0,475.0
515.0,479.0
521.0,511.0
530.0,511.0
508.0,528.0
478.0,515.0
488.0,499.0
498.0,507.0
528.0,499.0
597.0,494.0
611.0,505.0
601.0,517.0
529.0,516.0
514.0,519.0
485.0,492.0
475.0,465.0
481.0,463.0
480.0,468.0
497.0,497.0
486.0,505.0
481.0,520.0
480.0,518.0
481.0,484.0
497.0,498.0
502.0,499.0
503.0,499.0
502.0,499.0
495.0,516.0
496.0,513.0
523.0,521.0
530.0,530.0
556.0,517.0
540.0,488.0
535.0,531.0
555.0,513.0
559.0,513.0
552.0,501.0
525.0,498.0
477.0,486.0
468.0,499.0
484.0,488.0
470.0,484.0
485.0,480.0
509.0,494.0
499.0,499.0
490.0,515.0
505.0,521.0
519.0,530.0
517.0,523.0
514.0,515.0
496.0,491.0
497.0,488.0
488.0,498.0
491.0,476.0
496.0,480.0
467.0,491.0
475.0,479.0
495.0,494.0
501.0,514.0
507.0,497.0
516.0,496.0
533.0,504.0
532.0,511.0
522.0,510.0
522.0,492.0
503.0,503.0
492.0,522.0
476.0,513.0
467.0,495.0
475.0,471.0
505.0,501.0
517.0,508.0
515.0,527.0
509.0,526.0
525.0,513.0
522.0,523.0
515.0,511.0
505.0,508.0
510.0,511.0
537.0,498.0
542.0,498.0
552.0,490.0
565.0,478.0
534.0,496.0
532.0,503.0
505.0,518.0
486.0,500.0
471.0,509.0
451.0,482.0
495.0,518.0
549.0,509.0
536.0,500.0
527.0,499.0
513.0,504.0
503.0,495.0
553.0,504.0
568.0,499.0
621.0,510.0
618.0,518.0
548.0,525.0
484.0,515.0
476.0,503.0
436.0,500.0
423.0,491.0
461.0,496.0
457.0,485.0
460.0,482.0
465.0,488.0
463.0,477.0
491.0,476.0
504.0,508.0
510.0,514.0
527.0,493.0
529.0,503.0
530.0,551.0
517.0,535.0
506.0,550.0
509.0,522.0
499.0,491.0
476.0,496.0
490.0,481.0
493.0,504.0
481.0,480.0
507.0,454.0
523.0,486.0
540.0,519.0
565.0,519.0
549.0,511.0
527.0,488.0
500.0,493.0
502.0,494.0
498.0,517.0
503.0,507.0
493.0,519.0
488.0,507.0
503.0,502.0
512.0,497.0
491.0,492.0
493.0,491.0
506.0,503.0
508.0,518.0
503.0,506.0
486.0,517.0
500.0,509.0
500.0,519.0
500.0,536.0
513.0,515.0
524.0,518.0
524.0,513.0
517.0,512.0
514.0,507.0
536.0,515.0
559.0,523.0
549.0,504.0
523.0,471.0
491.0,441.0
474.0,470.0
473.0,503.0
492.0,527.0
519.0,518.0
551.0,525.0
562.0,507.0
520.0,508.0
505.0,470.0
493.0,471.0
480.0,484.0
504.0,463.0
529.0,480.0
548.0,518.0
552.0,514.0
534.0,482.0
503.0,489.0
475.0,485.0
444.0,487.0
478.0,488.0
485.0,488.0
539.0,501.0
590.0,501.0
585.0,500.0
528.0,504.0
485.0,503.0
473.0,516.0
436.0,521.0
414.0,559.0
474.0,542.0
490.0,528.0
504.0,525.0
511.0,517.0
486.0,479.0
495.0,498.0
563.0,473.0
621.0,470.0
575.0,477.0
547.0,502.0
499.0,504.0
448.0,507.0
446.0,514.0
471.0,528.0
481.0,542.0
479.0,532.0
487.0,497.0
519.0,499.0
528.0,527.0
516.0,492.0
512.0,502.0
504.0,502.0
506.0,501.0
496.0,505.0
497.0,502.0
489.0,514.0
493.0,507.0
521.0,506.0
548.0,502.0
550.0,469.0
510.0,503.0
532.0,512.0
527.0,494.0
498.0,504.0
492.0,507.0
501.0,478.0
500.0,464.0
502.0,439.0
502.0,450.0
507.0,456.0
506.0,457.0
465.0,525.0
489.0,568.0
509.0,526.0
516.0,509.0
505.0,526.0
508.0,532.0
506.0,550.0
510.0,549.0
505.0,529.0
496.0,518.0
520.0,495.0
528.0,534.0
534.0,548.0
535.0,502.0
534.0,476.0
526.0,494.0
496.0,477.0
502.0,452.0
510.0,511.0
512.0,520.0
520.0,524.0
491.0,521.0
496.0,523.0
509.0,513.0
504.0,507.0
510.0,511.0
489.0,489.0
487.0,480.0
488.0,506.0
475.0,507.0
477.0,471.0
522.0,500.0
535.0,485.0
492.0,531.0
489.0,495.0
432.0,500.0
499.0,497.0
553.0,486.0
565.0,485.0
525.0,491.0
478.0,495.0
423.0,517.0
455.0,517.0
492.0,530.0
534.0,519.0
545.0,486.0
547.0,445.0
529.0,454.0
556.0,501.0
550.0,525.0
537.0,494.0
531.0,515.0
518.0,530.0
557.0,530.0
547.0,502.0
494.0,491.0
403.0,494.0
447.0,489.0
498.0,521.0
497.0,516.0
482.0,490.0
494.0,486.0
505.0,493.0
499.0,495.0
526.0,458.0
526.0,428.0
497.0,441.0
490.0,464.0
479.0,507.0
466.0,562.0
513.0,555.0
538.0,535.0
541.0,542.0
534.0,532.0
522.0,520.0
516.0,521.0
509.0,533.0
520.0,495.0
531.0,490.0
525.0,497.0
512.0,486.0
501.0,515.0
503.0,523.0
500.0,521.0
511.0,501.0
514.0,484.0
520.0,517.0
516.0,543.0
515.0,534.0
512.0,492.0
518.0,511.0
505.0,506.0
498.0,512.0
499.0,519.0
490.0,515.0
501.0,484.0
520.0,465.0
520.0,476.0
541.0,494.0
539.0,499.0
560.0,485.0
546.0,492.0
519.0,492.0
495.0,482.0
474.0,497.0
471.0,535.0
497.0,550.0
524.0,543.0
485.0,517.0
506.0,508.0
552.0,513.0
542.0,531.0
502.0,488.0
501.0,512.0
499.0,514.0
465.0,510.0
465.0,481.0
500.0,472.0
518.0,477.0
528.0,489.0
528.0,515.0
527.0,493.0
526.0,511.0
490.0,519.0
469.0,522.0
494.0,495.0
531.0,493.0
558.0,492.0
507.0,474.0
483.0,493.0
488.0,498.0
498.0,492.0
528.0,490.0
525.0,503.0
503.0,556.0
524.0,504.0
499.0,473.0
493.0,466.0
516.0,456.0
535.0,456.0
525.0,468.0
517.0,506.0
509.0,509.0
492.0,535.0
487.0,525.0
483.0,543.0
489.0,514.0
493.0,481.0
490.0,498.0
505.0,491.0
498.0,490.0
499.0,519.0
517.0,524.0
550.0,502.0
536.0,490.0
507.0,482.0
503.0,491.0
486.0,497.0
516.0,519.0
536.0,529.0
537.0,506.0
540.0,501.0
530.0,527.0
510.0,492.0
489.0,479.0
514.0,502.0
517.0,522.0
525.0,513.0
519.0,493.0
521.0,528.0
513.0,541.0
513.0,499.0
500.0,513.0
500.0,497.0
489.0,485.0
495.0,469.0
517.0,467.0
499.0,506.0
500.0,514.0
516.0,511.0
529.0,540.0
490.0,517.0
482.0,477.0
477.0,479.0
495.0,466.0
502.0,491.0
537.0,531.0
586.0,576.0
564.0,559.0
488.0,525.0
491.0,502.0
487.0,465.0
539.0,487.0
528.0,514.0
496.0,509.0
479.0,505.0
464.0,536.0
511.0,504.0
500.0,496.0
512.0,515.0
521.0,519.0
543.0,540.0
544.0,526.0
529.0,498.0
500.0,481.0
530.0,503.0
503.0,500.0
460.0,499.0
483.0,503.0
520.0,510.0
532.0,498.0
512.0,476.0
520.0,480.0
499.0,495.0
480.0,492.0
502.0,492.0
515.0,473.0
514.0,486.0
520.0,500.0
510.0,478.0
510.0,496.0
535.0,542.0
543.0,500.0
525.0,525.0
507.0,516.0
481.0,501.0
480.0,448.0
489.0,468.0
483.0,510.0
498.0,480.0
491.0,492.0
508.0,474.0
494.0,480.0
514.0,520.0
546.0,524.0
552.0,523.0
515.0,512.0
515.0,506.0
526.0,499.0
516.0,499.0
507.0,530.0
502.0,568.0
510.0,535.0
514.0,518.0
506.0,518.0
486.0,500.0
494.0,478.0
488.0,496.0
512.0,524.0
514.0,478.0
503.0,476.0
534.0,475.0
555.0,489.0
546.0,456.0
506.0,488.0
489.0,507.0
498.0,512.0
494.0,522.0
498.0,528.0
535.0,499.0
500.0,525.0
509.0,531.0
487.0,518.0
453.0,499.0
463.0,525.0
490.0,516.0
515.0,498.0
535.0,463.0
556.0,456.0
512.0,485.0
525.0,512.0
497.0,517.0
496.0,515.0
493.0,558.0
504.0,544.0
538.0,534.0
570.0,517.0
541.0,517.0
476.0,507.0
482.0,505.0
456.0,486.0
485.0,494.0
514.0,479.0
576.0,501.0
590.0,528.0
541.0,507.0
513.0,511.0
507.0,499.0
491.0,496.0
504.0,496.0
501.0,526.0
485.0,520.0
511.0,500.0
516.0,493.0
488.0,487.0
506.0,464.0
533.0,446.0
513.0,468.0
512.0,502.0
505.0,521.0
512.0,473.0
512.0,484.0
509.0,535.0
525.0,492.0
499.0,444.0
525.0,508.0
531.0,505.0
518.0,501.0
529.0,503.0
539.0,493.0
535.0,514.0
510.0,517.0
522.0,477.0
520.0,461.0
510.0,470.0
479.0,462.0
451.0,471.0
443.0,472.0
490.0,536.0
529.0,573.0
527.0,560.0
526.0,547.0
533.0,527.0
508.0,508.0
509.0,497.0
503.0,542.0
508.0,567.0
505.0,558.0
513.0,521.0
505.0,514.0
491.0,517.0
486.0,503.0
496.0,508.0
510.0,509.0
543.0,525.0
553.0,525.0
509.0,510.0
509.0,460.0
504.0,491.0
497.0,519.0
485.0,532.0
494.0,521.0
477.0,508.0
484.0,468.0
497.0,467.0
484.0,468.0
482.0,468.0
507.0,487.0
543.0,514.0
567.0,527.0
553.0,556.0
543.0,507.0
498.0,496.0
482.0,511.0
489.0,502.0
484.0,495.0
518.0,502.0
518.0,504.0
534.0,497.0
522.0,490.0
512.0,491.0
499.0,490.0
503.0,512.0
560.0,520.0
585.0,497.0
562.0,499.0
509.0,515.0
448.0,518.0
447.0,509.0
501.0,496.0
525.0,486.0
546.0,501.0
534.0,496.0
506.0,506.0
490.0,518.0
499.0,505.0
516.0,503.0
514.0,477.0
509.0,468.0
499.0,466.0
502.0,458.0
497.0,502.0
478.0,486.0
483.0,475.0
494.0,443.0
498.0,495.0
543.0,528.0
526.0,523.0
519.0,512.0
506.0,514.0
510.0,544.0
500.0,531.0
499.0,498.0
505.0,490.0
514.0,503.0
529.0,498.0
508.0,492.0
510.0,443.0
512.0,462.0
509.0,489.0
509.0,502.0
512.0,511.0
528.0,523.0
530.0,541.0
520.0,536.0
529.0,539.0
514.0,537.0
501.0,517.0
504.0,534.0
509.0,525.0
512.0,516.0
505.0,518.0
512.0,502.0
506.0,494.0
509.0,498.0
511.0,501.0
535.0,512.0
539.0,506.0
538.0,510.0
539.0,506.0
507.0,506.0
492.0,506.0
511.0,504.0
511.0,507.0
506.0,491.0
474.0,504.0
507.0,520.0
521.0,514.0
485.0,513.0
472.0,503.0
472.0,492.0
468.0,490.0
507.0,493.0
532.0,504.0
515.0,514.0
521.0,522.0
537.0,502.0
532.0,510.0
503.0,506.0
500.0,506.0
498.0,514.0
516.0,504.0
502.0,502.0
511.0,498.0
524.0,477.0
484.0,496.0
504.0,484.0
491.0,468.0
470.0,470.0
496.0,485.0
539.0,498.0
546.0,505.0
546.0,510.0
532.0,517.0
508.0,501.0
511.0,492.0
515.0,485.0
516.0,500.0
499.0,500.0
498.0,478.0
480.0,487.0
498.0,493.0
497.0,505.0
512.0,506.0
500.0,499.0
511.0,494.0
513.0,509.0
516.0,520.0
515.0,513.0
533.0,522.0
535.0,529.0
532.0,523.0
534.0,519.0
521.0,517.0
493.0,500.0
501.0,490.0
509.0,455.0
513.0,472.0
519.0,485.0
520.0,480.0
509.0,501.0
508.0,483.0
501.0,485.0
512.0,513.0
515.0,528.0
519.0,512.0
525.0,505.0
524.0,515.0
512.0,506.0
502.0,505.0
510.0,514.0
509.0,517.0
507.0,505.0
506.0,514.0
502.0,511.0
505.0,509.0
493.0,509.0
500.0,505.0
507.0,502.0
509.0,482.0
494.0,488.0
510.0,514.0
531.0,521.0
533.0,519.0
535.0,510.0
523.0,500.0
520.0,491.0
503.0,508.0
502.0,502.0
494.0,487.0
504.0,477.0
505.0,477.0
520.0,488.0
497.0,492.0
498.0,497.0
516.0,498.0
537.0,512.0
530.0,514.0
533.0,516.0
503.0,531.0
497.0,524.0
505.0,516.0
483.0,528.0
485.0,505.0
486.0,499.0
501.0,495.0
517.0,499.0
512.0,493.0
499.0,495.0
498.0,490.0
499.0,485.0
514.0,480.0
505.0,486.0
508.0,490.0
547.0,504.0
539.0,509.0
550.0,508.0
550.0,508.0
513.0,505.0
493.0,511.0
495.0,508.0
478.0,501.0
485.0,498.0
503.0,485.0
497.0,490.0
490.0,504.0
484.0,497.0
490.0,484.0
500.0,494.0
523.0,504.0
513.0,504.0
533.0,499.0
537.0,497.0
532.0,505.0
528.0,510.0
522.0,499.0
522.0,500.0
511.0,521.0
505.0,512.0
504.0,505.0
493.0,499.0
507.0,488.0
508.0,488.0
499.0,492.0
502.0,479.0
495.0,484.0
511.0,488.0
520.0,505.0
515.0,496.0
524.0,526.0
525.0,535.0
527.0,526.0
520.0,515.0
512.0,508.0
504.0,508.0
501.0,503.0
505.0,496.0
490.0,491.0
503.0,487.0
498.0,490.0
495.0,503.0
506.0,490.0
497.0,477.0
499.0,490.0
513.0,498.0
525.0,512.0
526.0,503.0
523.0,507.0
522.0,500.0
519.0,506.0
510.0,504.0
506.0,494.0
506.0,498.0
495.0,496.0
490.0,502.0
502.0,498.0
509.0,498.0
510.0,488.0
511.0,478.0
518.0,479.0
510.0,485.0
501.0,500.0
522.0,521.0
522.0,522.0
518.0,523.0
524.0,533.0
511.0,536.0
505.0,528.0
503.0,498.0
498.0,488.0
506.0,501.0
494.0,508.0
504.0,503.0
508.0,505.0
494.0,502.0
504.0,498.0
508.0,493.0
514.0,502.0
522.0,513.0
521.0,521.0
528.0,523.0
514.0,508.0
513.0,509.0
511.0,506.0
506.0,495.0
482.0,483.0
485.0,481.0
496.0,489.0
486.0,489.0
486.0,485.0
513.0,491.0
510.0,496.0
510.0,496.0
529.0,499.0
543.0,502.0
532.0,509.0
524.0,507.0
495.0,511.0
486.0,502.0
494.0,506.0
487.0,499.0
486.0,504.0
501.0,503.0
527.0,496.0
522.0,494.0
514.0,489.0
503.0,488.0
506.0,480.0
512.0,498.0
521.0,491.0
532.0,498.0
536.0,503.0
533.0,506.0
522.0,512.0
517.0,505.0
531.0,511.0
528.0,508.0
502.0,503.0
481.0,505.0
502.0,493.0
515.0,488.0
510.0,493.0
504.0,499.0
507.0,501.0
518.0,491.0
520.0,505.0
513.0,514.0
527.0,508.0
530.0,505.0
532.0,516.0
535.0,524.0
524.0,513.0
523.0,490.0
527.0,492.0
514.0,500.0
510.0,484.0
511.0,486.0
511.0,491.0
500.0,500.0
500.0,481.0
503.0,487.0
507.0,494.0
508.0,503.0
510.0,515.0
526.0,518.0
524.0,507.0
522.0,498.0
523.0,502.0
526.0,498.0
517.0,507.0
502.0,505.0
501.0,505.0
498.0,494.0
504.0,494.0
502.0,487.0
492.0,494.0
497.0,483.0
498.0,483.0
501.0,491.0
506.0,497.0
514.0,504.0
520.0,515.0
515.0,517.0
518.0,514.0
520.0,505.0
519.0,505.0
503.0,513.0
499.0,512.0
509.0,511.0
507.0,499.0
505.0,487.0
505.0,492.0
500.0,501.0
490.0,491.0
493.0,494.0
501.0,478.0
491.0,473.0
499.0,497.0
515.0,505.0
516.0,501.0
518.0,506.0
511.0,520.0
508.0,538.0
508.0,536.0
506.0,520.0
487.0,491.0
480.0,482.0
465.0,478.0
467.0,478.0
476.0,496.0
487.0,508.0
509.0,499.0
531.0,507.0
531.0,497.0
538.0,490.0
533.0,496.0
529.0,510.0
524.0,507.0
522.0,504.0
524.0,506.0
521.0,497.0
524.0,507.0
526.0,502.0
530.0,501.0
512.0,499.0
505.0,489.0
475.0,493.0
502.0,492.0
507.0,505.0
494.0,502.0
482.0,500.0
491.0,496.0
515.0,509.0
529.0,524.0
524.0,517.0
521.0,509.0
527.0,486.0
521.0,505.0
541.0,517.0
537.0,511.0
514.0,508.0
517.0,502.0
519.0,500.0
520.0,488.0
524.0,482.0
515.0,487.0
519.0,502.0
527.0,525.0
527.0,524.0
539.0,524.0
535.0,503.0
535.0,473.0
536.0,471.0
539.0,506.0
523.0,524.0
490.0,516.0
499.0,497.0
486.0,492.0
488.0,488.0
462.0,494.0
463.0,495.0
481.0,498.0
493.0,499.0
512.0,504.0
519.0,502.0
516.0,516.0
514.0,522.0
533.0,525.0
534.0,527.0
526.0,521.0
517.0,493.0
502.0,489.0
495.0,489.0
494.0,495.0
505.0,489.0
494.0,490.0
481.0,505.0
479.0,507.0
484.0,503.0
518.0,504.0
528.0,506.0
528.0,495.0
547.0,492.0
536.0,490.0
518.0,491.0
515.0,523.0
506.0,518.0
503.0,510.0
503.0,511.0
511.0,507.0
512.0,503.0
500.0,504.0
494.0,501.0
499.0,495.0
499.0,491.0
507.0,498.0
505.0,514.0
516.0,510.0
519.0,511.0
519.0,512.0
516.0,483.0
517.0,493.0
516.0,518.0
507.0,529.0
503.0,492.0
495.0,496.0
506.0,491.0
502.0,495.0
508.0,489.0
512.0,479.0
492.0,473.0
506.0,491.0
503.0,505.0
497.0,495.0
509.0,492.0
518.0,496.0
529.0,525.0
530.0,537.0
538.0,536.0
525.0,530.0
494.0,515.0
500.0,499.0
498.0,472.0
453.0,484.0
425.0,506.0
469.0,511.0
515.0,502.0
520.0,500.0
510.0,498.0
520.0,495.0
528.0,490.0
524.0,508.0
533.0,509.0
514.0,521.0
524.0,533.0
515.0,529.0
505.0,524.0
520.0,517.0
508.0,516.0
502.0,477.0
505.0,478.0
505.0,469.0
506.0,477.0
509.0,481.0
491.0,499.0
478.0,496.0
476.0,496.0
487.0,496.0
501.0,517.0
521.0,519.0
533.0,517.0
543.0,511.0
536.0,492.0
525.0,493.0
505.0,509.0
489.0,504.0
493.0,491.0
502.0,481.0
502.0,477.0
498.0,477.0
508.0,488.0
523.0,512.0
520.0,517.0
530.0,509.0
525.0,511.0
525.0,511.0
519.0,517.0
536.0,519.0
531.0,502.0
515.0,498.0
499.0,513.0
499.0,526.0
491.0,516.0
475.0,501.0
481.0,465.0
493.0,480.0
508.0,493.0
519.0,510.0
520.0,505.0
505.0,505.0
556.0,512.0
560.0,516.0
522.0,515.0
523.0,503.0
504.0,509.0
472.0,508.0
484.0,510.0
498.0,499.0
496.0,498.0
499.0,493.0
478.0,491.0
481.0,484.0
488.0,482.0
497.0,487.0
505.0,507.0
524.0,511.0
532.0,505.0
535.0,526.0
530.0,517.0
525.0,500.0
507.0,472.0
482.0,485.0
507.0,530.0
511.0,524.0
504.0,521.0
506.0,499.0
506.0,500.0
510.0,494.0
499.0,502.0
508.0,507.0
515.0,537.0
509.0,532.0
513.0,515.0
535.0,462.0
524.0,458.0
517.0,486.0
503.0,516.0
498.0,518.0
508.0,519.0
508.0,501.0
495.0,501.0
484.0,506.0
503.0,500.0
509.0,501.0
503.0,490.0
506.0,490.0
496.0,484.0
485.0,501.0
495.0,496.0
499.0,485.0
466.0,487.0
477.0,501.0
468.0,506.0
479.0,516.0
486.0,517.0
527.0,510.0
556.0,518.0
558.0,523.0
555.0,512.0
533.0,504.0
532.0,491.0
521.0,502.0
521.0,498.0
495.0,481.0
523.0,482.0
517.0,497.0
487.0,497.0
489.0,502.0
506.0,510.0
524.0,504.0
528.0,499.0
525.0,504.0
517.0,510.0
510.0,520.0
504.0,509.0
492.0,513.0
493.0,512.0
509.0,501.0
509.0,505.0
500.0,507.0
507.0,500.0
515.0,495.0
524.0,495.0
526.0,510.0
526.0,515.0
514.0,508.0
485.0,528.0
494.0,517.0
505.0,521.0
508.0,516.0
516.0,507.0
527.0,504.0
527.0,495.0
548.0,496.0
522.0,487.0
472.0,494.0
440.0,495.0
451.0,505.0
482.0,508.0
503.0,513.0
499.0,497.0
533.0,489.0
542.0,525.0
544.0,522.0
538.0,500.0
533.0,501.0
529.0,487.0
512.0,502.0
518.0,522.0
497.0,516.0
485.0,496.0
465.0,495.0
484.0,494.0
488.0,496.0
507.0,489.0
514.0,483.0
514.0,503.0
515.0,501.0
487.0,499.0
514.0,507.0
525.0,517.0
513.0,508.0
508.0,505.0
501.0,507.0
524.0,512.0
530.0,507.0
512.0,508.0
513.0,507.0
512.0,494.0
499.0,481.0
473.0,496.0
479.0,506.0
496.0,512.0
511.0,502.0
519.0,505.0
525.0,510.0
518.0,504.0
520.0,512.0
534.0,514.0
527.0,509.0
515.0,506.0
493.0,509.0
480.0,504.0
506.0,502.0
507.0,502.0
505.0,489.0
505.0,502.0
508.0,500.0
480.0,501.0
471.0,498.0
476.0,496.0
471.0,503.0
527.0,511.0
554.0,517.0
562.0,515.0
525.0,511.0
528.0,513.0
527.0,510.0
533.0,505.0
532.0,500.0
527.0,498.0
515.0,494.0
511.0,496.0
493.0,491.0
474.0,496.0
458.0,501.0
466.0,507.0
501.0,508.0
535.0,502.0
561.0,514.0
565.0,514.0
533.0,519.0
539.0,516.0
515.0,517.0
503.0,500.0
507.0,491.0
508.0,491.0
486.0,500.0
460.0,498.0
459.0,488.0
450.0,487.0
443.0,492.0
450.0,498.0
478.0,504.0
522.0,498.0
559.0,511.0
562.0,515.0
554.0,517.0
526.0,516.0
531.0,517.0
519.0,512.0
510.0,498.0
510.0,504.0
491.0,509.0
490.0,507.0
497.0,499.0
497.0,493.0
505.0,490.0
493.0,492.0
507.0,491.0
511.0,502.0
509.0,508.0
514.0,507.0
515.0,515.0
504.0,510.0
501.0,514.0
510.0,512.0
510.0,512.0
503.0,504.0
505.0,489.0
485.0,498.0
505.0,492.0
523.0,490.0
502.0,498.0
499.0,500.0
501.0,493.0
519.0,497.0
513.0,495.0
517.0,510.0
525.0,519.0
510.0,518.0
510.0,511.0
517.0,514.0
522.0,509.0
507.0,494.0
497.0,501.0
500.0,507.0
497.0,502.0
506.0,495.0
503.0,487.0
513.0,492.0
509.0,487.0
501.0,497.0
502.0,509.0
506.0,501.0
522.0,510.0
531.0,514.0
541.0,516.0
533.0,521.0
515.0,521.0
497.0,517.0
491.0,519.0
480.0,505.0
490.0,511.0
491.0,502.0
508.0,499.0
521.0,492.0
525.0,497.0
509.0,486.0
497.0,480.0
510.0,491.0
519.0,501.0
526.0,509.0
511.0,511.0
507.0,515.0
491.0,506.0
488.0,511.0
502.0,513.0
524.0,509.0
512.0,501.0
491.0,503.0
487.0,497.0
493.0,492.0
498.0,499.0
520.0,492.0
523.0,504.0
517.0,509.0
519.0,517.0
525.0,526.0
508.0,517.0
477.0,493.0
494.0,500.0
509.0,506.0
493.0,504.0
530.0,510.0
532.0,513.0
533.0,487.0
513.0,487.0
503.0,485.0
505.0,496.0
498.0,490.0
510.0,490.0
516.0,494.0
518.0,498.0
526.0,506.0
536.0,511.0
532.0,512.0
516.0,513.0
495.0,505.0
504.0,510.0
504.0,507.0
511.0,503.0
498.0,501.0
497.0,502.0
490.0,496.0
477.0,488.0
487.0,485.0
492.0,492.0
482.0,498.0
504.0,498.0
514.0,502.0
521.0,514.0
531.0,517.0
532.0,518.0
533.0,515.0
541.0,515.0
516.0,506.0
498.0,509.0
471.0,512.0
487.0,506.0
500.0,490.0
505.0,496.0
507.0,487.0
497.0,500.0
489.0,497.0
498.0,501.0
517.0,505.0
521.0,504.0
525.0,507.0
523.0,514.0
516.0,520.0
506.0,515.0
499.0,503.0
497.0,500.0
490.0,508.0
489.0,494.0
485.0,503.0
489.0,500.0
509.0,489.0
500.0,500.0
511.0,494.0
517.0,493.0
518.0,499.0
507.0,496.0
479.0,503.0
510.0,514.0
521.0,515.0
512.0,510.0
503.0,508.0
512.0,510.0
511.0,505.0
513.0,502.0
510.0,499.0
508.0,499.0
494.0,503.0
502.0,498.0
495.0,497.0
498.0,493.0
498.0,499.0
503.0,503.0
492.0,504.0
502.0,505.0
521.0,512.0
526.0,513.0
540.0,516.0
540.0,511.0
536.0,506.0
515.0,507.0
489.0,504.0
479.0,502.0
480.0,499.0
487.0,496.0
478.0,486.0
490.0,491.0
506.0,488.0
506.0,489.0
508.0,497.0
527.0,511.0
550.0,502.0
549.0,503.0
538.0,511.0
543.0,509.0
526.0,514.0
526.0,516.0
506.0,519.0
509.0,501.0
507.0,506.0
506.0,498.0
501.0,499.0
489.0,499.0
478.0,498.0
501.0,486.0
515.0,496.0
523.0,491.0
528.0,496.0
525.0,504.0
529.0,516.0
523.0,525.0
526.0,522.0
519.0,515.0
507.0,508.0
509.0,492.0
508.0,499.0
505.0,493.0
510.0,489.0
513.0,493.0
521.0,493.0
519.0,495.0
496.0,498.0
513.0,496.0
506.0,500.0
511.0,508.0
519.0,510.0
489.0,512.0
488.0,513.0
507.0,517.0
511.0,511.0
509.0,507.0
499.0,497.0
508.0,499.0
501.0,503.0
502.0,498.0
500.0,495.0
492.0,499.0
502.0,491.0
502.0,486.0
509.0,496.0
505.0,500.0
517.0,503.0
515.0,503.0
515.0,517.0
505.0,514.0
499.0,515.0
506.0,516.0
510.0,510.0
505.0,499.0
505.0,504.0
502.0,497.0
514.0,496.0
500.0,493.0
497.0,485.0
500.0,482.0
499.0,493.0
507.0,501.0
507.0,499.0
509.0,504.0
508.0,507.0
512.0,517.0
509.0,510.0
526.0,506.0
529.0,502.0
522.0,499.0
512.0,500.0
516.0,496.0
515.0,495.0
502.0,499.0
486.0,498.0
486.0,495.0
497.0,488.0
506.0,501.0
507.0,502.0
527.0,506.0
527.0,513.0
531.0,521.0
526.0,517.0
518.0,504.0
520.0,499.0
505.0,505.0
499.0,515.0
503.0,514.0
502.0,510.0
506.0,500.0
515.0,495.0
502.0,495.0
499.0,491.0
500.0,499.0
517.0,508.0
529.0,505.0
525.0,509.0
527.0,523.0
510.0,514.0
507.0,503.0
505.0,508.0
507.0,512.0
509.0,509.0
513.0,505.0
527.0,502.0
531.0,494.0
533.0,494.0
503.0,500.0
516.0,493.0
498.0,499.0
494.0,502.0
495.0,503.0
484.0,498.0
492.0,500.0
517.0,511.0
532.0,515.0
535.0,518.0
526.0,518.0
507.0,510.0
498.0,497.0
496.0,500.0
491.0,500.0
483.0,506.0
485.0,494.0
489.0,495.0
481.0,499.0
499.0,490.0
513.0,498.0
509.0,500.0
533.0,508.0
529.0,505.0
532.0,516.0
523.0,509.0
535.0,509.0
532.0,505.0
510.0,505.0
514.0,501.0
495.0,498.0
492.0,497.0
495.0,501.0
493.0,500.0
501.0,494.0
502.0,494.0
493.0,487.0
497.0,489.0
509.0,502.0
523.0,512.0
523.0,513.0
526.0,516.0
517.0,507.0
517.0,513.0
503.0,506.0
505.0,508.0
500.0,497.0
505.0,503.0
501.0,491.0
507.0,496.0
496.0,497.0
500.0,493.0
492.0,495.0
484.0,502.0
492.0,495.0
497.0,509.0
514.0,513.0
534.0,515.0
531.0,512.0
540.0,516.0
529.0,506.0
525.0,510.0
517.0,505.0
485.0,497.0
495.0,504.0
509.0,502.0
508.0,488.0
510.0,492.0
497.0,491.0
500.0,493.0
500.0,496.0
506.0,501.0
524.0,508.0
528.0,503.0
518.0,515.0
520.0,514.0
516.0,510.0
508.0,507.0
502.0,497.0
496.0,512.0
503.0,493.0
505.0,494.0
499.0,493.0
496.0,495.0
500.0,490.0
503.0,494.0
507.0,499.0
525.0,496.0
536.0,500.0
529.0,507.0
537.0,510.0
529.0,506.0
529.0,512.0
517.0,509.0
499.0,515.0
486.0,508.0
478.0,502.0
483.0,503.0
512.0,498.0
519.0,499.0
512.0,489.0
510.0,489.0
513.0,495.0
516.0,499.0
520.0,503.0
518.0,499.0
535.0,516.0
532.0,518.0
519.0,521.0
519.0,510.0
515.0,504.0
515.0,507.0
507.0,500.0
503.0,497.0
507.0,502.0
502.0,505.0
496.0,495.0
502.0,502.0
502.0,488.0
503.0,492.0
504.0,509.0
513.0,509.0
512.0,511.0
495.0,500.0
500.0,502.0
513.0,505.0
539.0,518.0
524.0,513.0
491.0,502.0
483.0,502.0
491.0,500.0
496.0,506.0
504.0,493.0
528.0,474.0
521.0,484.0
513.0,489.0
504.0,493.0
504.0,496.0
508.0,493.0
525.0,506.0
519.0,515.0
514.0,513.0
513.0,511.0
498.0,506.0
502.0,511.0
500.0,506.0
505.0,504.0
502.0,506.0
504.0,504.0
500.0,508.0
508.0,495.0
487.0,498.0
490.0,487.0
492.0,500.0
488.0,500.0
504.0,505.0
514.0,508.0
516.0,515.0
529.0,516.0
536.0,517.0
528.0,507.0
513.0,513.0
514.0,500.0
517.0,504.0
504.0,507.0
508.0,499.0
506.0,491.0
508.0,494.0
504.0,493.0
509.0,495.0
502.0,497.0
513.0,499.0
518.0,510.0
530.0,512.0
531.0,515.0
528.0,519.0
519.0,510.0
519.0,518.0
513.0,504.0
499.0,504.0
506.0,497.0
500.0,495.0
493.0,503.0
493.0,492.0
488.0,499.0
499.0,492.0
498.0,477.0
508.0,483.0
517.0,502.0
519.0,505.0
523.0,512.0
525.0,517.0
518.0,520.0
515.0,514.0
509.0,509.0
500.0,510.0
498.0,502.0
489.0,508.0
510.0,498.0
513.0,493.0
516.0,493.0
503.0,493.0
501.0,492.0
496.0,496.0
508.0,498.0
521.0,508.0
522.0,513.0
526.0,514.0
526.0,516.0
512.0,514.0
517.0,515.0
513.0,513.0
489.0,505.0
488.0,501.0
496.0,500.0
499.0,505.0
509.0,497.0
509.0,490.0
513.0,490.0
513.0,488.0
502.0,491.0
505.0,503.0
499.0,509.0
493.0,509.0
504.0,517.0
523.0,516.0
516.0,512.0
514.0,509.0
521.0,503.0
515.0,507.0
516.0,508.0
511.0,490.0
494.0,502.0
503.0,499.0
502.0,493.0
511.0,494.0
519.0,497.0
524.0,494.0
528.0,498.0
535.0,504.0
542.0,513.0
531.0,514.0
514.0,506.0
513.0,515.0
499.0,502.0
497.0,507.0
490.0,499.0
493.0,489.0
498.0,501.0
497.0,500.0
505.0,491.0
499.0,489.0
497.0,486.0
499.0,496.0
493.0,498.0
510.0,508.0
519.0,507.0
541.0,516.0
546.0,512.0
526.0,512.0
515.0,501.0
507.0,507.0
497.0,499.0
506.0,506.0
501.0,501.0
499.0,505.0
500.0,492.0
503.0,491.0
507.0,496.0
509.0,495.0
512.0,499.0
513.0,507.0
512.0,505.0
506.0,506.0
515.0,515.0
519.0,520.0
517.0,517.0
513.0,518.0
507.0,501.0
504.0,503.0
505.0,504.0
488.0,504.0
500.0,496.0
503.0,484.0
503.0,479.0
500.0,493.0
501.0,503.0
500.0,517.0
517.0,519.0
527.0,525.0
528.0,506.0
523.0,498.0
519.0,509.0
515.0,513.0
508.0,507.0
504.0,499.0
501.0,488.0
501.0,502.0
510.0,494.0
513.0,502.0
492.0,495.0
482.0,487.0
482.0,482.0
477.0,488.0
514.0,500.0
541.0,504.0
528.0,506.0
533.0,513.0
522.0,507.0
514.0,515.0
510.0,511.0
509.0,510.0
503.0,507.0
501.0,500.0
508.0,502.0
503.0,495.0
502.0,497.0
497.0,491.0
496.0,492.0
497.0,497.0
499.0,500.0
497.0,501.0
502.0,501.0
507.0,512.0
515.0,515.0
519.0,515.0
515.0,515.0
502.0,511.0
509.0,511.0
512.0,504.0
514.0,506.0
515.0,505.0
523.0,500.0
519.0,491.0
502.0,487.0
498.0,489.0
497.0,492.0
508.0,498.0
517.0,503.0
524.0,511.0
532.0,515.0
536.0,520.0
520.0,513.0
513.0,513.0
504.0,511.0
501.0,501.0
500.0,497.0
496.0,498.0
511.0,495.0
505.0,487.0
484.0,496.0
488.0,501.0
493.0,484.0
495.0,491.0
502.0,500.0
524.0,502.0
522.0,509.0
529.0,515.0
519.0,515.0
527.0,513.0
511.0,509.0
507.0,508.0
511.0,505.0
504.0,507.0
493.0,508.0
504.0,492.0
500.0,496.0
492.0,494.0
493.0,497.0
502.0,482.0
516.0,497.0
517.0,501.0
533.0,508.0
516.0,506.0
523.0,508.0
513.0,509.0
505.0,504.0
499.0,506.0
500.0,508.0
510.0,505.0
513.0,504.0
505.0,495.0
494.0,495.0
486.0,498.0
507.0,492.0
493.0,499.0
502.0,493.0
493.0,492.0
497.0,505.0
497.0,512.0
501.0,510.0
513.0,511.0
516.0,510.0
524.0,501.0
522.0,505.0
508.0,505.0
511.0,492.0
517.0,506.0
500.0,517.0
504.0,503.0
501.0,501.0
503.0,491.0
500.0,493.0
502.0,495.0
509.0,502.0
522.0,512.0
523.0,507.0
522.0,502.0
512.0,516.0
513.0,518.0
521.0,512.0
509.0,514.0
495.0,511.0
500.0,500.0
496.0,497.0
485.0,501.0
499.0,494.0
503.0,488.0
508.0,500.0
518.0,486.0
515.0,497.0
509.0,504.0
505.0,507.0
520.0,510.0
521.0,514.0
521.0,514.0
509.0,510.0
508.0,507.0
497.0,516.0
500.0,506.0
511.0,492.0
509.0,498.0
502.0,492.0
492.0,499.0
488.0,496.0
487.0,492.0
497.0,496.0
525.0,500.0
529.0,503.0
537.0,511.0
537.0,510.0
523.0,511.0
521.0,512.0
516.0,512.0
502.0,519.0
496.0,507.0
495.0,508.0
493.0,498.0
503.0,499.0
498.0,497.0
486.0,503.0
498.0,492.0
498.0,492.0
496.0,495.0
502.0,501.0
518.0,503.0
524.0,507.0
535.0,508.0
529.0,512.0
531.0,506.0
536.0,515.0
527.0,509.0
516.0,509.0
506.0,502.0
501.0,503.0
510.0,501.0
508.0,494.0
494.0,495.0
494.0,498.0
494.0,503.0
502.0,495.0
508.0,493.0
509.0,500.0
524.0,520.0
525.0,522.0
516.0,510.0
519.0,503.0
516.0,509.0
505.0,512.0
500.0,508.0
510.0,508.0
497.0,494.0
491.0,485.0
502.0,490.0
499.0,496.0
501.0,495.0
511.0,502.0
511.0,502.0
513.0,505.0
508.0,506.0
514.0,508.0
519.0,505.0
522.0,514.0
525.0,511.0
518.0,507.0
515.0,508.0
513.0,501.0
502.0,497.0
492.0,505.0
490.0,501.0
486.0,494.0
491.0,495.0
498.0,494.0
512.0,499.0
516.0,503.0
526.0,509.0
529.0,521.0
533.0,518.0
532.0,519.0
523.0,521.0
509.0,503.0
498.0,496.0
494.0,507.0
498.0,495.0
496.0,505.0
497.0,498.0
483.0,505.0
495.0,494.0
493.0,485.0
504.0,496.0
513.0,493.0
523.0,503.0
523.0,500.0
527.0,510.0
514.0,507.0
520.0,517.0
524.0,516.0
520.0,509.0
514.0,507.0
516.0,501.0
522.0,504.0
511.0,508.0
508.0,502.0
493.0,497.0
494.0,496.0
506.0,489.0
503.0,497.0
519.0,506.0
524.0,502.0
525.0,511.0
522.0,522.0
512.0,516.0
508.0,508.0
509.0,512.0
503.0,512.0
504.0,504.0
502.0,506.0
507.0,495.0
514.0,497.0
511.0,501.0
511.0,494.0
508.0,499.0
507.0,498.0
510.0,484.0
521.0,495.0
538.0,510.0
534.0,517.0
525.0,520.0
511.0,516.0
499.0,510.0
505.0,512.0
495.0,507.0
496.0,506.0
509.0,501.0
512.0,506.0
502.0,498.0
492.0,495.0
489.0,493.0
492.0,495.0
505.0,498.0
510.0,499.0
504.0,503.0
513.0,505.0
520.0,517.0
521.0,513.0
516.0,508.0
525.0,512.0
522.0,516.0
519.0,509.0
513.0,505.0
511.0,507.0
502.0,507.0
501.0,492.0
497.0,495.0
502.0,493.0
499.0,485.0
497.0,496.0
516.0,497.0
519.0,505.0
503.0,515.0
504.0,516.0
508.0,508.0
520.0,515.0
530.0,512.0
533.0,511.0
510.0,510.0
513.0,502.0
506.0,505.0
506.0,495.0
505.0,496.0
504.0,496.0
489.0,495.0
493.0,494.0
495.0,487.0
504.0,497.0
504.0,497.0
523.0,512.0
531.0,520.0
525.0,520.0
518.0,522.0
519.0,513.0
520.0,509.0
509.0,499.0
515.0,503.0
509.0,506.0
508.0,499.0
486.0,500.0
497.0,487.0
496.0,488.0
505.0,491.0
502.0,498.0
510.0,506.0
523.0,508.0
522.0,508.0
518.0,514.0
522.0,514.0
514.0,514.0
513.0,510.0
512.0,509.0
513.0,500.0
515.0,501.0
509.0,494.0
499.0,502.0
505.0,495.0
486.0,498.0
495.0,496.0
498.0,492.0
505.0,502.0
508.0,505.0
514.0,504.0
542.0,514.0
548.0,522.0
541.0,525.0
516.0,519.0
511.0,508.0
502.0,500.0
495.0,502.0
490.0,509.0
503.0,495.0
503.0,479.0
500.0,487.0
498.0,491.0
504.0,491.0
504.0,488.0
512.0,495.0
515.0,484.0
509.0,498.0
509.0,501.0
513.0,519.0
508.0,511.0
505.0,511.0
499.0,506.0
492.0,510.0
510.0,497.0
513.0,491.0
522.0,491.0
519.0,491.0
509.0,494.0
508.0,493.0
498.0,490.0
510.0,497.0
521.0,498.0
509.0,504.0
515.0,504.0
523.0,514.0
521.0,515.0
506.0,508.0
508.0,513.0
499.0,500.0
493.0,499.0
494.0,503.0
502.0,501.0
488.0,498.0
503.0,499.0
501.0,496.0
496.0,486.0
496.0,497.0
522.0,491.0
532.0,496.0
531.0,501.0
534.0,512.0
525.0,514.0
522.0,510.0
530.0,521.0
520.0,512.0
491.0,507.0
489.0,505.0
485.0,508.0
487.0,503.0
510.0,501.0
522.0,500.0
501.0,501.0
495.0,493.0
501.0,482.0
503.0,503.0
513.0,502.0
533.0,514.0
525.0,515.0
516.0,507.0
522.0,514.0
523.0,518.0
505.0,510.0
517.0,507.0
507.0,507.0
508.0,501.0
505.0,496.0
503.0,496.0
490.0,495.0
494.0,491.0
506.0,493.0
512.0,500.0
515.0,501.0
509.0,505.0
521.0,508.0
526.0,511.0
523.0,508.0
504.0,507.0
509.0,505.0
502.0,502.0
497.0,507.0
505.0,505.0
501.0,500.0
506.0,496.0
501.0,484.0
489.0,494.0
503.0,488.0
504.0,494.0
514.0,504.0
515.0,502.0
520.0,509.0
527.0,517.0
530.0,509.0
524.0,517.0
529.0,513.0
517.0,510.0
502.0,511.0
492.0,505.0
491.0,493.0
494.0,499.0
487.0,487.0
474.0,487.0
477.0,491.0
486.0,491.0
499.0,494.0
504.0,501.0
510.0,510.0
521.0,512.0
522.0,514.0
523.0,513.0
525.0,512.0
534.0,512.0
517.0,504.0
505.0,509.0
509.0,502.0
506.0,491.0
497.0,496.0
500.0,499.0
495.0,489.0
482.0,496.0
487.0,494.0
509.0,497.0
508.0,504.0
519.0,506.0
531.0,507.0
532.0,514.0
528.0,506.0
530.0,510.0
523.0,507.0
516.0,501.0
505.0,505.0
499.0,507.0
503.0,484.0
497.0,504.0
497.0,499.0
495.0,498.0
490.0,499.0
504.0,497.0
519.0,501.0
522.0,498.0
528.0,506.0
529.0,507.0
520.0,514.0
518.0,514.0
507.0,511.0
509.0,512.0
503.0,501.0
504.0,494.0
494.0,504.0
500.0,501.0
489.0,501.0
503.0,493.0
499.0,487.0
503.0,494.0
503.0,491.0
512.0,500.0
518.0,504.0
521.0,512.0
508.0,507.0
515.0,516.0
516.0,508.0
510.0,508.0
515.0,510.0
519.0,503.0
517.0,499.0
513.0,500.0
488.0,505.0
501.0,492.0
500.0,486.0
506.0,487.0
507.0,493.0
505.0,495.0
525.0,500.0
524.0,506.0
517.0,512.0
523.0,516.0
522.0,512.0
526.0,516.0
512.0,516.0
502.0,518.0
491.0,521.0
503.0,519.0
507.0,502.0
495.0,492.0
499.0,489.0
496.0,493.0
503.0,492.0
505.0,486.0
508.0,491.0
511.0,505.0
520.0,510.0
532.0,513.0
519.0,503.0
514.0,494.0
527.0,506.0
507.0,497.0
503.0,504.0
477.0,511.0
479.0,505.0
489.0,496.0
497.0,496.0
495.0,500.0
496.0,497.0
512.0,498.0
522.0,496.0
517.0,501.0
518.0,509.0
523.0,510.0
529.0,520.0
524.0,512.0
520.0,509.0
527.0,503.0
512.0,511.0
512.0,502.0
509.0,501.0
503.0,504.0
499.0,489.0
500.0,493.0
496.0,489.0
486.0,496.0
495.0,493.0
506.0,493.0
513.0,500.0
521.0,511.0
529.0,512.0
527.0,515.0
525.0,512.0
511.0,510.0
514.0,515.0
504.0,506.0
501.0,506.0
505.0,500.0
498.0,507.0
501.0,504.0
502.0,496.0
494.0,491.0
481.0,501.0
496.0,499.0
502.0,501.0
507.0,503.0
515.0,497.0
529.0,509.0
529.0,513.0
531.0,516.0
511.0,507.0
514.0,508.0
513.0,507.0
512.0,504.0
507.0,507.0
511.0,497.0
514.0,501.0
507.0,497.0
487.0,496.0
492.0,491.0
487.0,492.0
501.0,499.0
509.0,501.0
522.0,507.0
517.0,507.0
524.0,510.0
524.0,507.0
523.0,505.0
515.0,509.0
519.0,506.0
502.0,497.0
495.0,504.0
500.0,500.0
491.0,506.0
499.0,496.0
502.0,494.0
507.0,499.0
515.0,491.0
517.0,503.0
522.0,507.0
526.0,507.0
525.0,515.0
516.0,504.0
517.0,513.0
507.0,511.0
511.0,508.0
498.0,501.0
490.0,497.0
491.0,497.0
501.0,498.0
495.0,489.0
499.0,495.0
513.0,494.0
519.0,497.0
521.0,498.0
518.0,500.0
526.0,512.0
536.0,505.0
547.0,515.0
532.0,514.0
519.0,508.0
513.0,512.0
510.0,511.0
509.0,509.0
497.0,503.0
485.0,498.0
489.0,501.0
493.0,485.0
490.0,495.0
492.0,498.0
505.0,503.0
516.0,498.0
515.0,500.0
522.0,506.0
519.0,512.0
510.0,516.0
514.0,514.0
513.0,511.0
505.0,503.0
493.0,505.0
480.0,498.0
483.0,507.0
487.0,505.0
490.0,496.0
496.0,491.0
517.0,490.0
522.0,496.0
520.0,499.0
510.0,501.0
525.0,506.0
522.0,509.0
526.0,515.0
518.0,512.0
514.0,516.0
507.0,506.0
499.0,510.0
513.0,504.0
529.0,502.0
520.0,502.0
514.0,498.0
512.0,497.0
502.0,493.0
500.0,496.0
504.0,502.0
516.0,504.0
510.0,509.0
527.0,509.0
522.0,502.0
519.0,509.0
515.0,510.0
521.0,516.0
514.0,511.0
518.0,501.0
518.0,500.0
506.0,500.0
495.0,490.0
483.0,496.0
489.0,495.0
480.0,495.0
495.0,485.0
493.0,491.0
505.0,499.0
514.0,508.0
532.0,519.0
535.0,510.0
545.0,517.0
529.0,514.0
512.0,510.0
511.0,508.0
507.0,508.0
502.0,505.0
505.0,500.0
504.0,500.0
514.0,502.0
518.0,497.0
512.0,489.0
516.0,494.0
515.0,498.0
512.0,500.0
518.0,509.0
516.0,520.0
520.0,524.0
517.0,517.0
508.0,506.0
515.0,511.0
513.0,513.0
504.0,504.0
506.0,487.0
496.0,500.0
496.0,500.0
491.0,499.0
496.0,496.0
498.0,486.0
511.0,488.0
517.0,493.0
510.0,500.0
519.0,509.0
523.0,510.0
528.0,515.0
518.0,509.0
522.0,513.0
511.0,515.0
505.0,507.0
504.0,495.0
504.0,491.0
498.0,493.0
498.0,501.0
500.0,499.0
495.0,498.0
495.0,489.0
497.0,493.0
519.0,497.0
522.0,507.0
523.0,513.0
519.0,505.0
523.0,510.0
511.0,512.0
509.0,512.0
497.0,510.0
501.0,504.0
489.0,501.0
499.0,499.0
496.0,496.0
496.0,506.0
491.0,501.0
496.0,491.0
504.0,495.0
508.0,499.0
512.0,499.0
519.0,501.0
529.0,512.0
530.0,519.0
526.0,511.0
527.0,515.0
522.0,514.0
515.0,498.0
508.0,505.0
504.0,502.0
500.0,500.0
489.0,503.0
493.0,499.0
504.0,494.0
498.0,493.0
499.0,495.0
502.0,501.0
503.0,503.0
514.0,512.0
503.0,509.0
500.0,511.0
502.0,513.0
501.0,508.0
496.0,498.0
493.0,503.0
519.0,502.0
516.0,497.0
506.0,502.0
497.0,504.0
502.0,501.0
511.0,499.0
509.0,502.0
525.0,498.0
522.0,498.0
527.0,506.0
533.0,509.0
530.0,515.0
525.0,511.0
517.0,506.0
510.0,513.0
522.0,510.0
518.0,501.0
508.0,504.0
513.0,495.0
501.0,510.0
506.0,500.0
504.0,476.0
487.0,488.0
487.0,491.0
486.0,495.0
504.0,505.0
513.0,507.0
519.0,508.0
519.0,514.0
519.0,510.0
521.0,516.0
515.0,514.0
514.0,515.0
514.0,506.0
513.0,494.0
498.0,497.0
509.0,493.0
495.0,493.0
493.0,496.0
479.0,498.0
483.0,493.0
497.0,497.0
520.0,501.0
520.0,508.0
521.0,511.0
526.0,517.0
519.0,517.0
513.0,511.0
518.0,514.0
511.0,508.0
508.0,509.0
503.0,499.0
492.0,492.0
503.0,495.0
501.0,491.0
502.0,490.0
498.0,495.0
503.0,497.0
498.0,497.0
511.0,506.0
524.0,512.0
519.0,510.0
521.0,513.0
522.0,510.0
516.0,509.0
510.0,511.0
508.0,509.0
508.0,513.0
502.0,513.0
498.0,509.0
504.0,502.0
511.0,494.0
501.0,486.0
501.0,491.0
506.0,492.0
514.0,499.0
518.0,493.0
523.0,502.0
531.0,518.0
519.0,513.0
518.0,514.0
511.0,504.0
498.0,500.0
486.0,497.0
494.0,488.0
485.0,502.0
505.0,496.0
508.0,498.0
501.0,501.0
504.0,488.0
504.0,488.0
507.0,482.0
509.0,497.0
514.0,511.0
520.0,506.0
522.0,518.0
518.0,514.0
514.0,513.0
503.0,502.0
505.0,514.0
506.0,503.0
504.0,504.0
516.0,497.0
517.0,495.0
514.0,496.0
499.0,497.0
499.0,493.0
503.0,495.0
509.0,493.0
516.0,502.0
525.0,515.0
525.0,512.0
529.0,511.0
522.0,520.0
514.0,510.0
501.0,505.0
504.0,510.0
495.0,512.0
494.0,501.0
495.0,507.0
512.0,505.0
510.0,504.0
498.0,500.0
508.0,495.0
499.0,473.0
514.0,485.0
521.0,501.0
523.0,503.0
520.0,514.0
504.0,507.0
507.0,515.0
510.0,515.0
500.0,502.0
501.0,508.0
492.0,507.0
496.0,503.0
490.0,506.0
484.0,502.0
508.0,486.0
512.0,480.0
498.0,492.0
516.0,495.0
511.0,500.0
522.0,509.0
533.0,514.0
545.0,513.0
526.0,505.0
521.0,514.0
514.0,507.0
510.0,508.0
510.0,505.0
510.0,500.0
509.0,495.0
502.0,503.0
490.0,499.0
490.0,500.0
494.0,489.0
508.0,487.0
507.0,502.0
516.0,501.0
524.0,508.0
524.0,511.0
513.0,506.0
516.0,507.0
514.0,510.0
504.0,502.0
510.0,499.0
497.0,503.0
499.0,506.0
510.0,501.0
511.0,498.0
497.0,501.0
504.0,490.0
500.0,484.0
503.0,488.0
513.0,499.0
512.0,507.0
511.0,506.0
521.0,519.0
523.0,518.0
512.0,512.0
521.0,510.0
517.0,516.0
505.0,508.0
506.0,500.0
501.0,501.0
500.0,496.0
500.0,503.0
505.0,489.0
514.0,497.0
517.0,494.0
520.0,495.0
518.0,506.0
523.0,508.0
528.0,514.0
529.0,513.0
513.0,513.0
523.0,517.0
513.0,506.0
506.0,501.0
509.0,503.0
506.0,504.0
502.0,484.0
503.0,487.0
506.0,494.0
507.0,495.0
496.0,490.0
506.0,493.0
508.0,500.0
513.0,509.0
515.0,521.0
523.0,528.0
522.0,526.0
525.0,505.0
516.0,500.0
516.0,510.0
506.0,509.0
500.0,502.0
503.0,488.0
497.0,499.0
494.0,496.0
484.0,488.0
489.0,488.0
497.0,486.0
506.0,496.0
501.0,494.0
516.0,506.0
526.0,517.0
523.0,508.0
519.0,507.0
514.0,504.0
517.0,511.0
517.0,503.0
509.0,507.0
511.0,498.0
510.0,502.0
503.0,501.0
490.0,499.0
501.0,488.0
504.0,493.0
508.0,492.0
508.0,500.0
521.0,508.0
531.0,505.0
536.0,513.0
530.0,515.0
513.0,511.0
518.0,510.0
497.0,505.0
505.0,503.0
507.0,503.0
507.0,501.0
500.0,496.0
498.0,505.0
498.0,498.0
494.0,496.0
500.0,500.0
506.0,495.0
512.0,500.0
517.0,497.0
520.0,504.0
516.0,507.0
517.0,501.0
522.0,500.0
512.0,496.0
515.0,505.0
489.0,501.0
497.0,508.0
513.0,500.0
507.0,497.0
502.0,492.0
498.0,486.0
498.0,494.0
498.0,489.0
504.0,503.0
511.0,507.0
513.0,504.0
529.0,507.0
518.0,511.0
528.0,512.0
521.0,510.0
520.0,509.0
515.0,507.0
510.0,507.0
493.0,512.0
507.0,496.0
496.0,487.0
499.0,493.0
502.0,493.0
499.0,490.0
506.0,500.0
514.0,501.0
516.0,507.0
519.0,508.0
520.0,515.0
514.0,513.0
509.0,513.0
511.0,515.0
509.0,516.0
499.0,504.0
509.0,497.0
506.0,507.0
509.0,498.0
501.0,492.0
491.0,501.0
502.0,494.0
500.0,491.0
504.0,494.0
507.0,499.0
514.0,505.0
522.0,501.0
542.0,516.0
544.0,517.0
536.0,515.0
527.0,516.0
515.0,514.0
507.0,502.0
504.0,506.0
508.0,512.0
503.0,502.0
491.0,495.0
494.0,485.0
496.0,488.0
502.0,492.0
507.0,501.0
514.0,501.0
519.0,500.0
526.0,505.0
529.0,507.0
528.0,514.0
520.0,511.0
518.0,514.0
513.0,509.0
506.0,503.0
512.0,508.0
498.0,512.0
516.0,503.0
512.0,491.0
504.0,478.0
503.0,493.0
508.0,492.0
516.0,503.0
510.0,500.0
511.0,495.0
516.0,507.0
521.0,513.0
524.0,514.0
519.0,504.0
509.0,511.0
507.0,506.0
507.0,501.0
502.0,488.0
506.0,488.0
499.0,481.0
494.0,474.0
500.0,479.0
498.0,489.0
508.0,497.0
513.0,508.0
523.0,508.0
526.0,498.0
523.0,494.0
527.0,513.0
520.0,514.0
510.0,522.0
509.0,535.0
493.0,531.0
500.0,494.0
502.0,460.0
494.0,466.0
502.0,489.0
495.0,507.0
499.0,510.0
492.0,512.0
496.0,509.0
513.0,506.0
519.0,487.0
523.0,491.0
514.0,510.0
517.0,521.0
518.0,516.0
511.0,511.0
504.0,516.0
507.0,508.0
503.0,508.0
506.0,502.0
499.0,497.0
504.0,489.0
486.0,484.0
491.0,491.0
502.0,492.0
506.0,499.0
514.0,511.0
512.0,508.0
521.0,515.0
522.0,519.0
518.0,517.0
520.0,510.0
514.0,511.0
504.0,512.0
511.0,504.0
508.0,501.0
495.0,497.0
489.0,503.0
495.0,489.0
493.0,493.0
496.0,489.0
498.0,500.0
513.0,492.0
513.0,507.0
523.0,511.0
528.0,520.0
525.0,525.0
513.0,518.0
515.0,512.0
500.0,492.0
492.0,495.0
493.0,503.0
514.0,490.0
515.0,496.0
505.0,486.0
497.0,491.0
500.0,493.0
498.0,496.0
519.0,503.0
525.0,509.0
528.0,502.0
531.0,509.0
521.0,520.0
518.0,520.0
517.0,516.0
516.0,507.0
506.0,496.0
493.0,495.0
494.0,488.0
503.0,493.0
502.0,495.0
499.0,492.0
497.0,486.0
498.0,485.0
505.0,486.0
511.0,500.0
514.0,500.0
515.0,512.0
520.0,514.0
520.0,509.0
518.0,504.0
514.0,508.0
509.0,510.0
498.0,507.0
502.0,500.0
499.0,494.0
506.0,493.0
505.0,492.0
509.0,499.0
502.0,507.0
506.0,499.0
510.0,485.0
509.0,503.0
511.0,513.0
513.0,512.0
520.0,507.0
521.0,499.0
520.0,499.0
518.0,494.0
504.0,478.0
499.0,475.0
495.0,472.0
513.0,501.0
516.0,528.0
520.0,512.0
524.0,507.0
516.0,499.0
498.0,486.0
480.0,486.0
454.0,488.0
461.0,501.0
490.0,509.0
510.0,520.0
522.0,519.0
515.0,501.0
513.0,510.0
509.0,511.0
506.0,491.0
515.0,490.0
507.0,469.0
504.0,490.0
506.0,501.0
501.0,499.0
498.0,505.0
493.0,507.0
502.0,514.0
514.0,501.0
512.0,503.0
514.0,518.0
506.0,512.0
501.0,513.0
501.0,523.0
502.0,523.0
523.0,517.0
514.0,523.0
537.0,501.0
536.0,483.0
533.0,487.0
524.0,486.0
500.0,487.0
500.0,493.0
498.0,491.0
511.0,498.0
533.0,496.0
539.0,498.0
551.0,507.0
540.0,508.0
517.0,504.0
487.0,505.0
469.0,504.0
484.0,497.0
491.0,515.0
495.0,508.0
497.0,505.0
507.0,498.0
508.0,496.0
504.0,488.0
497.0,488.0
485.0,506.0
492.0,501.0
512.0,504.0
522.0,513.0
519.0,513.0
530.0,512.0
523.0,505.0
507.0,509.0
506.0,501.0
503.0,514.0
497.0,517.0
506.0,503.0
497.0,486.0
498.0,485.0
479.0,493.0
494.0,498.0
499.0,500.0
519.0,496.0
527.0,499.0
533.0,506.0
534.0,510.0
520.0,507.0
519.0,517.0
500.0,509.0
491.0,510.0
509.0,500.0
506.0,499.0
499.0,492.0
511.0,486.0
532.0,498.0
539.0,494.0
541.0,489.0
520.0,478.0
489.0,486.0
500.0,491.0
509.0,500.0
508.0,516.0
516.0,521.0
523.0,520.0
516.0,514.0
510.0,504.0
496.0,510.0
480.0,507.0
491.0,501.0
485.0,506.0
493.0,500.0
495.0,506.0
507.0,512.0
499.0,510.0
517.0,501.0
519.0,486.0
522.0,495.0
515.0,491.0
523.0,501.0
521.0,499.0
535.0,497.0
535.0,512.0
529.0,516.0
522.0,515.0
509.0,510.0
504.0,503.0
505.0,504.0
485.0,500.0
478.0,501.0
474.0,501.0
477.0,496.0
506.0,499.0
519.0,497.0
542.0,502.0
556.0,493.0
553.0,515.0
540.0,524.0
531.0,523.0
521.0,516.0
483.0,496.0
484.0,490.0
491.0,504.0
471.0,505.0
482.0,499.0
486.0,490.0
486.0,493.0
505.0,488.0
530.0,492.0
547.0,502.0
558.0,516.0
564.0,507.0
571.0,508.0
566.0,510.0
540.0,508.0
529.0,506.0
541.0,501.0
534.0,509.0
504.0,513.0
503.0,507.0
496.0,499.0
480.0,506.0
485.0,496.0
495.0,497.0
500.0,490.0
502.0,485.0
498.0,490.0
491.0,497.0
503.0,500.0
496.0,495.0
492.0,491.0
496.0,505.0
504.0,509.0
519.0,511.0
516.0,499.0
508.0,507.0
508.0,501.0
505.0,510.0
502.0,505.0
503.0,499.0
500.0,477.0
522.0,461.0
533.0,492.0
545.0,503.0
560.0,493.0
557.0,513.0
551.0,524.0
528.0,516.0
511.0,513.0
526.0,506.0
506.0,504.0
491.0,506.0
488.0,502.0
489.0,497.0
478.0,506.0
484.0,493.0
481.0,504.0
485.0,501.0
508.0,472.0
519.0,495.0
526.0,510.0
517.0,509.0
510.0,522.0
511.0,514.0
502.0,508.0
498.0,517.0
500.0,520.0
499.0,521.0
510.0,520.0
527.0,509.0
536.0,486.0
530.0,487.0
524.0,492.0
495.0,486.0
483.0,485.0
473.0,475.0
481.0,477.0
493.0,484.0
513.0,507.0
526.0,507.0
524.0,499.0
523.0,516.0
513.0,509.0
508.0,510.0
506.0,500.0
513.0,507.0
511.0,515.0
506.0,515.0
512.0,515.0
489.0,519.0
485.0,497.0
494.0,484.0
499.0,487.0
508.0,497.0
515.0,506.0
521.0,511.0
537.0,511.0
542.0,495.0
568.0,495.0
600.0,491.0
610.0,471.0
582.0,481.0
529.0,517.0
497.0,531.0
464.0,509.0
457.0,518.0
462.0,506.0
471.0,493.0
475.0,508.0
474.0,505.0
466.0,502.0
474.0,484.0
485.0,505.0
504.0,525.0
518.0,512.0
506.0,516.0
506.0,513.0
507.0,489.0
509.0,490.0
508.0,506.0
520.0,512.0
518.0,507.0
502.0,488.0
495.0,496.0
517.0,495.0
551.0,504.0
566.0,502.0
580.0,490.0
546.0,495.0
498.0,499.0
471.0,483.0
477.0,493.0
474.0,495.0
494.0,510.0
498.0,506.0
524.0,522.0
548.0,528.0
546.0,524.0
527.0,521.0
508.0,506.0
503.0,502.0
492.0,488.0
508.0,496.0
521.0,499.0
517.0,505.0
533.0,505.0
527.0,500.0
497.0,493.0
475.0,497.0
494.0,506.0
497.0,516.0
486.0,511.0
481.0,500.0
471.0,510.0
480.0,502.0
484.0,494.0
495.0,487.0
500.0,489.0
500.0,461.0
495.0,470.0
508.0,501.0
518.0,503.0
519.0,520.0
530.0,563.0
527.0,545.0
521.0,518.0
520.0,522.0
531.0,515.0
561.0,505.0
592.0,495.0
572.0,491.0
527.0,487.0
482.0,497.0
497.0,480.0
461.0,492.0
461.0,487.0
483.0,497.0
491.0,495.0
500.0,520.0
516.0,517.0
506.0,516.0
513.0,510.0
521.0,505.0
527.0,511.0
508.0,518.0
508.0,492.0
496.0,505.0
515.0,512.0
510.0,502.0
520.0,473.0
508.0,478.0
506.0,502.0
505.0,503.0
520.0,502.0
494.0,515.0
501.0,509.0
512.0,500.0
536.0,509.0
534.0,514.0
533.0,528.0
508.0,514.0
478.0,524.0
472.0,505.0
490.0,492.0
502.0,487.0
539.0,501.0
543.0,481.0
530.0,489.0
513.0,495.0
504.0,489.0
484.0,480.0
516.0,477.0
543.0,484.0
561.0,507.0
538.0,491.0
525.0,521.0
504.0,525.0
487.0,511.0
509.0,514.0
487.0,537.0
484.0,567.0
486.0,477.0
468.0,481.0
467.0,465.0
480.0,472.0
497.0,495.0
497.0,508.0
530.0,522.0
539.0,521.0
524.0,521.0
514.0,514.0
486.0,503.0
497.0,500.0
515.0,523.0
512.0,549.0
563.0,495.0
651.0,498.0
665.0,505.0
626.0,519.0
526.0,471.0
421.0,467.0
414.0,475.0
422.0,492.0
450.0,524.0
463.0,505.0
473.0,500.0
496.0,543.0
498.0,509.0
512.0,487.0
493.0,481.0
463.0,478.0
480.0,474.0
509.0,456.0
526.0,492.0
537.0,532.0
513.0,529.0
480.0,502.0
467.0,527.0
472.0,517.0
482.0,488.0
494.0,521.0
513.0,527.0
528.0,521.0
540.0,545.0
545.0,520.0
536.0,494.0
526.0,505.0
505.0,502.0
483.0,496.0
477.0,492.0
479.0,486.0
495.0,509.0
514.0,463.0
532.0,484.0
543.0,481.0
530.0,473.0
496.0,480.0
503.0,495.0
503.0,496.0
492.0,498.0
513.0,517.0
527.0,537.0
533.0,535.0
529.0,532.0
525.0,496.0
536.0,550.0
520.0,536.0
499.0,453.0
488.0,442.0
507.0,494.0
497.0,485.0
502.0,442.0
505.0,469.0
503.0,490.0
513.0,541.0
511.0,548.0
521.0,527.0
531.0,534.0
500.0,490.0
492.0,486.0
506.0,532.0
495.0,526.0
502.0,494.0
503.0,487.0
532.0,501.0
538.0,515.0
547.0,497.0
545.0,473.0
514.0,486.0
500.0,467.0
521.0,459.0
540.0,475.0
507.0,503.0
503.0,511.0
482.0,486.0
489.0,488.0
485.0,521.0
542.0,537.0
625.0,459.0
634.0,466.0
580.0,449.0
464.0,479.0
427.0,501.0
417.0,469.0
454.0,512.0
467.0,557.0
508.0,547.0
517.0,549.0
525.0,517.0
498.0,516.0
486.0,546.0
483.0,556.0
510.0,524.0
498.0,530.0
506.0,558.0
505.0,530.0
503.0,492.0
495.0,513.0
480.0,507.0
462.0,507.0
489.0,499.0
489.0,487.0
494.0,485.0
502.0,503.0
506.0,507.0
512.0,498.0
541.0,489.0
534.0,507.0
518.0,536.0
513.0,513.0
501.0,503.0
502.0,527.0
521.0,508.0
513.0,481.0
498.0,480.0
486.0,487.0
486.0,454.0
504.0,460.0
517.0,474.0
501.0,488.0
501.0,503.0
505.0,526.0
498.0,485.0
510.0,519.0
519.0,517.0
524.0,516.0
539.0,530.0
534.0,516.0
531.0,509.0
521.0,454.0
509.0,449.0
508.0,458.0
497.0,459.0
499.0,492.0
503.0,457.0
495.0,484.0
508.0,507.0
486.0,500.0
495.0,531.0
512.0,569.0
534.0,586.0
531.0,555.0
506.0,558.0
495.0,523.0
473.0,498.0
517.0,506.0
524.0,508.0
543.0,524.0
567.0,499.0
534.0,489.0
507.0,508.0
442.0,524.0
463.0,518.0
493.0,490.0
487.0,458.0
508.0,482.0
533.0,529.0
517.0,506.0
539.0,456.0
549.0,519.0
560.0,528.0
519.0,513.0
542.0,470.0
550.0,454.0
525.0,474.0
515.0,489.0
476.0,491.0
428.0,527.0
446.0,535.0
457.0,530.0
489.0,516.0
533.0,419.0
531.0,466.0
541.0,518.0
519.0,534.0
489.0,498.0
493.0,492.0
487.0,480.0
492.0,484.0
488.0,508.0
479.0,515.0
475.0,513.0
484.0,515.0
514.0,505.0
504.0,520.0
532.0,515.0
539.0,497.0
534.0,496.0
510.0,489.0
469.0,504.0
475.0,505.0
534.0,509.0
562.0,519.0
568.0,507.0
561.0,502.0
524.0,472.0
470.0,497.0
473.0,497.0
483.0,477.0
461.0,484.0
467.0,510.0
484.0,515.0
479.0,498.0
506.0,506.0
503.0,516.0
505.0,505.0
520.0,543.0
544.0,531.0
548.0,539.0
526.0,491.0
515.0,483.0
501.0,470.0
478.0,470.0
501.0,479.0
504.0,499.0
515.0,497.0
521.0,550.0
511.0,555.0
519.0,520.0
525.0,505.0
508.0,513.0
505.0,474.0
513.0,487.0
518.0,496.0
526.0,480.0
526.0,466.0
512.0,474.0
499.0,526.0
474.0,568.0
464.0,555.0
569.0,516.0
577.0,511.0
607.0,502.0
589.0,484.0
551.0,500.0
491.0,510.0
429.0,517.0
434.0,490.0
448.0,507.0
460.0,492.0
504.0,515.0
572.0,533.0
585.0,502.0
554.0,526.0
494.0,503.0
434.0,527.0
483.0,494.0
512.0,479.0
501.0,501.0
491.0,501.0
464.0,504.0
449.0,508.0
462.0,512.0
489.0,512.0
509.0,481.0
514.0,483.0
573.0,498.0
560.0,499.0
523.0,515.0
534.0,495.0
554.0,512.0
547.0,517.0
517.0,524.0
482.0,520.0
448.0,471.0
496.0,453.0
524.0,466.0
523.0,468.0
513.0,516.0
523.0,510.0
516.0,504.0
500.0,494.0
509.0,518.0
532.0,540.0
523.0,525.0
525.0,511.0
494.0,495.0
501.0,487.0
518.0,492.0
528.0,475.0
513.0,492.0
480.0,477.0
460.0,465.0
471.0,467.0
479.0,478.0
490.0,500.0
523.0,521.0
537.0,525.0
534.0,512.0
529.0,489.0
533.0,514.0
539.0,526.0
531.0,520.0
523.0,550.0
512.0,544.0
507.0,528.0
519.0,520.0
522.0,507.0
527.0,491.0
532.0,467.0
518.0,471.0
470.0,467.0
457.0,490.0
473.0,473.0
472.0,479.0
484.0,498.0
501.0,519.0
526.0,523.0
524.0,548.0
572.0,540.0
605.0,508.0
586.0,506.0
547.0,507.0
493.0,507.0
456.0,488.0
476.0,481.0
488.0,500.0
476.0,483.0
455.0,504.0
502.0,496.0
482.0,485.0
514.0,508.0
531.0,532.0
544.0,502.0
557.0,485.0
568.0,510.0
546.0,521.0
503.0,484.0
462.0,467.0
441.0,467.0
470.0,505.0
487.0,518.0
510.0,509.0
489.0,528.0
502.0,533.0
492.0,492.0
484.0,504.0
473.0,516.0
476.0,488.0
514.0,509.0
525.0,513.0
515.0,536.0
527.0,566.0
510.0,470.0
490.0,488.0
504.0,517.0
502.0,517.0
499.0,513.0
494.0,479.0
528.0,480.0
522.0,490.0
509.0,450.0
496.0,483.0
490.0,512.0
492.0,496.0
495.0,501.0
494.0,496.0
540.0,526.0
539.0,515.0
522.0,518.0
522.0,529.0
530.0,527.0
516.0,503.0
505.0,488.0
510.0,476.0
516.0,489.0
505.0,477.0
494.0,478.0
504.0,471.0
499.0,503.0
509.0,469.0
521.0,479.0
541.0,500.0
525.0,533.0
510.0,577.0
515.0,572.0
518.0,541.0
504.0,507.0
502.0,511.0
498.0,505.0
506.0,525.0
514.0,523.0
510.0,501.0
521.0,486.0
516.0,479.0
525.0,497.0
557.0,503.0
557.0,506.0
540.0,509.0
515.0,485.0
459.0,471.0
448.0,511.0
505.0,550.0
603.0,529.0
602.0,497.0
572.0,506.0
525.0,515.0
462.0,476.0
454.0,467.0
464.0,514.0
464.0,470.0
476.0,480.0
498.0,505.0
491.0,481.0
474.0,490.0
490.0,506.0
508.0,508.0
513.0,530.0
499.0,532.0
500.0,505.0
504.0,531.0
489.0,528.0
499.0,524.0
492.0,528.0
475.0,475.0
489.0,462.0
513.0,465.0
524.0,489.0
484.0,474.0
490.0,500.0
488.0,524.0
504.0,539.0
535.0,540.0
521.0,532.0
515.0,520.0
509.0,525.0
509.0,482.0
490.0,452.0
490.0,462.0
505.0,473.0
530.0,455.0
530.0,515.0
524.0,561.0
512.0,533.0
506.0,490.0
499.0,516.0
528.0,497.0
522.0,502.0
528.0,519.0
539.0,513.0
599.0,500.0
613.0,507.0
591.0,495.0
526.0,489.0
469.0,492.0
417.0,471.0
454.0,466.0
467.0,494.0
475.0,552.0
477.0,549.0
495.0,525.0
507.0,501.0
498.0,488.0
510.0,511.0
516.0,503.0
515.0,519.0
515.0,533.0
525.0,530.0
508.0,504.0
504.0,489.0
502.0,493.0
498.0,492.0
519.0,496.0
518.0,511.0
522.0,497.0
507.0,516.0
498.0,501.0
504.0,496.0
503.0,503.0
507.0,500.0
500.0,470.0
511.0,486.0
522.0,493.0
514.0,481.0
497.0,457.0
537.0,492.0
540.0,526.0
543.0,540.0
533.0,535.0
495.0,515.0
476.0,510.0
496.0,519.0
503.0,490.0
491.0,481.0
492.0,488.0
504.0,478.0
513.0,481.0
501.0,485.0
499.0,505.0
511.0,525.0
510.0,531.0
507.0,539.0
507.0,521.0
506.0,486.0
514.0,449.0
499.0,463.0
496.0,530.0
480.0,529.0
513.0,510.0
537.0,519.0
519.0,528.0
539.0,497.0
559.0,482.0
537.0,530.0
527.0,527.0
523.0,482.0
534.0,529.0
535.0,525.0
498.0,472.0
501.0,479.0
507.0,476.0
489.0,456.0
494.0,483.0
515.0,520.0
518.0,511.0
498.0,484.0
481.0,488.0
498.0,511.0
486.0,496.0
474.0,512.0
502.0,502.0
513.0,511.0
526.0,545.0
517.0,534.0
527.0,535.0
537.0,525.0
542.0,489.0
533.0,463.0
475.0,481.0
464.0,436.0
488.0,477.0
481.0,498.0
500.0,504.0
499.0,519.0
486.0,557.0
494.0,531.0
501.0,513.0
510.0,526.0
515.0,559.0
524.0,552.0
534.0,526.0
529.0,513.0
523.0,507.0
508.0,514.0
509.0,506.0
513.0,508.0
513.0,477.0
506.0,479.0
499.0,469.0
498.0,450.0
511.0,466.0
512.0,489.0
522.0,519.0
519.0,536.0
503.0,538.0
512.0,545.0
518.0,518.0
511.0,505.0
520.0,510.0
547.0,491.0
556.0,500.0
490.0,502.0
476.0,485.0
488.0,505.0
489.0,506.0
501.0,496.0
493.0,497.0
491.0,458.0
516.0,460.0
534.0,485.0
523.0,508.0
513.0,524.0
468.0,536.0
459.0,546.0
488.0,513.0
508.0,506.0
548.0,487.0
532.0,489.0
520.0,504.0
501.0,512.0
483.0,496.0
498.0,490.0
503.0,492.0
511.0,469.0
507.0,495.0
514.0,507.0
520.0,492.0
514.0,493.0
530.0,528.0
522.0,503.0
533.0,477.0
513.0,485.0
506.0,502.0
497.0,486.0
516.0,509.0
561.0,514.0
574.0,461.0
528.0,524.0
487.0,501.0
469.0,483.0
448.0,485.0
478.0,484.0
499.0,508.0
511.0,521.0
499.0,527.0
495.0,518.0
528.0,531.0
535.0,517.0
517.0,527.0
505.0,504.0
506.0,505.0
514.0,503.0
513.0,507.0
510.0,493.0
511.0,510.0
513.0,522.0
503.0,505.0
507.0,498.0
502.0,493.0
520.0,501.0
525.0,510.0
514.0,521.0
522.0,516.0
538.0,526.0
548.0,523.0
530.0,512.0
529.0,514.0
485.0,527.0
474.0,503.0
485.0,476.0
503.0,501.0
522.0,483.0
550.0,476.0
553.0,462.0
502.0,477.0
503.0,488.0
486.0,469.0
456.0,475.0
496.0,505.0
508.0,502.0
531.0,524.0
518.0,532.0
518.0,528.0
505.0,542.0
504.0,533.0
506.0,541.0
496.0,512.0
498.0,493.0
496.0,500.0
504.0,492.0
516.0,473.0
523.0,484.0
544.0,501.0
525.0,511.0
547.0,524.0
555.0,519.0
543.0,500.0
509.0,512.0
482.0,507.0
485.0,498.0
517.0,496.0
501.0,508.0
502.0,515.0
473.0,517.0
466.0,494.0
471.0,494.0
490.0,460.0
504.0,442.0
498.0,479.0
489.0,473.0
495.0,491.0
526.0,536.0
520.0,545.0
526.0,528.0
521.0,493.0
514.0,485.0
499.0,504.0
500.0,473.0
495.0,508.0
523.0,504.0
521.0,523.0
513.0,522.0
499.0,515.0
494.0,515.0
498.0,508.0
507.0,510.0
509.0,511.0
514.0,519.0
522.0,518.0
524.0,506.0
529.0,505.0
534.0,500.0
525.0,507.0
525.0,512.0
520.0,518.0
511.0,478.0
497.0,499.0
477.0,513.0
512.0,485.0
488.0,473.0
474.0,508.0
490.0,514.0
513.0,478.0
514.0,478.0
531.0,501.0
529.0,493.0
532.0,524.0
526.0,558.0
521.0,521.0
508.0,505.0
519.0,504.0
530.0,500.0
502.0,497.0
496.0,491.0
488.0,531.0
486.0,530.0
492.0,489.0
518.0,504.0
528.0,518.0
516.0,500.0
504.0,493.0
509.0,489.0
534.0,509.0
562.0,502.0
556.0,503.0
522.0,516.0
488.0,506.0
468.0,491.0
491.0,486.0
506.0,515.0
539.0,510.0
518.0,521.0
502.0,517.0
506.0,510.0
474.0,513.0
492.0,517.0
479.0,497.0
468.0,488.0
467.0,498.0
504.0,501.0
520.0,496.0
525.0,511.0
541.0,505.0
517.0,516.0
506.0,519.0
504.0,517.0
520.0,497.0
505.0,502.0
511.0,499.0
502.0,500.0
504.0,495.0
499.0,504.0
510.0,500.0
510.0,495.0
526.0,505.0
544.0,506.0
545.0,511.0
538.0,513.0
528.0,508.0
520.0,521.0
509.0,522.0
505.0,508.0
512.0,495.0
517.0,482.0
505.0,483.0
489.0,477.0
488.0,478.0
487.0,470.0
496.0,491.0
501.0,504.0
501.0,509.0
514.0,519.0
529.0,520.0
532.0,522.0
523.0,524.0
508.0,496.0
511.0,484.0
506.0,496.0
495.0,481.0
502.0,491.0
505.0,494.0
497.0,503.0
509.0,521.0
504.0,498.0
505.0,500.0
511.0,494.0
509.0,502.0
527.0,481.0
528.0,500.0
524.0,520.0
520.0,537.0
506.0,506.0
506.0,490.0
500.0,518.0
504.0,499.0
510.0,492.0
504.0,501.0
507.0,491.0
507.0,498.0
499.0,485.0
488.0,489.0
485.0,489.0
491.0,496.0
510.0,514.0
518.0,519.0
517.0,518.0
524.0,522.0
531.0,531.0
526.0,523.0
533.0,522.0
530.0,518.0
530.0,518.0
525.0,505.0
489.0,516.0
478.0,503.0
504.0,499.0
509.0,496.0
507.0,501.0
518.0,519.0
491.0,500.0
488.0,502.0
489.0,507.0
482.0,514.0
492.0,497.0
508.0,501.0
513.0,504.0
514.0,513.0
514.0,510.0
503.0,506.0
508.0,493.0
511.0,491.0
503.0,484.0
495.0,497.0
498.0,492.0
486.0,495.0
497.0,488.0
508.0,495.0
511.0,500.0
516.0,515.0
517.0,516.0
517.0,503.0
513.0,512.0
522.0,507.0
522.0,498.0
519.0,494.0
510.0,495.0
499.0,501.0
491.0,501.0
483.0,501.0
502.0,479.0
507.0,488.0
507.0,484.0
508.0,492.0
513.0,486.0
521.0,494.0
513.0,496.0
525.0,495.0
530.0,508.0
524.0,520.0
522.0,513.0
495.0,500.0
509.0,514.0
503.0,515.0
509.0,489.0
504.0,490.0
506.0,498.0
495.0,496.0
498.0,495.0
505.0,489.0
507.0,497.0
506.0,500.0
515.0,503.0
530.0,513.0
526.0,520.0
529.0,513.0
527.0,507.0
509.0,483.0
501.0,500.0
504.0,500.0
497.0,495.0
495.0,511.0
503.0,505.0
497.0,516.0
507.0,489.0
496.0,497.0
503.0,499.0
510.0,488.0
508.0,479.0
517.0,493.0
523.0,506.0
528.0,520.0
522.0,526.0
516.0,517.0
515.0,514.0
506.0,513.0
510.0,508.0
497.0,512.0
491.0,507.0
504.0,500.0
506.0,490.0
503.0,485.0
501.0,489.0
501.0,492.0
510.0,506.0
514.0,506.0
523.0,509.0
517.0,513.0
519.0,528.0
522.0,524.0
519.0,529.0
523.0,506.0
512.0,493.0
489.0,507.0
509.0,504.0
511.0,490.0
510.0,499.0
506.0,507.0
501.0,482.0
494.0,494.0
502.0,503.0
509.0,485.0
505.0,486.0
503.0,504.0
509.0,498.0
524.0,512.0
528.0,518.0
528.0,515.0
509.0,506.0
497.0,496.0
495.0,505.0
501.0,502.0
504.0,485.0
517.0,491.0
519.0,493.0
524.0,484.0
532.0,491.0
520.0,471.0
515.0,492.0
518.0,500.0
529.0,509.0
530.0,488.0
527.0,487.0
514.0,515.0
504.0,526.0
508.0,504.0
514.0,506.0
510.0,500.0
511.0,511.0
516.0,514.0
503.0,501.0
500.0,494.0
502.0,492.0
502.0,493.0
506.0,493.0
506.0,502.0
504.0,517.0
511.0,512.0
520.0,508.0
525.0,508.0
534.0,512.0
539.0,514.0
526.0,514.0
528.0,502.0
516.0,509.0
534.0,495.0
529.0,483.0
489.0,490.0
479.0,487.0
498.0,491.0
517.0,497.0
521.0,495.0
524.0,491.0
535.0,508.0
535.0,524.0
533.0,524.0
519.0,520.0
512.0,526.0
502.0,527.0
495.0,520.0
500.0,508.0
496.0,474.0
484.0,464.0
498.0,476.0
492.0,501.0
490.0,501.0
486.0,484.0
494.0,484.0
493.0,512.0
534.0,541.0
555.0,493.0
562.0,478.0
556.0,495.0
548.0,508.0
535.0,512.0
511.0,511.0
508.0,524.0
530.0,516.0
514.0,514.0
504.0,488.0
512.0,470.0
521.0,483.0
525.0,475.0
520.0,502.0
483.0,512.0
468.0,507.0
497.0,519.0
521.0,539.0
524.0,537.0
502.0,495.0
507.0,512.0
496.0,544.0
499.0,565.0
505.0,549.0
498.0,500.0
508.0,420.0
496.0,388.0
488.0,429.0
483.0,493.0
471.0,536.0
491.0,523.0
495.0,493.0
522.0,496.0
526.0,507.0
525.0,510.0
518.0,511.0
495.0,523.0
497.0,525.0
485.0,515.0
489.0,496.0
487.0,480.0
480.0,508.0
501.0,512.0
524.0,502.0
518.0,513.0
524.0,522.0
532.0,509.0
539.0,494.0
540.0,473.0
544.0,495.0
540.0,520.0
541.0,510.0
544.0,488.0
538.0,495.0
526.0,504.0
510.0,507.0
485.0,503.0
460.0,484.0
462.0,500.0
487.0,504.0
485.0,510.0
482.0,494.0
496.0,498.0
498.0,506.0
507.0,500.0
509.0,502.0
521.0,506.0
531.0,511.0
524.0,514.0
519.0,514.0
516.0,510.0
507.0,515.0
501.0,495.0
519.0,488.0
510.0,513.0
495.0,515.0
519.0,501.0
502.0,472.0
499.0,466.0
473.0,486.0
493.0,512.0
495.0,530.0
512.0,504.0
513.0,480.0
510.0,502.0
521.0,522.0
515.0,506.0
523.0,504.0
521.0,514.0
506.0,527.0
495.0,525.0
505.0,502.0
504.0,476.0
493.0,480.0
490.0,479.0
487.0,493.0
488.0,502.0
493.0,489.0
501.0,496.0
517.0,507.0
531.0,519.0
529.0,510.0
512.0,517.0
546.0,524.0
540.0,529.0
526.0,519.0
502.0,504.0
493.0,503.0
510.0,475.0
474.0,489.0
501.0,485.0
521.0,482.0
534.0,483.0
520.0,481.0
525.0,478.0
542.0,489.0
532.0,525.0
506.0,535.0
519.0,520.0
515.0,514.0
505.0,509.0
496.0,510.0
495.0,509.0
486.0,493.0
472.0,488.0
480.0,484.0
495.0,489.0
510.0,473.0
525.0,475.0
525.0,497.0
517.0,514.0
510.0,511.0
515.0,520.0
523.0,520.0
529.0,524.0
516.0,523.0
506.0,518.0
512.0,513.0
506.0,514.0
512.0,498.0
503.0,498.0
488.0,514.0
482.0,503.0
482.0,501.0
477.0,481.0
485.0,490.0
492.0,508.0
497.0,505.0
510.0,502.0
519.0,504.0
534.0,502.0
532.0,502.0
526.0,514.0
528.0,512.0
519.0,507.0
515.0,506.0
501.0,512.0
514.0,505.0
492.0,502.0
498.0,499.0
516.0,498.0
510.0,493.0
498.0,490.0
498.0,490.0
489.0,508.0
509.0,520.0
516.0,509.0
522.0,510.0
510.0,499.0
502.0,481.0
489.0,502.0
507.0,519.0
501.0,510.0
505.0,498.0
524.0,509.0
536.0,503.0
510.0,496.0
502.0,490.0
494.0,468.0
501.0,479.0
508.0,504.0
508.0,500.0
531.0,510.0
527.0,508.0
530.0,520.0
517.0,520.0
