CH1,CH2,CH3,CH4
504.0,489.0,517.0,512.0
501.0,491.0,508.0,515.0
500.0,498.0,504.0,517.0
502.0,503.0,500.0,520.0
506.0,510.0,498.0,524.0
506.0,515.0,499.0,518.0
512.0,509.0,499.0,514.0
505.0,508.0,497.0,512.0
510.0,512.0,502.0,510.0
512.0,506.0,506.0,507.0
512.0,505.0,514.0,507.0
522.0,507.0,520.0,509.0
527.0,511.0,529.0,506.0
525.0,506.0,530.0,506.0
525.0,505.0,528.0,506.0
515.0,492.0,525.0,506.0
514.0,492.0,525.0,507.0
497.0,485.0,514.0,515.0
497.0,489.0,507.0,517.0
497.0,497.0,502.0,519.0
501.0,506.0,499.0,519.0
506.0,514.0,499.0,521.0
511.0,518.0,499.0,517.0
511.0,507.0,499.0,514.0
510.0,507.0,501.0,514.0
509.0,509.0,502.0,509.0
515.0,507.0,508.0,508.0
517.0,508.0,511.0,507.0
521.0,502.0,526.0,506.0
520.0,513.0,527.0,507.0
527.0,512.0,531.0,505.0
521.0,503.0,528.0,508.0
510.0,497.0,527.0,507.0
504.0,484.0,518.0,512.0
500.0,487.0,509.0,515.0
498.0,490.0,506.0,515.0
496.0,491.0,500.0,521.0
505.0,501.0,496.0,519.0
508.0,510.0,499.0,521.0
514.0,522.0,504.0,519.0
511.0,516.0,498.0,512.0
509.0,507.0,501.0,510.0
505.0,501.0,504.0,507.0
509.0,505.0,512.0,508.0
517.0,506.0,520.0,505.0
527.0,514.0,526.0,504.0
528.0,513.0,529.0,502.0
525.0,510.0,531.0,506.0
517.0,497.0,525.0,508.0
515.0,497.0,522.0,508.0
503.0,488.0,516.0,508.0
498.0,483.0,508.0,514.0
499.0,492.0,501.0,517.0
503.0,497.0,500.0,521.0
505.0,502.0,499.0,522.0
509.0,513.0,499.0,518.0
511.0,521.0,499.0,517.0
506.0,517.0,500.0,513.0
511.0,515.0,500.0,511.0
503.0,508.0,509.0,504.0
516.0,506.0,514.0,504.0
522.0,514.0,520.0,506.0
527.0,506.0,526.0,506.0
526.0,508.0,526.0,505.0
526.0,504.0,534.0,508.0
512.0,492.0,525.0,506.0
512.0,497.0,519.0,509.0
502.0,497.0,512.0,511.0
501.0,503.0,506.0,513.0
503.0,522.0,500.0,516.0
508.0,526.0,498.0,521.0
505.0,516.0,498.0,519.0
511.0,518.0,497.0,519.0
507.0,472.0,502.0,515.0
505.0,454.0,504.0,512.0
506.0,474.0,503.0,510.0
512.0,493.0,509.0,506.0
519.0,498.0,514.0,503.0
527.0,526.0,522.0,506.0
527.0,518.0,529.0,505.0
526.0,512.0,530.0,507.0
521.0,500.0,528.0,507.0
508.0,490.0,525.0,507.0
499.0,484.0,519.0,508.0
492.0,497.0,512.0,514.0
497.0,512.0,503.0,517.0
498.0,507.0,503.0,521.0
504.0,512.0,500.0,518.0
504.0,512.0,498.0,520.0
509.0,518.0,499.0,517.0
506.0,510.0,499.0,515.0
510.0,519.0,498.0,514.0
514.0,505.0,505.0,509.0
519.0,507.0,512.0,506.0
523.0,511.0,518.0,508.0
525.0,521.0,523.0,507.0
527.0,514.0,524.0,506.0
528.0,512.0,530.0,507.0
518.0,503.0,527.0,508.0
512.0,502.0,524.0,508.0
502.0,491.0,516.0,509.0
500.0,491.0,508.0,517.0
501.0,496.0,505.0,518.0
502.0,501.0,499.0,521.0
502.0,505.0,494.0,521.0
511.0,513.0,500.0,518.0
511.0,513.0,499.0,518.0
510.0,508.0,498.0,513.0
510.0,511.0,498.0,510.0
507.0,510.0,509.0,508.0
513.0,507.0,514.0,506.0
521.0,509.0,521.0,506.0
528.0,507.0,529.0,506.0
527.0,502.0,527.0,506.0
525.0,500.0,530.0,503.0
516.0,499.0,523.0,508.0
514.0,505.0,522.0,508.0
501.0,492.0,513.0,512.0
500.0,493.0,507.0,517.0
500.0,498.0,500.0,520.0
498.0,496.0,498.0,520.0
502.0,492.0,501.0,522.0
507.0,510.0,502.0,520.0
507.0,508.0,500.0,516.0
504.0,513.0,499.0,514.0
506.0,510.0,504.0,506.0
513.0,509.0,510.0,505.0
512.0,506.0,517.0,505.0
520.0,506.0,521.0,508.0
524.0,505.0,526.0,506.0
525.0,505.0,534.0,505.0
522.0,502.0,526.0,507.0
513.0,494.0,522.0,506.0
505.0,491.0,518.0,514.0
504.0,495.0,510.0,513.0
501.0,496.0,506.0,515.0
502.0,499.0,500.0,520.0
504.0,505.0,500.0,522.0
505.0,510.0,499.0,520.0
513.0,516.0,498.0,517.0
505.0,508.0,497.0,515.0
511.0,511.0,502.0,513.0
511.0,506.0,503.0,506.0
512.0,506.0,512.0,507.0
518.0,508.0,518.0,507.0
525.0,512.0,525.0,504.0
526.0,510.0,529.0,503.0
526.0,512.0,531.0,505.0
515.0,499.0,524.0,510.0
516.0,495.0,523.0,509.0
501.0,485.0,516.0,511.0
498.0,478.0,507.0,514.0
499.0,473.0,504.0,519.0
502.0,488.0,501.0,521.0
506.0,496.0,499.0,519.0
513.0,509.0,499.0,519.0
509.0,523.0,499.0,514.0
504.0,530.0,500.0,514.0
512.0,528.0,501.0,513.0
514.0,520.0,504.0,508.0
510.0,517.0,515.0,506.0
520.0,506.0,520.0,505.0
524.0,514.0,526.0,507.0
525.0,508.0,530.0,506.0
524.0,500.0,530.0,508.0
514.0,486.0,525.0,505.0
511.0,492.0,523.0,510.0
499.0,484.0,515.0,513.0
499.0,484.0,507.0,514.0
500.0,492.0,501.0,519.0
503.0,502.0,499.0,521.0
506.0,514.0,500.0,522.0
511.0,520.0,501.0,518.0
509.0,530.0,499.0,518.0
508.0,537.0,499.0,518.0
506.0,502.0,503.0,511.0
509.0,484.0,508.0,507.0
514.0,493.0,515.0,505.0
518.0,505.0,524.0,504.0
526.0,508.0,528.0,506.0
527.0,506.0,530.0,506.0
520.0,499.0,529.0,509.0
510.0,494.0,524.0,507.0
504.0,486.0,517.0,511.0
499.0,499.0,513.0,514.0
500.0,502.0,504.0,518.0
504.0,499.0,500.0,519.0
504.0,506.0,501.0,521.0
509.0,519.0,497.0,519.0
508.0,506.0,500.0,516.0
505.0,511.0,498.0,515.0
511.0,521.0,497.0,512.0
512.0,509.0,506.0,506.0
514.0,506.0,512.0,506.0
518.0,509.0,519.0,505.0
523.0,516.0,524.0,506.0
528.0,510.0,528.0,507.0
530.0,509.0,529.0,509.0
519.0,497.0,525.0,508.0
511.0,489.0,520.0,507.0
500.0,485.0,514.0,511.0
496.0,494.0,510.0,517.0
497.0,500.0,504.0,516.0
501.0,505.0,501.0,521.0
504.0,512.0,498.0,521.0
508.0,515.0,500.0,518.0
510.0,517.0,499.0,518.0
502.0,508.0,500.0,516.0
508.0,509.0,502.0,510.0
510.0,505.0,505.0,507.0
515.0,503.0,513.0,504.0
522.0,507.0,520.0,505.0
526.0,497.0,526.0,507.0
525.0,509.0,530.0,505.0
526.0,509.0,526.0,508.0
515.0,497.0,522.0,509.0
514.0,498.0,521.0,510.0
501.0,489.0,511.0,510.0
498.0,488.0,506.0,516.0
499.0,492.0,503.0,521.0
500.0,505.0,501.0,522.0
506.0,506.0,499.0,519.0
508.0,515.0,500.0,518.0
510.0,512.0,499.0,514.0
507.0,511.0,501.0,514.0
508.0,509.0,502.0,509.0
512.0,503.0,510.0,507.0
518.0,508.0,515.0,506.0
524.0,509.0,525.0,507.0
526.0,506.0,532.0,503.0
528.0,506.0,527.0,508.0
522.0,501.0,531.0,509.0
511.0,490.0,524.0,507.0
506.0,486.0,522.0,510.0
496.0,487.0,512.0,513.0
500.0,493.0,505.0,517.0
500.0,498.0,499.0,519.0
503.0,504.0,499.0,520.0
508.0,511.0,497.0,517.0
517.0,516.0,500.0,517.0
507.0,508.0,503.0,516.0
508.0,508.0,502.0,513.0
510.0,503.0,505.0,508.0
516.0,503.0,510.0,506.0
518.0,504.0,517.0,507.0
523.0,505.0,525.0,504.0
525.0,503.0,530.0,504.0
527.0,510.0,531.0,507.0
522.0,498.0,527.0,506.0
514.0,491.0,521.0,509.0
503.0,481.0,514.0,512.0
499.0,482.0,510.0,517.0
501.0,498.0,503.0,516.0
500.0,505.0,502.0,521.0
506.0,511.0,498.0,522.0
509.0,513.0,499.0,519.0
509.0,517.0,500.0,518.0
503.0,522.0,497.0,513.0
509.0,524.0,501.0,511.0
508.0,509.0,507.0,506.0
516.0,508.0,513.0,508.0
525.0,515.0,521.0,507.0
529.0,516.0,527.0,507.0
527.0,515.0,531.0,505.0
527.0,509.0,531.0,505.0
515.0,496.0,525.0,509.0
514.0,497.0,521.0,509.0
501.0,490.0,512.0,516.0
498.0,495.0,505.0,520.0
498.0,500.0,500.0,521.0
504.0,504.0,502.0,520.0
506.0,504.0,499.0,518.0
511.0,511.0,500.0,519.0
511.0,513.0,499.0,513.0
504.0,508.0,500.0,511.0
509.0,508.0,501.0,509.0
513.0,506.0,507.0,507.0
519.0,506.0,518.0,506.0
525.0,506.0,525.0,506.0
528.0,509.0,526.0,505.0
528.0,508.0,531.0,506.0
521.0,505.0,528.0,506.0
515.0,500.0,523.0,506.0
505.0,495.0,520.0,510.0
501.0,486.0,515.0,515.0
498.0,492.0,504.0,521.0
500.0,491.0,502.0,520.0
505.0,500.0,498.0,521.0
508.0,499.0,499.0,519.0
510.0,510.0,496.0,519.0
507.0,512.0,498.0,515.0
509.0,525.0,500.0,512.0
512.0,524.0,503.0,508.0
521.0,533.0,509.0,505.0
523.0,530.0,518.0,504.0
526.0,527.0,525.0,504.0
525.0,487.0,527.0,510.0
528.0,498.0,530.0,506.0
520.0,506.0,525.0,507.0
510.0,501.0,522.0,509.0
501.0,480.0,515.0,511.0
492.0,466.0,510.0,518.0
498.0,471.0,500.0,519.0
499.0,488.0,501.0,521.0
503.0,499.0,497.0,524.0
509.0,515.0,496.0,520.0
516.0,524.0,498.0,518.0
505.0,510.0,499.0,515.0
508.0,507.0,502.0,511.0
510.0,506.0,504.0,508.0
515.0,505.0,512.0,505.0
522.0,514.0,520.0,506.0
528.0,512.0,525.0,502.0
527.0,510.0,529.0,507.0
527.0,508.0,527.0,509.0
517.0,497.0,527.0,507.0
513.0,500.0,522.0,509.0
500.0,490.0,514.0,513.0
498.0,491.0,506.0,517.0
499.0,496.0,504.0,519.0
503.0,505.0,502.0,520.0
506.0,509.0,498.0,520.0
509.0,517.0,500.0,519.0
510.0,518.0,497.0,516.0
507.0,511.0,496.0,512.0
511.0,511.0,503.0,507.0
512.0,505.0,509.0,507.0
518.0,506.0,513.0,505.0
519.0,506.0,523.0,507.0
525.0,508.0,526.0,504.0
527.0,512.0,531.0,504.0
522.0,508.0,527.0,508.0
513.0,504.0,522.0,509.0
506.0,504.0,517.0,510.0
502.0,497.0,510.0,514.0
501.0,493.0,499.0,517.0
501.0,489.0,506.0,521.0
504.0,475.0,495.0,518.0
508.0,483.0,499.0,523.0
511.0,508.0,496.0,519.0
506.0,516.0,496.0,515.0
508.0,518.0,502.0,514.0
509.0,516.0,504.0,508.0
514.0,519.0,511.0,505.0
520.0,518.0,517.0,504.0
524.0,517.0,524.0,504.0
525.0,512.0,532.0,504.0
525.0,508.0,535.0,507.0
517.0,505.0,528.0,508.0
511.0,496.0,516.0,508.0
503.0,490.0,514.0,514.0
499.0,492.0,507.0,514.0
497.0,496.0,502.0,517.0
501.0,501.0,500.0,522.0
500.0,508.0,500.0,518.0
510.0,515.0,499.0,519.0
510.0,518.0,500.0,518.0
509.0,509.0,497.0,516.0
512.0,510.0,501.0,509.0
512.0,508.0,507.0,509.0
515.0,511.0,513.0,506.0
523.0,508.0,519.0,506.0
528.0,513.0,522.0,506.0
526.0,506.0,532.0,507.0
526.0,503.0,530.0,505.0
517.0,496.0,525.0,508.0
514.0,494.0,519.0,509.0
502.0,488.0,512.0,510.0
499.0,489.0,505.0,518.0
501.0,498.0,503.0,518.0
504.0,507.0,498.0,522.0
507.0,510.0,498.0,521.0
510.0,518.0,499.0,518.0
510.0,517.0,498.0,516.0
506.0,509.0,498.0,513.0
511.0,501.0,502.0,507.0
513.0,501.0,508.0,505.0
516.0,495.0,515.0,507.0
522.0,500.0,523.0,506.0
529.0,507.0,529.0,505.0
528.0,513.0,528.0,503.0
523.0,521.0,529.0,507.0
513.0,505.0,518.0,508.0
508.0,516.0,520.0,509.0
501.0,510.0,511.0,514.0
493.0,478.0,506.0,517.0
494.0,472.0,499.0,521.0
503.0,498.0,500.0,521.0
502.0,510.0,498.0,518.0
509.0,516.0,497.0,519.0
507.0,514.0,496.0,516.0
511.0,512.0,500.0,513.0
511.0,507.0,504.0,507.0
513.0,503.0,507.0,506.0
521.0,508.0,518.0,504.0
526.0,512.0,522.0,505.0
527.0,509.0,529.0,505.0
525.0,506.0,532.0,506.0
522.0,503.0,527.0,504.0
511.0,489.0,522.0,509.0
502.0,482.0,516.0,513.0
498.0,486.0,508.0,515.0
495.0,499.0,504.0,518.0
502.0,506.0,501.0,519.0
504.0,518.0,497.0,524.0
509.0,528.0,497.0,520.0
508.0,512.0,497.0,516.0
501.0,493.0,499.0,511.0
508.0,503.0,501.0,511.0
508.0,505.0,506.0,507.0
514.0,502.0,512.0,504.0
519.0,507.0,517.0,504.0
526.0,503.0,525.0,504.0
524.0,500.0,532.0,506.0
524.0,501.0,530.0,505.0
516.0,498.0,524.0,505.0
513.0,500.0,521.0,510.0
500.0,476.0,514.0,513.0
501.0,475.0,507.0,516.0
499.0,478.0,501.0,519.0
500.0,496.0,501.0,520.0
505.0,515.0,497.0,517.0
508.0,556.0,499.0,520.0
510.0,529.0,499.0,517.0
506.0,507.0,498.0,517.0
510.0,503.0,504.0,507.0
513.0,505.0,508.0,507.0
516.0,504.0,517.0,506.0
519.0,515.0,523.0,504.0
524.0,522.0,528.0,506.0
523.0,509.0,529.0,505.0
523.0,496.0,529.0,506.0
512.0,485.0,523.0,508.0
506.0,480.0,520.0,509.0
497.0,485.0,512.0,513.0
497.0,497.0,506.0,517.0
501.0,507.0,501.0,518.0
504.0,504.0,496.0,521.0
507.0,506.0,501.0,521.0
513.0,519.0,501.0,518.0
507.0,507.0,502.0,515.0
511.0,517.0,501.0,513.0
505.0,516.0,505.0,508.0
510.0,500.0,499.0,513.0
511.0,501.0,504.0,506.0
515.0,502.0,511.0,508.0
521.0,510.0,518.0,503.0
524.0,516.0,524.0,507.0
526.0,513.0,532.0,508.0
528.0,519.0,534.0,504.0
522.0,515.0,530.0,508.0
518.0,511.0,527.0,511.0
504.0,500.0,517.0,513.0
504.0,484.0,510.0,513.0
499.0,493.0,504.0,518.0
507.0,505.0,495.0,521.0
507.0,492.0,496.0,519.0
508.0,504.0,497.0,522.0
510.0,511.0,498.0,515.0
506.0,486.0,498.0,512.0
505.0,500.0,500.0,509.0
512.0,500.0,504.0,505.0
517.0,523.0,511.0,507.0
526.0,526.0,520.0,505.0
530.0,522.0,529.0,507.0
528.0,513.0,532.0,511.0
528.0,520.0,532.0,508.0
517.0,520.0,528.0,506.0
505.0,512.0,525.0,510.0
495.0,482.0,509.0,513.0
490.0,463.0,506.0,519.0
495.0,462.0,501.0,520.0
504.0,488.0,499.0,521.0
508.0,504.0,496.0,523.0
509.0,525.0,496.0,520.0
509.0,535.0,496.0,518.0
506.0,531.0,502.0,514.0
508.0,519.0,501.0,506.0
512.0,516.0,506.0,508.0
515.0,506.0,515.0,508.0
521.0,506.0,522.0,506.0
526.0,506.0,527.0,506.0
528.0,491.0,532.0,507.0
524.0,493.0,530.0,510.0
515.0,492.0,526.0,507.0
511.0,497.0,520.0,505.0
501.0,504.0,512.0,511.0
499.0,500.0,503.0,519.0
504.0,508.0,500.0,522.0
505.0,514.0,498.0,521.0
506.0,497.0,493.0,522.0
509.0,509.0,498.0,516.0
508.0,517.0,498.0,515.0
507.0,506.0,500.0,509.0
509.0,503.0,504.0,509.0
515.0,512.0,509.0,507.0
526.0,516.0,512.0,506.0
528.0,518.0,525.0,504.0
532.0,518.0,529.0,506.0
529.0,514.0,533.0,506.0
523.0,499.0,529.0,506.0
511.0,485.0,522.0,509.0
498.0,480.0,516.0,512.0
494.0,490.0,509.0,513.0
495.0,491.0,504.0,515.0
499.0,503.0,497.0,521.0
507.0,514.0,496.0,520.0
508.0,514.0,496.0,525.0
512.0,516.0,497.0,517.0
510.0,513.0,498.0,516.0
507.0,512.0,499.0,510.0
509.0,510.0,504.0,504.0
515.0,516.0,512.0,507.0
522.0,516.0,519.0,505.0
529.0,516.0,527.0,507.0
532.0,518.0,531.0,506.0
526.0,514.0,529.0,505.0
521.0,508.0,527.0,508.0
513.0,507.0,523.0,509.0
500.0,480.0,517.0,514.0
495.0,479.0,512.0,518.0
493.0,493.0,500.0,519.0
501.0,503.0,497.0,522.0
501.0,503.0,499.0,518.0
509.0,509.0,496.0,525.0
511.0,511.0,499.0,515.0
505.0,505.0,499.0,514.0
505.0,503.0,502.0,509.0
512.0,502.0,505.0,506.0
516.0,500.0,511.0,506.0
522.0,505.0,521.0,506.0
525.0,518.0,531.0,507.0
527.0,511.0,531.0,508.0
523.0,507.0,533.0,506.0
516.0,500.0,524.0,509.0
505.0,488.0,520.0,516.0
497.0,489.0,512.0,513.0
497.0,491.0,505.0,515.0
496.0,499.0,502.0,521.0
503.0,507.0,496.0,522.0
506.0,509.0,496.0,520.0
512.0,519.0,497.0,517.0
511.0,515.0,496.0,515.0
511.0,513.0,498.0,509.0
507.0,506.0,502.0,505.0
514.0,509.0,506.0,503.0
521.0,513.0,517.0,507.0
529.0,523.0,525.0,506.0
532.0,522.0,529.0,506.0
531.0,519.0,533.0,506.0
516.0,473.0,531.0,507.0
510.0,475.0,523.0,508.0
497.0,470.0,515.0,512.0
497.0,484.0,509.0,511.0
498.0,491.0,509.0,519.0
502.0,515.0,498.0,524.0
505.0,509.0,496.0,525.0
506.0,494.0,497.0,518.0
509.0,500.0,498.0,517.0
510.0,515.0,497.0,514.0
507.0,514.0,500.0,510.0
504.0,508.0,506.0,507.0
512.0,505.0,511.0,507.0
520.0,514.0,520.0,504.0
529.0,518.0,527.0,503.0
526.0,506.0,530.0,506.0
526.0,513.0,534.0,508.0
520.0,502.0,528.0,509.0
510.0,492.0,525.0,510.0
499.0,480.0,511.0,513.0
496.0,487.0,508.0,516.0
500.0,500.0,500.0,519.0
506.0,505.0,499.0,520.0
507.0,499.0,495.0,523.0
512.0,494.0,498.0,518.0
506.0,494.0,497.0,517.0
511.0,502.0,501.0,513.0
506.0,501.0,500.0,509.0
509.0,516.0,508.0,505.0
514.0,516.0,514.0,507.0
521.0,514.0,520.0,506.0
528.0,498.0,529.0,507.0
532.0,521.0,533.0,507.0
534.0,532.0,532.0,507.0
529.0,504.0,525.0,507.0
516.0,517.0,520.0,509.0
499.0,493.0,512.0,512.0
488.0,447.0,505.0,515.0
491.0,484.0,501.0,521.0
499.0,505.0,502.0,522.0
499.0,528.0,497.0,519.0
506.0,539.0,498.0,518.0
505.0,532.0,494.0,516.0
509.0,520.0,496.0,513.0
507.0,509.0,500.0,508.0
509.0,505.0,508.0,508.0
514.0,504.0,516.0,506.0
521.0,502.0,522.0,506.0
525.0,504.0,530.0,504.0
528.0,508.0,529.0,507.0
517.0,512.0,531.0,508.0
515.0,504.0,526.0,508.0
502.0,485.0,518.0,507.0
496.0,489.0,513.0,515.0
497.0,497.0,501.0,518.0
501.0,500.0,500.0,522.0
505.0,505.0,496.0,524.0
508.0,512.0,495.0,523.0
510.0,512.0,496.0,519.0
508.0,513.0,497.0,510.0
507.0,507.0,500.0,511.0
508.0,502.0,502.0,507.0
513.0,495.0,512.0,503.0
519.0,502.0,520.0,504.0
524.0,502.0,525.0,505.0
523.0,500.0,531.0,506.0
526.0,508.0,533.0,508.0
524.0,509.0,529.0,508.0
522.0,502.0,523.0,506.0
500.0,485.0,514.0,513.0
499.0,493.0,509.0,512.0
497.0,496.0,500.0,520.0
501.0,499.0,498.0,521.0
505.0,508.0,498.0,521.0
512.0,517.0,496.0,518.0
514.0,517.0,498.0,517.0
510.0,511.0,499.0,514.0
509.0,504.0,502.0,510.0
514.0,501.0,506.0,509.0
518.0,505.0,513.0,504.0
523.0,506.0,522.0,508.0
525.0,509.0,529.0,505.0
530.0,506.0,530.0,507.0
526.0,508.0,528.0,506.0
518.0,500.0,527.0,507.0
503.0,488.0,520.0,513.0
496.0,482.0,512.0,512.0
494.0,488.0,505.0,519.0
500.0,497.0,501.0,518.0
506.0,511.0,496.0,523.0
506.0,513.0,497.0,518.0
508.0,512.0,496.0,520.0
507.0,510.0,497.0,515.0
508.0,512.0,500.0,511.0
505.0,505.0,503.0,509.0
513.0,501.0,509.0,508.0
518.0,506.0,515.0,506.0
525.0,512.0,525.0,507.0
526.0,507.0,532.0,506.0
527.0,505.0,534.0,506.0
524.0,494.0,528.0,513.0
514.0,486.0,523.0,505.0
502.0,477.0,515.0,510.0
496.0,475.0,506.0,514.0
492.0,486.0,503.0,517.0
500.0,493.0,497.0,520.0
502.0,512.0,498.0,519.0
508.0,515.0,496.0,519.0
513.0,521.0,498.0,519.0
514.0,519.0,500.0,515.0
508.0,520.0,498.0,509.0
509.0,537.0,507.0,507.0
514.0,545.0,514.0,503.0
524.0,545.0,521.0,503.0
531.0,540.0,528.0,506.0
523.0,463.0,530.0,506.0
520.0,465.0,533.0,507.0
515.0,476.0,528.0,510.0
512.0,498.0,523.0,510.0
498.0,492.0,515.0,512.0
492.0,487.0,507.0,514.0
496.0,495.0,502.0,519.0
502.0,502.0,496.0,521.0
512.0,499.0,499.0,521.0
513.0,508.0,497.0,518.0
511.0,513.0,498.0,517.0
512.0,504.0,498.0,513.0
510.0,505.0,497.0,508.0
509.0,502.0,507.0,505.0
513.0,498.0,514.0,507.0
514.0,502.0,523.0,505.0
520.0,509.0,526.0,504.0
521.0,508.0,530.0,503.0
521.0,501.0,530.0,508.0
516.0,502.0,529.0,508.0
512.0,501.0,519.0,509.0
502.0,490.0,512.0,514.0
502.0,488.0,505.0,513.0
502.0,490.0,504.0,521.0
503.0,505.0,497.0,521.0
505.0,507.0,494.0,521.0
514.0,514.0,497.0,519.0
512.0,514.0,498.0,516.0
507.0,523.0,497.0,513.0
506.0,505.0,501.0,505.0
511.0,499.0,512.0,506.0
521.0,494.0,517.0,505.0
532.0,495.0,525.0,505.0
528.0,518.0,531.0,506.0
525.0,520.0,534.0,506.0
518.0,518.0,529.0,508.0
513.0,508.0,522.0,508.0
496.0,497.0,518.0,511.0
495.0,495.0,509.0,511.0
495.0,496.0,504.0,520.0
503.0,500.0,500.0,518.0
509.0,507.0,497.0,522.0
508.0,513.0,499.0,521.0
509.0,516.0,499.0,517.0
509.0,526.0,498.0,514.0
504.0,517.0,498.0,510.0
506.0,503.0,502.0,507.0
510.0,495.0,509.0,506.0
518.0,503.0,518.0,504.0
526.0,504.0,525.0,505.0
525.0,497.0,531.0,503.0
526.0,506.0,532.0,505.0
522.0,513.0,527.0,506.0
514.0,512.0,523.0,509.0
502.0,507.0,513.0,511.0
498.0,507.0,506.0,515.0
499.0,512.0,501.0,519.0
504.0,510.0,497.0,517.0
506.0,495.0,496.0,521.0
511.0,508.0,496.0,519.0
511.0,511.0,499.0,517.0
508.0,520.0,498.0,513.0
508.0,504.0,501.0,508.0
510.0,504.0,507.0,506.0
513.0,511.0,515.0,505.0
523.0,510.0,523.0,506.0
529.0,506.0,529.0,505.0
528.0,505.0,531.0,506.0
524.0,502.0,532.0,504.0
517.0,498.0,525.0,509.0
509.0,486.0,520.0,508.0
499.0,481.0,512.0,514.0
498.0,488.0,501.0,516.0
506.0,495.0,502.0,520.0
506.0,500.0,498.0,522.0
508.0,501.0,494.0,524.0
508.0,512.0,496.0,517.0
509.0,508.0,497.0,512.0
505.0,521.0,496.0,513.0
502.0,528.0,502.0,507.0
510.0,526.0,508.0,511.0
518.0,528.0,517.0,504.0
520.0,502.0,525.0,505.0
523.0,480.0,531.0,503.0
524.0,494.0,533.0,509.0
519.0,495.0,530.0,505.0
516.0,495.0,524.0,510.0
501.0,484.0,517.0,511.0
496.0,485.0,510.0,513.0
494.0,490.0,504.0,519.0
500.0,501.0,498.0,522.0
503.0,504.0,498.0,520.0
509.0,509.0,496.0,520.0
512.0,515.0,495.0,518.0
510.0,511.0,497.0,517.0
510.0,510.0,499.0,511.0
510.0,504.0,504.0,507.0
513.0,497.0,511.0,503.0
516.0,504.0,519.0,504.0
525.0,507.0,525.0,506.0
524.0,499.0,531.0,508.0
526.0,498.0,533.0,509.0
519.0,499.0,529.0,507.0
518.0,492.0,524.0,507.0
501.0,485.0,514.0,513.0
495.0,490.0,509.0,518.0
497.0,489.0,502.0,520.0
501.0,504.0,497.0,518.0
506.0,510.0,497.0,522.0
509.0,525.0,498.0,517.0
508.0,518.0,496.0,519.0
509.0,512.0,498.0,512.0
505.0,506.0,500.0,509.0
510.0,501.0,507.0,507.0
517.0,504.0,514.0,506.0
527.0,514.0,523.0,506.0
530.0,500.0,528.0,506.0
529.0,497.0,530.0,505.0
523.0,494.0,529.0,510.0
517.0,510.0,524.0,507.0
506.0,499.0,522.0,510.0
500.0,482.0,510.0,515.0
500.0,477.0,505.0,515.0
500.0,476.0,498.0,519.0
503.0,483.0,498.0,520.0
501.0,505.0,496.0,519.0
506.0,520.0,498.0,520.0
509.0,536.0,497.0,510.0
512.0,543.0,499.0,514.0
512.0,532.0,502.0,508.0
514.0,509.0,511.0,506.0
520.0,507.0,517.0,503.0
524.0,516.0,523.0,506.0
526.0,517.0,530.0,505.0
522.0,511.0,529.0,505.0
517.0,505.0,528.0,505.0
514.0,498.0,525.0,506.0
500.0,482.0,518.0,514.0
500.0,495.0,510.0,511.0
495.0,492.0,503.0,516.0
504.0,512.0,502.0,521.0
509.0,519.0,495.0,522.0
510.0,474.0,496.0,517.0
514.0,496.0,497.0,516.0
506.0,494.0,497.0,513.0
508.0,488.0,498.0,507.0
510.0,510.0,503.0,506.0
510.0,524.0,511.0,506.0
520.0,517.0,520.0,503.0
530.0,514.0,527.0,506.0
529.0,508.0,532.0,503.0
528.0,503.0,528.0,508.0
520.0,497.0,528.0,507.0
509.0,496.0,521.0,509.0
497.0,491.0,512.0,514.0
496.0,500.0,503.0,516.0
497.0,505.0,502.0,517.0
500.0,503.0,499.0,518.0
504.0,509.0,494.0,520.0
508.0,520.0,496.0,520.0
509.0,517.0,499.0,518.0
509.0,511.0,498.0,514.0
504.0,502.0,502.0,509.0
508.0,498.0,507.0,507.0
511.0,503.0,516.0,507.0
521.0,516.0,524.0,506.0
527.0,515.0,530.0,511.0
523.0,504.0,534.0,508.0
522.0,509.0,532.0,507.0
517.0,505.0,526.0,508.0
510.0,495.0,524.0,511.0
500.0,488.0,509.0,514.0
496.0,488.0,504.0,515.0
495.0,492.0,498.0,521.0
505.0,503.0,503.0,523.0
506.0,514.0,495.0,520.0
512.0,518.0,498.0,521.0
509.0,520.0,496.0,516.0
510.0,513.0,499.0,511.0
506.0,502.0,501.0,506.0
511.0,498.0,507.0,506.0
516.0,506.0,518.0,506.0
521.0,510.0,524.0,506.0
526.0,507.0,531.0,505.0
526.0,505.0,532.0,509.0
518.0,500.0,530.0,509.0
513.0,493.0,525.0,509.0
502.0,483.0,518.0,512.0
496.0,493.0,512.0,517.0
494.0,501.0,506.0,522.0
499.0,502.0,503.0,522.0
504.0,503.0,501.0,525.0
502.0,503.0,497.0,521.0
510.0,519.0,500.0,519.0
508.0,513.0,501.0,512.0
509.0,515.0,493.0,508.0
509.0,507.0,502.0,503.0
513.0,505.0,505.0,504.0
520.0,502.0,517.0,504.0
527.0,501.0,523.0,504.0
527.0,497.0,526.0,503.0
529.0,496.0,532.0,503.0
520.0,489.0,528.0,506.0
514.0,494.0,524.0,508.0
496.0,490.0,512.0,509.0
491.0,497.0,506.0,516.0
492.0,505.0,497.0,516.0
499.0,522.0,498.0,518.0
506.0,522.0,495.0,519.0
510.0,513.0,500.0,520.0
506.0,499.0,495.0,514.0
513.0,531.0,499.0,514.0
509.0,524.0,504.0,510.0
512.0,512.0,506.0,507.0
515.0,498.0,515.0,504.0
519.0,469.0,521.0,506.0
521.0,493.0,530.0,506.0
525.0,520.0,531.0,507.0
524.0,525.0,531.0,510.0
516.0,507.0,528.0,511.0
508.0,493.0,522.0,512.0
498.0,484.0,510.0,515.0
496.0,491.0,504.0,517.0
498.0,490.0,496.0,519.0
505.0,493.0,498.0,519.0
509.0,489.0,493.0,519.0
515.0,498.0,495.0,517.0
514.0,507.0,497.0,515.0
513.0,512.0,499.0,512.0
506.0,511.0,503.0,508.0
507.0,519.0,508.0,505.0
516.0,504.0,518.0,508.0
520.0,515.0,527.0,508.0
528.0,519.0,531.0,506.0
529.0,512.0,532.0,507.0
523.0,502.0,531.0,506.0
516.0,506.0,525.0,507.0
501.0,500.0,515.0,510.0
497.0,499.0,510.0,513.0
499.0,501.0,503.0,513.0
502.0,514.0,499.0,521.0
504.0,513.0,497.0,522.0
508.0,519.0,494.0,520.0
510.0,517.0,497.0,518.0
509.0,508.0,496.0,513.0
507.0,497.0,499.0,511.0
510.0,501.0,500.0,506.0
516.0,511.0,512.0,507.0
520.0,517.0,520.0,503.0
530.0,508.0,526.0,504.0
530.0,504.0,531.0,503.0
528.0,501.0,532.0,509.0
519.0,496.0,527.0,508.0
518.0,495.0,524.0,510.0
502.0,483.0,513.0,512.0
496.0,487.0,506.0,517.0
492.0,500.0,501.0,518.0
497.0,511.0,497.0,520.0
504.0,512.0,496.0,519.0
508.0,518.0,498.0,520.0
507.0,520.0,498.0,515.0
507.0,520.0,497.0,512.0
506.0,517.0,500.0,514.0
509.0,514.0,508.0,503.0
514.0,506.0,514.0,505.0
520.0,506.0,523.0,505.0
525.0,498.0,529.0,504.0
522.0,472.0,532.0,510.0
524.0,490.0,528.0,507.0
517.0,496.0,530.0,509.0
506.0,492.0,523.0,510.0
494.0,490.0,513.0,513.0
491.0,487.0,503.0,518.0
498.0,498.0,500.0,521.0
499.0,519.0,499.0,522.0
500.0,515.0,500.0,522.0
510.0,519.0,498.0,520.0
511.0,517.0,498.0,514.0
509.0,516.0,500.0,513.0
508.0,507.0,503.0,508.0
513.0,508.0,507.0,503.0
519.0,507.0,517.0,505.0
527.0,511.0,523.0,506.0
528.0,508.0,531.0,506.0
526.0,509.0,532.0,508.0
521.0,503.0,530.0,510.0
515.0,496.0,522.0,507.0
501.0,482.0,517.0,515.0
495.0,482.0,512.0,515.0
498.0,489.0,504.0,516.0
500.0,497.0,499.0,521.0
506.0,513.0,496.0,521.0
506.0,517.0,496.0,518.0
507.0,522.0,495.0,518.0
512.0,519.0,498.0,516.0
512.0,516.0,501.0,510.0
510.0,507.0,503.0,508.0
513.0,502.0,513.0,508.0
518.0,509.0,520.0,507.0
522.0,509.0,526.0,512.0
524.0,519.0,535.0,508.0
524.0,524.0,534.0,506.0
513.0,477.0,529.0,506.0
512.0,478.0,522.0,508.0
497.0,479.0,515.0,513.0
501.0,488.0,506.0,517.0
503.0,495.0,500.0,517.0
504.0,496.0,501.0,522.0
507.0,499.0,499.0,521.0
512.0,507.0,495.0,521.0
512.0,496.0,496.0,516.0
514.0,500.0,498.0,514.0
515.0,512.0,501.0,510.0
516.0,504.0,506.0,507.0
523.0,494.0,515.0,508.0
528.0,504.0,525.0,507.0
529.0,505.0,529.0,506.0
528.0,511.0,533.0,506.0
525.0,513.0,526.0,507.0
512.0,507.0,523.0,507.0
498.0,493.0,519.0,509.0
487.0,482.0,513.0,511.0
489.0,490.0,509.0,518.0
498.0,504.0,502.0,517.0
499.0,543.0,493.0,522.0
504.0,549.0,493.0,520.0
508.0,504.0,495.0,518.0
509.0,495.0,495.0,514.0
507.0,497.0,499.0,512.0
505.0,490.0,503.0,505.0
509.0,512.0,509.0,507.0
516.0,534.0,519.0,505.0
526.0,546.0,526.0,507.0
533.0,534.0,528.0,507.0
529.0,515.0,533.0,507.0
521.0,492.0,529.0,506.0
516.0,496.0,525.0,508.0
502.0,477.0,518.0,511.0
499.0,476.0,506.0,511.0
494.0,480.0,504.0,513.0
497.0,481.0,498.0,520.0
500.0,514.0,495.0,519.0
504.0,516.0,496.0,520.0
513.0,511.0,496.0,514.0
506.0,515.0,496.0,514.0
508.0,513.0,498.0,511.0
509.0,509.0,504.0,507.0
514.0,510.0,512.0,504.0
522.0,517.0,519.0,509.0
526.0,524.0,528.0,506.0
528.0,518.0,533.0,509.0
530.0,511.0,531.0,509.0
526.0,494.0,529.0,511.0
516.0,479.0,525.0,515.0
502.0,463.0,517.0,513.0
500.0,462.0,508.0,515.0
499.0,492.0,500.0,517.0
502.0,527.0,498.0,518.0
505.0,533.0,500.0,520.0
511.0,538.0,498.0,517.0
506.0,501.0,497.0,514.0
507.0,505.0,496.0,516.0
505.0,510.0,500.0,511.0
510.0,513.0,508.0,509.0
512.0,514.0,514.0,503.0
521.0,514.0,521.0,504.0
526.0,511.0,528.0,504.0
523.0,505.0,532.0,503.0
524.0,499.0,529.0,505.0
516.0,491.0,528.0,509.0
512.0,484.0,522.0,511.0
496.0,475.0,514.0,512.0
495.0,483.0,505.0,518.0
500.0,495.0,502.0,521.0
504.0,506.0,498.0,523.0
507.0,512.0,497.0,517.0
510.0,521.0,496.0,518.0
511.0,516.0,497.0,514.0
513.0,509.0,497.0,511.0
514.0,502.0,500.0,506.0
519.0,507.0,511.0,505.0
522.0,498.0,516.0,503.0
526.0,501.0,524.0,508.0
527.0,504.0,530.0,507.0
521.0,526.0,532.0,509.0
517.0,518.0,529.0,509.0
513.0,506.0,524.0,512.0
499.0,483.0,520.0,513.0
490.0,491.0,518.0,519.0
494.0,494.0,505.0,518.0
495.0,504.0,504.0,523.0
501.0,509.0,500.0,524.0
504.0,508.0,497.0,520.0
507.0,510.0,497.0,516.0
510.0,510.0,497.0,510.0
509.0,507.0,496.0,509.0
507.0,514.0,501.0,502.0
513.0,518.0,512.0,506.0
523.0,522.0,515.0,506.0
527.0,516.0,523.0,506.0
526.0,507.0,529.0,506.0
526.0,496.0,528.0,509.0
521.0,490.0,529.0,508.0
515.0,493.0,523.0,516.0
503.0,488.0,515.0,516.0
501.0,492.0,507.0,518.0
501.0,485.0,505.0,521.0
503.0,478.0,496.0,522.0
510.0,493.0,496.0,520.0
510.0,503.0,499.0,523.0
507.0,513.0,497.0,519.0
506.0,510.0,502.0,517.0
511.0,512.0,506.0,513.0
512.0,512.0,516.0,510.0
514.0,505.0,520.0,511.0
520.0,503.0,522.0,508.0
522.0,515.0,526.0,507.0
524.0,513.0,530.0,507.0
522.0,510.0,527.0,508.0
515.0,500.0,522.0,504.0
514.0,500.0,517.0,504.0
502.0,494.0,508.0,510.0
497.0,492.0,502.0,515.0
503.0,500.0,500.0,518.0
505.0,506.0,496.0,520.0
509.0,510.0,496.0,516.0
517.0,522.0,493.0,518.0
514.0,520.0,494.0,513.0
515.0,520.0,498.0,509.0
504.0,484.0,500.0,506.0
503.0,502.0,504.0,502.0
515.0,513.0,513.0,502.0
522.0,515.0,522.0,501.0
528.0,506.0,526.0,498.0
526.0,502.0,529.0,502.0
520.0,491.0,526.0,504.0
517.0,486.0,520.0,507.0
500.0,483.0,516.0,508.0
497.0,482.0,505.0,511.0
499.0,494.0,498.0,513.0
502.0,503.0,498.0,521.0
515.0,511.0,492.0,521.0
516.0,521.0,498.0,520.0
522.0,518.0,500.0,518.0
514.0,501.0,499.0,517.0
510.0,508.0,501.0,515.0
505.0,499.0,507.0,510.0
503.0,510.0,515.0,510.0
507.0,520.0,525.0,511.0
520.0,525.0,535.0,511.0
525.0,520.0,540.0,514.0
522.0,515.0,541.0,517.0
522.0,519.0,535.0,515.0
515.0,523.0,528.0,511.0
501.0,499.0,514.0,510.0
495.0,471.0,498.0,511.0
494.0,468.0,498.0,516.0
498.0,494.0,495.0,519.0
500.0,500.0,499.0,513.0
507.0,508.0,489.0,513.0
507.0,512.0,490.0,513.0
508.0,503.0,496.0,515.0
506.0,499.0,499.0,509.0
509.0,512.0,502.0,506.0
510.0,509.0,510.0,501.0
523.0,517.0,519.0,504.0
526.0,522.0,526.0,499.0
526.0,511.0,529.0,501.0
522.0,493.0,527.0,503.0
516.0,478.0,524.0,505.0
505.0,473.0,519.0,507.0
496.0,473.0,507.0,511.0
494.0,496.0,502.0,516.0
501.0,502.0,499.0,518.0
506.0,525.0,497.0,521.0
509.0,515.0,496.0,519.0
509.0,519.0,498.0,519.0
511.0,516.0,497.0,515.0
510.0,513.0,496.0,513.0
507.0,509.0,501.0,509.0
513.0,510.0,511.0,507.0
515.0,508.0,519.0,508.0
530.0,515.0,526.0,510.0
528.0,517.0,533.0,510.0
525.0,512.0,536.0,510.0
518.0,504.0,535.0,511.0
515.0,496.0,527.0,512.0
501.0,487.0,518.0,514.0
497.0,486.0,510.0,518.0
498.0,491.0,504.0,519.0
501.0,498.0,497.0,520.0
505.0,509.0,497.0,521.0
509.0,510.0,494.0,517.0
514.0,517.0,495.0,512.0
511.0,512.0,495.0,513.0
509.0,513.0,499.0,508.0
507.0,502.0,501.0,508.0
514.0,501.0,509.0,504.0
519.0,502.0,519.0,504.0
526.0,498.0,525.0,504.0
531.0,498.0,529.0,506.0
527.0,511.0,532.0,505.0
517.0,503.0,528.0,508.0
514.0,494.0,525.0,509.0
503.0,486.0,515.0,513.0
502.0,485.0,509.0,513.0
501.0,486.0,499.0,519.0
504.0,500.0,497.0,524.0
504.0,510.0,495.0,523.0
505.0,520.0,497.0,520.0
503.0,521.0,497.0,516.0
503.0,521.0,496.0,514.0
508.0,512.0,498.0,512.0
509.0,519.0,504.0,508.0
512.0,510.0,512.0,509.0
523.0,501.0,523.0,506.0
526.0,501.0,530.0,507.0
525.0,479.0,535.0,509.0
519.0,495.0,534.0,509.0
516.0,508.0,526.0,509.0
509.0,504.0,523.0,509.0
500.0,498.0,513.0,512.0
498.0,505.0,505.0,516.0
500.0,502.0,500.0,519.0
506.0,506.0,496.0,523.0
510.0,503.0,491.0,521.0
512.0,509.0,498.0,520.0
516.0,509.0,497.0,514.0
513.0,500.0,496.0,511.0
510.0,501.0,503.0,507.0
513.0,506.0,507.0,510.0
517.0,522.0,519.0,508.0
516.0,509.0,522.0,507.0
526.0,512.0,527.0,507.0
519.0,508.0,533.0,507.0
522.0,515.0,530.0,510.0
518.0,518.0,524.0,510.0
506.0,506.0,520.0,513.0
500.0,486.0,513.0,520.0
498.0,499.0,506.0,520.0
499.0,498.0,499.0,526.0
500.0,490.0,498.0,523.0
504.0,496.0,499.0,524.0
510.0,505.0,499.0,522.0
510.0,500.0,500.0,516.0
510.0,505.0,503.0,516.0
510.0,497.0,509.0,508.0
515.0,496.0,515.0,505.0
524.0,507.0,519.0,506.0
525.0,501.0,523.0,503.0
531.0,491.0,528.0,504.0
528.0,490.0,529.0,503.0
518.0,509.0,526.0,503.0
509.0,503.0,520.0,507.0
494.0,498.0,512.0,511.0
488.0,516.0,502.0,513.0
488.0,501.0,499.0,515.0
495.0,521.0,499.0,519.0
503.0,534.0,491.0,518.0
505.0,520.0,494.0,517.0
509.0,518.0,493.0,514.0
507.0,523.0,496.0,510.0
510.0,513.0,495.0,508.0
510.0,513.0,501.0,505.0
512.0,510.0,514.0,505.0
523.0,508.0,525.0,506.0
524.0,508.0,528.0,506.0
523.0,501.0,530.0,504.0
522.0,506.0,533.0,506.0
517.0,500.0,528.0,508.0
513.0,484.0,518.0,510.0
499.0,475.0,510.0,516.0
498.0,481.0,503.0,516.0
499.0,485.0,500.0,520.0
505.0,489.0,498.0,521.0
507.0,490.0,498.0,518.0
512.0,495.0,499.0,522.0
511.0,510.0,501.0,518.0
504.0,535.0,501.0,512.0
505.0,521.0,500.0,510.0
514.0,513.0,509.0,506.0
518.0,511.0,516.0,504.0
523.0,516.0,523.0,507.0
527.0,519.0,530.0,507.0
526.0,510.0,532.0,508.0
519.0,502.0,528.0,507.0
515.0,498.0,524.0,505.0
499.0,484.0,518.0,508.0
498.0,487.0,504.0,513.0
496.0,496.0,497.0,519.0
500.0,503.0,496.0,526.0
508.0,514.0,496.0,525.0
510.0,516.0,507.0,521.0
518.0,522.0,501.0,518.0
510.0,509.0,498.0,515.0
506.0,508.0,499.0,511.0
505.0,507.0,504.0,506.0
513.0,506.0,509.0,501.0
521.0,522.0,518.0,502.0
526.0,526.0,525.0,506.0
526.0,520.0,533.0,505.0
528.0,519.0,532.0,505.0
520.0,485.0,528.0,507.0
509.0,458.0,521.0,512.0
496.0,475.0,513.0,512.0
495.0,485.0,506.0,516.0
496.0,493.0,503.0,520.0
503.0,506.0,499.0,520.0
504.0,507.0,497.0,521.0
509.0,510.0,496.0,518.0
513.0,521.0,495.0,517.0
515.0,514.0,498.0,513.0
513.0,495.0,501.0,508.0
511.0,493.0,504.0,507.0
514.0,495.0,515.0,508.0
524.0,506.0,519.0,508.0
527.0,503.0,529.0,506.0
526.0,502.0,534.0,508.0
526.0,494.0,535.0,510.0
515.0,507.0,530.0,512.0
511.0,509.0,524.0,511.0
498.0,504.0,515.0,519.0
494.0,495.0,506.0,519.0
501.0,499.0,499.0,522.0
500.0,503.0,498.0,525.0
506.0,511.0,493.0,524.0
514.0,511.0,498.0,523.0
514.0,514.0,495.0,516.0
510.0,516.0,500.0,515.0
504.0,509.0,504.0,508.0
510.0,510.0,514.0,509.0
517.0,514.0,526.0,510.0
523.0,503.0,527.0,509.0
527.0,509.0,532.0,508.0
525.0,509.0,530.0,507.0
521.0,510.0,524.0,507.0
516.0,499.0,520.0,499.0
499.0,460.0,513.0,513.0
493.0,469.0,507.0,510.0
497.0,480.0,502.0,514.0
497.0,490.0,499.0,520.0
507.0,503.0,495.0,519.0
503.0,508.0,498.0,521.0
510.0,517.0,497.0,518.0
515.0,531.0,499.0,517.0
518.0,531.0,503.0,514.0
511.0,514.0,508.0,511.0
515.0,522.0,517.0,510.0
521.0,529.0,524.0,511.0
528.0,515.0,532.0,511.0
522.0,494.0,538.0,511.0
520.0,483.0,538.0,511.0
517.0,477.0,529.0,510.0
510.0,468.0,528.0,509.0
499.0,463.0,513.0,504.0
495.0,497.0,504.0,508.0
497.0,503.0,496.0,514.0
508.0,501.0,492.0,515.0
515.0,516.0,491.0,513.0
514.0,518.0,491.0,515.0
516.0,512.0,492.0,513.0
515.0,514.0,493.0,510.0
513.0,511.0,497.0,504.0
512.0,515.0,502.0,504.0
514.0,515.0,509.0,504.0
519.0,528.0,518.0,503.0
522.0,529.0,527.0,503.0
518.0,512.0,531.0,505.0
514.0,513.0,530.0,507.0
517.0,506.0,525.0,507.0
512.0,497.0,519.0,506.0
497.0,489.0,510.0,510.0
495.0,487.0,499.0,515.0
497.0,501.0,499.0,519.0
501.0,519.0,496.0,519.0
503.0,514.0,493.0,520.0
512.0,516.0,495.0,518.0
509.0,510.0,496.0,519.0
506.0,507.0,504.0,513.0
507.0,499.0,504.0,509.0
512.0,506.0,511.0,503.0
519.0,506.0,515.0,506.0
522.0,506.0,523.0,509.0
526.0,507.0,529.0,507.0
525.0,501.0,530.0,507.0
521.0,501.0,525.0,507.0
514.0,501.0,519.0,507.0
503.0,485.0,515.0,508.0
500.0,496.0,509.0,514.0
499.0,503.0,505.0,517.0
504.0,508.0,501.0,521.0
505.0,512.0,498.0,518.0
506.0,501.0,496.0,517.0
508.0,494.0,495.0,518.0
508.0,503.0,491.0,513.0
509.0,520.0,498.0,508.0
512.0,526.0,501.0,502.0
517.0,529.0,508.0,502.0
521.0,521.0,516.0,503.0
521.0,482.0,519.0,503.0
525.0,487.0,532.0,506.0
520.0,488.0,541.0,504.0
519.0,477.0,524.0,508.0
514.0,479.0,519.0,512.0
503.0,473.0,510.0,510.0
497.0,473.0,510.0,521.0
503.0,498.0,507.0,522.0
506.0,495.0,505.0,524.0
502.0,510.0,508.0,529.0
507.0,507.0,503.0,522.0
512.0,509.0,504.0,522.0
514.0,521.0,502.0,515.0
512.0,509.0,497.0,510.0
513.0,507.0,504.0,502.0
515.0,514.0,511.0,501.0
519.0,505.0,520.0,500.0
524.0,526.0,526.0,499.0
523.0,517.0,529.0,499.0
523.0,510.0,528.0,504.0
519.0,500.0,519.0,504.0
511.0,496.0,516.0,506.0
499.0,482.0,507.0,512.0
497.0,474.0,503.0,515.0
497.0,487.0,499.0,518.0
499.0,490.0,493.0,519.0
507.0,498.0,494.0,518.0
508.0,519.0,494.0,519.0
509.0,525.0,496.0,516.0
509.0,517.0,500.0,514.0
510.0,526.0,497.0,509.0
513.0,529.0,509.0,509.0
517.0,542.0,514.0,508.0
530.0,537.0,521.0,508.0
533.0,524.0,533.0,509.0
529.0,520.0,535.0,515.0
522.0,475.0,534.0,515.0
512.0,464.0,531.0,515.0
500.0,475.0,520.0,512.0
496.0,494.0,510.0,516.0
492.0,502.0,503.0,521.0
494.0,499.0,502.0,524.0
501.0,510.0,497.0,522.0
504.0,514.0,494.0,517.0
509.0,512.0,496.0,516.0
511.0,524.0,498.0,512.0
507.0,527.0,502.0,513.0
511.0,521.0,504.0,504.0
521.0,506.0,508.0,505.0
525.0,479.0,512.0,503.0
524.0,456.0,518.0,500.0
521.0,506.0,523.0,501.0
533.0,545.0,525.0,502.0
530.0,525.0,522.0,505.0
523.0,523.0,520.0,505.0
506.0,492.0,514.0,512.0
499.0,483.0,506.0,522.0
501.0,494.0,502.0,524.0
507.0,489.0,500.0,528.0
506.0,491.0,498.0,529.0
498.0,507.0,500.0,528.0
497.0,526.0,508.0,524.0
503.0,524.0,511.0,521.0
507.0,522.0,514.0,519.0
506.0,520.0,518.0,514.0
510.0,510.0,519.0,512.0
520.0,521.0,522.0,508.0
522.0,514.0,525.0,503.0
523.0,514.0,526.0,501.0
523.0,513.0,523.0,500.0
521.0,505.0,518.0,496.0
515.0,502.0,514.0,499.0
505.0,492.0,504.0,501.0
498.0,493.0,500.0,510.0
497.0,470.0,491.0,510.0
501.0,482.0,489.0,519.0
501.0,495.0,486.0,519.0
502.0,502.0,499.0,518.0
505.0,516.0,500.0,520.0
503.0,520.0,498.0,522.0
503.0,497.0,499.0,521.0
509.0,496.0,513.0,521.0
520.0,500.0,528.0,517.0
526.0,506.0,526.0,509.0
521.0,521.0,521.0,505.0
523.0,521.0,535.0,507.0
522.0,516.0,537.0,511.0
517.0,504.0,533.0,515.0
501.0,480.0,525.0,514.0
497.0,481.0,506.0,509.0
495.0,490.0,493.0,514.0
499.0,497.0,490.0,518.0
501.0,503.0,496.0,522.0
503.0,510.0,493.0,525.0
509.0,506.0,495.0,520.0
511.0,501.0,499.0,514.0
509.0,512.0,504.0,509.0
511.0,503.0,509.0,505.0
515.0,515.0,511.0,502.0
513.0,492.0,513.0,501.0
520.0,483.0,517.0,500.0
525.0,497.0,521.0,503.0
529.0,505.0,520.0,505.0
525.0,499.0,523.0,513.0
519.0,498.0,525.0,514.0
499.0,478.0,523.0,518.0
491.0,506.0,520.0,523.0
498.0,492.0,509.0,528.0
503.0,484.0,500.0,528.0
504.0,483.0,491.0,525.0
511.0,485.0,491.0,529.0
517.0,493.0,495.0,525.0
510.0,501.0,503.0,524.0
511.0,503.0,518.0,525.0
503.0,519.0,534.0,524.0
512.0,529.0,536.0,515.0
524.0,533.0,528.0,507.0
530.0,516.0,518.0,498.0
533.0,530.0,509.0,491.0
536.0,528.0,502.0,484.0
523.0,516.0,500.0,482.0
512.0,499.0,496.0,486.0
494.0,480.0,490.0,491.0
487.0,472.0,482.0,495.0
488.0,496.0,481.0,499.0
501.0,503.0,482.0,500.0
503.0,527.0,485.0,509.0
508.0,525.0,490.0,509.0
510.0,521.0,486.0,503.0
508.0,515.0,489.0,503.0
506.0,503.0,492.0,498.0
513.0,498.0,499.0,499.0
518.0,500.0,506.0,502.0
524.0,505.0,521.0,508.0
529.0,509.0,523.0,506.0
526.0,522.0,531.0,510.0
525.0,523.0,526.0,512.0
524.0,514.0,523.0,511.0
506.0,496.0,517.0,515.0
507.0,508.0,507.0,520.0
510.0,528.0,510.0,524.0
509.0,507.0,508.0,530.0
510.0,508.0,509.0,535.0
505.0,466.0,510.0,530.0
504.0,472.0,502.0,523.0
505.0,531.0,493.0,513.0
510.0,540.0,492.0,508.0
506.0,559.0,500.0,511.0
507.0,512.0,509.0,507.0
508.0,462.0,515.0,506.0
520.0,490.0,518.0,503.0
525.0,501.0,520.0,501.0
524.0,511.0,520.0,500.0
523.0,505.0,520.0,503.0
516.0,506.0,516.0,504.0
500.0,493.0,504.0,503.0
493.0,485.0,497.0,514.0
492.0,496.0,496.0,514.0
495.0,506.0,493.0,518.0
501.0,506.0,491.0,516.0
508.0,501.0,491.0,515.0
510.0,501.0,492.0,512.0
507.0,508.0,493.0,513.0
507.0,503.0,499.0,511.0
508.0,501.0,503.0,505.0
509.0,497.0,513.0,511.0
518.0,495.0,522.0,512.0
526.0,481.0,533.0,516.0
537.0,493.0,537.0,522.0
534.0,498.0,539.0,527.0
529.0,473.0,527.0,533.0
510.0,471.0,522.0,530.0
482.0,515.0,525.0,535.0
488.0,526.0,527.0,541.0
496.0,531.0,530.0,543.0
504.0,536.0,531.0,543.0
503.0,513.0,531.0,534.0
507.0,515.0,508.0,516.0
509.0,519.0,483.0,502.0
512.0,518.0,471.0,492.0
509.0,517.0,473.0,486.0
512.0,516.0,481.0,485.0
513.0,508.0,495.0,486.0
519.0,504.0,502.0,489.0
523.0,495.0,509.0,493.0
520.0,501.0,517.0,493.0
521.0,503.0,518.0,494.0
516.0,491.0,510.0,497.0
506.0,471.0,505.0,505.0
503.0,471.0,496.0,509.0
496.0,474.0,495.0,515.0
502.0,469.0,491.0,520.0
503.0,479.0,489.0,522.0
511.0,481.0,493.0,525.0
517.0,507.0,495.0,522.0
520.0,557.0,502.0,524.0
514.0,551.0,508.0,528.0
505.0,521.0,518.0,521.0
515.0,513.0,526.0,526.0
523.0,518.0,537.0,530.0
532.0,528.0,540.0,522.0
533.0,531.0,533.0,517.0
525.0,480.0,531.0,509.0
515.0,479.0,518.0,501.0
504.0,481.0,511.0,495.0
493.0,472.0,494.0,497.0
491.0,481.0,488.0,504.0
498.0,491.0,487.0,515.0
500.0,495.0,487.0,518.0
499.0,516.0,488.0,518.0
499.0,536.0,497.0,521.0
504.0,552.0,500.0,513.0
509.0,544.0,492.0,515.0
500.0,490.0,500.0,512.0
502.0,476.0,507.0,508.0
510.0,495.0,501.0,498.0
529.0,523.0,507.0,499.0
532.0,529.0,513.0,509.0
531.0,527.0,516.0,518.0
522.0,490.0,523.0,523.0
510.0,494.0,521.0,529.0
511.0,492.0,524.0,529.0
502.0,473.0,523.0,538.0
496.0,476.0,529.0,539.0
494.0,480.0,536.0,542.0
503.0,518.0,537.0,543.0
507.0,518.0,517.0,533.0
515.0,539.0,494.0,515.0
516.0,552.0,472.0,497.0
515.0,539.0,458.0,483.0
510.0,513.0,460.0,472.0
503.0,468.0,470.0,466.0
513.0,498.0,472.0,468.0
517.0,522.0,485.0,475.0
518.0,519.0,502.0,481.0
522.0,515.0,508.0,486.0
527.0,527.0,508.0,494.0
515.0,487.0,504.0,496.0
505.0,474.0,501.0,502.0
501.0,483.0,497.0,504.0
499.0,482.0,488.0,512.0
503.0,497.0,489.0,513.0
505.0,512.0,489.0,518.0
501.0,518.0,489.0,515.0
507.0,521.0,491.0,515.0
511.0,527.0,491.0,513.0
512.0,520.0,491.0,516.0
513.0,509.0,497.0,509.0
518.0,528.0,506.0,508.0
524.0,499.0,511.0,510.0
532.0,522.0,524.0,510.0
531.0,503.0,532.0,512.0
520.0,474.0,534.0,511.0
523.0,493.0,533.0,514.0
526.0,488.0,523.0,518.0
510.0,477.0,512.0,515.0
507.0,467.0,504.0,518.0
508.0,479.0,495.0,519.0
512.0,489.0,490.0,522.0
509.0,519.0,490.0,524.0
505.0,533.0,498.0,527.0
491.0,542.0,502.0,526.0
484.0,528.0,505.0,521.0
493.0,511.0,514.0,525.0
497.0,503.0,522.0,519.0
508.0,490.0,512.0,510.0
515.0,490.0,506.0,500.0
520.0,502.0,507.0,494.0
525.0,502.0,519.0,493.0
522.0,495.0,515.0,496.0
520.0,501.0,510.0,501.0
521.0,513.0,510.0,506.0
506.0,518.0,499.0,509.0
497.0,502.0,495.0,514.0
491.0,460.0,494.0,517.0
492.0,506.0,486.0,513.0
495.0,529.0,490.0,522.0
510.0,521.0,494.0,525.0
519.0,512.0,500.0,533.0
514.0,471.0,507.0,526.0
512.0,455.0,514.0,521.0
503.0,500.0,521.0,521.0
508.0,506.0,541.0,526.0
521.0,513.0,537.0,524.0
520.0,509.0,529.0,510.0
521.0,505.0,509.0,494.0
518.0,520.0,505.0,489.0
519.0,499.0,501.0,490.0
513.0,489.0,501.0,497.0
505.0,477.0,499.0,505.0
505.0,518.0,493.0,510.0
510.0,551.0,485.0,514.0
509.0,562.0,479.0,514.0
513.0,538.0,476.0,512.0
512.0,443.0,482.0,513.0
498.0,437.0,487.0,508.0
503.0,493.0,494.0,506.0
504.0,532.0,507.0,511.0
512.0,521.0,520.0,520.0
518.0,501.0,525.0,518.0
523.0,511.0,522.0,515.0
524.0,524.0,520.0,508.0
528.0,528.0,521.0,507.0
520.0,495.0,519.0,506.0
506.0,493.0,513.0,504.0
490.0,496.0,501.0,510.0
490.0,495.0,497.0,514.0
496.0,480.0,487.0,518.0
504.0,517.0,483.0,521.0
511.0,538.0,491.0,517.0
508.0,556.0,506.0,521.0
522.0,534.0,504.0,517.0
504.0,493.0,492.0,508.0
502.0,530.0,477.0,488.0
516.0,489.0,482.0,487.0
517.0,422.0,485.0,487.0
523.0,455.0,492.0,489.0
528.0,504.0,506.0,500.0
529.0,493.0,515.0,508.0
525.0,478.0,526.0,514.0
514.0,475.0,534.0,518.0
516.0,520.0,537.0,526.0
496.0,534.0,537.0,528.0
483.0,548.0,521.0,524.0
497.0,548.0,496.0,513.0
515.0,539.0,473.0,499.0
517.0,497.0,462.0,497.0
519.0,493.0,471.0,495.0
510.0,477.0,476.0,501.0
523.0,544.0,479.0,507.0
525.0,527.0,491.0,505.0
519.0,500.0,500.0,508.0
518.0,504.0,512.0,511.0
528.0,522.0,523.0,513.0
522.0,519.0,530.0,514.0
517.0,519.0,528.0,509.0
512.0,514.0,524.0,498.0
508.0,498.0,514.0,492.0
481.0,415.0,502.0,494.0
483.0,431.0,494.0,501.0
497.0,481.0,490.0,514.0
500.0,479.0,493.0,518.0
500.0,492.0,491.0,516.0
510.0,515.0,489.0,512.0
513.0,550.0,493.0,508.0
505.0,552.0,486.0,511.0
506.0,553.0,490.0,505.0
508.0,544.0,491.0,503.0
512.0,538.0,512.0,506.0
518.0,521.0,514.0,510.0
527.0,530.0,526.0,508.0
537.0,500.0,528.0,506.0
536.0,513.0,514.0,496.0
537.0,530.0,509.0,492.0
532.0,513.0,503.0,499.0
518.0,518.0,502.0,506.0
499.0,514.0,498.0,512.0
474.0,455.0,492.0,517.0
481.0,471.0,495.0,518.0
485.0,523.0,500.0,520.0
500.0,551.0,503.0,522.0
523.0,558.0,489.0,518.0
527.0,537.0,489.0,516.0
492.0,385.0,500.0,516.0
493.0,417.0,511.0,515.0
502.0,440.0,531.0,520.0
516.0,480.0,548.0,520.0
533.0,507.0,538.0,511.0
520.0,510.0,526.0,502.0
518.0,536.0,504.0,501.0
529.0,513.0,505.0,501.0
531.0,527.0,498.0,507.0
518.0,519.0,500.0,515.0
522.0,519.0,504.0,524.0
519.0,495.0,517.0,528.0
517.0,465.0,513.0,536.0
518.0,499.0,516.0,536.0
518.0,496.0,501.0,518.0
515.0,436.0,482.0,504.0
495.0,408.0,472.0,493.0
512.0,368.0,474.0,486.0
520.0,533.0,488.0,491.0
535.0,619.0,496.0,495.0
516.0,497.0,513.0,504.0
510.0,470.0,515.0,500.0
493.0,528.0,517.0,500.0
502.0,549.0,513.0,498.0
500.0,546.0,509.0,499.0
502.0,571.0,508.0,504.0
503.0,492.0,509.0,510.0
516.0,489.0,502.0,512.0
510.0,534.0,496.0,517.0
513.0,566.0,499.0,523.0
529.0,521.0,500.0,523.0
517.0,499.0,495.0,518.0
488.0,483.0,486.0,506.0
497.0,415.0,481.0,496.0
540.0,421.0,482.0,490.0
550.0,585.0,492.0,495.0
571.0,607.0,504.0,504.0
558.0,613.0,513.0,507.0
516.0,561.0,531.0,517.0
462.0,527.0,547.0,530.0
454.0,510.0,550.0,529.0
479.0,488.0,537.0,519.0
505.0,516.0,516.0,509.0
518.0,539.0,495.0,501.0
513.0,494.0,475.0,498.0
497.0,419.0,468.0,495.0
488.0,487.0,482.0,503.0
493.0,503.0,471.0,500.0
488.0,457.0,473.0,495.0
484.0,434.0,477.0,497.0
489.0,519.0,490.0,502.0
497.0,510.0,506.0,508.0
510.0,472.0,515.0,507.0
485.0,450.0,517.0,502.0
494.0,531.0,511.0,497.0
518.0,585.0,525.0,502.0
525.0,550.0,522.0,513.0
528.0,503.0,524.0,513.0
531.0,480.0,523.0,516.0
533.0,490.0,534.0,517.0
543.0,540.0,536.0,524.0
556.0,579.0,525.0,524.0
538.0,561.0,473.0,501.0
519.0,534.0,450.0,490.0
488.0,404.0,463.0,495.0
462.0,337.0,473.0,495.0
456.0,442.0,465.0,486.0
489.0,572.0,471.0,487.0
512.0,569.0,482.0,494.0
518.0,514.0,497.0,494.0
519.0,500.0,511.0,497.0
517.0,539.0,520.0,501.0
505.0,540.0,524.0,505.0
499.0,513.0,528.0,509.0
498.0,508.0,523.0,515.0
499.0,488.0,514.0,503.0
509.0,465.0,504.0,505.0
486.0,387.0,498.0,506.0
508.0,358.0,493.0,512.0
527.0,407.0,495.0,512.0
566.0,462.0,498.0,514.0
602.0,587.0,498.0,514.0
572.0,497.0,500.0,508.0
537.0,504.0,501.0,507.0
478.0,545.0,494.0,499.0
461.0,529.0,494.0,498.0
464.0,618.0,498.0,493.0
499.0,700.0,504.0,498.0
508.0,511.0,504.0,492.0
500.0,487.0,513.0,494.0
495.0,459.0,519.0,500.0
490.0,470.0,520.0,509.0
496.0,415.0,516.0,511.0
480.0,425.0,544.0,516.0
506.0,499.0,540.0,522.0
522.0,555.0,491.0,517.0
511.0,622.0,486.0,516.0
475.0,585.0,473.0,503.0
453.0,449.0,483.0,502.0
490.0,473.0,494.0,505.0
537.0,492.0,505.0,507.0
544.0,477.0,511.0,508.0
539.0,520.0,502.0,498.0
513.0,507.0,502.0,498.0
503.0,505.0,509.0,496.0
567.0,655.0,518.0,499.0
564.0,631.0,520.0,505.0
548.0,503.0,517.0,499.0
540.0,537.0,511.0,500.0
551.0,599.0,508.0,504.0
553.0,537.0,505.0,511.0
507.0,442.0,498.0,513.0
490.0,514.0,493.0,511.0
496.0,512.0,495.0,509.0
473.0,521.0,483.0,505.0
428.0,369.0,468.0,495.0
451.0,425.0,464.0,488.0
457.0,419.0,476.0,489.0
461.0,423.0,486.0,488.0
472.0,485.0,491.0,486.0
511.0,508.0,500.0,487.0
536.0,477.0,516.0,494.0
553.0,494.0,529.0,505.0
538.0,512.0,536.0,514.0
492.0,430.0,531.0,511.0
466.0,498.0,524.0,508.0
465.0,554.0,520.0,513.0
480.0,508.0,526.0,526.0
506.0,534.0,524.0,531.0
518.0,581.0,502.0,515.0
530.0,556.0,461.0,497.0
519.0,485.0,461.0,491.0
514.0,434.0,471.0,492.0
520.0,483.0,470.0,489.0
539.0,509.0,477.0,480.0
539.0,533.0,486.0,481.0
536.0,438.0,502.0,491.0
517.0,398.0,513.0,496.0
533.0,626.0,518.0,500.0
576.0,663.0,523.0,504.0
578.0,585.0,530.0,507.0
524.0,449.0,526.0,506.0
487.0,429.0,515.0,504.0
458.0,423.0,512.0,507.0
431.0,441.0,501.0,502.0
478.0,540.0,488.0,495.0
508.0,603.0,483.0,496.0
514.0,614.0,484.0,495.0
510.0,521.0,481.0,493.0
484.0,472.0,488.0,499.0
480.0,439.0,490.0,498.0
484.0,498.0,508.0,507.0
494.0,468.0,523.0,514.0
515.0,469.0,540.0,519.0
513.0,471.0,536.0,516.0
506.0,472.0,538.0,514.0
504.0,507.0,535.0,517.0
526.0,546.0,536.0,509.0
530.0,538.0,522.0,509.0
517.0,520.0,514.0,507.0
523.0,491.0,500.0,505.0
534.0,547.0,489.0,501.0
547.0,466.0,482.0,497.0
511.0,369.0,479.0,497.0
525.0,356.0,474.0,500.0
567.0,486.0,478.0,498.0
544.0,406.0,482.0,499.0
475.0,493.0,486.0,494.0
474.0,564.0,498.0,497.0
499.0,627.0,518.0,503.0
497.0,572.0,531.0,516.0
480.0,554.0,540.0,512.0
498.0,550.0,528.0,505.0
529.0,548.0,536.0,507.0
525.0,418.0,521.0,507.0
499.0,470.0,509.0,515.0
499.0,597.0,515.0,518.0
489.0,629.0,517.0,525.0
485.0,492.0,501.0,514.0
499.0,442.0,495.0,510.0
505.0,463.0,497.0,507.0
498.0,473.0,485.0,506.0
483.0,485.0,486.0,502.0
493.0,485.0,491.0,496.0
511.0,502.0,491.0,493.0
515.0,491.0,510.0,501.0
513.0,526.0,524.0,503.0
517.0,523.0,513.0,504.0
533.0,503.0,518.0,500.0
537.0,485.0,517.0,502.0
518.0,380.0,520.0,503.0
528.0,379.0,526.0,509.0
564.0,480.0,521.0,512.0
523.0,504.0,520.0,511.0
514.0,582.0,506.0,517.0
460.0,580.0,501.0,520.0
469.0,639.0,502.0,519.0
494.0,588.0,495.0,511.0
497.0,493.0,488.0,502.0
475.0,423.0,490.0,502.0
506.0,488.0,498.0,504.0
542.0,477.0,500.0,500.0
574.0,457.0,507.0,502.0
571.0,594.0,521.0,506.0
572.0,619.0,518.0,502.0
543.0,512.0,510.0,496.0
502.0,454.0,510.0,498.0
480.0,481.0,510.0,497.0
478.0,440.0,504.0,502.0
472.0,500.0,500.0,506.0
473.0,475.0,491.0,508.0
493.0,536.0,491.0,502.0
502.0,521.0,492.0,507.0
506.0,514.0,493.0,510.0
535.0,581.0,492.0,510.0
545.0,522.0,493.0,506.0
561.0,564.0,494.0,507.0
529.0,371.0,498.0,503.0
516.0,397.0,507.0,504.0
507.0,487.0,518.0,509.0
517.0,589.0,523.0,510.0
513.0,605.0,528.0,508.0
476.0,428.0,537.0,513.0
468.0,493.0,540.0,519.0
483.0,533.0,536.0,518.0
494.0,535.0,524.0,515.0
490.0,526.0,515.0,517.0
495.0,494.0,505.0,516.0
489.0,478.0,500.0,514.0
486.0,473.0,498.0,514.0
512.0,454.0,493.0,515.0
510.0,444.0,499.0,516.0
523.0,504.0,516.0,517.0
522.0,548.0,504.0,504.0
519.0,534.0,490.0,508.0
508.0,532.0,517.0,502.0
513.0,480.0,519.0,502.0
528.0,454.0,505.0,504.0
539.0,496.0,529.0,501.0
547.0,562.0,541.0,516.0
553.0,562.0,531.0,521.0
536.0,518.0,530.0,514.0
501.0,434.0,521.0,511.0
470.0,466.0,509.0,516.0
443.0,503.0,495.0,513.0
486.0,520.0,489.0,514.0
524.0,550.0,486.0,515.0
521.0,559.0,483.0,511.0
505.0,531.0,484.0,504.0
485.0,429.0,491.0,501.0
488.0,450.0,498.0,506.0
491.0,488.0,508.0,511.0
519.0,519.0,514.0,506.0
530.0,500.0,526.0,506.0
539.0,516.0,536.0,509.0
551.0,539.0,530.0,504.0
542.0,570.0,519.0,500.0
537.0,514.0,509.0,501.0
523.0,626.0,502.0,499.0
483.0,466.0,494.0,501.0
436.0,313.0,491.0,505.0
469.0,445.0,489.0,508.0
510.0,550.0,500.0,513.0
514.0,494.0,496.0,513.0
506.0,462.0,495.0,515.0
526.0,475.0,503.0,520.0
523.0,520.0,507.0,521.0
522.0,541.0,506.0,516.0
536.0,561.0,519.0,517.0
541.0,540.0,540.0,520.0
528.0,492.0,556.0,528.0
529.0,479.0,549.0,518.0
528.0,470.0,530.0,511.0
521.0,584.0,520.0,513.0
489.0,521.0,515.0,508.0
485.0,531.0,518.0,506.0
501.0,488.0,507.0,507.0
507.0,441.0,491.0,509.0
509.0,518.0,482.0,508.0
494.0,561.0,483.0,518.0
496.0,459.0,485.0,514.0
525.0,463.0,489.0,510.0
536.0,493.0,485.0,503.0
500.0,507.0,486.0,499.0
486.0,464.0,492.0,498.0
525.0,450.0,500.0,500.0
547.0,503.0,512.0,503.0
567.0,536.0,518.0,502.0
559.0,639.0,529.0,504.0
508.0,559.0,531.0,508.0
495.0,496.0,525.0,509.0
484.0,502.0,525.0,512.0
477.0,499.0,527.0,517.0
500.0,534.0,528.0,520.0
518.0,574.0,506.0,521.0
510.0,478.0,506.0,522.0
504.0,548.0,526.0,532.0
482.0,507.0,508.0,529.0
493.0,440.0,496.0,524.0
544.0,520.0,528.0,524.0
556.0,545.0,538.0,520.0
543.0,514.0,532.0,513.0
483.0,475.0,516.0,505.0
449.0,373.0,497.0,501.0
483.0,462.0,502.0,508.0
501.0,457.0,509.0,502.0
508.0,450.0,525.0,509.0
497.0,424.0,521.0,507.0
500.0,378.0,521.0,511.0
491.0,434.0,529.0,523.0
489.0,542.0,528.0,525.0
495.0,635.0,532.0,517.0
493.0,628.0,505.0,516.0
493.0,557.0,487.0,518.0
501.0,556.0,496.0,516.0
534.0,516.0,491.0,512.0
553.0,513.0,488.0,510.0
524.0,435.0,483.0,508.0
510.0,408.0,494.0,500.0
502.0,506.0,507.0,507.0
492.0,582.0,520.0,512.0
521.0,539.0,530.0,506.0
541.0,549.0,525.0,507.0
535.0,534.0,516.0,508.0
537.0,496.0,516.0,508.0
543.0,484.0,511.0,509.0
531.0,493.0,508.0,511.0
525.0,536.0,508.0,522.0
511.0,551.0,501.0,524.0
466.0,487.0,504.0,523.0
456.0,489.0,509.0,524.0
493.0,498.0,510.0,527.0
500.0,507.0,520.0,526.0
525.0,543.0,514.0,520.0
514.0,518.0,503.0,511.0
506.0,469.0,499.0,507.0
516.0,426.0,510.0,504.0
532.0,498.0,517.0,503.0
534.0,513.0,513.0,497.0
530.0,573.0,506.0,497.0
542.0,541.0,505.0,495.0
554.0,541.0,519.0,505.0
545.0,599.0,508.0,508.0
500.0,480.0,497.0,509.0
466.0,428.0,501.0,520.0
475.0,451.0,505.0,521.0
480.0,486.0,508.0,525.0
492.0,507.0,514.0,528.0
509.0,474.0,530.0,533.0
518.0,484.0,536.0,536.0
527.0,501.0,513.0,521.0
536.0,533.0,526.0,520.0
536.0,561.0,528.0,512.0
539.0,537.0,509.0,502.0
510.0,456.0,507.0,504.0
515.0,474.0,512.0,502.0
516.0,473.0,515.0,502.0
523.0,485.0,510.0,499.0
507.0,438.0,502.0,501.0
475.0,481.0,498.0,506.0
488.0,535.0,495.0,510.0
504.0,549.0,499.0,514.0
505.0,510.0,496.0,518.0
510.0,533.0,501.0,518.0
516.0,538.0,499.0,518.0
508.0,493.0,501.0,517.0
516.0,456.0,507.0,509.0
512.0,521.0,510.0,509.0
529.0,534.0,506.0,509.0
531.0,551.0,518.0,510.0
541.0,502.0,527.0,513.0
546.0,526.0,521.0,508.0
506.0,509.0,523.0,503.0
486.0,503.0,521.0,503.0
504.0,494.0,517.0,505.0
526.0,460.0,516.0,509.0
548.0,473.0,510.0,514.0
561.0,513.0,507.0,518.0
547.0,429.0,511.0,526.0
533.0,527.0,517.0,529.0
462.0,556.0,517.0,527.0
453.0,482.0,515.0,523.0
474.0,493.0,522.0,523.0
476.0,503.0,514.0,522.0
500.0,548.0,495.0,514.0
513.0,574.0,496.0,501.0
519.0,590.0,498.0,502.0
507.0,508.0,508.0,493.0
507.0,486.0,515.0,498.0
514.0,530.0,521.0,501.0
523.0,540.0,521.0,505.0
523.0,539.0,524.0,512.0
501.0,365.0,512.0,512.0
496.0,455.0,510.0,516.0
525.0,531.0,503.0,512.0
529.0,443.0,501.0,515.0
504.0,448.0,497.0,517.0
504.0,571.0,495.0,519.0
511.0,508.0,497.0,514.0
484.0,467.0,498.0,512.0
495.0,468.0,494.0,512.0
521.0,481.0,523.0,514.0
541.0,540.0,525.0,510.0
553.0,553.0,507.0,502.0
539.0,567.0,520.0,502.0
507.0,523.0,529.0,511.0
492.0,508.0,532.0,509.0
504.0,532.0,526.0,509.0
505.0,506.0,528.0,515.0
497.0,441.0,532.0,521.0
486.0,440.0,524.0,523.0
491.0,434.0,510.0,525.0
497.0,501.0,497.0,524.0
499.0,500.0,495.0,516.0
510.0,514.0,494.0,513.0
531.0,568.0,506.0,516.0
532.0,567.0,510.0,516.0
521.0,532.0,505.0,512.0
509.0,532.0,514.0,510.0
490.0,538.0,514.0,509.0
501.0,541.0,519.0,513.0
505.0,524.0,542.0,511.0
505.0,447.0,527.0,509.0
513.0,446.0,527.0,508.0
521.0,467.0,524.0,513.0
508.0,455.0,510.0,512.0
503.0,465.0,497.0,505.0
497.0,510.0,489.0,511.0
486.0,484.0,520.0,520.0
504.0,538.0,514.0,527.0
517.0,577.0,494.0,519.0
522.0,562.0,491.0,512.0
509.0,525.0,494.0,516.0
500.0,426.0,506.0,525.0
496.0,445.0,517.0,523.0
509.0,507.0,516.0,513.0
525.0,480.0,527.0,511.0
548.0,478.0,533.0,518.0
583.0,500.0,544.0,525.0
551.0,541.0,534.0,521.0
538.0,522.0,518.0,508.0
537.0,549.0,512.0,504.0
495.0,625.0,510.0,504.0
472.0,481.0,509.0,513.0
477.0,342.0,503.0,514.0
514.0,460.0,494.0,512.0
506.0,468.0,491.0,512.0
522.0,515.0,498.0,512.0
516.0,555.0,489.0,513.0
507.0,616.0,480.0,506.0
493.0,526.0,491.0,497.0
479.0,429.0,493.0,491.0
493.0,495.0,490.0,497.0
509.0,485.0,504.0,507.0
514.0,472.0,513.0,501.0
516.0,471.0,523.0,506.0
536.0,614.0,529.0,510.0
547.0,646.0,529.0,506.0
519.0,574.0,518.0,510.0
478.0,371.0,513.0,513.0
502.0,501.0,507.0,517.0
510.0,499.0,508.0,517.0
546.0,507.0,507.0,523.0
546.0,474.0,505.0,522.0
545.0,480.0,495.0,518.0
521.0,471.0,494.0,512.0
468.0,482.0,507.0,515.0
474.0,525.0,506.0,514.0
511.0,482.0,504.0,507.0
527.0,471.0,510.0,502.0
513.0,495.0,522.0,503.0
513.0,512.0,532.0,508.0
525.0,527.0,534.0,513.0
532.0,496.0,531.0,514.0
529.0,485.0,539.0,522.0
488.0,493.0,549.0,524.0
475.0,515.0,518.0,519.0
487.0,534.0,500.0,517.0
488.0,571.0,490.0,513.0
495.0,563.0,490.0,511.0
510.0,537.0,490.0,515.0
511.0,533.0,492.0,512.0
519.0,554.0,488.0,511.0
518.0,503.0,499.0,509.0
517.0,495.0,512.0,507.0
507.0,499.0,516.0,504.0
503.0,524.0,531.0,519.0
514.0,542.0,538.0,519.0
522.0,530.0,530.0,508.0
520.0,506.0,522.0,510.0
516.0,497.0,528.0,513.0
509.0,486.0,525.0,518.0
495.0,474.0,526.0,522.0
489.0,461.0,539.0,524.0
495.0,479.0,522.0,525.0
494.0,477.0,495.0,517.0
504.0,494.0,483.0,509.0
515.0,509.0,485.0,513.0
512.0,503.0,487.0,508.0
518.0,523.0,493.0,505.0
515.0,514.0,500.0,511.0
501.0,475.0,510.0,510.0
517.0,493.0,519.0,510.0
525.0,488.0,516.0,509.0
522.0,497.0,516.0,507.0
512.0,486.0,555.0,516.0
514.0,514.0,559.0,520.0
516.0,507.0,517.0,512.0
518.0,505.0,507.0,507.0
501.0,477.0,507.0,510.0
493.0,482.0,498.0,513.0
497.0,500.0,497.0,516.0
495.0,514.0,494.0,524.0
499.0,511.0,497.0,519.0
497.0,501.0,492.0,517.0
502.0,495.0,493.0,511.0
496.0,474.0,493.0,508.0
502.0,463.0,495.0,505.0
507.0,476.0,512.0,512.0
519.0,527.0,536.0,514.0
523.0,553.0,524.0,511.0
537.0,565.0,513.0,501.0
545.0,418.0,528.0,507.0
533.0,448.0,548.0,518.0
523.0,468.0,528.0,511.0
516.0,401.0,508.0,511.0
503.0,492.0,504.0,516.0
494.0,555.0,507.0,522.0
489.0,588.0,504.0,525.0
512.0,632.0,509.0,525.0
511.0,510.0,508.0,523.0
525.0,505.0,499.0,521.0
525.0,485.0,512.0,520.0
503.0,511.0,527.0,525.0
503.0,505.0,507.0,518.0
506.0,471.0,509.0,508.0
505.0,483.0,501.0,501.0
527.0,458.0,495.0,515.0
528.0,399.0,549.0,509.0
532.0,508.0,545.0,521.0
524.0,544.0,532.0,523.0
507.0,562.0,522.0,513.0
512.0,574.0,514.0,514.0
500.0,522.0,506.0,512.0
485.0,482.0,495.0,514.0
484.0,512.0,497.0,517.0
507.0,497.0,498.0,518.0
543.0,532.0,502.0,524.0
551.0,561.0,505.0,521.0
558.0,580.0,507.0,516.0
525.0,462.0,515.0,518.0
491.0,458.0,508.0,512.0
498.0,505.0,506.0,504.0
525.0,474.0,521.0,508.0
523.0,486.0,528.0,511.0
545.0,511.0,538.0,513.0
554.0,513.0,528.0,510.0
528.0,505.0,522.0,511.0
508.0,527.0,518.0,511.0
483.0,454.0,516.0,520.0
487.0,499.0,512.0,519.0
491.0,523.0,502.0,517.0
477.0,534.0,500.0,520.0
490.0,559.0,495.0,518.0
502.0,530.0,498.0,521.0
506.0,534.0,503.0,518.0
511.0,555.0,502.0,514.0
513.0,522.0,504.0,511.0
513.0,514.0,509.0,508.0
507.0,503.0,510.0,506.0
518.0,498.0,520.0,507.0
523.0,497.0,528.0,504.0
528.0,512.0,534.0,511.0
516.0,481.0,536.0,514.0
517.0,487.0,524.0,513.0
507.0,505.0,517.0,514.0
502.0,476.0,519.0,513.0
498.0,481.0,514.0,522.0
495.0,488.0,497.0,522.0
500.0,499.0,508.0,524.0
506.0,519.0,507.0,523.0
515.0,543.0,490.0,515.0
516.0,525.0,496.0,512.0
513.0,510.0,499.0,510.0
509.0,519.0,504.0,506.0
506.0,529.0,511.0,508.0
523.0,536.0,516.0,508.0
526.0,502.0,525.0,515.0
519.0,469.0,532.0,511.0
527.0,486.0,532.0,513.0
517.0,492.0,529.0,511.0
514.0,497.0,530.0,513.0
501.0,491.0,519.0,513.0
497.0,480.0,514.0,521.0
496.0,488.0,511.0,520.0
501.0,486.0,491.0,520.0
511.0,501.0,501.0,522.0
511.0,509.0,512.0,520.0
513.0,506.0,501.0,521.0
508.0,529.0,506.0,522.0
511.0,539.0,515.0,519.0
505.0,453.0,502.0,511.0
513.0,478.0,520.0,510.0
520.0,475.0,523.0,509.0
536.0,462.0,526.0,511.0
539.0,456.0,537.0,512.0
540.0,479.0,531.0,510.0
538.0,535.0,525.0,519.0
523.0,520.0,522.0,515.0
486.0,549.0,514.0,517.0
483.0,511.0,516.0,522.0
505.0,490.0,512.0,524.0
507.0,499.0,502.0,521.0
498.0,554.0,508.0,520.0
492.0,470.0,499.0,520.0
493.0,493.0,488.0,511.0
498.0,470.0,494.0,513.0
508.0,490.0,501.0,511.0
504.0,486.0,507.0,511.0
512.0,532.0,508.0,507.0
513.0,581.0,521.0,511.0
532.0,593.0,537.0,519.0
531.0,565.0,543.0,523.0
510.0,482.0,531.0,517.0
510.0,426.0,517.0,503.0
508.0,497.0,516.0,510.0
498.0,505.0,511.0,514.0
483.0,469.0,497.0,519.0
497.0,480.0,499.0,519.0
505.0,502.0,500.0,522.0
505.0,514.0,500.0,522.0
498.0,511.0,500.0,517.0
493.0,503.0,502.0,518.0
496.0,483.0,503.0,514.0
501.0,473.0,504.0,513.0
519.0,529.0,508.0,510.0
538.0,517.0,517.0,510.0
564.0,482.0,525.0,510.0
572.0,426.0,531.0,512.0
554.0,379.0,532.0,513.0
528.0,477.0,530.0,514.0
507.0,566.0,522.0,511.0
476.0,599.0,517.0,513.0
491.0,549.0,512.0,519.0
489.0,495.0,509.0,521.0
491.0,504.0,500.0,522.0
493.0,536.0,500.0,523.0
510.0,560.0,499.0,525.0
508.0,549.0,510.0,519.0
507.0,525.0,507.0,515.0
510.0,504.0,503.0,511.0
507.0,527.0,509.0,511.0
510.0,480.0,509.0,510.0
519.0,544.0,517.0,507.0
517.0,534.0,526.0,509.0
528.0,502.0,529.0,509.0
531.0,506.0,528.0,512.0
522.0,526.0,526.0,514.0
514.0,484.0,524.0,514.0
503.0,481.0,514.0,517.0
499.0,517.0,509.0,515.0
503.0,526.0,505.0,520.0
510.0,492.0,501.0,520.0
504.0,484.0,500.0,522.0
511.0,529.0,500.0,523.0
513.0,542.0,501.0,517.0
510.0,538.0,499.0,515.0
503.0,472.0,509.0,518.0
504.0,480.0,510.0,515.0
515.0,501.0,515.0,508.0
525.0,503.0,520.0,513.0
528.0,507.0,526.0,511.0
532.0,514.0,532.0,515.0
531.0,494.0,526.0,511.0
528.0,495.0,527.0,514.0
518.0,492.0,516.0,517.0
503.0,493.0,505.0,517.0
493.0,470.0,514.0,513.0
499.0,478.0,507.0,522.0
506.0,498.0,497.0,523.0
509.0,509.0,499.0,522.0
513.0,523.0,498.0,518.0
514.0,532.0,498.0,517.0
515.0,514.0,505.0,514.0
516.0,511.0,509.0,513.0
514.0,510.0,513.0,512.0
524.0,506.0,520.0,513.0
531.0,518.0,526.0,513.0
526.0,519.0,532.0,512.0
520.0,514.0,538.0,518.0
515.0,499.0,537.0,512.0
514.0,501.0,522.0,512.0
497.0,482.0,508.0,516.0
491.0,483.0,510.0,521.0
491.0,484.0,526.0,521.0
496.0,491.0,499.0,524.0
500.0,500.0,494.0,524.0
507.0,503.0,503.0,521.0
502.0,502.0,502.0,523.0
497.0,513.0,501.0,516.0
503.0,522.0,500.0,515.0
509.0,510.0,507.0,513.0
515.0,510.0,511.0,512.0
523.0,511.0,522.0,513.0
523.0,509.0,530.0,510.0
526.0,507.0,532.0,517.0
520.0,501.0,532.0,516.0
517.0,492.0,529.0,513.0
515.0,508.0,526.0,513.0
497.0,490.0,516.0,518.0
505.0,476.0,512.0,522.0
504.0,475.0,506.0,524.0
511.0,506.0,506.0,527.0
513.0,528.0,505.0,526.0
514.0,516.0,505.0,524.0
503.0,466.0,503.0,520.0
513.0,516.0,503.0,519.0
511.0,497.0,507.0,511.0
517.0,509.0,513.0,512.0
514.0,517.0,518.0,512.0
513.0,507.0,527.0,511.0
521.0,491.0,533.0,514.0
527.0,502.0,536.0,516.0
519.0,506.0,531.0,515.0
522.0,504.0,529.0,514.0
511.0,518.0,527.0,517.0
502.0,514.0,515.0,519.0
496.0,500.0,511.0,521.0
503.0,487.0,505.0,523.0
501.0,489.0,503.0,525.0
505.0,496.0,504.0,524.0
513.0,506.0,500.0,522.0
514.0,503.0,503.0,522.0
513.0,508.0,506.0,518.0
516.0,498.0,507.0,514.0
512.0,517.0,513.0,513.0
520.0,531.0,519.0,513.0
525.0,523.0,529.0,514.0
523.0,505.0,534.0,514.0
524.0,495.0,536.0,515.0
518.0,485.0,530.0,515.0
516.0,492.0,526.0,516.0
498.0,484.0,522.0,517.0
500.0,497.0,515.0,519.0
502.0,523.0,509.0,521.0
511.0,529.0,505.0,525.0
516.0,516.0,505.0,525.0
509.0,492.0,500.0,523.0
495.0,484.0,503.0,518.0
500.0,509.0,505.0,518.0
509.0,502.0,506.0,516.0
512.0,502.0,510.0,513.0
513.0,501.0,518.0,510.0
531.0,519.0,525.0,512.0
523.0,520.0,533.0,513.0
528.0,534.0,535.0,514.0
525.0,542.0,535.0,513.0
524.0,521.0,531.0,513.0
514.0,505.0,527.0,516.0
477.0,476.0,513.0,519.0
461.0,477.0,513.0,521.0
461.0,488.0,508.0,521.0
478.0,507.0,505.0,524.0
479.0,511.0,502.0,525.0
489.0,505.0,501.0,522.0
490.0,500.0,497.0,518.0
510.0,523.0,505.0,516.0
526.0,521.0,505.0,514.0
525.0,524.0,513.0,509.0
519.0,508.0,519.0,511.0
528.0,491.0,526.0,510.0
543.0,507.0,531.0,512.0
540.0,508.0,535.0,512.0
526.0,507.0,532.0,510.0
523.0,526.0,530.0,515.0
514.0,498.0,524.0,514.0
505.0,493.0,514.0,517.0
503.0,497.0,508.0,521.0
505.0,504.0,506.0,525.0
506.0,509.0,504.0,527.0
512.0,516.0,503.0,521.0
524.0,517.0,503.0,520.0
533.0,522.0,505.0,518.0
525.0,521.0,505.0,516.0
513.0,512.0,508.0,514.0
519.0,523.0,511.0,510.0
515.0,498.0,517.0,511.0
524.0,504.0,528.0,511.0
528.0,506.0,533.0,513.0
531.0,504.0,536.0,513.0
527.0,497.0,532.0,512.0
520.0,499.0,528.0,513.0
509.0,487.0,520.0,518.0
502.0,493.0,514.0,519.0
501.0,492.0,504.0,522.0
506.0,500.0,506.0,523.0
511.0,506.0,501.0,524.0
514.0,503.0,504.0,526.0
520.0,503.0,500.0,518.0
519.0,509.0,505.0,518.0
519.0,507.0,507.0,514.0
516.0,520.0,511.0,510.0
520.0,531.0,517.0,514.0
532.0,522.0,525.0,510.0
537.0,515.0,531.0,513.0
535.0,513.0,536.0,513.0
529.0,511.0,536.0,515.0
523.0,505.0,530.0,514.0
518.0,501.0,528.0,515.0
504.0,489.0,522.0,518.0
498.0,489.0,514.0,521.0
505.0,494.0,509.0,521.0
504.0,499.0,506.0,525.0
512.0,508.0,505.0,521.0
509.0,514.0,508.0,523.0
507.0,507.0,506.0,519.0
510.0,500.0,505.0,519.0
506.0,492.0,508.0,510.0
508.0,500.0,512.0,512.0
518.0,528.0,521.0,509.0
527.0,540.0,528.0,513.0
532.0,544.0,534.0,512.0
522.0,493.0,537.0,513.0
520.0,493.0,530.0,512.0
518.0,503.0,531.0,514.0
515.0,498.0,524.0,515.0
500.0,481.0,518.0,514.0
500.0,480.0,511.0,520.0
498.0,496.0,508.0,523.0
507.0,508.0,506.0,520.0
509.0,514.0,504.0,524.0
509.0,535.0,504.0,518.0
508.0,518.0,503.0,517.0
512.0,523.0,507.0,513.0
510.0,504.0,508.0,510.0
515.0,506.0,517.0,504.0
525.0,508.0,522.0,510.0
529.0,517.0,530.0,509.0
530.0,523.0,535.0,509.0
530.0,505.0,536.0,510.0
516.0,472.0,533.0,508.0
519.0,476.0,528.0,510.0
500.0,451.0,521.0,515.0
491.0,463.0,515.0,517.0
491.0,528.0,510.0,518.0
499.0,533.0,504.0,522.0
503.0,528.0,505.0,520.0
506.0,521.0,502.0,521.0
506.0,516.0,501.0,518.0
513.0,532.0,503.0,514.0
514.0,533.0,505.0,509.0
509.0,535.0,509.0,507.0
516.0,509.0,517.0,508.0
520.0,493.0,525.0,505.0
528.0,502.0,534.0,507.0
528.0,497.0,536.0,508.0
526.0,494.0,535.0,511.0
520.0,495.0,532.0,510.0
509.0,500.0,529.0,507.0
499.0,497.0,518.0,513.0
498.0,496.0,513.0,517.0
497.0,498.0,510.0,520.0
501.0,502.0,507.0,522.0
500.0,511.0,502.0,521.0
507.0,518.0,500.0,519.0
504.0,510.0,505.0,516.0
508.0,511.0,506.0,514.0
508.0,511.0,505.0,508.0
514.0,508.0,513.0,507.0
518.0,514.0,520.0,504.0
526.0,517.0,528.0,505.0
530.0,517.0,531.0,505.0
530.0,515.0,538.0,509.0
519.0,503.0,535.0,508.0
512.0,501.0,531.0,509.0
503.0,491.0,527.0,510.0
494.0,491.0,518.0,515.0
492.0,497.0,514.0,522.0
497.0,503.0,509.0,519.0
499.0,507.0,507.0,523.0
501.0,507.0,507.0,521.0
506.0,511.0,506.0,516.0
504.0,512.0,506.0,513.0
511.0,514.0,508.0,512.0
507.0,507.0,512.0,509.0
509.0,514.0,519.0,506.0
520.0,515.0,525.0,507.0
531.0,514.0,533.0,509.0
528.0,513.0,537.0,508.0
527.0,507.0,539.0,509.0
519.0,498.0,536.0,509.0
521.0,499.0,534.0,511.0
506.0,488.0,526.0,511.0
503.0,484.0,518.0,512.0
502.0,495.0,513.0,518.0
505.0,504.0,506.0,522.0
506.0,513.0,511.0,523.0
513.0,508.0,505.0,520.0
509.0,505.0,506.0,517.0
519.0,515.0,507.0,515.0
512.0,511.0,508.0,513.0
512.0,482.0,513.0,510.0
519.0,486.0,519.0,504.0
523.0,490.0,530.0,509.0
532.0,504.0,538.0,508.0
531.0,529.0,539.0,507.0
526.0,527.0,539.0,511.0
523.0,500.0,536.0,509.0
520.0,503.0,533.0,513.0
507.0,496.0,524.0,514.0
496.0,495.0,519.0,517.0
496.0,502.0,512.0,521.0
507.0,508.0,509.0,521.0
502.0,511.0,509.0,520.0
510.0,526.0,510.0,521.0
505.0,514.0,507.0,517.0
509.0,520.0,508.0,516.0
514.0,521.0,509.0,511.0
515.0,517.0,516.0,509.0
519.0,509.0,528.0,508.0
523.0,505.0,533.0,511.0
528.0,510.0,539.0,509.0
526.0,504.0,543.0,506.0
523.0,498.0,539.0,510.0
518.0,472.0,537.0,509.0
512.0,467.0,529.0,513.0
503.0,484.0,520.0,515.0
498.0,504.0,515.0,521.0
506.0,533.0,512.0,522.0
506.0,552.0,513.0,525.0
500.0,494.0,507.0,523.0
506.0,540.0,511.0,522.0
506.0,546.0,516.0,516.0
508.0,546.0,518.0,514.0
509.0,509.0,509.0,505.0
508.0,468.0,518.0,504.0
512.0,493.0,522.0,501.0
519.0,505.0,531.0,502.0
524.0,503.0,537.0,501.0
526.0,477.0,541.0,502.0
519.0,437.0,533.0,506.0
509.0,459.0,532.0,507.0
496.0,478.0,523.0,508.0
495.0,512.0,517.0,512.0
501.0,504.0,508.0,513.0
504.0,502.0,505.0,518.0
505.0,518.0,501.0,518.0
504.0,509.0,505.0,517.0
497.0,527.0,503.0,512.0
507.0,537.0,505.0,511.0
508.0,530.0,508.0,507.0
502.0,524.0,509.0,504.0
508.0,516.0,521.0,502.0
523.0,522.0,528.0,502.0
528.0,527.0,536.0,503.0
526.0,521.0,542.0,504.0
525.0,519.0,542.0,505.0
518.0,508.0,537.0,504.0
514.0,496.0,533.0,508.0
500.0,490.0,525.0,511.0
497.0,491.0,514.0,514.0
498.0,500.0,510.0,516.0
503.0,508.0,507.0,518.0
505.0,518.0,505.0,519.0
512.0,519.0,504.0,514.0
507.0,513.0,502.0,513.0
509.0,516.0,503.0,515.0
510.0,507.0,504.0,507.0
514.0,504.0,517.0,506.0
518.0,505.0,523.0,503.0
524.0,507.0,528.0,505.0
531.0,509.0,538.0,503.0
533.0,506.0,541.0,507.0
525.0,498.0,538.0,507.0
518.0,498.0,535.0,506.0
507.0,487.0,529.0,510.0
498.0,492.0,520.0,511.0
491.0,496.0,513.0,516.0
498.0,500.0,507.0,519.0
502.0,502.0,504.0,520.0
504.0,509.0,502.0,521.0
506.0,508.0,503.0,518.0
501.0,506.0,503.0,513.0
508.0,509.0,506.0,510.0
504.0,502.0,511.0,507.0
505.0,509.0,517.0,506.0
514.0,519.0,527.0,505.0
522.0,515.0,533.0,506.0
527.0,520.0,538.0,502.0
526.0,513.0,541.0,512.0
516.0,496.0,537.0,505.0
517.0,496.0,532.0,507.0
502.0,488.0,524.0,511.0
502.0,498.0,517.0,510.0
503.0,489.0,510.0,519.0
508.0,498.0,506.0,520.0
514.0,494.0,502.0,522.0
512.0,494.0,501.0,520.0
510.0,499.0,499.0,518.0
514.0,506.0,504.0,514.0
515.0,529.0,504.0,508.0
512.0,530.0,514.0,506.0
520.0,516.0,521.0,504.0
525.0,526.0,531.0,506.0
528.0,511.0,536.0,509.0
527.0,507.0,540.0,504.0
522.0,502.0,539.0,504.0
516.0,496.0,530.0,504.0
512.0,499.0,528.0,507.0
496.0,489.0,522.0,513.0
496.0,487.0,513.0,517.0
498.0,490.0,502.0,519.0
501.0,496.0,504.0,520.0
504.0,499.0,504.0,521.0
507.0,523.0,501.0,519.0
506.0,505.0,496.0,515.0
508.0,498.0,503.0,513.0
510.0,501.0,504.0,509.0
507.0,504.0,514.0,509.0
511.0,503.0,524.0,507.0
524.0,529.0,531.0,506.0
531.0,528.0,535.0,507.0
533.0,515.0,543.0,511.0
526.0,505.0,540.0,506.0
519.0,498.0,535.0,510.0
509.0,481.0,527.0,512.0
498.0,478.0,520.0,515.0
496.0,475.0,513.0,518.0
501.0,477.0,507.0,521.0
507.0,485.0,505.0,522.0
507.0,481.0,502.0,521.0
514.0,485.0,504.0,521.0
508.0,519.0,504.0,519.0
513.0,552.0,510.0,519.0
508.0,555.0,512.0,514.0
512.0,533.0,521.0,507.0
521.0,537.0,526.0,506.0
529.0,533.0,532.0,505.0
533.0,528.0,536.0,508.0
527.0,503.0,539.0,508.0
509.0,478.0,535.0,510.0
507.0,506.0,530.0,512.0
502.0,504.0,523.0,513.0
502.0,499.0,516.0,516.0
495.0,504.0,507.0,520.0
497.0,518.0,505.0,521.0
510.0,536.0,501.0,518.0
509.0,539.0,499.0,517.0
509.0,543.0,498.0,510.0
514.0,550.0,500.0,504.0
510.0,513.0,500.0,500.0
506.0,464.0,502.0,492.0
512.0,474.0,507.0,490.0
522.0,488.0,514.0,491.0
532.0,496.0,521.0,493.0
526.0,508.0,530.0,495.0
527.0,511.0,529.0,495.0
514.0,490.0,520.0,498.0
514.0,486.0,522.0,501.0
500.0,477.0,514.0,504.0
496.0,483.0,506.0,506.0
495.0,481.0,499.0,513.0
500.0,505.0,499.0,516.0
499.0,508.0,498.0,517.0
511.0,503.0,495.0,514.0
505.0,503.0,497.0,516.0
508.0,506.0,502.0,512.0
505.0,504.0,504.0,510.0
509.0,512.0,511.0,506.0
517.0,524.0,519.0,506.0
524.0,527.0,525.0,508.0
532.0,524.0,533.0,500.0
530.0,516.0,536.0,499.0
519.0,493.0,535.0,503.0
515.0,492.0,532.0,500.0
509.0,486.0,526.0,505.0
495.0,481.0,516.0,511.0
494.0,494.0,508.0,515.0
502.0,507.0,500.0,514.0
503.0,514.0,497.0,517.0
507.0,507.0,494.0,517.0
511.0,514.0,498.0,514.0
507.0,525.0,497.0,513.0
513.0,515.0,500.0,512.0
512.0,515.0,505.0,507.0
515.0,516.0,513.0,507.0
520.0,511.0,517.0,506.0
526.0,492.0,532.0,506.0
529.0,497.0,535.0,506.0
529.0,502.0,538.0,508.0
516.0,489.0,534.0,512.0
514.0,492.0,540.0,510.0
499.0,486.0,522.0,512.0
497.0,478.0,516.0,513.0
494.0,498.0,510.0,518.0
499.0,502.0,503.0,520.0
506.0,507.0,496.0,517.0
511.0,518.0,496.0,515.0
509.0,517.0,496.0,511.0
506.0,518.0,500.0,512.0
507.0,519.0,499.0,509.0
508.0,503.0,507.0,504.0
517.0,502.0,515.0,501.0
523.0,511.0,524.0,503.0
525.0,518.0,533.0,506.0
526.0,506.0,538.0,504.0
528.0,501.0,536.0,506.0
517.0,492.0,532.0,507.0
517.0,491.0,528.0,507.0
493.0,481.0,519.0,513.0
497.0,483.0,508.0,514.0
502.0,491.0,503.0,521.0
507.0,507.0,502.0,520.0
511.0,516.0,497.0,519.0
520.0,555.0,501.0,521.0
502.0,485.0,496.0,517.0
509.0,492.0,501.0,513.0
502.0,511.0,505.0,510.0
510.0,512.0,510.0,508.0
518.0,516.0,518.0,506.0
527.0,516.0,526.0,503.0
533.0,515.0,532.0,506.0
535.0,508.0,539.0,506.0
526.0,501.0,535.0,513.0
519.0,497.0,527.0,507.0
506.0,493.0,522.0,510.0
494.0,488.0,515.0,514.0
490.0,492.0,508.0,519.0
493.0,506.0,503.0,517.0
498.0,512.0,498.0,522.0
500.0,516.0,500.0,519.0
506.0,516.0,498.0,520.0
500.0,506.0,499.0,513.0
505.0,515.0,504.0,514.0
507.0,520.0,501.0,508.0
513.0,523.0,509.0,506.0
520.0,528.0,520.0,504.0
522.0,518.0,528.0,507.0
527.0,526.0,532.0,506.0
530.0,516.0,538.0,506.0
515.0,471.0,534.0,507.0
518.0,477.0,528.0,509.0
504.0,468.0,521.0,514.0
498.0,478.0,512.0,515.0
499.0,486.0,505.0,518.0
507.0,498.0,503.0,522.0
508.0,496.0,500.0,522.0
509.0,497.0,498.0,519.0
508.0,504.0,494.0,519.0
509.0,511.0,496.0,513.0
512.0,513.0,499.0,512.0
508.0,508.0,508.0,509.0
515.0,520.0,517.0,510.0
519.0,530.0,527.0,508.0
524.0,507.0,533.0,509.0
525.0,491.0,542.0,511.0
520.0,500.0,543.0,510.0
508.0,495.0,533.0,512.0
513.0,510.0,528.0,512.0
498.0,482.0,514.0,514.0
493.0,492.0,509.0,515.0
499.0,508.0,504.0,520.0
500.0,516.0,497.0,520.0
506.0,516.0,495.0,517.0
511.0,522.0,494.0,515.0
506.0,513.0,493.0,513.0
511.0,520.0,495.0,516.0
509.0,508.0,502.0,507.0
512.0,500.0,505.0,508.0
517.0,507.0,512.0,503.0
523.0,498.0,520.0,503.0
529.0,493.0,526.0,500.0
531.0,520.0,534.0,504.0
527.0,522.0,532.0,504.0
519.0,516.0,527.0,505.0
520.0,518.0,522.0,510.0
508.0,493.0,511.0,514.0
498.0,486.0,506.0,517.0
498.0,500.0,501.0,519.0
505.0,505.0,497.0,520.0
505.0,513.0,497.0,522.0
508.0,511.0,501.0,520.0
499.0,499.0,495.0,516.0
501.0,509.0,499.0,513.0
506.0,507.0,502.0,509.0
511.0,506.0,514.0,509.0
517.0,505.0,520.0,509.0
526.0,509.0,532.0,508.0
532.0,505.0,538.0,507.0
530.0,505.0,538.0,512.0
514.0,482.0,532.0,511.0
517.0,480.0,528.0,506.0
503.0,481.0,520.0,512.0
497.0,469.0,505.0,511.0
496.0,470.0,499.0,515.0
497.0,502.0,497.0,519.0
505.0,506.0,495.0,522.0
510.0,538.0,497.0,517.0
513.0,580.0,495.0,517.0
517.0,559.0,495.0,513.0
521.0,545.0,494.0,505.0
508.0,465.0,502.0,504.0
514.0,482.0,511.0,501.0
520.0,505.0,520.0,499.0
528.0,524.0,527.0,503.0
523.0,516.0,530.0,504.0
521.0,501.0,534.0,504.0
512.0,485.0,528.0,507.0
511.0,496.0,527.0,507.0
496.0,491.0,513.0,512.0
490.0,492.0,508.0,517.0
497.0,501.0,503.0,519.0
501.0,508.0,500.0,524.0
501.0,505.0,500.0,524.0
509.0,513.0,504.0,524.0
508.0,507.0,495.0,520.0
507.0,513.0,501.0,518.0
510.0,515.0,503.0,511.0
509.0,526.0,510.0,508.0
519.0,532.0,520.0,501.0
525.0,525.0,522.0,505.0
525.0,517.0,530.0,503.0
523.0,479.0,534.0,503.0
521.0,471.0,532.0,504.0
513.0,492.0,528.0,503.0
510.0,486.0,519.0,508.0
502.0,486.0,512.0,509.0
498.0,502.0,504.0,515.0
499.0,510.0,499.0,518.0
506.0,525.0,497.0,520.0
508.0,520.0,497.0,520.0
513.0,520.0,497.0,514.0
499.0,504.0,494.0,513.0
511.0,511.0,502.0,512.0
508.0,503.0,502.0,503.0
517.0,510.0,509.0,505.0
515.0,510.0,518.0,506.0
521.0,512.0,527.0,503.0
523.0,510.0,533.0,504.0
524.0,511.0,536.0,508.0
513.0,501.0,532.0,507.0
511.0,499.0,528.0,510.0
499.0,487.0,516.0,512.0
495.0,482.0,510.0,516.0
498.0,486.0,506.0,519.0
502.0,495.0,500.0,527.0
505.0,502.0,499.0,522.0
509.0,504.0,498.0,520.0
513.0,514.0,499.0,516.0
511.0,503.0,499.0,515.0
509.0,514.0,502.0,512.0
513.0,513.0,508.0,509.0
520.0,506.0,514.0,508.0
526.0,511.0,519.0,505.0
527.0,508.0,528.0,507.0
522.0,507.0,536.0,509.0
528.0,513.0,536.0,511.0
514.0,504.0,534.0,510.0
516.0,503.0,528.0,512.0
503.0,486.0,522.0,517.0
500.0,482.0,507.0,515.0
496.0,491.0,500.0,517.0
503.0,492.0,496.0,516.0
505.0,501.0,495.0,517.0
508.0,527.0,495.0,515.0
504.0,522.0,495.0,513.0
511.0,514.0,497.0,510.0
507.0,502.0,496.0,506.0
510.0,507.0,507.0,504.0
513.0,515.0,515.0,506.0
521.0,512.0,524.0,504.0
528.0,508.0,532.0,505.0
531.0,514.0,536.0,503.0
522.0,486.0,533.0,508.0
516.0,466.0,525.0,508.0
508.0,478.0,524.0,508.0
499.0,468.0,515.0,515.0
498.0,483.0,506.0,515.0
501.0,521.0,501.0,521.0
505.0,530.0,496.0,522.0
505.0,523.0,493.0,520.0
515.0,521.0,499.0,519.0
505.0,512.0,498.0,513.0
510.0,510.0,500.0,509.0
506.0,508.0,500.0,507.0
510.0,508.0,512.0,505.0
515.0,504.0,520.0,506.0
522.0,502.0,526.0,507.0
521.0,509.0,534.0,510.0
522.0,512.0,538.0,509.0
516.0,506.0,532.0,509.0
512.0,513.0,530.0,509.0
502.0,517.0,520.0,515.0
498.0,520.0,510.0,518.0
502.0,523.0,508.0,519.0
502.0,525.0,501.0,523.0
505.0,492.0,503.0,523.0
505.0,480.0,504.0,526.0
508.0,498.0,503.0,522.0
505.0,496.0,500.0,517.0
509.0,498.0,497.0,511.0
508.0,504.0,504.0,506.0
514.0,505.0,510.0,503.0
522.0,521.0,519.0,503.0
530.0,514.0,523.0,504.0
528.0,514.0,532.0,501.0
527.0,505.0,533.0,504.0
517.0,490.0,529.0,506.0
515.0,494.0,525.0,510.0
502.0,484.0,514.0,514.0
499.0,491.0,508.0,517.0
500.0,495.0,501.0,518.0
504.0,502.0,495.0,514.0
504.0,511.0,493.0,520.0
512.0,520.0,495.0,519.0
504.0,512.0,495.0,516.0
512.0,512.0,497.0,509.0
514.0,501.0,498.0,508.0
511.0,501.0,509.0,507.0
517.0,506.0,517.0,505.0
524.0,517.0,525.0,503.0
529.0,507.0,532.0,505.0
525.0,491.0,533.0,507.0
520.0,487.0,532.0,507.0
514.0,471.0,527.0,509.0
507.0,500.0,525.0,510.0
500.0,506.0,513.0,513.0
500.0,492.0,505.0,513.0
499.0,496.0,499.0,520.0
501.0,511.0,499.0,522.0
506.0,517.0,497.0,522.0
511.0,518.0,496.0,523.0
504.0,504.0,497.0,514.0
510.0,514.0,499.0,515.0
506.0,509.0,503.0,509.0
508.0,517.0,511.0,504.0
511.0,515.0,520.0,507.0
526.0,527.0,526.0,509.0
525.0,519.0,535.0,505.0
531.0,510.0,538.0,509.0
516.0,493.0,534.0,510.0
513.0,499.0,531.0,511.0
503.0,491.0,519.0,514.0
503.0,489.0,510.0,516.0
506.0,495.0,504.0,521.0
506.0,489.0,502.0,524.0
510.0,495.0,499.0,527.0
511.0,506.0,500.0,527.0
511.0,505.0,501.0,522.0
505.0,501.0,498.0,516.0
510.0,525.0,505.0,517.0
508.0,526.0,511.0,511.0
516.0,515.0,519.0,509.0
518.0,515.0,527.0,507.0
524.0,517.0,528.0,505.0
529.0,522.0,531.0,502.0
531.0,516.0,527.0,503.0
517.0,498.0,523.0,502.0
513.0,489.0,521.0,504.0
501.0,481.0,513.0,508.0
494.0,483.0,505.0,508.0
496.0,490.0,498.0,515.0
502.0,497.0,494.0,517.0
507.0,519.0,492.0,518.0
512.0,518.0,496.0,518.0
506.0,508.0,493.0,514.0
510.0,506.0,496.0,508.0
509.0,502.0,497.0,508.0
510.0,509.0,506.0,505.0
517.0,515.0,514.0,506.0
524.0,516.0,524.0,502.0
526.0,516.0,529.0,507.0
528.0,518.0,534.0,507.0
527.0,510.0,533.0,507.0
516.0,499.0,526.0,508.0
514.0,499.0,523.0,505.0
499.0,480.0,514.0,515.0
499.0,483.0,506.0,515.0
498.0,486.0,500.0,520.0
503.0,488.0,499.0,522.0
509.0,496.0,497.0,518.0
514.0,526.0,497.0,518.0
505.0,520.0,494.0,518.0
506.0,538.0,499.0,511.0
504.0,518.0,508.0,509.0
516.0,539.0,509.0,505.0
521.0,565.0,517.0,507.0
531.0,556.0,524.0,508.0
536.0,555.0,534.0,510.0
527.0,479.0,534.0,505.0
511.0,419.0,532.0,513.0
506.0,453.0,529.0,512.0
499.0,474.0,519.0,514.0
497.0,492.0,518.0,519.0
497.0,495.0,509.0,526.0
501.0,495.0,506.0,529.0
505.0,507.0,501.0,528.0
507.0,514.0,500.0,531.0
513.0,507.0,498.0,522.0
509.0,504.0,498.0,516.0
509.0,504.0,500.0,512.0
511.0,505.0,505.0,506.0
508.0,511.0,512.0,504.0
515.0,522.0,518.0,501.0
521.0,521.0,526.0,501.0
524.0,518.0,533.0,504.0
526.0,510.0,536.0,506.0
514.0,482.0,533.0,509.0
514.0,478.0,525.0,510.0
502.0,475.0,516.0,511.0
497.0,478.0,506.0,515.0
500.0,480.0,499.0,518.0
504.0,499.0,495.0,519.0
504.0,511.0,496.0,519.0
511.0,520.0,491.0,518.0
508.0,527.0,491.0,511.0
508.0,529.0,494.0,509.0
506.0,533.0,497.0,506.0
510.0,507.0,504.0,505.0
510.0,503.0,514.0,502.0
519.0,503.0,522.0,506.0
527.0,508.0,530.0,503.0
528.0,500.0,536.0,507.0
529.0,498.0,533.0,506.0
512.0,499.0,527.0,508.0
510.0,504.0,525.0,509.0
496.0,494.0,512.0,515.0
496.0,504.0,505.0,516.0
496.0,501.0,497.0,519.0
503.0,510.0,497.0,520.0
505.0,515.0,494.0,517.0
511.0,513.0,496.0,522.0
505.0,510.0,495.0,517.0
508.0,519.0,500.0,514.0
508.0,505.0,503.0,509.0
513.0,499.0,510.0,506.0
517.0,500.0,518.0,506.0
523.0,497.0,527.0,505.0
528.0,500.0,533.0,506.0
529.0,503.0,535.0,508.0
519.0,502.0,533.0,508.0
513.0,509.0,527.0,511.0
504.0,507.0,520.0,513.0
499.0,500.0,513.0,512.0
497.0,501.0,503.0,521.0
500.0,499.0,499.0,519.0
503.0,511.0,495.0,522.0
505.0,518.0,496.0,514.0
511.0,519.0,497.0,516.0
501.0,502.0,499.0,514.0
510.0,509.0,498.0,512.0
509.0,503.0,506.0,508.0
513.0,506.0,514.0,508.0
521.0,512.0,520.0,507.0
529.0,512.0,530.0,504.0
529.0,505.0,533.0,508.0
530.0,504.0,537.0,510.0
515.0,491.0,530.0,509.0
516.0,489.0,528.0,511.0
498.0,473.0,517.0,514.0
495.0,473.0,505.0,517.0
495.0,488.0,503.0,520.0
504.0,491.0,499.0,523.0
507.0,509.0,497.0,520.0
506.0,524.0,496.0,523.0
507.0,514.0,496.0,518.0
507.0,521.0,495.0,516.0
512.0,524.0,498.0,510.0
512.0,500.0,506.0,506.0
514.0,498.0,512.0,505.0
524.0,512.0,525.0,505.0
530.0,523.0,529.0,507.0
530.0,513.0,536.0,508.0
527.0,513.0,531.0,508.0
518.0,507.0,528.0,507.0
509.0,505.0,523.0,514.0
492.0,500.0,515.0,514.0
496.0,509.0,506.0,516.0
501.0,509.0,500.0,521.0
511.0,508.0,498.0,518.0
514.0,512.0,497.0,522.0
512.0,486.0,495.0,520.0
507.0,485.0,496.0,517.0
514.0,519.0,497.0,515.0
503.0,514.0,503.0,510.0
510.0,516.0,511.0,506.0
515.0,520.0,519.0,505.0
524.0,515.0,526.0,511.0
531.0,513.0,533.0,505.0
528.0,521.0,534.0,508.0
515.0,496.0,532.0,507.0
513.0,495.0,525.0,509.0
499.0,488.0,521.0,512.0
494.0,492.0,512.0,513.0
490.0,500.0,505.0,519.0
493.0,506.0,500.0,523.0
494.0,521.0,498.0,522.0
502.0,522.0,496.0,519.0
504.0,510.0,498.0,519.0
503.0,496.0,494.0,517.0
507.0,501.0,501.0,513.0
505.0,494.0,502.0,509.0
509.0,509.0,512.0,507.0
518.0,521.0,521.0,508.0
525.0,514.0,529.0,509.0
526.0,507.0,534.0,509.0
524.0,503.0,538.0,513.0
512.0,481.0,533.0,510.0
515.0,494.0,527.0,509.0
500.0,494.0,517.0,514.0
498.0,494.0,510.0,517.0
503.0,497.0,503.0,518.0
504.0,506.0,501.0,524.0
509.0,505.0,495.0,521.0
515.0,513.0,489.0,519.0
507.0,498.0,493.0,517.0
509.0,501.0,494.0,510.0
512.0,505.0,497.0,508.0
511.0,516.0,509.0,505.0
514.0,511.0,516.0,506.0
524.0,527.0,524.0,505.0
529.0,522.0,532.0,507.0
529.0,507.0,531.0,506.0
525.0,506.0,530.0,508.0
515.0,496.0,527.0,506.0
512.0,499.0,523.0,508.0
501.0,485.0,513.0,507.0
497.0,493.0,503.0,517.0
499.0,495.0,501.0,521.0
503.0,491.0,497.0,522.0
503.0,512.0,490.0,519.0
511.0,520.0,490.0,517.0
510.0,509.0,493.0,512.0
509.0,512.0,492.0,509.0
509.0,505.0,501.0,504.0
513.0,509.0,509.0,504.0
515.0,510.0,516.0,506.0
522.0,512.0,526.0,506.0
527.0,512.0,533.0,504.0
531.0,512.0,536.0,508.0
520.0,501.0,532.0,508.0
515.0,500.0,524.0,508.0
503.0,487.0,520.0,510.0
496.0,485.0,511.0,516.0
499.0,494.0,506.0,519.0
501.0,498.0,501.0,519.0
503.0,511.0,499.0,522.0
506.0,509.0,497.0,522.0
512.0,513.0,495.0,519.0
503.0,494.0,496.0,515.0
508.0,501.0,501.0,510.0
508.0,487.0,505.0,508.0
514.0,493.0,512.0,507.0
519.0,508.0,522.0,508.0
524.0,510.0,529.0,508.0
529.0,510.0,531.0,508.0
527.0,511.0,536.0,511.0
518.0,499.0,528.0,510.0
517.0,508.0,523.0,509.0
498.0,492.0,520.0,515.0
497.0,488.0,511.0,516.0
498.0,499.0,508.0,523.0
501.0,507.0,506.0,522.0
506.0,511.0,501.0,526.0
508.0,514.0,500.0,525.0
509.0,512.0,499.0,514.0
509.0,512.0,495.0,512.0
510.0,511.0,497.0,507.0
515.0,514.0,501.0,505.0
512.0,509.0,511.0,506.0
520.0,497.0,524.0,505.0
529.0,494.0,526.0,503.0
529.0,493.0,531.0,503.0
527.0,495.0,528.0,505.0
517.0,509.0,523.0,500.0
509.0,539.0,520.0,504.0
495.0,493.0,510.0,510.0
487.0,468.0,499.0,513.0
494.0,496.0,499.0,513.0
504.0,509.0,496.0,516.0
506.0,512.0,494.0,518.0
511.0,516.0,498.0,517.0
508.0,512.0,493.0,511.0
506.0,512.0,498.0,512.0
505.0,514.0,500.0,507.0
510.0,510.0,507.0,506.0
516.0,506.0,517.0,505.0
524.0,510.0,526.0,506.0
530.0,508.0,533.0,505.0
530.0,499.0,533.0,508.0
517.0,488.0,531.0,508.0
510.0,482.0,528.0,507.0
499.0,474.0,521.0,511.0
493.0,462.0,513.0,516.0
498.0,473.0,503.0,519.0
502.0,494.0,500.0,519.0
505.0,518.0,498.0,522.0
507.0,506.0,497.0,518.0
512.0,523.0,496.0,518.0
506.0,529.0,497.0,515.0
512.0,528.0,499.0,514.0
510.0,518.0,505.0,510.0
519.0,516.0,517.0,508.0
522.0,523.0,523.0,506.0
528.0,523.0,532.0,509.0
530.0,520.0,534.0,508.0
529.0,514.0,537.0,507.0
520.0,495.0,528.0,507.0
516.0,486.0,524.0,506.0
501.0,475.0,515.0,510.0
498.0,491.0,507.0,514.0
495.0,495.0,503.0,516.0
502.0,498.0,498.0,519.0
508.0,514.0,499.0,520.0
511.0,512.0,497.0,519.0
510.0,505.0,495.0,514.0
506.0,502.0,495.0,515.0
511.0,511.0,503.0,509.0
508.0,522.0,507.0,506.0
519.0,522.0,515.0,503.0
524.0,517.0,523.0,505.0
529.0,524.0,531.0,506.0
529.0,516.0,533.0,508.0
525.0,511.0,534.0,508.0
513.0,495.0,527.0,508.0
510.0,503.0,525.0,508.0
500.0,495.0,512.0,512.0
496.0,501.0,506.0,517.0
497.0,509.0,500.0,516.0
501.0,505.0,496.0,522.0
508.0,505.0,494.0,520.0
510.0,504.0,498.0,517.0
509.0,503.0,496.0,512.0
508.0,508.0,494.0,512.0
507.0,506.0,500.0,507.0
515.0,505.0,507.0,507.0
515.0,507.0,515.0,508.0
526.0,512.0,527.0,509.0
529.0,512.0,532.0,507.0
527.0,507.0,534.0,507.0
519.0,494.0,531.0,507.0
511.0,493.0,526.0,507.0
505.0,487.0,520.0,508.0
495.0,485.0,511.0,513.0
496.0,490.0,501.0,514.0
502.0,497.0,499.0,521.0
502.0,503.0,498.0,520.0
509.0,512.0,495.0,521.0
515.0,513.0,499.0,517.0
506.0,508.0,495.0,514.0
510.0,514.0,501.0,512.0
508.0,506.0,505.0,505.0
513.0,514.0,512.0,506.0
520.0,516.0,519.0,505.0
522.0,513.0,524.0,506.0
526.0,511.0,533.0,511.0
526.0,509.0,537.0,507.0
516.0,501.0,531.0,508.0
513.0,500.0,527.0,508.0
502.0,482.0,517.0,506.0
495.0,482.0,507.0,514.0
496.0,492.0,502.0,516.0
504.0,500.0,496.0,520.0
506.0,502.0,498.0,522.0
510.0,504.0,497.0,521.0
509.0,512.0,498.0,512.0
506.0,505.0,497.0,514.0
508.0,515.0,501.0,509.0
513.0,509.0,506.0,505.0
520.0,502.0,514.0,503.0
527.0,507.0,520.0,505.0
530.0,511.0,533.0,507.0
532.0,508.0,532.0,509.0
531.0,503.0,535.0,509.0
521.0,493.0,529.0,512.0
515.0,487.0,526.0,513.0
500.0,487.0,516.0,515.0
490.0,493.0,510.0,519.0
493.0,497.0,502.0,524.0
501.0,509.0,496.0,526.0
504.0,515.0,497.0,524.0
507.0,526.0,496.0,519.0
502.0,514.0,494.0,515.0
507.0,512.0,497.0,510.0
509.0,510.0,500.0,498.0
507.0,505.0,508.0,503.0
515.0,505.0,515.0,504.0
525.0,512.0,522.0,505.0
527.0,520.0,528.0,506.0
529.0,530.0,534.0,507.0
524.0,523.0,532.0,507.0
515.0,510.0,527.0,510.0
507.0,495.0,521.0,515.0
497.0,502.0,515.0,517.0
496.0,467.0,506.0,520.0
498.0,484.0,503.0,524.0
504.0,503.0,501.0,522.0
505.0,511.0,498.0,521.0
509.0,511.0,496.0,515.0
498.0,500.0,492.0,507.0
508.0,507.0,493.0,506.0
507.0,515.0,500.0,504.0
514.0,509.0,510.0,507.0
521.0,507.0,519.0,508.0
529.0,503.0,531.0,510.0
535.0,486.0,534.0,508.0
528.0,496.0,535.0,509.0
519.0,490.0,529.0,506.0
516.0,492.0,521.0,505.0
502.0,482.0,514.0,505.0
495.0,473.0,508.0,509.0
496.0,506.0,503.0,514.0
500.0,509.0,495.0,516.0
499.0,504.0,493.0,517.0
508.0,511.0,492.0,515.0
512.0,521.0,492.0,513.0
508.0,507.0,491.0,508.0
509.0,516.0,498.0,506.0
514.0,520.0,504.0,502.0
515.0,508.0,513.0,504.0
525.0,511.0,517.0,504.0
528.0,516.0,530.0,505.0
527.0,511.0,534.0,507.0
524.0,511.0,533.0,509.0
513.0,496.0,529.0,507.0
513.0,501.0,522.0,507.0
500.0,487.0,513.0,512.0
498.0,493.0,506.0,517.0
500.0,497.0,501.0,521.0
501.0,509.0,496.0,520.0
507.0,510.0,497.0,524.0
516.0,518.0,497.0,519.0
509.0,513.0,493.0,511.0
509.0,511.0,495.0,513.0
515.0,506.0,504.0,508.0
513.0,499.0,508.0,506.0
518.0,508.0,517.0,508.0
524.0,513.0,527.0,506.0
529.0,517.0,533.0,504.0
527.0,510.0,535.0,508.0
523.0,504.0,533.0,506.0
509.0,491.0,529.0,508.0
503.0,483.0,521.0,512.0
499.0,483.0,513.0,515.0
499.0,491.0,506.0,518.0
502.0,506.0,496.0,522.0
505.0,518.0,497.0,521.0
506.0,520.0,493.0,521.0
509.0,523.0,496.0,515.0
502.0,502.0,496.0,512.0
509.0,495.0,499.0,508.0
508.0,504.0,504.0,508.0
511.0,505.0,514.0,507.0
520.0,506.0,518.0,507.0
526.0,500.0,528.0,505.0
525.0,505.0,532.0,507.0
528.0,503.0,535.0,507.0
519.0,495.0,530.0,508.0
516.0,495.0,524.0,511.0
500.0,480.0,518.0,514.0
498.0,483.0,509.0,515.0
498.0,496.0,503.0,520.0
503.0,506.0,500.0,521.0
501.0,507.0,500.0,522.0
510.0,512.0,493.0,519.0
507.0,512.0,497.0,517.0
498.0,504.0,494.0,514.0
507.0,507.0,499.0,509.0
508.0,507.0,506.0,503.0
516.0,515.0,514.0,505.0
525.0,515.0,523.0,504.0
526.0,512.0,530.0,507.0
525.0,507.0,533.0,507.0
528.0,500.0,534.0,507.0
515.0,487.0,526.0,509.0
513.0,492.0,524.0,511.0
499.0,478.0,513.0,515.0
501.0,484.0,505.0,514.0
502.0,496.0,500.0,521.0
508.0,512.0,498.0,520.0
511.0,530.0,496.0,523.0
513.0,531.0,497.0,518.0
511.0,528.0,496.0,514.0
512.0,527.0,497.0,514.0
513.0,496.0,503.0,508.0
511.0,457.0,508.0,508.0
513.0,472.0,518.0,508.0
522.0,497.0,525.0,507.0
526.0,503.0,531.0,510.0
528.0,530.0,531.0,509.0
527.0,518.0,532.0,509.0
514.0,482.0,528.0,509.0
499.0,467.0,520.0,513.0
495.0,479.0,513.0,516.0
495.0,490.0,505.0,516.0
498.0,498.0,501.0,518.0
507.0,533.0,495.0,520.0
511.0,529.0,494.0,518.0
512.0,514.0,493.0,517.0
509.0,511.0,492.0,513.0
513.0,513.0,496.0,508.0
507.0,506.0,505.0,506.0
513.0,502.0,511.0,503.0
520.0,506.0,517.0,505.0
525.0,515.0,528.0,507.0
523.0,512.0,533.0,504.0
521.0,523.0,533.0,506.0
515.0,520.0,528.0,508.0
513.0,513.0,524.0,510.0
502.0,497.0,517.0,514.0
500.0,492.0,510.0,513.0
501.0,480.0,503.0,515.0
504.0,496.0,502.0,521.0
510.0,497.0,496.0,521.0
512.0,501.0,497.0,519.0
512.0,505.0,498.0,517.0
506.0,490.0,496.0,510.0
510.0,497.0,500.0,507.0
506.0,510.0,507.0,507.0
512.0,509.0,515.0,504.0
522.0,512.0,522.0,506.0
526.0,546.0,529.0,509.0
529.0,536.0,534.0,504.0
524.0,507.0,531.0,503.0
511.0,481.0,526.0,506.0
512.0,483.0,524.0,511.0
499.0,480.0,514.0,510.0
494.0,499.0,513.0,518.0
500.0,532.0,502.0,523.0
500.0,507.0,498.0,521.0
501.0,499.0,494.0,521.0
511.0,509.0,496.0,516.0
506.0,501.0,501.0,516.0
506.0,505.0,497.0,513.0
509.0,510.0,503.0,507.0
514.0,507.0,509.0,508.0
518.0,506.0,515.0,508.0
524.0,510.0,523.0,510.0
528.0,516.0,527.0,510.0
530.0,512.0,534.0,513.0
524.0,512.0,531.0,511.0
511.0,507.0,527.0,513.0
506.0,502.0,525.0,515.0
497.0,496.0,515.0,518.0
495.0,489.0,510.0,522.0
495.0,494.0,512.0,525.0
505.0,497.0,505.0,520.0
505.0,511.0,496.0,513.0
509.0,527.0,493.0,510.0
506.0,506.0,489.0,506.0
509.0,502.0,491.0,504.0
511.0,495.0,497.0,500.0
512.0,498.0,507.0,500.0
520.0,506.0,517.0,500.0
527.0,508.0,525.0,502.0
529.0,520.0,530.0,505.0
526.0,514.0,531.0,504.0
516.0,497.0,528.0,507.0
511.0,497.0,521.0,508.0
498.0,484.0,517.0,516.0
494.0,488.0,510.0,515.0
504.0,503.0,503.0,519.0
501.0,507.0,501.0,522.0
512.0,510.0,495.0,520.0
514.0,516.0,496.0,518.0
515.0,515.0,494.0,514.0
510.0,504.0,494.0,508.0
506.0,507.0,497.0,506.0
510.0,509.0,504.0,502.0
513.0,503.0,512.0,505.0
521.0,510.0,522.0,506.0
524.0,511.0,528.0,506.0
529.0,508.0,535.0,508.0
528.0,502.0,529.0,509.0
515.0,492.0,527.0,508.0
514.0,497.0,524.0,507.0
502.0,496.0,514.0,514.0
499.0,494.0,509.0,520.0
500.0,501.0,504.0,522.0
500.0,506.0,496.0,522.0
502.0,507.0,497.0,524.0
512.0,520.0,497.0,518.0
512.0,514.0,497.0,519.0
513.0,517.0,499.0,513.0
513.0,509.0,502.0,511.0
513.0,508.0,508.0,506.0
518.0,501.0,514.0,504.0
525.0,501.0,525.0,505.0
523.0,500.0,530.0,505.0
528.0,493.0,530.0,505.0
523.0,484.0,527.0,504.0
513.0,480.0,525.0,504.0
504.0,478.0,517.0,509.0
496.0,477.0,510.0,516.0
497.0,510.0,504.0,520.0
499.0,516.0,500.0,522.0
502.0,520.0,499.0,523.0
504.0,516.0,498.0,521.0
505.0,524.0,498.0,518.0
500.0,501.0,495.0,516.0
507.0,503.0,501.0,514.0
505.0,492.0,506.0,507.0
516.0,502.0,510.0,505.0
519.0,502.0,518.0,502.0
529.0,506.0,525.0,502.0
528.0,508.0,532.0,501.0
531.0,522.0,532.0,505.0
520.0,524.0,528.0,506.0
511.0,503.0,523.0,506.0
498.0,490.0,515.0,509.0
496.0,491.0,508.0,509.0
495.0,503.0,502.0,517.0
501.0,512.0,498.0,519.0
508.0,506.0,495.0,521.0
515.0,514.0,493.0,519.0
513.0,515.0,495.0,516.0
506.0,504.0,497.0,512.0
513.0,512.0,496.0,507.0
516.0,512.0,505.0,506.0
518.0,483.0,515.0,507.0
523.0,527.0,521.0,505.0
521.0,517.0,527.0,506.0
519.0,497.0,532.0,506.0
521.0,513.0,534.0,509.0
511.0,490.0,527.0,510.0
509.0,484.0,525.0,510.0
500.0,483.0,516.0,513.0
495.0,486.0,509.0,519.0
500.0,500.0,502.0,517.0
500.0,503.0,499.0,522.0
507.0,506.0,497.0,522.0
513.0,516.0,496.0,520.0
509.0,512.0,494.0,516.0
504.0,516.0,499.0,514.0
509.0,509.0,503.0,507.0
511.0,508.0,510.0,507.0
516.0,509.0,518.0,507.0
526.0,511.0,526.0,505.0
527.0,514.0,529.0,507.0
529.0,511.0,535.0,509.0
522.0,508.0,531.0,508.0
510.0,492.0,524.0,509.0
505.0,492.0,521.0,513.0
496.0,491.0,510.0,512.0
498.0,490.0,507.0,520.0
501.0,490.0,498.0,521.0
506.0,501.0,499.0,523.0
507.0,514.0,495.0,519.0
514.0,518.0,493.0,515.0
504.0,511.0,496.0,513.0
508.0,513.0,498.0,510.0
507.0,509.0,501.0,503.0
513.0,509.0,512.0,504.0
518.0,512.0,519.0,501.0
526.0,512.0,526.0,507.0
527.0,509.0,536.0,506.0
526.0,508.0,537.0,508.0
515.0,498.0,528.0,507.0
508.0,493.0,524.0,509.0
499.0,484.0,517.0,511.0
494.0,482.0,507.0,512.0
493.0,495.0,503.0,517.0
503.0,509.0,498.0,520.0
505.0,515.0,497.0,523.0
509.0,515.0,496.0,521.0
509.0,513.0,494.0,520.0
501.0,504.0,496.0,513.0
507.0,506.0,500.0,512.0
512.0,504.0,504.0,507.0
517.0,509.0,514.0,503.0
527.0,514.0,523.0,508.0
532.0,513.0,529.0,509.0
533.0,505.0,531.0,510.0
531.0,490.0,535.0,510.0
517.0,484.0,530.0,510.0
510.0,487.0,527.0,512.0
498.0,483.0,513.0,512.0
495.0,504.0,507.0,516.0
497.0,508.0,500.0,518.0
505.0,511.0,499.0,519.0
507.0,513.0,495.0,518.0
508.0,520.0,493.0,517.0
509.0,515.0,499.0,516.0
507.0,512.0,495.0,511.0
505.0,508.0,501.0,508.0
506.0,501.0,506.0,506.0
514.0,505.0,513.0,504.0
524.0,514.0,523.0,504.0
528.0,511.0,531.0,506.0
530.0,506.0,535.0,508.0
523.0,500.0,529.0,510.0
511.0,490.0,528.0,511.0
504.0,472.0,524.0,513.0
498.0,469.0,515.0,518.0
496.0,465.0,511.0,521.0
497.0,460.0,506.0,524.0
504.0,477.0,502.0,521.0
504.0,526.0,493.0,521.0
512.0,533.0,493.0,514.0
508.0,516.0,491.0,511.0
510.0,537.0,493.0,503.0
507.0,519.0,499.0,501.0
515.0,527.0,506.0,497.0
518.0,528.0,519.0,503.0
526.0,532.0,523.0,503.0
526.0,522.0,527.0,505.0
526.0,517.0,531.0,505.0
518.0,497.0,526.0,506.0
512.0,490.0,527.0,508.0
500.0,488.0,516.0,510.0
498.0,486.0,508.0,516.0
503.0,491.0,500.0,516.0
506.0,494.0,499.0,520.0
510.0,492.0,492.0,521.0
508.0,497.0,493.0,520.0
506.0,519.0,496.0,519.0
501.0,542.0,495.0,513.0
506.0,534.0,500.0,511.0
512.0,537.0,507.0,508.0
512.0,501.0,517.0,504.0
519.0,502.0,523.0,505.0
523.0,513.0,531.0,504.0
530.0,514.0,532.0,505.0
528.0,506.0,530.0,505.0
518.0,500.0,523.0,506.0
515.0,495.0,521.0,508.0
499.0,468.0,512.0,510.0
494.0,465.0,506.0,515.0
499.0,480.0,499.0,518.0
501.0,494.0,500.0,521.0
506.0,515.0,494.0,520.0
507.0,523.0,497.0,520.0
508.0,515.0,496.0,517.0
506.0,509.0,497.0,513.0
510.0,521.0,502.0,508.0
513.0,507.0,512.0,508.0
517.0,509.0,515.0,509.0
523.0,513.0,523.0,511.0
527.0,513.0,532.0,507.0
528.0,514.0,536.0,509.0
520.0,501.0,529.0,508.0
514.0,491.0,525.0,508.0
505.0,486.0,519.0,510.0
498.0,485.0,512.0,512.0
496.0,495.0,502.0,517.0
501.0,511.0,500.0,520.0
507.0,511.0,497.0,520.0
509.0,517.0,496.0,520.0
512.0,520.0,497.0,521.0
508.0,510.0,496.0,512.0
511.0,508.0,499.0,510.0
505.0,508.0,502.0,508.0
511.0,510.0,512.0,504.0
515.0,513.0,518.0,507.0
523.0,516.0,530.0,507.0
525.0,509.0,535.0,508.0
527.0,503.0,533.0,509.0
516.0,498.0,528.0,509.0
508.0,491.0,523.0,509.0
497.0,485.0,518.0,512.0
499.0,488.0,509.0,517.0
497.0,493.0,505.0,519.0
503.0,499.0,499.0,523.0
503.0,503.0,497.0,521.0
506.0,514.0,498.0,521.0
518.0,517.0,496.0,519.0
506.0,508.0,495.0,514.0
508.0,507.0,498.0,511.0
511.0,508.0,506.0,508.0
516.0,507.0,514.0,507.0
522.0,511.0,523.0,506.0
529.0,510.0,529.0,508.0
529.0,509.0,531.0,507.0
527.0,504.0,535.0,504.0
514.0,491.0,528.0,509.0
514.0,493.0,520.0,510.0
499.0,480.0,514.0,514.0
494.0,484.0,507.0,517.0
498.0,492.0,498.0,520.0
503.0,498.0,497.0,520.0
507.0,501.0,497.0,516.0
515.0,504.0,496.0,515.0
513.0,507.0,493.0,516.0
505.0,505.0,494.0,512.0
506.0,506.0,499.0,509.0
510.0,514.0,508.0,507.0
514.0,516.0,515.0,507.0
523.0,517.0,523.0,507.0
528.0,515.0,531.0,504.0
528.0,513.0,534.0,509.0
522.0,511.0,533.0,507.0
512.0,494.0,525.0,508.0
504.0,494.0,521.0,513.0
497.0,493.0,513.0,514.0
499.0,500.0,505.0,516.0
501.0,501.0,500.0,524.0
511.0,490.0,500.0,523.0
505.0,477.0,497.0,520.0
512.0,485.0,493.0,521.0
504.0,475.0,494.0,514.0
506.0,485.0,501.0,509.0
505.0,535.0,506.0,508.0
512.0,534.0,508.0,505.0
519.0,528.0,517.0,505.0
527.0,527.0,525.0,505.0
526.0,532.0,529.0,502.0
531.0,530.0,534.0,506.0
523.0,527.0,525.0,508.0
509.0,520.0,523.0,510.0
500.0,514.0,518.0,513.0
499.0,513.0,508.0,513.0
498.0,494.0,500.0,514.0
499.0,479.0,499.0,518.0
503.0,491.0,495.0,521.0
512.0,492.0,496.0,516.0
512.0,493.0,498.0,517.0
510.0,495.0,495.0,513.0
511.0,506.0,497.0,509.0
511.0,520.0,504.0,504.0
515.0,527.0,513.0,507.0
524.0,512.0,521.0,509.0
526.0,514.0,530.0,506.0
521.0,510.0,533.0,507.0
527.0,511.0,534.0,508.0
517.0,506.0,529.0,508.0
512.0,498.0,522.0,510.0
497.0,481.0,514.0,514.0
497.0,484.0,506.0,516.0
499.0,493.0,498.0,519.0
504.0,500.0,498.0,521.0
506.0,498.0,496.0,522.0
512.0,507.0,495.0,518.0
511.0,502.0,495.0,518.0
506.0,491.0,495.0,513.0
505.0,508.0,503.0,509.0
511.0,506.0,505.0,509.0
516.0,503.0,516.0,504.0
525.0,517.0,522.0,505.0
530.0,526.0,533.0,507.0
528.0,519.0,534.0,507.0
524.0,509.0,530.0,512.0
516.0,503.0,526.0,507.0
508.0,498.0,521.0,511.0
499.0,485.0,511.0,513.0
495.0,494.0,505.0,518.0
500.0,504.0,500.0,518.0
503.0,513.0,498.0,525.0
505.0,516.0,499.0,521.0
513.0,517.0,497.0,519.0
508.0,509.0,491.0,513.0
508.0,506.0,494.0,511.0
509.0,503.0,503.0,506.0
515.0,508.0,512.0,506.0
518.0,509.0,520.0,505.0
527.0,512.0,529.0,508.0
530.0,511.0,535.0,507.0
528.0,509.0,535.0,511.0
523.0,504.0,533.0,507.0
511.0,494.0,525.0,510.0
499.0,487.0,515.0,512.0
498.0,492.0,511.0,514.0
500.0,495.0,502.0,517.0
500.0,503.0,497.0,521.0
506.0,509.0,495.0,519.0
511.0,515.0,492.0,517.0
508.0,512.0,494.0,514.0
508.0,500.0,494.0,509.0
510.0,500.0,499.0,507.0
510.0,512.0,505.0,508.0
513.0,507.0,512.0,508.0
522.0,513.0,520.0,504.0
526.0,514.0,529.0,504.0
529.0,508.0,528.0,505.0
526.0,505.0,533.0,507.0
515.0,498.0,527.0,511.0
510.0,493.0,522.0,512.0
500.0,490.0,515.0,510.0
498.0,491.0,504.0,514.0
500.0,498.0,501.0,519.0
504.0,506.0,498.0,521.0
508.0,508.0,495.0,521.0
513.0,517.0,495.0,519.0
509.0,520.0,495.0,518.0
505.0,517.0,493.0,515.0
508.0,517.0,498.0,511.0
510.0,499.0,508.0,510.0
512.0,500.0,514.0,509.0
521.0,502.0,527.0,508.0
527.0,503.0,534.0,511.0
527.0,507.0,543.0,513.0
526.0,503.0,539.0,514.0
514.0,497.0,532.0,516.0
504.0,499.0,522.0,515.0
499.0,491.0,512.0,513.0
501.0,481.0,503.0,510.0
502.0,485.0,498.0,519.0
508.0,484.0,491.0,518.0
505.0,480.0,496.0,518.0
508.0,495.0,492.0,516.0
510.0,507.0,495.0,514.0
510.0,512.0,497.0,510.0
509.0,510.0,499.0,505.0
514.0,507.0,510.0,502.0
522.0,514.0,517.0,500.0
526.0,516.0,523.0,499.0
526.0,516.0,525.0,501.0
527.0,506.0,530.0,501.0
518.0,495.0,526.0,507.0
509.0,504.0,523.0,504.0
499.0,519.0,510.0,509.0
500.0,521.0,508.0,510.0
500.0,511.0,499.0,517.0
503.0,504.0,495.0,516.0
505.0,481.0,494.0,519.0
513.0,506.0,495.0,518.0
515.0,514.0,495.0,516.0
506.0,507.0,496.0,509.0
507.0,508.0,498.0,511.0
509.0,503.0,504.0,507.0
511.0,509.0,511.0,505.0
519.0,512.0,522.0,504.0
530.0,513.0,525.0,506.0
531.0,507.0,532.0,507.0
525.0,492.0,533.0,506.0
518.0,496.0,528.0,508.0
510.0,488.0,524.0,509.0
497.0,485.0,514.0,514.0
501.0,495.0,508.0,515.0
501.0,500.0,499.0,519.0
503.0,519.0,496.0,522.0
507.0,525.0,496.0,519.0
511.0,524.0,496.0,517.0
508.0,522.0,497.0,514.0
506.0,506.0,497.0,514.0
508.0,507.0,501.0,506.0
512.0,505.0,509.0,506.0
517.0,500.0,517.0,504.0
524.0,506.0,525.0,502.0
526.0,517.0,532.0,505.0
527.0,514.0,534.0,507.0
521.0,510.0,532.0,510.0
513.0,502.0,528.0,510.0
504.0,487.0,522.0,512.0
498.0,486.0,513.0,515.0
497.0,488.0,507.0,515.0
498.0,491.0,502.0,521.0
500.0,499.0,496.0,522.0
504.0,501.0,494.0,520.0
512.0,515.0,496.0,517.0
507.0,519.0,497.0,513.0
506.0,513.0,498.0,512.0
508.0,515.0,501.0,508.0
515.0,515.0,511.0,507.0
518.0,507.0,517.0,506.0
528.0,508.0,525.0,505.0
531.0,506.0,531.0,506.0
531.0,503.0,535.0,510.0
522.0,505.0,533.0,509.0
508.0,496.0,526.0,509.0
500.0,489.0,522.0,512.0
496.0,491.0,510.0,515.0
500.0,501.0,504.0,515.0
501.0,504.0,500.0,521.0
506.0,513.0,497.0,521.0
512.0,519.0,497.0,517.0
514.0,528.0,495.0,518.0
512.0,518.0,495.0,510.0
510.0,518.0,496.0,508.0
511.0,498.0,505.0,506.0
515.0,495.0,513.0,505.0
528.0,500.0,524.0,506.0
529.0,495.0,529.0,507.0
526.0,494.0,534.0,507.0
526.0,499.0,533.0,509.0
517.0,489.0,529.0,508.0
510.0,488.0,523.0,510.0
501.0,487.0,513.0,516.0
497.0,485.0,506.0,514.0
499.0,489.0,498.0,519.0
501.0,496.0,498.0,520.0
502.0,502.0,494.0,522.0
508.0,525.0,496.0,523.0
512.0,520.0,494.0,522.0
503.0,509.0,498.0,515.0
502.0,510.0,505.0,508.0
509.0,519.0,511.0,508.0
519.0,527.0,517.0,506.0
523.0,527.0,525.0,507.0
527.0,516.0,530.0,506.0
527.0,507.0,533.0,507.0
521.0,504.0,531.0,505.0
513.0,498.0,523.0,506.0
508.0,490.0,521.0,508.0
498.0,484.0,509.0,513.0
494.0,487.0,503.0,519.0
502.0,492.0,498.0,520.0
500.0,499.0,491.0,521.0
506.0,519.0,499.0,519.0
511.0,524.0,498.0,518.0
510.0,513.0,494.0,518.0
505.0,506.0,497.0,513.0
509.0,508.0,496.0,505.0
513.0,511.0,510.0,507.0
520.0,508.0,518.0,508.0
527.0,509.0,525.0,507.0
531.0,513.0,532.0,508.0
531.0,504.0,534.0,508.0
522.0,496.0,532.0,505.0
507.0,489.0,526.0,506.0
497.0,496.0,519.0,510.0
501.0,497.0,511.0,510.0
502.0,501.0,502.0,513.0
506.0,505.0,495.0,516.0
512.0,521.0,492.0,516.0
510.0,495.0,491.0,517.0
510.0,505.0,494.0,516.0
506.0,510.0,495.0,511.0
505.0,514.0,497.0,509.0
508.0,504.0,504.0,507.0
515.0,506.0,512.0,504.0
519.0,515.0,520.0,506.0
527.0,515.0,528.0,505.0
527.0,509.0,534.0,505.0
527.0,507.0,535.0,506.0
521.0,498.0,529.0,512.0
510.0,485.0,527.0,511.0
500.0,473.0,515.0,512.0
496.0,472.0,508.0,517.0
501.0,482.0,500.0,517.0
504.0,498.0,497.0,522.0
507.0,522.0,491.0,520.0
512.0,525.0,494.0,517.0
510.0,529.0,496.0,516.0
505.0,522.0,499.0,513.0
510.0,512.0,502.0,505.0
512.0,517.0,510.0,508.0
516.0,513.0,523.0,511.0
522.0,517.0,530.0,510.0
527.0,511.0,534.0,505.0
528.0,500.0,535.0,503.0
521.0,496.0,530.0,505.0
514.0,491.0,524.0,502.0
507.0,490.0,516.0,507.0
498.0,485.0,508.0,505.0
497.0,492.0,498.0,513.0
498.0,497.0,500.0,518.0
505.0,508.0,494.0,517.0
503.0,513.0,494.0,518.0
513.0,517.0,495.0,517.0
510.0,507.0,496.0,513.0
506.0,507.0,497.0,511.0
510.0,509.0,503.0,507.0
512.0,504.0,512.0,505.0
519.0,505.0,514.0,505.0
530.0,502.0,523.0,505.0
530.0,487.0,534.0,506.0
530.0,490.0,535.0,508.0
521.0,500.0,529.0,508.0
514.0,488.0,526.0,509.0
499.0,486.0,520.0,511.0
495.0,485.0,510.0,515.0
498.0,497.0,503.0,516.0
501.0,501.0,497.0,522.0
505.0,509.0,497.0,520.0
509.0,517.0,494.0,520.0
510.0,518.0,497.0,514.0
503.0,521.0,497.0,512.0
507.0,523.0,499.0,509.0
509.0,514.0,504.0,503.0
513.0,512.0,513.0,507.0
519.0,518.0,522.0,504.0
525.0,514.0,530.0,507.0
524.0,508.0,535.0,507.0
522.0,509.0,536.0,510.0
515.0,498.0,529.0,512.0
509.0,490.0,523.0,509.0
498.0,485.0,514.0,514.0
494.0,487.0,511.0,519.0
497.0,492.0,502.0,521.0
502.0,503.0,498.0,523.0
507.0,510.0,494.0,520.0
514.0,515.0,497.0,521.0
512.0,514.0,493.0,516.0
508.0,508.0,497.0,511.0
511.0,501.0,500.0,508.0
512.0,503.0,510.0,506.0
512.0,512.0,513.0,506.0
524.0,516.0,522.0,506.0
532.0,514.0,531.0,504.0
531.0,508.0,535.0,506.0
527.0,506.0,533.0,508.0
516.0,497.0,531.0,509.0
506.0,489.0,520.0,511.0
497.0,487.0,513.0,514.0
500.0,494.0,501.0,517.0
502.0,498.0,499.0,520.0
505.0,504.0,498.0,521.0
507.0,506.0,497.0,519.0
515.0,512.0,497.0,521.0
511.0,511.0,497.0,517.0
507.0,503.0,497.0,513.0
508.0,506.0,504.0,512.0
514.0,506.0,509.0,509.0
518.0,514.0,518.0,512.0
525.0,528.0,528.0,510.0
528.0,531.0,539.0,511.0
532.0,521.0,537.0,510.0
523.0,491.0,534.0,510.0
510.0,481.0,527.0,511.0
493.0,451.0,518.0,510.0
491.0,479.0,509.0,511.0
494.0,499.0,499.0,514.0
501.0,506.0,497.0,519.0
510.0,513.0,495.0,517.0
508.0,507.0,498.0,519.0
513.0,515.0,495.0,514.0
511.0,514.0,496.0,513.0
508.0,511.0,498.0,511.0
512.0,515.0,505.0,506.0
515.0,519.0,511.0,506.0
521.0,503.0,518.0,508.0
527.0,511.0,528.0,502.0
522.0,511.0,535.0,507.0
522.0,508.0,534.0,507.0
519.0,495.0,529.0,508.0
511.0,491.0,522.0,509.0
501.0,486.0,514.0,509.0
497.0,490.0,506.0,513.0
498.0,505.0,497.0,518.0
502.0,512.0,497.0,517.0
506.0,513.0,492.0,515.0
511.0,516.0,495.0,517.0
509.0,507.0,493.0,512.0
506.0,492.0,493.0,512.0
509.0,491.0,495.0,507.0
512.0,486.0,506.0,505.0
520.0,484.0,516.0,506.0
526.0,511.0,524.0,505.0
533.0,547.0,528.0,507.0
531.0,530.0,533.0,509.0
525.0,521.0,533.0,507.0
510.0,490.0,528.0,511.0
503.0,476.0,521.0,509.0
497.0,492.0,511.0,515.0
493.0,484.0,506.0,516.0
501.0,497.0,501.0,522.0
500.0,510.0,496.0,523.0
505.0,516.0,497.0,522.0
511.0,523.0,497.0,520.0
510.0,518.0,491.0,515.0
507.0,510.0,495.0,511.0
512.0,506.0,501.0,505.0
513.0,507.0,509.0,506.0
519.0,511.0,517.0,506.0
526.0,513.0,528.0,505.0
528.0,510.0,536.0,503.0
528.0,510.0,540.0,509.0
521.0,510.0,534.0,508.0
513.0,499.0,523.0,507.0
504.0,490.0,514.0,510.0
500.0,489.0,507.0,512.0
498.0,496.0,503.0,517.0
502.0,503.0,496.0,518.0
505.0,511.0,496.0,520.0
510.0,514.0,495.0,520.0
513.0,517.0,495.0,515.0
507.0,510.0,495.0,516.0
506.0,504.0,498.0,511.0
510.0,503.0,504.0,507.0
514.0,498.0,513.0,506.0
521.0,500.0,518.0,504.0
525.0,501.0,529.0,506.0
524.0,505.0,534.0,508.0
525.0,510.0,535.0,508.0
521.0,507.0,526.0,507.0
511.0,494.0,522.0,507.0
501.0,482.0,515.0,511.0
499.0,484.0,507.0,518.0
498.0,493.0,504.0,520.0
502.0,504.0,499.0,522.0
507.0,508.0,497.0,524.0
510.0,526.0,499.0,522.0
511.0,523.0,500.0,517.0
505.0,508.0,499.0,514.0
506.0,508.0,502.0,510.0
510.0,507.0,505.0,506.0
518.0,507.0,517.0,503.0
522.0,507.0,525.0,506.0
525.0,510.0,533.0,506.0
524.0,506.0,534.0,503.0
523.0,504.0,532.0,510.0
516.0,502.0,526.0,507.0
507.0,497.0,524.0,511.0
500.0,492.0,513.0,515.0
497.0,493.0,506.0,516.0
500.0,493.0,501.0,522.0
503.0,496.0,497.0,520.0
512.0,504.0,495.0,520.0
512.0,519.0,493.0,517.0
509.0,509.0,496.0,513.0
509.0,500.0,494.0,508.0
510.0,506.0,502.0,507.0
514.0,510.0,509.0,506.0
521.0,518.0,518.0,505.0
532.0,526.0,526.0,505.0
531.0,516.0,531.0,507.0
524.0,513.0,533.0,508.0
519.0,503.0,526.0,506.0
512.0,488.0,524.0,508.0
499.0,471.0,516.0,511.0
497.0,486.0,507.0,515.0
496.0,497.0,506.0,519.0
501.0,495.0,500.0,523.0
506.0,510.0,496.0,521.0
510.0,514.0,499.0,520.0
512.0,510.0,498.0,519.0
506.0,504.0,496.0,516.0
507.0,498.0,497.0,512.0
509.0,498.0,505.0,508.0
514.0,502.0,512.0,508.0
517.0,509.0,524.0,506.0
528.0,525.0,531.0,508.0
529.0,525.0,532.0,510.0
529.0,519.0,534.0,509.0
523.0,499.0,525.0,508.0
509.0,477.0,519.0,508.0
498.0,459.0,515.0,510.0
493.0,502.0,506.0,514.0
501.0,501.0,499.0,514.0
507.0,507.0,493.0,519.0
504.0,505.0,495.0,517.0
506.0,506.0,493.0,518.0
509.0,509.0,490.0,513.0
502.0,502.0,495.0,509.0
508.0,508.0,501.0,504.0
509.0,512.0,507.0,507.0
513.0,517.0,517.0,506.0
524.0,521.0,523.0,504.0
530.0,519.0,530.0,507.0
526.0,516.0,533.0,508.0
523.0,513.0,533.0,509.0
516.0,498.0,531.0,511.0
504.0,486.0,525.0,507.0
501.0,479.0,515.0,517.0
497.0,472.0,506.0,518.0
496.0,482.0,497.0,519.0
499.0,510.0,495.0,520.0
505.0,520.0,492.0,520.0
509.0,530.0,496.0,517.0
509.0,524.0,495.0,513.0
512.0,518.0,496.0,509.0
516.0,513.0,498.0,506.0
512.0,514.0,508.0,504.0
516.0,513.0,517.0,504.0
527.0,514.0,525.0,505.0
528.0,511.0,530.0,505.0
527.0,512.0,535.0,507.0
522.0,503.0,529.0,507.0
514.0,491.0,523.0,503.0
501.0,485.0,516.0,507.0
497.0,481.0,510.0,514.0
499.0,492.0,502.0,517.0
501.0,495.0,499.0,518.0
505.0,507.0,497.0,521.0
509.0,511.0,494.0,520.0
512.0,522.0,497.0,515.0
507.0,519.0,498.0,516.0
505.0,514.0,499.0,508.0
509.0,508.0,505.0,508.0
511.0,509.0,511.0,506.0
517.0,505.0,519.0,507.0
524.0,510.0,529.0,505.0
526.0,510.0,534.0,504.0
522.0,506.0,535.0,509.0
517.0,497.0,528.0,504.0
508.0,490.0,521.0,508.0
499.0,484.0,513.0,513.0
499.0,486.0,507.0,515.0
497.0,493.0,502.0,520.0
506.0,498.0,498.0,522.0
507.0,502.0,496.0,522.0
515.0,514.0,492.0,520.0
515.0,521.0,496.0,515.0
510.0,523.0,495.0,513.0
510.0,525.0,497.0,509.0
509.0,518.0,506.0,508.0
510.0,509.0,515.0,508.0
520.0,494.0,523.0,509.0
524.0,505.0,531.0,507.0
528.0,507.0,535.0,510.0
522.0,500.0,535.0,508.0
517.0,500.0,530.0,510.0
508.0,492.0,523.0,510.0
499.0,488.0,516.0,514.0
496.0,492.0,507.0,516.0
501.0,498.0,499.0,519.0
506.0,507.0,498.0,521.0
510.0,508.0,495.0,518.0
511.0,508.0,496.0,516.0
509.0,509.0,495.0,516.0
507.0,510.0,497.0,509.0
507.0,513.0,502.0,504.0
509.0,508.0,510.0,506.0
517.0,508.0,517.0,507.0
523.0,501.0,523.0,506.0
527.0,500.0,533.0,503.0
527.0,498.0,534.0,508.0
520.0,497.0,531.0,508.0
513.0,500.0,524.0,503.0
503.0,492.0,518.0,507.0
498.0,493.0,509.0,521.0
500.0,509.0,503.0,516.0
502.0,505.0,496.0,521.0
506.0,514.0,495.0,521.0
507.0,512.0,497.0,521.0
510.0,513.0,497.0,516.0
506.0,494.0,496.0,517.0
506.0,498.0,499.0,512.0
512.0,503.0,505.0,509.0
515.0,508.0,511.0,507.0
522.0,511.0,518.0,506.0
527.0,508.0,529.0,506.0
530.0,502.0,534.0,508.0
529.0,506.0,535.0,506.0
522.0,502.0,529.0,506.0
510.0,500.0,522.0,506.0
506.0,505.0,513.0,511.0
495.0,481.0,506.0,513.0
499.0,488.0,499.0,518.0
499.0,521.0,497.0,520.0
503.0,518.0,495.0,519.0
505.0,520.0,493.0,518.0
506.0,530.0,492.0,515.0
507.0,519.0,495.0,512.0
509.0,502.0,499.0,508.0
508.0,489.0,507.0,507.0
514.0,495.0,516.0,504.0
523.0,504.0,520.0,506.0
527.0,522.0,527.0,504.0
523.0,514.0,533.0,506.0
519.0,497.0,531.0,511.0
513.0,499.0,527.0,508.0
502.0,481.0,520.0,510.0
498.0,488.0,512.0,513.0
497.0,493.0,507.0,521.0
497.0,494.0,503.0,518.0
499.0,498.0,499.0,520.0
508.0,510.0,497.0,520.0
518.0,524.0,498.0,518.0
519.0,517.0,496.0,516.0
511.0,506.0,497.0,508.0
510.0,508.0,502.0,508.0
514.0,508.0,510.0,504.0
517.0,511.0,522.0,506.0
523.0,511.0,524.0,507.0
524.0,510.0,533.0,506.0
522.0,513.0,534.0,505.0
521.0,506.0,528.0,506.0
512.0,495.0,523.0,505.0
505.0,487.0,513.0,507.0
504.0,488.0,507.0,513.0
496.0,490.0,496.0,515.0
499.0,499.0,499.0,519.0
505.0,506.0,491.0,518.0
506.0,513.0,496.0,519.0
511.0,521.0,496.0,516.0
510.0,518.0,496.0,511.0
505.0,506.0,496.0,508.0
507.0,509.0,501.0,506.0
512.0,510.0,512.0,504.0
523.0,511.0,519.0,506.0
527.0,512.0,526.0,507.0
528.0,513.0,533.0,506.0
525.0,510.0,535.0,508.0
520.0,499.0,530.0,508.0
509.0,488.0,522.0,507.0
499.0,484.0,517.0,513.0
495.0,489.0,509.0,514.0
498.0,498.0,503.0,518.0
505.0,504.0,498.0,521.0
506.0,508.0,499.0,522.0
510.0,516.0,495.0,522.0
515.0,516.0,499.0,516.0
508.0,507.0,498.0,514.0
510.0,512.0,501.0,509.0
513.0,511.0,504.0,507.0
516.0,509.0,514.0,506.0
530.0,510.0,521.0,507.0
530.0,507.0,528.0,507.0
527.0,502.0,535.0,508.0
524.0,497.0,533.0,509.0
516.0,494.0,529.0,511.0
504.0,485.0,524.0,512.0
496.0,485.0,515.0,513.0
498.0,495.0,506.0,514.0
501.0,506.0,497.0,521.0
505.0,515.0,496.0,522.0
506.0,515.0,493.0,521.0
514.0,514.0,492.0,518.0
508.0,509.0,496.0,517.0
504.0,501.0,498.0,514.0
507.0,500.0,503.0,508.0
512.0,496.0,508.0,506.0
517.0,500.0,519.0,503.0
521.0,516.0,525.0,506.0
527.0,516.0,530.0,506.0
525.0,509.0,536.0,508.0
520.0,499.0,532.0,508.0
511.0,494.0,525.0,505.0
498.0,477.0,517.0,510.0
495.0,467.0,513.0,515.0
501.0,484.0,503.0,514.0
502.0,495.0,501.0,519.0
504.0,488.0,495.0,516.0
512.0,526.0,494.0,518.0
511.0,522.0,495.0,516.0
508.0,505.0,495.0,514.0
506.0,506.0,497.0,512.0
507.0,513.0,502.0,508.0
516.0,510.0,512.0,508.0
522.0,513.0,522.0,508.0
526.0,508.0,531.0,507.0
529.0,517.0,535.0,508.0
526.0,521.0,536.0,509.0
521.0,513.0,532.0,508.0
510.0,504.0,524.0,508.0
497.0,489.0,510.0,510.0
494.0,492.0,508.0,514.0
495.0,502.0,499.0,515.0
504.0,514.0,497.0,519.0
502.0,528.0,496.0,516.0
507.0,525.0,495.0,519.0
509.0,500.0,497.0,514.0
506.0,498.0,496.0,512.0
504.0,501.0,499.0,507.0
511.0,505.0,506.0,504.0
513.0,511.0,514.0,506.0
524.0,517.0,522.0,505.0
534.0,514.0,528.0,506.0
527.0,507.0,533.0,504.0
529.0,505.0,530.0,508.0
513.0,495.0,528.0,508.0
505.0,487.0,523.0,505.0
498.0,487.0,512.0,513.0
498.0,488.0,500.0,515.0
499.0,491.0,500.0,521.0
504.0,505.0,498.0,519.0
509.0,507.0,496.0,518.0
509.0,516.0,497.0,516.0
509.0,513.0,495.0,511.0
505.0,502.0,495.0,512.0
509.0,502.0,502.0,506.0
510.0,512.0,508.0,503.0
516.0,510.0,514.0,505.0
524.0,511.0,527.0,504.0
523.0,512.0,534.0,506.0
526.0,511.0,535.0,508.0
521.0,501.0,529.0,508.0
513.0,499.0,525.0,510.0
503.0,479.0,517.0,511.0
497.0,486.0,509.0,515.0
498.0,497.0,503.0,521.0
505.0,512.0,498.0,519.0
508.0,512.0,497.0,521.0
508.0,501.0,495.0,519.0
511.0,504.0,494.0,516.0
511.0,504.0,495.0,515.0
505.0,501.0,497.0,510.0
504.0,499.0,503.0,507.0
515.0,503.0,512.0,504.0
519.0,510.0,523.0,506.0
520.0,508.0,529.0,507.0
527.0,509.0,533.0,508.0
526.0,517.0,538.0,508.0
519.0,513.0,528.0,508.0
511.0,499.0,524.0,509.0
504.0,493.0,515.0,513.0
498.0,489.0,508.0,514.0
501.0,494.0,501.0,520.0
500.0,504.0,495.0,521.0
502.0,509.0,498.0,522.0
512.0,518.0,495.0,519.0
515.0,517.0,496.0,513.0
510.0,508.0,496.0,511.0
509.0,502.0,499.0,509.0
508.0,509.0,506.0,506.0
512.0,508.0,510.0,503.0
520.0,511.0,522.0,501.0
524.0,512.0,531.0,505.0
526.0,506.0,534.0,508.0
525.0,506.0,530.0,507.0
515.0,501.0,528.0,505.0
503.0,483.0,520.0,511.0
498.0,486.0,513.0,514.0
498.0,486.0,504.0,516.0
499.0,494.0,498.0,521.0
502.0,503.0,500.0,522.0
507.0,508.0,496.0,522.0
505.0,523.0,497.0,518.0
509.0,518.0,498.0,514.0
505.0,512.0,496.0,511.0
506.0,501.0,501.0,507.0
512.0,501.0,506.0,506.0
522.0,504.0,515.0,506.0
522.0,512.0,526.0,507.0
528.0,512.0,531.0,507.0
527.0,512.0,537.0,508.0
523.0,505.0,530.0,506.0
513.0,496.0,526.0,509.0
504.0,488.0,517.0,514.0
501.0,485.0,509.0,516.0
496.0,495.0,506.0,518.0
503.0,505.0,499.0,521.0
506.0,483.0,492.0,521.0
501.0,489.0,496.0,519.0
509.0,503.0,498.0,518.0
510.0,506.0,496.0,515.0
508.0,519.0,496.0,512.0
510.0,514.0,504.0,507.0
514.0,508.0,511.0,507.0
522.0,518.0,519.0,507.0
526.0,519.0,528.0,509.0
527.0,512.0,533.0,509.0
525.0,507.0,535.0,509.0
518.0,502.0,531.0,506.0
510.0,492.0,523.0,505.0
499.0,488.0,512.0,510.0
497.0,489.0,506.0,514.0
499.0,495.0,496.0,517.0
503.0,497.0,498.0,521.0
504.0,500.0,495.0,520.0
514.0,501.0,493.0,519.0
513.0,500.0,496.0,517.0
510.0,500.0,496.0,514.0
510.0,497.0,496.0,508.0
513.0,502.0,507.0,505.0
521.0,529.0,514.0,505.0
525.0,518.0,522.0,504.0
525.0,504.0,526.0,507.0
524.0,514.0,532.0,507.0
525.0,521.0,533.0,509.0
517.0,515.0,526.0,505.0
507.0,500.0,520.0,509.0
496.0,493.0,514.0,515.0
492.0,493.0,507.0,517.0
498.0,501.0,499.0,519.0
504.0,509.0,494.0,521.0
508.0,515.0,495.0,519.0
512.0,521.0,495.0,515.0
512.0,513.0,491.0,514.0
505.0,506.0,495.0,511.0
507.0,505.0,502.0,505.0
506.0,499.0,511.0,508.0
514.0,511.0,516.0,507.0
522.0,505.0,525.0,509.0
527.0,503.0,534.0,509.0
529.0,513.0,536.0,508.0
525.0,509.0,531.0,512.0
515.0,511.0,528.0,508.0
497.0,483.0,518.0,511.0
493.0,493.0,506.0,516.0
497.0,506.0,502.0,517.0
505.0,526.0,499.0,519.0
515.0,539.0,496.0,520.0
512.0,516.0,494.0,517.0
509.0,483.0,495.0,515.0
508.0,501.0,494.0,513.0
504.0,499.0,494.0,514.0
508.0,503.0,501.0,504.0
516.0,504.0,511.0,504.0
522.0,508.0,514.0,503.0
526.0,499.0,526.0,504.0
525.0,494.0,532.0,504.0
524.0,502.0,532.0,507.0
518.0,489.0,527.0,504.0
509.0,484.0,521.0,508.0
498.0,480.0,515.0,508.0
493.0,488.0,504.0,516.0
496.0,498.0,503.0,520.0
502.0,509.0,501.0,523.0
504.0,512.0,501.0,523.0
508.0,513.0,497.0,519.0
508.0,512.0,496.0,514.0
510.0,515.0,495.0,509.0
507.0,509.0,499.0,508.0
510.0,504.0,504.0,506.0
513.0,508.0,516.0,505.0
521.0,512.0,523.0,503.0
522.0,511.0,526.0,506.0
527.0,508.0,534.0,508.0
524.0,507.0,530.0,507.0
517.0,501.0,529.0,506.0
506.0,491.0,522.0,507.0
501.0,481.0,511.0,512.0
498.0,483.0,503.0,514.0
497.0,490.0,503.0,520.0
505.0,500.0,497.0,518.0
506.0,508.0,496.0,523.0
511.0,516.0,497.0,517.0
510.0,507.0,496.0,518.0
503.0,498.0,499.0,513.0
507.0,494.0,501.0,508.0
515.0,506.0,507.0,508.0
516.0,517.0,517.0,506.0
525.0,528.0,525.0,508.0
527.0,521.0,529.0,507.0
529.0,511.0,535.0,509.0
522.0,505.0,530.0,509.0
516.0,494.0,523.0,508.0
502.0,481.0,516.0,511.0
500.0,482.0,515.0,516.0
498.0,494.0,505.0,519.0
501.0,507.0,500.0,522.0
509.0,514.0,499.0,523.0
510.0,519.0,498.0,521.0
509.0,513.0,497.0,519.0
506.0,500.0,498.0,514.0
500.0,492.0,495.0,511.0
509.0,498.0,503.0,507.0
515.0,498.0,510.0,506.0
521.0,515.0,519.0,504.0
525.0,512.0,527.0,506.0
526.0,508.0,533.0,505.0
531.0,515.0,532.0,510.0
525.0,499.0,531.0,510.0
514.0,499.0,523.0,509.0
503.0,493.0,517.0,513.0
499.0,495.0,508.0,517.0
500.0,499.0,502.0,520.0
502.0,514.0,496.0,522.0
501.0,517.0,498.0,525.0
507.0,512.0,496.0,519.0
508.0,507.0,495.0,517.0
507.0,511.0,497.0,510.0
507.0,498.0,499.0,508.0
511.0,501.0,505.0,506.0
517.0,520.0,515.0,504.0
527.0,524.0,525.0,507.0
525.0,531.0,529.0,510.0
526.0,526.0,529.0,507.0
525.0,506.0,531.0,506.0
516.0,505.0,527.0,510.0
506.0,509.0,523.0,511.0
499.0,480.0,512.0,513.0
500.0,496.0,508.0,520.0
502.0,498.0,505.0,523.0
506.0,498.0,503.0,521.0
506.0,501.0,497.0,521.0
501.0,472.0,493.0,514.0
497.0,474.0,494.0,514.0
505.0,505.0,495.0,512.0
505.0,508.0,500.0,504.0
518.0,512.0,507.0,505.0
513.0,512.0,513.0,504.0
525.0,526.0,522.0,505.0
527.0,516.0,530.0,504.0
526.0,510.0,535.0,511.0
520.0,500.0,531.0,510.0
515.0,493.0,528.0,513.0
504.0,489.0,520.0,513.0
498.0,492.0,511.0,516.0
497.0,490.0,506.0,520.0
501.0,492.0,499.0,521.0
509.0,491.0,498.0,520.0
510.0,496.0,495.0,522.0
509.0,499.0,497.0,518.0
513.0,524.0,494.0,512.0
505.0,529.0,495.0,509.0
513.0,534.0,501.0,505.0
512.0,517.0,512.0,502.0
517.0,513.0,514.0,504.0
522.0,514.0,525.0,502.0
523.0,510.0,530.0,504.0
525.0,510.0,532.0,506.0
517.0,508.0,527.0,505.0
508.0,501.0,523.0,507.0
496.0,491.0,515.0,512.0
495.0,492.0,508.0,515.0
498.0,505.0,503.0,518.0
506.0,514.0,497.0,521.0
507.0,515.0,495.0,522.0
507.0,508.0,495.0,518.0
512.0,511.0,496.0,517.0
509.0,504.0,495.0,513.0
508.0,502.0,496.0,509.0
510.0,502.0,505.0,505.0
515.0,506.0,512.0,505.0
524.0,511.0,522.0,503.0
530.0,509.0,531.0,503.0
528.0,504.0,533.0,506.0
524.0,499.0,533.0,506.0
522.0,492.0,528.0,505.0
512.0,489.0,521.0,509.0
502.0,489.0,506.0,510.0
501.0,489.0,502.0,515.0
501.0,487.0,499.0,525.0
501.0,501.0,496.0,521.0
505.0,508.0,495.0,521.0
509.0,520.0,497.0,522.0
506.0,513.0,501.0,518.0
505.0,505.0,500.0,514.0
507.0,498.0,504.0,511.0
514.0,502.0,510.0,507.0
519.0,519.0,519.0,509.0
523.0,516.0,526.0,504.0
528.0,508.0,533.0,509.0
529.0,511.0,537.0,511.0
525.0,510.0,531.0,511.0
517.0,503.0,525.0,507.0
498.0,486.0,517.0,506.0
497.0,496.0,508.0,509.0
502.0,499.0,499.0,516.0
500.0,494.0,497.0,521.0
507.0,508.0,495.0,521.0
509.0,515.0,497.0,521.0
511.0,517.0,494.0,520.0
507.0,515.0,493.0,515.0
512.0,510.0,496.0,509.0
505.0,497.0,502.0,507.0
512.0,507.0,510.0,501.0
518.0,509.0,520.0,506.0
522.0,511.0,528.0,508.0
524.0,508.0,536.0,508.0
526.0,507.0,532.0,509.0
518.0,499.0,531.0,509.0
514.0,488.0,524.0,509.0
500.0,478.0,517.0,508.0
498.0,474.0,510.0,512.0
501.0,481.0,504.0,519.0
503.0,491.0,500.0,520.0
507.0,503.0,495.0,514.0
507.0,523.0,495.0,519.0
511.0,540.0,495.0,516.0
511.0,545.0,497.0,511.0
506.0,534.0,499.0,510.0
502.0,489.0,506.0,508.0
512.0,501.0,513.0,505.0
523.0,515.0,522.0,505.0
526.0,514.0,530.0,503.0
526.0,511.0,534.0,505.0
523.0,506.0,533.0,507.0
520.0,504.0,526.0,506.0
512.0,496.0,518.0,506.0
501.0,492.0,512.0,512.0
499.0,491.0,506.0,516.0
499.0,492.0,500.0,516.0
502.0,492.0,497.0,525.0
508.0,505.0,492.0,523.0
513.0,516.0,492.0,522.0
508.0,520.0,492.0,518.0
504.0,512.0,497.0,516.0
506.0,503.0,503.0,511.0
513.0,499.0,512.0,507.0
520.0,497.0,520.0,507.0
531.0,494.0,529.0,508.0
536.0,501.0,534.0,507.0
534.0,513.0,532.0,506.0
522.0,498.0,530.0,505.0
517.0,490.0,522.0,505.0
503.0,484.0,514.0,508.0
498.0,481.0,509.0,512.0
498.0,486.0,505.0,517.0
503.0,503.0,497.0,520.0
507.0,517.0,495.0,521.0
509.0,522.0,494.0,519.0
515.0,535.0,494.0,517.0
512.0,533.0,497.0,513.0
507.0,518.0,498.0,511.0
508.0,497.0,503.0,506.0
514.0,493.0,512.0,506.0
520.0,504.0,518.0,513.0
529.0,515.0,523.0,506.0
531.0,530.0,533.0,501.0
528.0,520.0,535.0,507.0
519.0,509.0,529.0,507.0
513.0,492.0,522.0,507.0
503.0,488.0,516.0,511.0
501.0,497.0,504.0,517.0
499.0,500.0,496.0,517.0
501.0,499.0,497.0,519.0
507.0,499.0,495.0,520.0
507.0,492.0,493.0,519.0
509.0,506.0,494.0,516.0
507.0,506.0,498.0,517.0
508.0,498.0,500.0,513.0
513.0,497.0,508.0,507.0
514.0,505.0,517.0,511.0
520.0,502.0,526.0,509.0
524.0,512.0,532.0,510.0
525.0,512.0,539.0,512.0
523.0,511.0,535.0,509.0
518.0,499.0,525.0,507.0
514.0,487.0,521.0,509.0
501.0,479.0,518.0,508.0
500.0,477.0,500.0,511.0
495.0,482.0,494.0,517.0
497.0,492.0,497.0,520.0
505.0,510.0,499.0,517.0
509.0,528.0,493.0,516.0
512.0,532.0,492.0,509.0
504.0,520.0,497.0,512.0
508.0,516.0,501.0,508.0
513.0,511.0,512.0,507.0
522.0,511.0,514.0,506.0
530.0,512.0,523.0,505.0
526.0,506.0,530.0,502.0
528.0,512.0,535.0,510.0
520.0,503.0,534.0,511.0
515.0,505.0,528.0,513.0
503.0,494.0,520.0,514.0
496.0,488.0,515.0,519.0
496.0,491.0,507.0,523.0
497.0,486.0,506.0,533.0
502.0,493.0,503.0,533.0
503.0,501.0,500.0,532.0
505.0,513.0,504.0,525.0
507.0,509.0,503.0,520.0
505.0,504.0,500.0,512.0
505.0,509.0,505.0,505.0
512.0,510.0,504.0,499.0
520.0,514.0,514.0,498.0
526.0,516.0,521.0,497.0
526.0,510.0,526.0,498.0
525.0,510.0,531.0,501.0
521.0,504.0,525.0,501.0
513.0,497.0,518.0,504.0
501.0,484.0,511.0,503.0
498.0,489.0,503.0,512.0
499.0,497.0,502.0,512.0
502.0,503.0,493.0,518.0
506.0,500.0,494.0,519.0
508.0,511.0,495.0,518.0
513.0,510.0,491.0,515.0
509.0,503.0,493.0,510.0
508.0,493.0,497.0,506.0
508.0,503.0,505.0,505.0
516.0,500.0,508.0,504.0
526.0,509.0,519.0,507.0
528.0,529.0,529.0,508.0
526.0,533.0,531.0,508.0
527.0,522.0,531.0,510.0
519.0,510.0,529.0,510.0
511.0,474.0,524.0,510.0
501.0,454.0,514.0,516.0
497.0,483.0,507.0,520.0
500.0,484.0,503.0,524.0
506.0,498.0,499.0,523.0
503.0,505.0,497.0,520.0
511.0,527.0,498.0,520.0
510.0,534.0,496.0,514.0
506.0,513.0,497.0,515.0
503.0,510.0,499.0,508.0
512.0,518.0,508.0,504.0
516.0,516.0,515.0,503.0
522.0,518.0,522.0,503.0
531.0,522.0,531.0,504.0
531.0,519.0,534.0,510.0
527.0,517.0,530.0,510.0
521.0,487.0,526.0,511.0
497.0,456.0,523.0,514.0
501.0,480.0,509.0,516.0
497.0,483.0,502.0,514.0
497.0,494.0,494.0,520.0
501.0,507.0,497.0,523.0
504.0,507.0,496.0,519.0
510.0,513.0,495.0,520.0
511.0,526.0,498.0,515.0
511.0,519.0,498.0,513.0
514.0,523.0,504.0,509.0
514.0,521.0,514.0,510.0
519.0,492.0,521.0,510.0
522.0,497.0,530.0,510.0
524.0,507.0,533.0,508.0
526.0,500.0,535.0,509.0
522.0,494.0,528.0,506.0
510.0,489.0,523.0,507.0
499.0,474.0,515.0,512.0
495.0,487.0,504.0,518.0
495.0,497.0,501.0,521.0
499.0,507.0,499.0,525.0
505.0,513.0,500.0,525.0
509.0,517.0,501.0,525.0
510.0,521.0,501.0,517.0
506.0,516.0,501.0,516.0
501.0,509.0,501.0,506.0
507.0,503.0,504.0,504.0
519.0,496.0,510.0,500.0
530.0,495.0,516.0,500.0
533.0,495.0,525.0,499.0
528.0,489.0,530.0,502.0
528.0,493.0,533.0,505.0
522.0,517.0,528.0,505.0
512.0,516.0,520.0,508.0
493.0,504.0,510.0,515.0
492.0,496.0,505.0,517.0
497.0,504.0,499.0,520.0
502.0,516.0,495.0,522.0
505.0,513.0,493.0,521.0
510.0,517.0,493.0,520.0
508.0,510.0,497.0,519.0
509.0,499.0,498.0,514.0
506.0,497.0,504.0,511.0
513.0,512.0,512.0,511.0
518.0,519.0,517.0,510.0
524.0,512.0,525.0,507.0
528.0,511.0,530.0,506.0
527.0,512.0,533.0,511.0
522.0,506.0,532.0,508.0
516.0,496.0,526.0,509.0
503.0,482.0,517.0,510.0
497.0,481.0,507.0,513.0
497.0,483.0,499.0,516.0
497.0,489.0,498.0,520.0
506.0,504.0,496.0,515.0
503.0,518.0,496.0,522.0
514.0,528.0,494.0,519.0
512.0,528.0,493.0,515.0
507.0,506.0,498.0,510.0
506.0,502.0,504.0,509.0
517.0,505.0,507.0,505.0
523.0,506.0,518.0,507.0
526.0,508.0,526.0,507.0
527.0,504.0,533.0,508.0
527.0,517.0,535.0,509.0
520.0,517.0,531.0,509.0
515.0,508.0,526.0,512.0
501.0,509.0,518.0,513.0
498.0,494.0,508.0,520.0
497.0,465.0,505.0,522.0
501.0,488.0,502.0,524.0
505.0,490.0,498.0,527.0
508.0,499.0,504.0,527.0
506.0,507.0,501.0,524.0
507.0,510.0,501.0,521.0
515.0,521.0,498.0,512.0
511.0,515.0,504.0,506.0
514.0,514.0,507.0,501.0
520.0,514.0,517.0,502.0
525.0,512.0,524.0,502.0
526.0,511.0,530.0,502.0
525.0,506.0,529.0,501.0
520.0,506.0,528.0,507.0
510.0,492.0,523.0,509.0
501.0,484.0,512.0,510.0
497.0,482.0,506.0,518.0
497.0,492.0,503.0,519.0
503.0,499.0,496.0,522.0
509.0,504.0,497.0,521.0
515.0,518.0,495.0,520.0
511.0,524.0,499.0,514.0
510.0,514.0,493.0,509.0
511.0,504.0,497.0,503.0
514.0,502.0,505.0,500.0
520.0,507.0,511.0,504.0
522.0,509.0,523.0,504.0
522.0,510.0,530.0,506.0
524.0,502.0,531.0,507.0
521.0,498.0,532.0,507.0
515.0,486.0,524.0,508.0
504.0,475.0,519.0,510.0
500.0,484.0,511.0,515.0
500.0,498.0,504.0,517.0
502.0,505.0,501.0,523.0
508.0,522.0,497.0,524.0
512.0,510.0,497.0,525.0
505.0,507.0,497.0,522.0
506.0,511.0,499.0,519.0
510.0,518.0,499.0,515.0
510.0,511.0,504.0,510.0
510.0,503.0,514.0,508.0
512.0,514.0,519.0,507.0
524.0,516.0,530.0,507.0
