CH1,CH2,CH3,CH4
513.0,520.0,505.0,506.0
515.0,539.0,519.0,508.0
520.0,531.0,532.0,511.0
523.0,521.0,542.0,511.0
523.0,501.0,546.0,511.0
519.0,495.0,548.0,509.0
513.0,490.0,539.0,508.0
503.0,491.0,529.0,509.0
499.0,491.0,512.0,511.0
499.0,499.0,501.0,513.0
499.0,498.0,492.0,514.0
504.0,504.0,487.0,515.0
506.0,513.0,481.0,513.0
506.0,512.0,485.0,513.0
510.0,520.0,487.0,507.0
515.0,516.0,491.0,509.0
505.0,477.0,502.0,508.0
506.0,491.0,508.0,506.0
517.0,510.0,522.0,509.0
525.0,504.0,536.0,509.0
523.0,504.0,546.0,509.0
527.0,504.0,549.0,513.0
518.0,505.0,545.0,512.0
515.0,507.0,540.0,509.0
503.0,498.0,525.0,512.0
498.0,494.0,512.0,513.0
498.0,497.0,499.0,515.0
501.0,495.0,493.0,517.0
499.0,502.0,487.0,516.0
507.0,508.0,484.0,516.0
509.0,512.0,488.0,514.0
509.0,513.0,489.0,512.0
513.0,510.0,494.0,510.0
513.0,509.0,502.0,508.0
511.0,510.0,518.0,505.0
517.0,512.0,527.0,509.0
523.0,513.0,538.0,510.0
524.0,506.0,543.0,512.0
522.0,506.0,549.0,510.0
516.0,509.0,543.0,510.0
514.0,499.0,537.0,510.0
502.0,489.0,527.0,514.0
497.0,490.0,509.0,513.0
498.0,493.0,498.0,515.0
502.0,499.0,491.0,515.0
505.0,497.0,485.0,512.0
506.0,513.0,485.0,514.0
509.0,518.0,483.0,515.0
511.0,514.0,489.0,512.0
510.0,514.0,495.0,510.0
508.0,510.0,508.0,507.0
512.0,499.0,520.0,511.0
521.0,506.0,538.0,512.0
528.0,509.0,546.0,511.0
526.0,504.0,549.0,513.0
520.0,505.0,548.0,513.0
516.0,502.0,541.0,514.0
506.0,495.0,531.0,512.0
499.0,490.0,516.0,513.0
494.0,495.0,506.0,515.0
499.0,488.0,495.0,512.0
500.0,499.0,487.0,517.0
502.0,498.0,486.0,516.0
510.0,505.0,484.0,512.0
510.0,508.0,486.0,510.0
510.0,515.0,489.0,511.0
511.0,511.0,500.0,508.0
518.0,515.0,511.0,507.0
520.0,521.0,523.0,509.0
523.0,518.0,535.0,518.0
525.0,514.0,545.0,513.0
526.0,512.0,546.0,515.0
520.0,506.0,546.0,516.0
514.0,499.0,539.0,517.0
503.0,491.0,533.0,520.0
500.0,493.0,523.0,517.0
501.0,492.0,508.0,518.0
501.0,507.0,494.0,515.0
506.0,510.0,487.0,517.0
507.0,498.0,485.0,511.0
515.0,535.0,485.0,514.0
508.0,510.0,485.0,511.0
506.0,508.0,490.0,508.0
512.0,510.0,500.0,507.0
509.0,475.0,511.0,505.0
517.0,498.0,524.0,504.0
521.0,503.0,532.0,505.0
520.0,500.0,542.0,508.0
521.0,502.0,548.0,510.0
519.0,501.0,539.0,510.0
518.0,506.0,536.0,514.0
503.0,501.0,522.0,510.0
498.0,500.0,509.0,514.0
496.0,505.0,498.0,514.0
502.0,506.0,491.0,515.0
503.0,516.0,487.0,516.0
507.0,516.0,482.0,516.0
507.0,517.0,487.0,513.0
509.0,515.0,488.0,509.0
509.0,505.0,494.0,508.0
513.0,500.0,504.0,506.0
515.0,503.0,518.0,508.0
517.0,507.0,530.0,511.0
522.0,517.0,543.0,508.0
523.0,514.0,547.0,512.0
521.0,516.0,548.0,513.0
514.0,500.0,541.0,512.0
507.0,491.0,533.0,512.0
500.0,501.0,519.0,513.0
501.0,506.0,505.0,513.0
503.0,501.0,495.0,517.0
504.0,503.0,484.0,516.0
506.0,511.0,483.0,516.0
510.0,513.0,483.0,517.0
508.0,509.0,487.0,513.0
513.0,506.0,491.0,511.0
505.0,495.0,496.0,508.0
515.0,492.0,510.0,507.0
519.0,501.0,523.0,508.0
527.0,501.0,534.0,510.0
527.0,512.0,544.0,510.0
529.0,508.0,546.0,512.0
521.0,502.0,544.0,508.0
515.0,503.0,536.0,512.0
504.0,499.0,527.0,509.0
498.0,508.0,514.0,514.0
496.0,508.0,500.0,511.0
496.0,498.0,490.0,516.0
500.0,507.0,484.0,515.0
503.0,509.0,483.0,515.0
506.0,509.0,485.0,514.0
508.0,507.0,486.0,510.0
509.0,506.0,491.0,509.0
510.0,505.0,501.0,507.0
513.0,504.0,511.0,508.0
518.0,506.0,526.0,510.0
526.0,506.0,537.0,510.0
522.0,505.0,546.0,508.0
526.0,512.0,547.0,512.0
523.0,503.0,542.0,513.0
516.0,503.0,537.0,509.0
504.0,494.0,522.0,509.0
498.0,481.0,508.0,513.0
501.0,484.0,498.0,513.0
501.0,503.0,490.0,518.0
501.0,507.0,484.0,514.0
504.0,527.0,483.0,516.0
506.0,529.0,484.0,513.0
508.0,524.0,488.0,513.0
510.0,518.0,495.0,510.0
512.0,520.0,505.0,508.0
512.0,511.0,515.0,508.0
521.0,512.0,528.0,511.0
525.0,521.0,539.0,512.0
526.0,510.0,548.0,513.0
522.0,510.0,546.0,511.0
518.0,503.0,541.0,514.0
508.0,485.0,531.0,512.0
501.0,475.0,518.0,513.0
499.0,487.0,503.0,513.0
501.0,496.0,493.0,513.0
501.0,504.0,487.0,516.0
503.0,506.0,478.0,513.0
506.0,508.0,483.0,515.0
504.0,507.0,484.0,511.0
506.0,503.0,489.0,511.0
507.0,499.0,498.0,507.0
512.0,506.0,506.0,509.0
514.0,510.0,519.0,508.0
523.0,512.0,533.0,513.0
527.0,509.0,542.0,513.0
527.0,510.0,545.0,517.0
518.0,508.0,544.0,516.0
516.0,513.0,539.0,514.0
509.0,515.0,528.0,514.0
501.0,504.0,519.0,517.0
500.0,489.0,508.0,514.0
498.0,503.0,496.0,517.0
505.0,506.0,485.0,516.0
506.0,500.0,481.0,515.0
509.0,513.0,480.0,514.0
509.0,509.0,482.0,511.0
508.0,504.0,491.0,505.0
507.0,487.0,499.0,507.0
513.0,507.0,509.0,505.0
518.0,519.0,523.0,508.0
522.0,513.0,532.0,508.0
523.0,504.0,542.0,508.0
522.0,501.0,542.0,511.0
516.0,490.0,540.0,511.0
514.0,496.0,535.0,513.0
501.0,488.0,518.0,514.0
498.0,491.0,508.0,515.0
504.0,502.0,497.0,512.0
503.0,521.0,490.0,516.0
509.0,533.0,483.0,516.0
515.0,533.0,485.0,516.0
510.0,516.0,479.0,513.0
506.0,505.0,487.0,513.0
499.0,487.0,490.0,508.0
501.0,503.0,504.0,506.0
513.0,506.0,509.0,505.0
521.0,504.0,523.0,504.0
525.0,503.0,534.0,510.0
519.0,508.0,540.0,508.0
524.0,502.0,541.0,508.0
518.0,496.0,538.0,508.0
511.0,486.0,530.0,508.0
506.0,483.0,515.0,510.0
506.0,480.0,502.0,515.0
502.0,487.0,494.0,516.0
513.0,495.0,487.0,517.0
507.0,502.0,481.0,514.0
507.0,514.0,484.0,518.0
506.0,519.0,483.0,515.0
505.0,522.0,490.0,515.0
503.0,513.0,493.0,511.0
508.0,513.0,506.0,512.0
512.0,509.0,515.0,506.0
521.0,508.0,526.0,509.0
522.0,497.0,537.0,507.0
519.0,498.0,544.0,508.0
519.0,492.0,540.0,509.0
516.0,498.0,534.0,510.0
500.0,501.0,523.0,511.0
499.0,487.0,512.0,512.0
496.0,505.0,494.0,512.0
504.0,506.0,491.0,515.0
504.0,505.0,483.0,514.0
502.0,509.0,481.0,515.0
508.0,515.0,481.0,512.0
508.0,506.0,483.0,512.0
506.0,502.0,487.0,510.0
505.0,500.0,493.0,507.0
513.0,502.0,510.0,508.0
516.0,515.0,520.0,509.0
523.0,521.0,532.0,509.0
524.0,519.0,542.0,512.0
526.0,510.0,543.0,510.0
520.0,496.0,539.0,512.0
517.0,494.0,532.0,511.0
502.0,489.0,521.0,513.0
496.0,490.0,508.0,514.0
497.0,491.0,496.0,512.0
503.0,493.0,483.0,513.0
503.0,494.0,482.0,516.0
505.0,498.0,482.0,516.0
511.0,503.0,482.0,512.0
509.0,516.0,487.0,512.0
513.0,512.0,490.0,510.0
517.0,520.0,501.0,506.0
519.0,518.0,512.0,508.0
527.0,521.0,524.0,509.0
525.0,511.0,537.0,508.0
521.0,502.0,545.0,512.0
522.0,501.0,545.0,513.0
515.0,512.0,540.0,512.0
509.0,501.0,532.0,510.0
499.0,491.0,518.0,513.0
494.0,496.0,504.0,515.0
496.0,504.0,495.0,514.0
499.0,510.0,484.0,516.0
503.0,507.0,484.0,516.0
506.0,513.0,479.0,513.0
508.0,513.0,481.0,511.0
508.0,506.0,487.0,513.0
507.0,507.0,494.0,509.0
512.0,492.0,502.0,507.0
517.0,493.0,516.0,508.0
525.0,507.0,525.0,508.0
528.0,516.0,538.0,509.0
526.0,520.0,547.0,511.0
523.0,518.0,541.0,509.0
516.0,511.0,539.0,512.0
504.0,495.0,524.0,511.0
499.0,494.0,514.0,514.0
498.0,497.0,502.0,513.0
497.0,504.0,492.0,514.0
505.0,508.0,486.0,513.0
504.0,511.0,483.0,514.0
507.0,513.0,484.0,513.0
509.0,515.0,485.0,511.0
509.0,513.0,487.0,507.0
509.0,508.0,497.0,506.0
514.0,511.0,510.0,506.0
521.0,509.0,524.0,507.0
526.0,508.0,533.0,508.0
524.0,504.0,545.0,513.0
525.0,501.0,548.0,515.0
521.0,494.0,546.0,512.0
515.0,497.0,537.0,510.0
502.0,495.0,529.0,515.0
504.0,494.0,512.0,515.0
499.0,500.0,500.0,514.0
501.0,501.0,486.0,514.0
500.0,505.0,482.0,510.0
506.0,509.0,477.0,509.0
507.0,508.0,483.0,511.0
510.0,510.0,486.0,508.0
510.0,503.0,490.0,507.0
513.0,499.0,500.0,506.0
514.0,498.0,511.0,508.0
520.0,511.0,525.0,509.0
525.0,518.0,537.0,508.0
522.0,508.0,545.0,512.0
524.0,509.0,545.0,512.0
516.0,502.0,538.0,512.0
512.0,490.0,531.0,514.0
504.0,483.0,518.0,512.0
498.0,480.0,504.0,514.0
497.0,475.0,495.0,516.0
498.0,480.0,487.0,517.0
504.0,490.0,485.0,515.0
511.0,510.0,481.0,514.0
516.0,529.0,485.0,509.0
515.0,539.0,491.0,512.0
510.0,500.0,494.0,507.0
510.0,519.0,501.0,507.0
517.0,522.0,515.0,506.0
523.0,535.0,531.0,509.0
528.0,533.0,539.0,511.0
528.0,523.0,545.0,517.0
529.0,514.0,545.0,515.0
522.0,499.0,535.0,514.0
508.0,486.0,532.0,515.0
503.0,475.0,517.0,509.0
502.0,492.0,503.0,513.0
501.0,499.0,490.0,512.0
498.0,507.0,485.0,514.0
497.0,525.0,480.0,512.0
506.0,526.0,481.0,508.0
510.0,524.0,484.0,507.0
507.0,519.0,486.0,507.0
502.0,475.0,495.0,504.0
511.0,486.0,507.0,502.0
516.0,513.0,520.0,504.0
517.0,520.0,532.0,507.0
518.0,501.0,540.0,509.0
521.0,505.0,543.0,508.0
519.0,502.0,540.0,509.0
515.0,500.0,534.0,509.0
502.0,492.0,523.0,510.0
500.0,491.0,510.0,512.0
499.0,496.0,498.0,512.0
498.0,502.0,490.0,513.0
503.0,506.0,484.0,515.0
505.0,507.0,482.0,515.0
510.0,513.0,486.0,513.0
508.0,510.0,486.0,511.0
509.0,505.0,490.0,507.0
508.0,500.0,501.0,506.0
510.0,500.0,510.0,507.0
517.0,503.0,525.0,508.0
525.0,504.0,536.0,511.0
523.0,498.0,543.0,511.0
520.0,499.0,544.0,510.0
518.0,504.0,540.0,509.0
514.0,506.0,535.0,512.0
503.0,499.0,519.0,511.0
501.0,501.0,506.0,513.0
503.0,501.0,494.0,515.0
504.0,506.0,487.0,514.0
502.0,498.0,482.0,514.0
503.0,496.0,483.0,512.0
504.0,503.0,482.0,512.0
506.0,506.0,487.0,509.0
506.0,495.0,493.0,505.0
511.0,512.0,504.0,504.0
515.0,517.0,516.0,509.0
523.0,506.0,527.0,511.0
527.0,517.0,539.0,510.0
527.0,501.0,545.0,510.0
523.0,498.0,541.0,510.0
518.0,514.0,533.0,513.0
506.0,501.0,528.0,513.0
500.0,496.0,512.0,514.0
496.0,500.0,502.0,515.0
499.0,501.0,493.0,513.0
500.0,506.0,486.0,517.0
508.0,513.0,483.0,516.0
511.0,520.0,483.0,513.0
509.0,517.0,481.0,512.0
508.0,512.0,491.0,509.0
511.0,509.0,499.0,508.0
512.0,505.0,509.0,507.0
517.0,510.0,520.0,509.0
522.0,508.0,532.0,510.0
525.0,504.0,545.0,511.0
523.0,508.0,544.0,513.0
518.0,504.0,543.0,511.0
517.0,498.0,537.0,509.0
503.0,497.0,523.0,512.0
497.0,496.0,511.0,513.0
495.0,493.0,497.0,513.0
500.0,495.0,491.0,517.0
500.0,496.0,486.0,513.0
502.0,498.0,481.0,514.0
513.0,522.0,484.0,512.0
510.0,521.0,486.0,511.0
512.0,519.0,493.0,509.0
509.0,503.0,508.0,509.0
513.0,506.0,513.0,508.0
520.0,508.0,525.0,509.0
523.0,507.0,536.0,510.0
524.0,507.0,544.0,508.0
524.0,508.0,544.0,514.0
518.0,506.0,540.0,512.0
515.0,510.0,535.0,510.0
501.0,503.0,518.0,515.0
497.0,494.0,507.0,517.0
498.0,495.0,497.0,512.0
502.0,489.0,489.0,513.0
502.0,500.0,483.0,519.0
506.0,516.0,484.0,514.0
508.0,526.0,484.0,513.0
509.0,531.0,488.0,510.0
506.0,493.0,496.0,508.0
504.0,480.0,507.0,507.0
513.0,495.0,512.0,506.0
524.0,503.0,528.0,509.0
530.0,502.0,540.0,509.0
525.0,498.0,546.0,508.0
525.0,501.0,546.0,511.0
520.0,506.0,537.0,511.0
502.0,496.0,532.0,511.0
500.0,490.0,528.0,512.0
500.0,485.0,518.0,515.0
505.0,496.0,489.0,513.0
507.0,505.0,485.0,509.0
508.0,510.0,483.0,515.0
511.0,523.0,484.0,511.0
507.0,526.0,484.0,509.0
508.0,517.0,487.0,509.0
509.0,509.0,496.0,504.0
514.0,516.0,505.0,507.0
518.0,514.0,521.0,505.0
522.0,513.0,533.0,511.0
528.0,511.0,542.0,510.0
525.0,490.0,546.0,509.0
520.0,500.0,543.0,510.0
515.0,512.0,536.0,509.0
503.0,493.0,525.0,511.0
497.0,502.0,515.0,513.0
499.0,506.0,496.0,524.0
499.0,505.0,497.0,523.0
507.0,511.0,497.0,520.0
506.0,509.0,496.0,516.0
511.0,513.0,501.0,513.0
513.0,526.0,507.0,515.0
518.0,529.0,514.0,509.0
518.0,517.0,518.0,513.0
525.0,520.0,529.0,511.0
528.0,510.0,534.0,508.0
526.0,512.0,538.0,510.0
519.0,506.0,534.0,512.0
520.0,506.0,535.0,511.0
511.0,492.0,528.0,518.0
502.0,492.0,519.0,518.0
498.0,494.0,508.0,520.0
498.0,497.0,498.0,522.0
503.0,500.0,495.0,518.0
507.0,501.0,492.0,518.0
508.0,497.0,490.0,513.0
510.0,503.0,491.0,509.0
514.0,524.0,495.0,510.0
511.0,519.0,504.0,510.0
517.0,508.0,514.0,507.0
519.0,506.0,520.0,504.0
524.0,518.0,529.0,501.0
529.0,532.0,534.0,508.0
528.0,542.0,538.0,509.0
524.0,529.0,535.0,508.0
523.0,525.0,532.0,510.0
509.0,479.0,520.0,510.0
498.0,450.0,513.0,516.0
502.0,476.0,503.0,520.0
503.0,495.0,495.0,519.0
505.0,509.0,491.0,518.0
502.0,507.0,492.0,518.0
501.0,505.0,493.0,518.0
506.0,513.0,495.0,513.0
511.0,514.0,497.0,509.0
507.0,511.0,512.0,507.0
513.0,505.0,515.0,503.0
524.0,510.0,525.0,506.0
524.0,513.0,534.0,507.0
520.0,502.0,538.0,515.0
520.0,498.0,537.0,510.0
515.0,502.0,535.0,511.0
515.0,502.0,530.0,512.0
500.0,497.0,514.0,514.0
498.0,498.0,508.0,516.0
501.0,501.0,495.0,518.0
505.0,505.0,495.0,519.0
505.0,506.0,493.0,517.0
504.0,503.0,494.0,516.0
503.0,509.0,493.0,516.0
508.0,514.0,496.0,515.0
508.0,507.0,503.0,512.0
514.0,514.0,511.0,513.0
516.0,520.0,523.0,515.0
518.0,513.0,532.0,512.0
526.0,510.0,535.0,513.0
530.0,514.0,546.0,514.0
525.0,507.0,540.0,513.0
518.0,505.0,533.0,512.0
508.0,491.0,523.0,514.0
502.0,488.0,521.0,518.0
503.0,493.0,509.0,519.0
501.0,493.0,501.0,524.0
509.0,501.0,496.0,523.0
510.0,509.0,493.0,522.0
510.0,502.0,493.0,519.0
512.0,494.0,498.0,514.0
514.0,508.0,497.0,511.0
516.0,508.0,504.0,507.0
517.0,520.0,514.0,509.0
516.0,522.0,521.0,508.0
522.0,513.0,533.0,508.0
526.0,512.0,540.0,508.0
528.0,518.0,539.0,509.0
517.0,501.0,534.0,508.0
516.0,508.0,530.0,509.0
504.0,496.0,521.0,510.0
502.0,484.0,508.0,515.0
498.0,493.0,496.0,515.0
503.0,501.0,493.0,517.0
507.0,505.0,489.0,518.0
507.0,510.0,489.0,515.0
505.0,512.0,489.0,513.0
506.0,515.0,496.0,516.0
508.0,513.0,500.0,513.0
511.0,507.0,508.0,510.0
516.0,507.0,518.0,509.0
522.0,516.0,528.0,510.0
527.0,518.0,535.0,507.0
529.0,508.0,541.0,506.0
526.0,512.0,538.0,509.0
520.0,515.0,533.0,509.0
514.0,488.0,527.0,509.0
499.0,495.0,517.0,511.0
499.0,495.0,508.0,516.0
499.0,480.0,501.0,516.0
498.0,502.0,494.0,521.0
497.0,511.0,495.0,524.0
504.0,519.0,500.0,527.0
500.0,511.0,494.0,514.0
506.0,509.0,497.0,515.0
509.0,501.0,503.0,510.0
511.0,499.0,513.0,510.0
516.0,499.0,522.0,509.0
530.0,511.0,531.0,507.0
534.0,519.0,533.0,509.0
533.0,519.0,538.0,505.0
524.0,510.0,535.0,510.0
523.0,505.0,532.0,512.0
515.0,507.0,522.0,512.0
508.0,501.0,514.0,517.0
504.0,506.0,507.0,517.0
505.0,505.0,500.0,521.0
508.0,503.0,498.0,523.0
508.0,505.0,492.0,522.0
509.0,510.0,492.0,521.0
509.0,515.0,491.0,519.0
512.0,511.0,500.0,515.0
511.0,505.0,508.0,512.0
513.0,504.0,519.0,517.0
517.0,504.0,528.0,517.0
526.0,509.0,539.0,512.0
527.0,510.0,543.0,510.0
530.0,513.0,539.0,508.0
517.0,499.0,533.0,505.0
516.0,497.0,527.0,507.0
504.0,491.0,517.0,512.0
502.0,491.0,510.0,519.0
502.0,489.0,502.0,522.0
502.0,495.0,496.0,519.0
499.0,516.0,491.0,519.0
505.0,520.0,494.0,519.0
505.0,523.0,493.0,517.0
507.0,529.0,496.0,512.0
508.0,524.0,502.0,513.0
509.0,504.0,507.0,510.0
513.0,476.0,514.0,509.0
518.0,472.0,522.0,508.0
526.0,488.0,529.0,509.0
527.0,485.0,537.0,508.0
524.0,488.0,540.0,510.0
518.0,495.0,532.0,513.0
517.0,503.0,532.0,513.0
505.0,515.0,521.0,516.0
500.0,523.0,512.0,519.0
497.0,512.0,500.0,522.0
500.0,514.0,498.0,524.0
499.0,504.0,497.0,526.0
503.0,519.0,495.0,524.0
505.0,509.0,494.0,519.0
509.0,514.0,495.0,515.0
507.0,509.0,499.0,510.0
513.0,509.0,505.0,504.0
514.0,508.0,517.0,504.0
521.0,509.0,527.0,504.0
525.0,509.0,534.0,508.0
519.0,511.0,540.0,511.0
515.0,503.0,542.0,509.0
513.0,503.0,536.0,515.0
508.0,501.0,528.0,513.0
502.0,497.0,517.0,517.0
500.0,502.0,509.0,519.0
500.0,504.0,501.0,519.0
500.0,509.0,496.0,518.0
503.0,515.0,491.0,515.0
509.0,518.0,486.0,512.0
507.0,516.0,492.0,513.0
516.0,518.0,499.0,512.0
510.0,504.0,503.0,511.0
515.0,508.0,510.0,507.0
516.0,507.0,520.0,506.0
520.0,506.0,532.0,508.0
526.0,511.0,542.0,517.0
530.0,520.0,544.0,513.0
521.0,507.0,536.0,513.0
519.0,504.0,529.0,510.0
504.0,485.0,519.0,510.0
499.0,475.0,509.0,513.0
501.0,493.0,505.0,516.0
501.0,499.0,494.0,518.0
506.0,517.0,491.0,518.0
506.0,523.0,493.0,519.0
506.0,514.0,489.0,514.0
511.0,531.0,498.0,517.0
511.0,507.0,502.0,509.0
508.0,484.0,509.0,508.0
512.0,500.0,517.0,506.0
519.0,503.0,522.0,507.0
521.0,504.0,527.0,506.0
523.0,504.0,536.0,507.0
518.0,506.0,539.0,510.0
516.0,506.0,532.0,510.0
517.0,500.0,528.0,513.0
504.0,493.0,516.0,514.0
503.0,497.0,505.0,515.0
503.0,497.0,498.0,518.0
502.0,503.0,494.0,520.0
506.0,509.0,492.0,519.0
506.0,516.0,496.0,520.0
507.0,516.0,492.0,515.0
509.0,519.0,494.0,513.0
508.0,505.0,499.0,511.0
512.0,508.0,509.0,509.0
517.0,504.0,519.0,510.0
525.0,507.0,531.0,511.0
528.0,506.0,537.0,511.0
529.0,500.0,541.0,513.0
523.0,491.0,537.0,512.0
515.0,510.0,532.0,511.0
512.0,501.0,527.0,514.0
502.0,493.0,513.0,516.0
494.0,496.0,504.0,518.0
497.0,503.0,496.0,519.0
498.0,506.0,493.0,527.0
502.0,510.0,491.0,521.0
503.0,510.0,493.0,521.0
505.0,506.0,496.0,516.0
511.0,511.0,500.0,514.0
509.0,503.0,504.0,511.0
512.0,497.0,515.0,511.0
514.0,504.0,521.0,510.0
520.0,511.0,531.0,512.0
518.0,506.0,538.0,516.0
522.0,510.0,548.0,514.0
510.0,501.0,537.0,518.0
516.0,509.0,536.0,515.0
503.0,493.0,523.0,516.0
500.0,503.0,512.0,520.0
500.0,515.0,505.0,521.0
499.0,498.0,493.0,521.0
501.0,502.0,494.0,520.0
508.0,520.0,492.0,516.0
509.0,512.0,494.0,514.0
508.0,528.0,495.0,513.0
513.0,525.0,500.0,513.0
514.0,514.0,506.0,512.0
516.0,504.0,516.0,510.0
516.0,489.0,526.0,513.0
521.0,503.0,533.0,515.0
522.0,513.0,540.0,511.0
522.0,512.0,539.0,512.0
517.0,504.0,533.0,511.0
517.0,493.0,529.0,510.0
505.0,471.0,517.0,514.0
502.0,479.0,510.0,516.0
502.0,483.0,500.0,517.0
503.0,491.0,494.0,519.0
498.0,513.0,488.0,517.0
501.0,519.0,489.0,518.0
503.0,514.0,489.0,516.0
500.0,528.0,503.0,514.0
499.0,525.0,498.0,511.0
505.0,511.0,509.0,510.0
511.0,507.0,521.0,511.0
526.0,505.0,528.0,511.0
534.0,508.0,535.0,511.0
526.0,500.0,542.0,515.0
518.0,501.0,548.0,518.0
517.0,520.0,547.0,522.0
518.0,517.0,540.0,520.0
505.0,503.0,510.0,519.0
502.0,506.0,502.0,521.0
504.0,505.0,493.0,518.0
505.0,518.0,487.0,514.0
506.0,524.0,483.0,511.0
510.0,495.0,486.0,511.0
503.0,483.0,490.0,513.0
512.0,508.0,496.0,513.0
515.0,506.0,499.0,507.0
515.0,500.0,511.0,507.0
516.0,499.0,520.0,506.0
521.0,512.0,531.0,508.0
519.0,521.0,540.0,511.0
518.0,518.0,542.0,512.0
514.0,506.0,533.0,509.0
515.0,512.0,529.0,506.0
505.0,500.0,521.0,512.0
501.0,497.0,513.0,516.0
499.0,500.0,502.0,521.0
499.0,503.0,501.0,524.0
503.0,506.0,496.0,522.0
504.0,511.0,498.0,521.0
506.0,512.0,497.0,516.0
509.0,513.0,490.0,512.0
510.0,511.0,495.0,509.0
509.0,509.0,501.0,506.0
514.0,511.0,514.0,508.0
521.0,512.0,523.0,508.0
525.0,511.0,530.0,509.0
526.0,504.0,537.0,509.0
524.0,494.0,542.0,510.0
515.0,484.0,535.0,511.0
515.0,499.0,530.0,511.0
503.0,498.0,518.0,515.0
496.0,494.0,509.0,520.0
496.0,503.0,504.0,520.0
505.0,521.0,498.0,521.0
506.0,535.0,493.0,520.0
512.0,528.0,494.0,521.0
502.0,493.0,495.0,517.0
507.0,499.0,497.0,513.0
506.0,514.0,499.0,510.0
508.0,514.0,508.0,512.0
513.0,512.0,521.0,511.0
522.0,514.0,528.0,507.0
522.0,510.0,534.0,510.0
524.0,500.0,542.0,511.0
517.0,487.0,542.0,514.0
514.0,498.0,540.0,514.0
510.0,498.0,535.0,518.0
499.0,489.0,521.0,521.0
497.0,495.0,506.0,520.0
499.0,499.0,498.0,519.0
500.0,507.0,497.0,523.0
505.0,514.0,494.0,519.0
505.0,511.0,489.0,514.0
500.0,506.0,494.0,511.0
509.0,512.0,494.0,512.0
509.0,503.0,503.0,508.0
517.0,501.0,509.0,509.0
521.0,508.0,523.0,508.0
522.0,507.0,531.0,511.0
526.0,507.0,538.0,509.0
525.0,506.0,541.0,511.0
518.0,511.0,538.0,513.0
512.0,514.0,535.0,513.0
503.0,499.0,527.0,516.0
501.0,475.0,512.0,518.0
503.0,480.0,504.0,517.0
504.0,498.0,497.0,521.0
504.0,507.0,492.0,518.0
503.0,514.0,490.0,517.0
506.0,526.0,491.0,516.0
505.0,519.0,494.0,513.0
504.0,518.0,497.0,513.0
505.0,512.0,505.0,508.0
511.0,507.0,515.0,507.0
519.0,510.0,518.0,506.0
524.0,510.0,531.0,508.0
524.0,513.0,537.0,509.0
524.0,511.0,536.0,510.0
514.0,508.0,533.0,509.0
513.0,509.0,531.0,512.0
502.0,494.0,520.0,514.0
499.0,494.0,510.0,516.0
499.0,497.0,503.0,517.0
501.0,499.0,497.0,521.0
504.0,508.0,492.0,520.0
502.0,510.0,494.0,518.0
501.0,501.0,493.0,517.0
508.0,500.0,496.0,516.0
510.0,491.0,504.0,514.0
511.0,509.0,513.0,511.0
519.0,522.0,519.0,512.0
525.0,521.0,528.0,510.0
527.0,509.0,536.0,512.0
524.0,502.0,541.0,512.0
519.0,500.0,541.0,510.0
514.0,503.0,538.0,512.0
514.0,507.0,532.0,514.0
501.0,505.0,518.0,516.0
502.0,503.0,509.0,517.0
499.0,501.0,497.0,515.0
501.0,502.0,493.0,517.0
503.0,514.0,488.0,516.0
508.0,534.0,489.0,516.0
507.0,529.0,493.0,516.0
513.0,538.0,497.0,512.0
511.0,536.0,507.0,509.0
507.0,478.0,513.0,509.0
515.0,493.0,520.0,510.0
516.0,506.0,527.0,507.0
524.0,506.0,536.0,508.0
522.0,490.0,539.0,511.0
516.0,495.0,535.0,509.0
515.0,501.0,530.0,513.0
506.0,494.0,526.0,516.0
499.0,497.0,522.0,512.0
501.0,500.0,500.0,516.0
502.0,507.0,492.0,518.0
502.0,504.0,491.0,521.0
500.0,506.0,492.0,524.0
506.0,509.0,497.0,521.0
508.0,506.0,498.0,519.0
514.0,503.0,502.0,519.0
506.0,489.0,510.0,517.0
513.0,489.0,514.0,514.0
521.0,496.0,527.0,511.0
524.0,502.0,535.0,509.0
526.0,513.0,538.0,504.0
522.0,506.0,538.0,507.0
509.0,506.0,532.0,509.0
509.0,509.0,530.0,510.0
499.0,491.0,517.0,512.0
500.0,488.0,505.0,513.0
500.0,488.0,494.0,512.0
504.0,496.0,491.0,515.0
504.0,497.0,488.0,516.0
508.0,510.0,492.0,517.0
502.0,513.0,492.0,514.0
505.0,518.0,494.0,511.0
502.0,522.0,498.0,508.0
504.0,506.0,506.0,505.0
515.0,504.0,521.0,506.0
520.0,508.0,526.0,509.0
527.0,524.0,534.0,511.0
524.0,522.0,540.0,513.0
522.0,523.0,538.0,512.0
520.0,504.0,537.0,516.0
511.0,507.0,534.0,518.0
503.0,500.0,524.0,522.0
503.0,501.0,512.0,523.0
502.0,492.0,502.0,520.0
506.0,504.0,498.0,516.0
509.0,516.0,491.0,518.0
515.0,516.0,486.0,515.0
501.0,512.0,490.0,514.0
504.0,506.0,496.0,514.0
500.0,518.0,502.0,510.0
506.0,519.0,511.0,508.0
515.0,510.0,521.0,507.0
519.0,511.0,529.0,508.0
520.0,503.0,534.0,508.0
521.0,501.0,536.0,509.0
518.0,499.0,538.0,514.0
517.0,509.0,532.0,514.0
510.0,507.0,528.0,516.0
505.0,504.0,515.0,524.0
504.0,497.0,506.0,522.0
502.0,492.0,501.0,521.0
503.0,498.0,496.0,519.0
500.0,494.0,496.0,518.0
500.0,506.0,494.0,515.0
506.0,529.0,493.0,512.0
511.0,533.0,496.0,512.0
510.0,524.0,505.0,509.0
517.0,527.0,513.0,507.0
515.0,490.0,525.0,507.0
518.0,490.0,527.0,505.0
522.0,504.0,537.0,505.0
521.0,503.0,536.0,506.0
515.0,484.0,533.0,508.0
519.0,478.0,529.0,510.0
510.0,475.0,517.0,514.0
502.0,487.0,510.0,517.0
499.0,489.0,501.0,521.0
504.0,502.0,495.0,524.0
505.0,513.0,496.0,522.0
504.0,515.0,496.0,518.0
505.0,511.0,495.0,518.0
509.0,517.0,503.0,517.0
507.0,526.0,510.0,518.0
509.0,522.0,520.0,515.0
511.0,516.0,526.0,515.0
516.0,512.0,532.0,511.0
524.0,514.0,534.0,507.0
523.0,516.0,538.0,507.0
522.0,510.0,535.0,504.0
512.0,503.0,530.0,504.0
512.0,498.0,526.0,508.0
500.0,481.0,519.0,511.0
494.0,478.0,505.0,513.0
493.0,484.0,496.0,516.0
499.0,488.0,492.0,512.0
501.0,496.0,481.0,512.0
507.0,522.0,488.0,514.0
503.0,518.0,491.0,511.0
512.0,522.0,497.0,511.0
510.0,511.0,502.0,509.0
516.0,511.0,514.0,508.0
518.0,513.0,519.0,510.0
521.0,513.0,526.0,508.0
525.0,507.0,538.0,509.0
527.0,509.0,540.0,510.0
521.0,503.0,540.0,512.0
516.0,496.0,535.0,514.0
505.0,491.0,525.0,515.0
503.0,503.0,512.0,519.0
505.0,509.0,500.0,518.0
502.0,509.0,495.0,522.0
508.0,513.0,496.0,521.0
506.0,500.0,494.0,521.0
508.0,493.0,497.0,517.0
508.0,498.0,501.0,516.0
513.0,516.0,502.0,513.0
510.0,514.0,505.0,508.0
514.0,509.0,514.0,505.0
518.0,512.0,525.0,507.0
523.0,504.0,532.0,506.0
521.0,495.0,537.0,507.0
524.0,506.0,539.0,508.0
517.0,513.0,534.0,507.0
518.0,511.0,525.0,507.0
506.0,490.0,519.0,505.0
495.0,489.0,510.0,512.0
501.0,480.0,502.0,514.0
503.0,497.0,496.0,519.0
501.0,515.0,489.0,517.0
509.0,528.0,495.0,517.0
507.0,528.0,494.0,515.0
514.0,529.0,496.0,511.0
510.0,506.0,499.0,510.0
503.0,476.0,510.0,509.0
514.0,500.0,519.0,511.0
521.0,525.0,529.0,509.0
524.0,529.0,534.0,506.0
527.0,514.0,538.0,509.0
526.0,499.0,537.0,513.0
519.0,488.0,532.0,508.0
517.0,495.0,528.0,512.0
505.0,492.0,513.0,512.0
500.0,503.0,505.0,514.0
496.0,513.0,498.0,519.0
496.0,521.0,489.0,520.0
497.0,516.0,493.0,523.0
504.0,512.0,502.0,526.0
498.0,500.0,498.0,523.0
505.0,500.0,504.0,524.0
502.0,487.0,506.0,518.0
508.0,494.0,512.0,511.0
519.0,518.0,521.0,505.0
525.0,524.0,538.0,507.0
521.0,509.0,531.0,504.0
522.0,500.0,534.0,506.0
520.0,493.0,534.0,504.0
521.0,495.0,532.0,506.0
509.0,477.0,523.0,510.0
506.0,498.0,512.0,513.0
501.0,480.0,497.0,521.0
498.0,504.0,496.0,521.0
504.0,517.0,492.0,526.0
507.0,516.0,493.0,522.0
506.0,509.0,498.0,525.0
508.0,496.0,500.0,522.0
505.0,505.0,504.0,521.0
499.0,510.0,512.0,515.0
503.0,513.0,522.0,512.0
514.0,519.0,532.0,516.0
527.0,526.0,537.0,521.0
524.0,517.0,541.0,515.0
530.0,512.0,542.0,519.0
516.0,495.0,535.0,517.0
518.0,498.0,528.0,517.0
504.0,508.0,522.0,514.0
506.0,506.0,513.0,518.0
505.0,518.0,509.0,522.0
503.0,528.0,507.0,522.0
504.0,485.0,495.0,521.0
507.0,484.0,487.0,516.0
510.0,504.0,484.0,511.0
516.0,513.0,484.0,511.0
516.0,521.0,487.0,505.0
514.0,528.0,495.0,502.0
522.0,528.0,511.0,506.0
524.0,535.0,524.0,505.0
529.0,525.0,538.0,507.0
519.0,475.0,546.0,513.0
507.0,468.0,553.0,513.0
503.0,456.0,529.0,510.0
508.0,480.0,520.0,515.0
499.0,486.0,508.0,514.0
495.0,517.0,499.0,518.0
496.0,516.0,495.0,526.0
496.0,520.0,494.0,527.0
497.0,514.0,498.0,531.0
505.0,503.0,508.0,529.0
508.0,537.0,504.0,522.0
511.0,522.0,495.0,511.0
512.0,519.0,496.0,502.0
516.0,515.0,507.0,498.0
521.0,512.0,517.0,501.0
532.0,524.0,522.0,499.0
539.0,534.0,524.0,497.0
532.0,516.0,528.0,498.0
526.0,511.0,525.0,500.0
521.0,489.0,522.0,504.0
499.0,445.0,519.0,510.0
497.0,487.0,512.0,513.0
494.0,497.0,503.0,514.0
497.0,488.0,498.0,519.0
497.0,506.0,481.0,518.0
505.0,514.0,475.0,519.0
511.0,513.0,486.0,517.0
509.0,498.0,491.0,518.0
512.0,514.0,502.0,525.0
516.0,513.0,517.0,530.0
521.0,512.0,531.0,533.0
524.0,504.0,525.0,517.0
525.0,488.0,522.0,504.0
523.0,496.0,537.0,506.0
504.0,525.0,549.0,514.0
494.0,527.0,537.0,517.0
505.0,519.0,528.0,507.0
502.0,506.0,516.0,508.0
502.0,506.0,504.0,511.0
501.0,507.0,496.0,512.0
499.0,504.0,488.0,516.0
502.0,501.0,485.0,512.0
507.0,498.0,484.0,511.0
508.0,499.0,481.0,506.0
510.0,495.0,489.0,506.0
510.0,500.0,501.0,505.0
509.0,515.0,507.0,503.0
505.0,491.0,510.0,507.0
516.0,501.0,509.0,505.0
524.0,506.0,525.0,510.0
520.0,505.0,540.0,518.0
516.0,497.0,549.0,526.0
513.0,534.0,555.0,524.0
508.0,521.0,553.0,525.0
499.0,501.0,529.0,523.0
500.0,507.0,507.0,514.0
501.0,525.0,489.0,507.0
502.0,515.0,476.0,504.0
511.0,508.0,476.0,504.0
511.0,506.0,493.0,506.0
514.0,506.0,479.0,504.0
516.0,515.0,482.0,509.0
509.0,528.0,496.0,505.0
511.0,510.0,509.0,508.0
514.0,512.0,517.0,511.0
519.0,512.0,528.0,511.0
525.0,509.0,537.0,512.0
526.0,515.0,534.0,504.0
521.0,517.0,524.0,502.0
519.0,514.0,524.0,501.0
506.0,497.0,517.0,501.0
501.0,475.0,501.0,505.0
500.0,473.0,492.0,514.0
503.0,496.0,490.0,514.0
508.0,548.0,488.0,519.0
513.0,556.0,490.0,521.0
515.0,579.0,495.0,522.0
514.0,557.0,499.0,523.0
520.0,489.0,508.0,522.0
518.0,485.0,515.0,523.0
517.0,457.0,527.0,522.0
511.0,481.0,530.0,525.0
523.0,496.0,532.0,526.0
533.0,484.0,532.0,525.0
525.0,511.0,541.0,521.0
517.0,512.0,539.0,516.0
520.0,507.0,535.0,519.0
513.0,475.0,537.0,525.0
500.0,456.0,527.0,526.0
489.0,468.0,503.0,523.0
480.0,495.0,488.0,524.0
502.0,527.0,485.0,529.0
512.0,561.0,494.0,530.0
507.0,510.0,489.0,522.0
502.0,494.0,496.0,518.0
505.0,514.0,506.0,511.0
503.0,519.0,514.0,501.0
509.0,508.0,511.0,496.0
516.0,492.0,507.0,493.0
511.0,495.0,508.0,493.0
510.0,505.0,514.0,494.0
508.0,513.0,516.0,501.0
512.0,511.0,510.0,493.0
522.0,507.0,514.0,498.0
509.0,496.0,510.0,502.0
502.0,489.0,497.0,505.0
486.0,458.0,480.0,507.0
492.0,490.0,477.0,511.0
502.0,505.0,477.0,514.0
513.0,534.0,481.0,514.0
513.0,558.0,485.0,514.0
518.0,579.0,498.0,519.0
517.0,594.0,506.0,520.0
511.0,513.0,518.0,521.0
507.0,468.0,521.0,524.0
511.0,465.0,532.0,527.0
523.0,508.0,535.0,525.0
526.0,509.0,545.0,526.0
527.0,515.0,544.0,524.0
527.0,514.0,529.0,513.0
515.0,500.0,518.0,509.0
504.0,491.0,505.0,505.0
496.0,491.0,490.0,502.0
485.0,504.0,485.0,502.0
495.0,508.0,475.0,504.0
500.0,500.0,476.0,507.0
505.0,488.0,479.0,507.0
505.0,502.0,481.0,508.0
506.0,511.0,492.0,510.0
507.0,495.0,500.0,510.0
509.0,526.0,514.0,513.0
516.0,528.0,520.0,515.0
522.0,519.0,542.0,523.0
525.0,527.0,554.0,527.0
526.0,521.0,533.0,518.0
517.0,505.0,527.0,514.0
511.0,509.0,532.0,514.0
500.0,468.0,518.0,515.0
495.0,475.0,501.0,515.0
502.0,497.0,482.0,516.0
502.0,502.0,505.0,524.0
497.0,505.0,495.0,527.0
503.0,502.0,488.0,524.0
498.0,500.0,484.0,519.0
500.0,502.0,494.0,519.0
501.0,500.0,501.0,515.0
506.0,506.0,509.0,515.0
510.0,511.0,519.0,517.0
518.0,521.0,524.0,513.0
524.0,498.0,529.0,510.0
525.0,486.0,530.0,509.0
528.0,484.0,531.0,507.0
522.0,478.0,532.0,513.0
518.0,475.0,531.0,520.0
501.0,482.0,518.0,514.0
497.0,494.0,490.0,509.0
490.0,512.0,483.0,509.0
497.0,533.0,483.0,515.0
506.0,533.0,486.0,514.0
513.0,518.0,488.0,509.0
506.0,462.0,483.0,510.0
512.0,475.0,489.0,509.0
505.0,501.0,500.0,507.0
513.0,517.0,507.0,513.0
525.0,562.0,518.0,510.0
532.0,521.0,526.0,510.0
535.0,521.0,535.0,514.0
531.0,502.0,540.0,514.0
523.0,468.0,534.0,517.0
515.0,525.0,528.0,517.0
493.0,497.0,517.0,513.0
486.0,499.0,508.0,517.0
492.0,501.0,493.0,519.0
500.0,513.0,490.0,524.0
512.0,532.0,498.0,530.0
515.0,545.0,505.0,533.0
516.0,542.0,508.0,532.0
498.0,500.0,513.0,530.0
500.0,502.0,514.0,517.0
500.0,532.0,505.0,506.0
506.0,503.0,494.0,495.0
514.0,526.0,500.0,497.0
523.0,523.0,510.0,503.0
524.0,516.0,518.0,506.0
525.0,485.0,534.0,508.0
510.0,444.0,528.0,511.0
517.0,468.0,516.0,508.0
501.0,491.0,505.0,509.0
494.0,506.0,498.0,513.0
490.0,509.0,488.0,511.0
492.0,503.0,489.0,514.0
497.0,497.0,494.0,519.0
503.0,481.0,492.0,522.0
505.0,468.0,494.0,519.0
498.0,466.0,494.0,521.0
498.0,500.0,495.0,519.0
510.0,556.0,506.0,518.0
522.0,566.0,524.0,523.0
524.0,523.0,540.0,521.0
532.0,531.0,543.0,531.0
535.0,532.0,542.0,520.0
538.0,545.0,541.0,512.0
527.0,524.0,542.0,511.0
524.0,516.0,533.0,509.0
493.0,475.0,504.0,511.0
474.0,476.0,482.0,508.0
487.0,523.0,474.0,502.0
501.0,517.0,480.0,506.0
508.0,469.0,491.0,513.0
502.0,530.0,500.0,518.0
502.0,527.0,517.0,522.0
510.0,541.0,504.0,515.0
518.0,552.0,492.0,502.0
520.0,520.0,488.0,492.0
532.0,507.0,492.0,489.0
537.0,520.0,516.0,494.0
528.0,462.0,529.0,498.0
512.0,455.0,522.0,500.0
508.0,505.0,520.0,505.0
505.0,504.0,519.0,503.0
491.0,482.0,529.0,509.0
491.0,476.0,514.0,516.0
493.0,466.0,517.0,521.0
499.0,507.0,510.0,521.0
505.0,516.0,499.0,524.0
500.0,514.0,516.0,530.0
502.0,536.0,504.0,519.0
498.0,521.0,477.0,510.0
506.0,512.0,482.0,510.0
521.0,511.0,502.0,507.0
525.0,514.0,508.0,510.0
527.0,498.0,520.0,522.0
532.0,470.0,549.0,531.0
540.0,492.0,552.0,532.0
524.0,533.0,554.0,538.0
505.0,506.0,550.0,532.0
512.0,533.0,546.0,529.0
497.0,428.0,532.0,524.0
502.0,482.0,515.0,508.0
503.0,498.0,500.0,499.0
510.0,546.0,472.0,490.0
504.0,517.0,463.0,489.0
503.0,514.0,459.0,493.0
495.0,493.0,460.0,496.0
500.0,480.0,482.0,498.0
508.0,483.0,486.0,503.0
502.0,475.0,495.0,501.0
507.0,487.0,512.0,508.0
525.0,527.0,525.0,508.0
532.0,544.0,526.0,507.0
532.0,565.0,528.0,512.0
529.0,546.0,527.0,516.0
514.0,467.0,533.0,517.0
517.0,489.0,532.0,512.0
502.0,538.0,528.0,511.0
492.0,525.0,517.0,518.0
499.0,577.0,504.0,524.0
497.0,502.0,496.0,519.0
495.0,455.0,490.0,517.0
500.0,509.0,496.0,517.0
496.0,510.0,488.0,516.0
512.0,497.0,491.0,514.0
517.0,473.0,507.0,510.0
525.0,493.0,518.0,516.0
528.0,484.0,526.0,519.0
536.0,490.0,541.0,520.0
531.0,454.0,544.0,520.0
526.0,462.0,545.0,519.0
517.0,531.0,532.0,508.0
503.0,554.0,522.0,503.0
492.0,428.0,514.0,508.0
509.0,466.0,498.0,511.0
524.0,502.0,494.0,509.0
509.0,500.0,498.0,518.0
504.0,450.0,513.0,526.0
501.0,479.0,521.0,528.0
491.0,583.0,500.0,518.0
490.0,591.0,484.0,506.0
490.0,567.0,480.0,495.0
526.0,604.0,484.0,490.0
538.0,573.0,497.0,495.0
534.0,497.0,510.0,504.0
533.0,482.0,520.0,513.0
527.0,438.0,529.0,517.0
527.0,460.0,539.0,521.0
523.0,528.0,535.0,514.0
488.0,516.0,534.0,515.0
478.0,501.0,525.0,519.0
481.0,461.0,517.0,530.0
494.0,465.0,500.0,523.0
530.0,495.0,496.0,518.0
546.0,591.0,505.0,523.0
541.0,552.0,537.0,529.0
498.0,453.0,504.0,517.0
473.0,479.0,476.0,499.0
482.0,467.0,455.0,481.0
496.0,454.0,468.0,485.0
504.0,551.0,492.0,499.0
517.0,563.0,520.0,509.0
521.0,596.0,547.0,522.0
533.0,613.0,552.0,522.0
544.0,538.0,559.0,523.0
534.0,438.0,532.0,517.0
528.0,451.0,515.0,508.0
517.0,507.0,502.0,510.0
503.0,584.0,496.0,507.0
471.0,553.0,484.0,495.0
464.0,457.0,470.0,495.0
476.0,462.0,486.0,503.0
490.0,470.0,496.0,506.0
493.0,431.0,492.0,512.0
511.0,500.0,503.0,522.0
518.0,519.0,519.0,524.0
521.0,513.0,531.0,523.0
524.0,531.0,536.0,520.0
496.0,449.0,545.0,522.0
499.0,481.0,535.0,509.0
520.0,522.0,522.0,493.0
537.0,558.0,513.0,489.0
539.0,551.0,500.0,483.0
532.0,598.0,499.0,490.0
535.0,538.0,504.0,500.0
517.0,501.0,512.0,509.0
490.0,554.0,505.0,518.0
498.0,494.0,496.0,516.0
501.0,505.0,510.0,521.0
507.0,481.0,513.0,518.0
494.0,334.0,508.0,503.0
505.0,454.0,500.0,506.0
504.0,523.0,495.0,513.0
508.0,545.0,520.0,520.0
505.0,586.0,513.0,515.0
517.0,525.0,519.0,515.0
498.0,478.0,539.0,512.0
505.0,444.0,546.0,516.0
520.0,432.0,553.0,520.0
546.0,436.0,547.0,523.0
558.0,523.0,505.0,509.0
535.0,547.0,496.0,505.0
509.0,474.0,504.0,507.0
493.0,572.0,482.0,508.0
505.0,576.0,483.0,507.0
507.0,559.0,474.0,516.0
514.0,521.0,518.0,510.0
505.0,463.0,488.0,501.0
500.0,433.0,482.0,505.0
487.0,514.0,508.0,508.0
488.0,564.0,523.0,518.0
491.0,587.0,534.0,523.0
530.0,517.0,548.0,522.0
545.0,598.0,559.0,513.0
533.0,610.0,555.0,507.0
524.0,501.0,516.0,495.0
535.0,485.0,496.0,496.0
510.0,416.0,496.0,508.0
500.0,366.0,493.0,511.0
507.0,447.0,482.0,505.0
483.0,369.0,473.0,495.0
462.0,573.0,464.0,493.0
473.0,645.0,480.0,503.0
468.0,729.0,501.0,504.0
486.0,644.0,489.0,504.0
506.0,435.0,493.0,503.0
521.0,391.0,513.0,509.0
548.0,510.0,524.0,518.0
555.0,507.0,535.0,512.0
555.0,480.0,531.0,504.0
533.0,552.0,530.0,503.0
500.0,549.0,535.0,508.0
525.0,498.0,534.0,518.0
490.0,471.0,525.0,523.0
458.0,460.0,519.0,519.0
464.0,546.0,504.0,513.0
494.0,550.0,490.0,508.0
515.0,492.0,491.0,509.0
517.0,452.0,487.0,505.0
517.0,453.0,479.0,498.0
501.0,471.0,476.0,492.0
509.0,559.0,491.0,495.0
493.0,585.0,508.0,502.0
477.0,514.0,517.0,500.0
489.0,569.0,526.0,503.0
492.0,439.0,534.0,500.0
503.0,548.0,545.0,501.0
518.0,384.0,540.0,495.0
507.0,355.0,537.0,503.0
534.0,496.0,529.0,502.0
542.0,486.0,523.0,505.0
516.0,557.0,514.0,503.0
495.0,572.0,504.0,499.0
483.0,568.0,492.0,497.0
498.0,467.0,478.0,498.0
492.0,449.0,472.0,496.0
493.0,496.0,474.0,496.0
513.0,494.0,482.0,493.0
541.0,495.0,491.0,498.0
512.0,469.0,501.0,496.0
513.0,543.0,514.0,500.0
509.0,523.0,532.0,509.0
529.0,491.0,545.0,508.0
533.0,427.0,553.0,504.0
547.0,525.0,546.0,494.0
530.0,502.0,528.0,489.0
498.0,479.0,514.0,494.0
466.0,459.0,495.0,495.0
488.0,527.0,478.0,491.0
492.0,527.0,478.0,497.0
494.0,501.0,484.0,501.0
507.0,468.0,480.0,498.0
509.0,493.0,482.0,499.0
482.0,513.0,486.0,500.0
498.0,604.0,497.0,502.0
513.0,543.0,502.0,502.0
507.0,522.0,506.0,498.0
490.0,447.0,514.0,496.0
531.0,453.0,526.0,497.0
544.0,484.0,533.0,503.0
534.0,477.0,539.0,502.0
529.0,502.0,531.0,502.0
526.0,474.0,525.0,504.0
511.0,474.0,527.0,508.0
504.0,517.0,524.0,518.0
501.0,522.0,532.0,522.0
488.0,504.0,500.0,513.0
493.0,573.0,493.0,514.0
514.0,599.0,489.0,510.0
535.0,649.0,490.0,515.0
545.0,649.0,490.0,509.0
507.0,471.0,506.0,506.0
496.0,530.0,515.0,506.0
488.0,555.0,511.0,506.0
495.0,441.0,510.0,502.0
512.0,438.0,507.0,494.0
525.0,475.0,518.0,491.0
510.0,464.0,536.0,499.0
525.0,516.0,543.0,513.0
519.0,423.0,533.0,516.0
515.0,482.0,511.0,497.0
468.0,481.0,489.0,488.0
467.0,472.0,478.0,488.0
512.0,426.0,480.0,492.0
496.0,454.0,489.0,503.0
473.0,481.0,506.0,510.0
494.0,603.0,512.0,511.0
491.0,571.0,518.0,509.0
490.0,500.0,508.0,506.0
513.0,499.0,507.0,503.0
532.0,500.0,505.0,501.0
545.0,530.0,520.0,505.0
544.0,531.0,539.0,498.0
538.0,528.0,533.0,493.0
533.0,603.0,528.0,504.0
503.0,494.0,518.0,497.0
532.0,417.0,510.0,501.0
549.0,455.0,502.0,508.0
531.0,426.0,499.0,514.0
518.0,517.0,486.0,509.0
446.0,465.0,485.0,504.0
429.0,515.0,483.0,497.0
482.0,507.0,479.0,499.0
528.0,579.0,480.0,505.0
525.0,571.0,489.0,508.0
488.0,517.0,506.0,510.0
488.0,483.0,514.0,515.0
495.0,528.0,525.0,510.0
498.0,536.0,535.0,514.0
551.0,568.0,556.0,519.0
552.0,507.0,566.0,524.0
543.0,431.0,553.0,521.0
504.0,410.0,529.0,512.0
509.0,518.0,520.0,504.0
527.0,473.0,507.0,499.0
525.0,464.0,492.0,497.0
509.0,449.0,477.0,502.0
505.0,503.0,473.0,499.0
521.0,593.0,477.0,502.0
469.0,571.0,483.0,503.0
432.0,468.0,487.0,504.0
452.0,476.0,494.0,503.0
474.0,468.0,504.0,500.0
513.0,511.0,511.0,495.0
525.0,516.0,516.0,492.0
547.0,589.0,535.0,504.0
546.0,639.0,540.0,507.0
549.0,679.0,529.0,506.0
513.0,442.0,522.0,507.0
484.0,445.0,527.0,507.0
493.0,493.0,525.0,515.0
510.0,537.0,518.0,520.0
515.0,510.0,510.0,520.0
517.0,451.0,503.0,519.0
496.0,445.0,500.0,515.0
502.0,558.0,502.0,522.0
489.0,415.0,509.0,514.0
484.0,393.0,501.0,508.0
491.0,445.0,499.0,504.0
520.0,474.0,500.0,495.0
541.0,609.0,493.0,496.0
503.0,486.0,502.0,493.0
522.0,461.0,519.0,495.0
561.0,465.0,535.0,502.0
569.0,478.0,551.0,509.0
562.0,458.0,547.0,512.0
529.0,465.0,535.0,516.0
502.0,524.0,520.0,516.0
501.0,532.0,503.0,511.0
470.0,484.0,483.0,500.0
470.0,626.0,478.0,500.0
497.0,600.0,474.0,500.0
514.0,525.0,477.0,497.0
486.0,469.0,485.0,501.0
478.0,556.0,488.0,496.0
523.0,591.0,494.0,497.0
545.0,536.0,506.0,507.0
543.0,500.0,515.0,506.0
526.0,451.0,526.0,510.0
531.0,487.0,533.0,513.0
488.0,518.0,547.0,520.0
500.0,579.0,543.0,522.0
501.0,514.0,536.0,522.0
494.0,397.0,527.0,522.0
479.0,421.0,519.0,520.0
494.0,455.0,512.0,516.0
496.0,560.0,501.0,515.0
503.0,510.0,491.0,509.0
488.0,513.0,493.0,510.0
490.0,512.0,487.0,510.0
490.0,493.0,492.0,506.0
517.0,484.0,497.0,503.0
533.0,513.0,509.0,516.0
534.0,522.0,524.0,523.0
516.0,522.0,541.0,528.0
495.0,498.0,555.0,527.0
510.0,519.0,566.0,529.0
509.0,553.0,559.0,526.0
522.0,581.0,544.0,520.0
537.0,529.0,519.0,503.0
541.0,549.0,499.0,496.0
514.0,506.0,487.0,498.0
501.0,409.0,495.0,508.0
500.0,398.0,499.0,519.0
491.0,425.0,495.0,521.0
510.0,397.0,491.0,513.0
524.0,570.0,494.0,511.0
520.0,584.0,490.0,506.0
531.0,488.0,493.0,502.0
522.0,453.0,502.0,501.0
505.0,562.0,513.0,504.0
507.0,534.0,514.0,504.0
506.0,464.0,527.0,509.0
513.0,524.0,537.0,514.0
499.0,588.0,536.0,505.0
505.0,545.0,530.0,507.0
522.0,563.0,537.0,519.0
526.0,530.0,533.0,523.0
514.0,499.0,524.0,517.0
476.0,420.0,492.0,505.0
479.0,432.0,466.0,500.0
496.0,487.0,472.0,500.0
486.0,467.0,482.0,508.0
510.0,512.0,503.0,513.0
506.0,499.0,510.0,518.0
503.0,494.0,500.0,516.0
485.0,497.0,503.0,516.0
496.0,458.0,517.0,513.0
514.0,534.0,527.0,509.0
537.0,513.0,540.0,512.0
552.0,501.0,544.0,520.0
543.0,507.0,553.0,525.0
537.0,512.0,534.0,524.0
526.0,554.0,524.0,514.0
503.0,540.0,516.0,518.0
484.0,502.0,504.0,520.0
457.0,383.0,501.0,518.0
499.0,479.0,503.0,514.0
518.0,556.0,496.0,521.0
499.0,454.0,489.0,514.0
501.0,415.0,486.0,508.0
539.0,566.0,496.0,511.0
544.0,545.0,500.0,505.0
523.0,546.0,505.0,504.0
515.0,537.0,516.0,506.0
535.0,491.0,530.0,508.0
540.0,535.0,542.0,516.0
549.0,510.0,544.0,517.0
544.0,500.0,540.0,517.0
511.0,506.0,540.0,516.0
474.0,531.0,527.0,516.0
469.0,519.0,524.0,516.0
472.0,522.0,514.0,520.0
484.0,505.0,508.0,523.0
502.0,461.0,488.0,516.0
497.0,460.0,471.0,508.0
520.0,556.0,475.0,503.0
514.0,592.0,482.0,506.0
545.0,580.0,490.0,507.0
571.0,623.0,499.0,509.0
549.0,436.0,514.0,511.0
519.0,509.0,524.0,512.0
471.0,401.0,538.0,517.0
509.0,509.0,549.0,513.0
515.0,506.0,545.0,512.0
491.0,466.0,534.0,512.0
498.0,491.0,525.0,507.0
477.0,548.0,514.0,504.0
479.0,519.0,504.0,507.0
502.0,563.0,499.0,507.0
514.0,538.0,495.0,511.0
523.0,548.0,490.0,516.0
536.0,534.0,482.0,513.0
501.0,415.0,488.0,519.0
502.0,458.0,501.0,523.0
507.0,524.0,509.0,524.0
518.0,470.0,515.0,513.0
503.0,391.0,519.0,509.0
553.0,434.0,530.0,509.0
584.0,469.0,534.0,511.0
561.0,462.0,537.0,509.0
511.0,472.0,542.0,508.0
467.0,543.0,548.0,515.0
467.0,616.0,540.0,529.0
493.0,578.0,527.0,539.0
499.0,483.0,523.0,550.0
503.0,442.0,521.0,537.0
523.0,499.0,484.0,518.0
490.0,532.0,489.0,512.0
508.0,467.0,497.0,515.0
494.0,487.0,484.0,516.0
477.0,552.0,505.0,514.0
491.0,607.0,523.0,512.0
518.0,604.0,521.0,508.0
515.0,528.0,519.0,511.0
509.0,479.0,525.0,506.0
527.0,469.0,523.0,503.0
544.0,499.0,521.0,505.0
534.0,542.0,519.0,507.0
506.0,550.0,509.0,502.0
464.0,461.0,504.0,505.0
470.0,435.0,496.0,510.0
505.0,492.0,492.0,514.0
548.0,512.0,495.0,520.0
554.0,597.0,506.0,529.0
536.0,517.0,496.0,524.0
524.0,494.0,491.0,520.0
486.0,575.0,496.0,520.0
460.0,551.0,507.0,520.0
475.0,507.0,517.0,521.0
481.0,483.0,521.0,515.0
502.0,493.0,527.0,510.0
515.0,490.0,533.0,507.0
517.0,499.0,538.0,504.0
524.0,521.0,552.0,512.0
515.0,470.0,554.0,518.0
507.0,465.0,542.0,516.0
497.0,499.0,526.0,518.0
505.0,528.0,498.0,512.0
500.0,506.0,491.0,516.0
497.0,478.0,490.0,519.0
498.0,424.0,494.0,523.0
514.0,491.0,491.0,526.0
504.0,501.0,479.0,520.0
504.0,482.0,483.0,511.0
507.0,460.0,499.0,511.0
512.0,491.0,520.0,514.0
527.0,525.0,532.0,522.0
543.0,537.0,539.0,524.0
545.0,530.0,551.0,524.0
549.0,475.0,563.0,528.0
543.0,427.0,552.0,529.0
528.0,488.0,526.0,522.0
551.0,621.0,503.0,508.0
549.0,614.0,486.0,498.0
538.0,475.0,483.0,499.0
490.0,398.0,482.0,504.0
501.0,535.0,478.0,506.0
519.0,514.0,478.0,505.0
532.0,505.0,484.0,505.0
508.0,474.0,488.0,508.0
494.0,558.0,494.0,509.0
472.0,581.0,497.0,509.0
487.0,584.0,505.0,510.0
504.0,542.0,521.0,515.0
528.0,616.0,530.0,516.0
523.0,540.0,538.0,514.0
512.0,526.0,536.0,513.0
497.0,344.0,530.0,513.0
504.0,341.0,527.0,514.0
513.0,498.0,523.0,516.0
502.0,487.0,531.0,516.0
504.0,509.0,522.0,516.0
518.0,633.0,508.0,524.0
502.0,540.0,509.0,531.0
482.0,410.0,494.0,523.0
478.0,548.0,489.0,505.0
480.0,511.0,488.0,501.0
504.0,525.0,500.0,510.0
516.0,549.0,503.0,508.0
526.0,523.0,509.0,502.0
525.0,534.0,520.0,501.0
525.0,532.0,529.0,505.0
532.0,440.0,545.0,509.0
534.0,468.0,546.0,522.0
523.0,495.0,543.0,522.0
519.0,494.0,542.0,525.0
515.0,487.0,524.0,523.0
521.0,400.0,511.0,518.0
559.0,399.0,504.0,521.0
544.0,504.0,501.0,527.0
495.0,446.0,497.0,534.0
494.0,509.0,506.0,532.0
455.0,543.0,507.0,526.0
458.0,610.0,505.0,523.0
513.0,568.0,519.0,521.0
518.0,535.0,524.0,513.0
519.0,521.0,504.0,503.0
502.0,562.0,504.0,499.0
509.0,540.0,517.0,505.0
508.0,531.0,524.0,504.0
510.0,518.0,530.0,509.0
506.0,509.0,524.0,506.0
499.0,485.0,512.0,509.0
503.0,502.0,508.0,507.0
505.0,503.0,501.0,506.0
492.0,479.0,490.0,502.0
490.0,486.0,488.0,508.0
502.0,492.0,489.0,514.0
515.0,510.0,490.0,518.0
518.0,437.0,497.0,523.0
524.0,444.0,504.0,521.0
557.0,509.0,506.0,520.0
556.0,627.0,514.0,513.0
529.0,576.0,519.0,513.0
511.0,561.0,525.0,513.0
512.0,510.0,542.0,514.0
493.0,464.0,545.0,515.0
499.0,517.0,539.0,518.0
502.0,507.0,534.0,519.0
517.0,473.0,526.0,516.0
521.0,486.0,524.0,522.0
525.0,486.0,511.0,524.0
528.0,533.0,498.0,520.0
523.0,494.0,492.0,515.0
519.0,502.0,498.0,512.0
513.0,506.0,506.0,522.0
493.0,548.0,515.0,524.0
501.0,536.0,513.0,521.0
505.0,473.0,512.0,510.0
525.0,505.0,528.0,502.0
522.0,492.0,521.0,498.0
508.0,405.0,507.0,500.0
502.0,469.0,511.0,498.0
515.0,538.0,514.0,500.0
512.0,515.0,524.0,503.0
515.0,527.0,514.0,507.0
487.0,473.0,504.0,510.0
456.0,463.0,505.0,521.0
488.0,554.0,500.0,520.0
516.0,539.0,492.0,514.0
527.0,515.0,491.0,513.0
540.0,519.0,490.0,517.0
526.0,527.0,499.0,520.0
517.0,559.0,516.0,536.0
519.0,680.0,520.0,531.0
491.0,507.0,506.0,520.0
468.0,438.0,521.0,517.0
495.0,524.0,544.0,519.0
534.0,497.0,553.0,518.0
522.0,513.0,542.0,516.0
512.0,551.0,550.0,518.0
525.0,502.0,524.0,501.0
501.0,412.0,506.0,495.0
499.0,429.0,500.0,502.0
487.0,467.0,499.0,515.0
478.0,462.0,496.0,516.0
502.0,518.0,491.0,516.0
511.0,522.0,491.0,523.0
531.0,559.0,496.0,520.0
554.0,602.0,494.0,517.0
545.0,489.0,502.0,519.0
536.0,523.0,520.0,518.0
526.0,465.0,538.0,519.0
529.0,442.0,533.0,525.0
540.0,494.0,531.0,515.0
544.0,455.0,525.0,516.0
535.0,499.0,534.0,518.0
479.0,556.0,540.0,520.0
472.0,568.0,538.0,522.0
493.0,496.0,528.0,518.0
497.0,491.0,513.0,511.0
495.0,486.0,496.0,506.0
480.0,520.0,491.0,503.0
485.0,503.0,495.0,510.0
483.0,519.0,495.0,521.0
481.0,558.0,507.0,529.0
511.0,588.0,520.0,537.0
514.0,580.0,523.0,538.0
486.0,540.0,533.0,527.0
506.0,448.0,530.0,518.0
514.0,524.0,515.0,502.0
515.0,492.0,505.0,494.0
528.0,489.0,507.0,491.0
526.0,472.0,507.0,502.0
506.0,457.0,518.0,501.0
512.0,494.0,526.0,497.0
512.0,497.0,504.0,507.0
496.0,491.0,508.0,519.0
502.0,483.0,504.0,522.0
511.0,480.0,494.0,523.0
516.0,472.0,512.0,529.0
514.0,501.0,512.0,526.0
519.0,552.0,505.0,519.0
522.0,505.0,500.0,510.0
515.0,511.0,504.0,517.0
495.0,440.0,506.0,514.0
501.0,540.0,514.0,508.0
513.0,485.0,513.0,506.0
516.0,461.0,520.0,508.0
515.0,475.0,527.0,510.0
528.0,521.0,530.0,513.0
532.0,563.0,532.0,511.0
526.0,543.0,539.0,525.0
480.0,516.0,533.0,527.0
489.0,440.0,519.0,521.0
508.0,485.0,478.0,507.0
511.0,502.0,477.0,510.0
509.0,495.0,487.0,514.0
507.0,543.0,497.0,514.0
505.0,490.0,498.0,517.0
518.0,496.0,506.0,517.0
540.0,537.0,514.0,521.0
568.0,548.0,521.0,512.0
596.0,539.0,518.0,506.0
561.0,434.0,516.0,505.0
538.0,507.0,523.0,508.0
514.0,537.0,525.0,510.0
476.0,414.0,521.0,509.0
516.0,522.0,535.0,504.0
508.0,451.0,527.0,516.0
511.0,505.0,519.0,520.0
484.0,507.0,514.0,524.0
513.0,504.0,513.0,533.0
482.0,579.0,507.0,528.0
473.0,583.0,501.0,526.0
487.0,524.0,502.0,516.0
473.0,508.0,497.0,513.0
499.0,590.0,490.0,503.0
525.0,606.0,487.0,493.0
530.0,444.0,498.0,490.0
524.0,393.0,510.0,497.0
536.0,400.0,525.0,504.0
553.0,515.0,532.0,508.0
529.0,509.0,533.0,508.0
482.0,566.0,529.0,507.0
486.0,480.0,527.0,516.0
493.0,492.0,518.0,516.0
499.0,482.0,510.0,522.0
489.0,500.0,502.0,522.0
494.0,569.0,494.0,521.0
511.0,576.0,491.0,524.0
496.0,581.0,495.0,518.0
496.0,575.0,503.0,525.0
499.0,463.0,506.0,526.0
506.0,429.0,501.0,514.0
505.0,520.0,503.0,509.0
513.0,571.0,519.0,514.0
512.0,544.0,528.0,513.0
516.0,468.0,536.0,513.0
520.0,509.0,543.0,517.0
544.0,526.0,540.0,519.0
530.0,424.0,533.0,513.0
507.0,387.0,528.0,515.0
503.0,527.0,521.0,520.0
504.0,591.0,511.0,522.0
506.0,614.0,502.0,518.0
519.0,578.0,499.0,518.0
493.0,446.0,495.0,519.0
483.0,455.0,488.0,514.0
477.0,402.0,495.0,515.0
490.0,515.0,496.0,514.0
510.0,549.0,517.0,513.0
517.0,540.0,537.0,520.0
539.0,568.0,524.0,520.0
522.0,417.0,522.0,517.0
515.0,427.0,537.0,513.0
501.0,541.0,542.0,514.0
512.0,575.0,538.0,516.0
507.0,514.0,562.0,527.0
505.0,493.0,553.0,534.0
498.0,480.0,515.0,527.0
508.0,471.0,507.0,518.0
514.0,486.0,493.0,512.0
514.0,523.0,483.0,508.0
514.0,506.0,487.0,513.0
509.0,419.0,510.0,522.0
505.0,438.0,519.0,537.0
504.0,500.0,477.0,503.0
488.0,539.0,486.0,485.0
509.0,548.0,497.0,486.0
518.0,534.0,497.0,502.0
520.0,499.0,509.0,497.0
519.0,489.0,509.0,497.0
526.0,530.0,529.0,503.0
522.0,514.0,541.0,504.0
517.0,516.0,535.0,511.0
503.0,518.0,519.0,521.0
502.0,510.0,505.0,518.0
508.0,479.0,527.0,522.0
515.0,485.0,515.0,526.0
504.0,491.0,487.0,520.0
509.0,528.0,502.0,518.0
514.0,549.0,505.0,517.0
498.0,537.0,494.0,512.0
527.0,542.0,493.0,510.0
542.0,511.0,500.0,509.0
546.0,431.0,504.0,508.0
530.0,405.0,517.0,508.0
512.0,457.0,523.0,506.0
489.0,482.0,531.0,502.0
485.0,543.0,529.0,502.0
497.0,520.0,527.0,507.0
505.0,500.0,532.0,515.0
504.0,468.0,526.0,515.0
510.0,443.0,520.0,520.0
514.0,492.0,508.0,527.0
497.0,470.0,490.0,524.0
491.0,558.0,484.0,507.0
530.0,548.0,494.0,511.0
536.0,487.0,498.0,514.0
536.0,434.0,503.0,524.0
561.0,379.0,507.0,525.0
534.0,413.0,510.0,521.0
523.0,540.0,520.0,509.0
542.0,604.0,532.0,516.0
506.0,630.0,532.0,506.0
457.0,623.0,534.0,505.0
497.0,583.0,532.0,508.0
511.0,547.0,532.0,511.0
502.0,542.0,528.0,515.0
496.0,533.0,519.0,517.0
501.0,472.0,505.0,514.0
512.0,529.0,503.0,517.0
511.0,532.0,495.0,522.0
501.0,498.0,494.0,515.0
505.0,528.0,498.0,520.0
501.0,603.0,494.0,513.0
518.0,559.0,498.0,509.0
514.0,478.0,506.0,510.0
520.0,475.0,514.0,512.0
510.0,482.0,520.0,509.0
520.0,527.0,528.0,505.0
530.0,448.0,536.0,508.0
531.0,392.0,537.0,506.0
525.0,386.0,531.0,510.0
525.0,452.0,529.0,508.0
499.0,538.0,522.0,521.0
477.0,585.0,518.0,522.0
472.0,526.0,506.0,523.0
485.0,519.0,498.0,524.0
483.0,499.0,500.0,522.0
505.0,538.0,500.0,522.0
514.0,486.0,498.0,521.0
523.0,528.0,500.0,517.0
519.0,527.0,502.0,517.0
521.0,552.0,512.0,514.0
530.0,544.0,517.0,512.0
530.0,508.0,528.0,516.0
536.0,501.0,531.0,515.0
537.0,465.0,547.0,513.0
535.0,499.0,542.0,515.0
511.0,521.0,542.0,521.0
487.0,544.0,545.0,525.0
487.0,523.0,511.0,518.0
491.0,439.0,498.0,511.0
498.0,489.0,499.0,520.0
506.0,498.0,491.0,522.0
506.0,514.0,494.0,522.0
509.0,522.0,506.0,524.0
511.0,506.0,503.0,516.0
504.0,499.0,502.0,530.0
500.0,499.0,522.0,530.0
503.0,498.0,541.0,524.0
504.0,490.0,539.0,518.0
520.0,505.0,513.0,500.0
531.0,517.0,511.0,504.0
531.0,510.0,534.0,506.0
530.0,504.0,549.0,514.0
514.0,507.0,521.0,516.0
512.0,497.0,517.0,517.0
510.0,505.0,514.0,517.0
509.0,494.0,501.0,522.0
496.0,480.0,503.0,521.0
490.0,472.0,504.0,522.0
490.0,484.0,488.0,521.0
489.0,506.0,488.0,516.0
493.0,506.0,494.0,515.0
501.0,515.0,501.0,512.0
500.0,511.0,508.0,514.0
517.0,505.0,515.0,513.0
520.0,502.0,521.0,511.0
537.0,517.0,529.0,515.0
544.0,524.0,540.0,525.0
533.0,517.0,540.0,513.0
520.0,501.0,535.0,515.0
523.0,515.0,530.0,515.0
505.0,473.0,523.0,519.0
503.0,473.0,516.0,520.0
506.0,477.0,508.0,526.0
506.0,486.0,501.0,530.0
507.0,493.0,496.0,515.0
508.0,514.0,494.0,513.0
512.0,527.0,495.0,514.0
511.0,520.0,502.0,519.0
512.0,511.0,505.0,513.0
506.0,499.0,509.0,510.0
504.0,498.0,517.0,513.0
505.0,490.0,527.0,513.0
506.0,494.0,534.0,515.0
499.0,512.0,539.0,516.0
505.0,503.0,539.0,516.0
491.0,485.0,534.0,524.0
484.0,488.0,529.0,516.0
495.0,503.0,522.0,519.0
506.0,486.0,513.0,519.0
516.0,455.0,504.0,523.0
512.0,472.0,500.0,522.0
520.0,496.0,502.0,535.0
489.0,500.0,502.0,526.0
485.0,558.0,499.0,514.0
496.0,519.0,498.0,519.0
496.0,519.0,507.0,514.0
522.0,548.0,514.0,512.0
547.0,512.0,522.0,516.0
543.0,494.0,530.0,516.0
534.0,486.0,538.0,517.0
522.0,448.0,542.0,517.0
525.0,490.0,538.0,517.0
518.0,493.0,536.0,520.0
508.0,481.0,527.0,519.0
509.0,511.0,519.0,520.0
509.0,523.0,510.0,522.0
511.0,557.0,500.0,520.0
500.0,523.0,496.0,522.0
477.0,495.0,498.0,523.0
490.0,511.0,502.0,528.0
493.0,534.0,502.0,524.0
505.0,506.0,500.0,513.0
512.0,493.0,507.0,510.0
520.0,508.0,514.0,514.0
504.0,534.0,526.0,515.0
515.0,512.0,533.0,514.0
527.0,501.0,540.0,516.0
529.0,508.0,542.0,520.0
536.0,510.0,539.0,519.0
520.0,514.0,532.0,522.0
499.0,512.0,525.0,521.0
488.0,499.0,518.0,522.0
488.0,497.0,507.0,523.0
492.0,497.0,502.0,528.0
498.0,498.0,499.0,525.0
506.0,507.0,498.0,527.0
498.0,501.0,501.0,523.0
502.0,488.0,501.0,520.0
515.0,509.0,502.0,519.0
511.0,520.0,512.0,513.0
522.0,516.0,520.0,513.0
527.0,516.0,526.0,515.0
548.0,524.0,535.0,517.0
554.0,521.0,538.0,517.0
554.0,522.0,539.0,519.0
549.0,514.0,536.0,520.0
544.0,510.0,532.0,519.0
536.0,498.0,523.0,524.0
522.0,492.0,514.0,524.0
516.0,489.0,508.0,525.0
516.0,497.0,505.0,528.0
524.0,504.0,499.0,524.0
530.0,520.0,500.0,526.0
522.0,518.0,498.0,521.0
506.0,512.0,502.0,517.0
510.0,518.0,508.0,519.0
503.0,514.0,515.0,519.0
503.0,502.0,522.0,517.0
507.0,496.0,530.0,518.0
518.0,501.0,539.0,521.0
521.0,497.0,542.0,521.0
514.0,492.0,538.0,523.0
522.0,491.0,537.0,523.0
540.0,502.0,531.0,521.0
528.0,501.0,522.0,525.0
514.0,498.0,510.0,524.0
512.0,503.0,506.0,529.0
511.0,507.0,503.0,527.0
505.0,502.0,500.0,528.0
507.0,507.0,503.0,528.0
508.0,508.0,504.0,528.0
511.0,506.0,509.0,524.0
510.0,504.0,513.0,520.0
510.0,506.0,521.0,521.0
517.0,508.0,526.0,520.0
531.0,517.0,532.0,521.0
533.0,515.0,538.0,520.0
525.0,514.0,544.0,525.0
513.0,503.0,541.0,523.0
504.0,496.0,537.0,526.0
493.0,488.0,525.0,528.0
493.0,487.0,519.0,524.0
510.0,501.0,513.0,527.0
510.0,505.0,505.0,527.0
513.0,507.0,503.0,527.0
513.0,505.0,504.0,529.0
513.0,513.0,502.0,528.0
510.0,512.0,504.0,524.0
513.0,510.0,516.0,524.0
519.0,509.0,516.0,522.0
520.0,509.0,525.0,520.0
524.0,510.0,530.0,520.0
526.0,511.0,536.0,520.0
524.0,508.0,541.0,521.0
527.0,511.0,543.0,521.0
520.0,502.0,538.0,521.0
513.0,499.0,536.0,522.0
502.0,490.0,525.0,527.0
500.0,493.0,516.0,524.0
498.0,496.0,510.0,530.0
504.0,501.0,504.0,533.0
502.0,506.0,502.0,528.0
505.0,517.0,499.0,526.0
507.0,514.0,500.0,522.0
513.0,514.0,505.0,522.0
512.0,510.0,508.0,520.0
513.0,510.0,517.0,519.0
512.0,508.0,525.0,517.0
522.0,503.0,534.0,518.0
525.0,507.0,541.0,519.0
519.0,507.0,544.0,517.0
510.0,506.0,540.0,519.0
495.0,496.0,536.0,521.0
489.0,493.0,531.0,521.0
483.0,490.0,522.0,522.0
482.0,492.0,513.0,523.0
485.0,496.0,507.0,527.0
495.0,494.0,502.0,528.0
511.0,505.0,499.0,523.0
510.0,510.0,500.0,524.0
503.0,502.0,502.0,519.0
492.0,506.0,504.0,520.0
498.0,505.0,511.0,518.0
500.0,504.0,519.0,518.0
506.0,496.0,527.0,518.0
512.0,501.0,536.0,517.0
530.0,497.0,542.0,518.0
535.0,492.0,546.0,519.0
525.0,509.0,541.0,516.0
502.0,491.0,536.0,517.0
493.0,485.0,527.0,522.0
493.0,510.0,516.0,523.0
490.0,501.0,509.0,525.0
502.0,516.0,503.0,526.0
520.0,519.0,499.0,526.0
521.0,515.0,499.0,525.0
524.0,513.0,500.0,516.0
527.0,511.0,500.0,520.0
545.0,520.0,506.0,517.0
538.0,517.0,512.0,522.0
516.0,521.0,519.0,512.0
513.0,514.0,531.0,514.0
518.0,511.0,537.0,514.0
519.0,508.0,542.0,512.0
520.0,504.0,542.0,517.0
518.0,498.0,538.0,516.0
519.0,492.0,535.0,519.0
530.0,484.0,525.0,518.0
526.0,493.0,515.0,521.0
521.0,504.0,506.0,523.0
514.0,529.0,504.0,525.0
515.0,526.0,499.0,520.0
517.0,527.0,498.0,522.0
511.0,518.0,502.0,519.0
501.0,527.0,501.0,517.0
507.0,533.0,507.0,514.0
519.0,548.0,515.0,511.0
526.0,508.0,520.0,510.0
513.0,479.0,530.0,512.0
519.0,489.0,540.0,511.0
534.0,499.0,543.0,514.0
541.0,514.0,543.0,512.0
525.0,505.0,537.0,513.0
518.0,498.0,532.0,515.0
511.0,489.0,519.0,514.0
509.0,487.0,512.0,521.0
509.0,496.0,503.0,528.0
510.0,519.0,501.0,521.0
511.0,519.0,501.0,523.0
516.0,528.0,500.0,522.0
514.0,514.0,497.0,513.0
509.0,509.0,510.0,515.0
513.0,507.0,511.0,510.0
517.0,508.0,520.0,511.0
521.0,510.0,529.0,511.0
524.0,512.0,533.0,511.0
527.0,512.0,542.0,512.0
527.0,509.0,547.0,514.0
525.0,505.0,541.0,513.0
515.0,500.0,537.0,514.0
506.0,493.0,528.0,515.0
503.0,495.0,520.0,517.0
501.0,498.0,511.0,522.0
502.0,503.0,505.0,522.0
502.0,507.0,503.0,520.0
507.0,512.0,501.0,522.0
512.0,516.0,503.0,517.0
504.0,508.0,504.0,517.0
512.0,511.0,508.0,513.0
512.0,512.0,514.0,512.0
516.0,511.0,521.0,510.0
517.0,507.0,534.0,519.0
524.0,509.0,556.0,517.0
524.0,503.0,544.0,510.0
526.0,503.0,538.0,511.0
517.0,492.0,539.0,513.0
512.0,487.0,531.0,513.0
502.0,486.0,526.0,515.0
499.0,495.0,514.0,520.0
501.0,505.0,506.0,520.0
503.0,512.0,504.0,523.0
503.0,509.0,508.0,523.0
511.0,514.0,502.0,522.0
512.0,514.0,502.0,519.0
503.0,506.0,504.0,516.0
512.0,509.0,510.0,514.0
514.0,510.0,517.0,512.0
521.0,512.0,525.0,512.0
523.0,508.0,536.0,511.0
526.0,504.0,542.0,508.0
524.0,508.0,546.0,513.0
523.0,518.0,542.0,514.0
518.0,512.0,540.0,511.0
514.0,502.0,534.0,516.0
505.0,494.0,526.0,516.0
502.0,487.0,516.0,520.0
503.0,489.0,508.0,521.0
504.0,492.0,505.0,522.0
511.0,493.0,498.0,520.0
512.0,499.0,505.0,520.0
512.0,506.0,504.0,517.0
511.0,512.0,506.0,516.0
515.0,504.0,509.0,513.0
514.0,501.0,517.0,509.0
515.0,499.0,528.0,508.0
520.0,500.0,539.0,511.0
528.0,501.0,545.0,507.0
538.0,519.0,546.0,516.0
530.0,520.0,542.0,517.0
515.0,516.0,535.0,516.0
506.0,500.0,530.0,515.0
498.0,501.0,522.0,522.0
495.0,502.0,518.0,527.0
497.0,505.0,515.0,526.0
497.0,502.0,515.0,529.0
501.0,521.0,514.0,525.0
511.0,520.0,510.0,522.0
509.0,517.0,507.0,520.0
511.0,517.0,504.0,512.0
512.0,514.0,508.0,503.0
517.0,508.0,517.0,497.0
523.0,506.0,523.0,497.0
527.0,505.0,533.0,498.0
528.0,506.0,539.0,499.0
523.0,502.0,541.0,502.0
519.0,486.0,537.0,506.0
511.0,482.0,531.0,508.0
507.0,490.0,520.0,510.0
498.0,496.0,510.0,515.0
500.0,500.0,504.0,515.0
502.0,516.0,497.0,515.0
504.0,522.0,496.0,518.0
507.0,520.0,498.0,516.0
508.0,524.0,499.0,514.0
506.0,527.0,501.0,510.0
511.0,524.0,505.0,511.0
511.0,522.0,515.0,509.0
519.0,514.0,522.0,507.0
525.0,497.0,529.0,506.0
528.0,513.0,541.0,507.0
526.0,514.0,547.0,510.0
525.0,504.0,542.0,509.0
519.0,502.0,538.0,511.0
512.0,500.0,537.0,513.0
507.0,493.0,519.0,514.0
501.0,492.0,513.0,515.0
500.0,499.0,502.0,518.0
502.0,508.0,499.0,520.0
502.0,512.0,499.0,521.0
504.0,518.0,502.0,518.0
510.0,514.0,497.0,513.0
509.0,508.0,503.0,514.0
513.0,501.0,511.0,512.0
517.0,504.0,520.0,506.0
519.0,514.0,531.0,510.0
524.0,520.0,533.0,509.0
531.0,509.0,543.0,507.0
533.0,502.0,547.0,512.0
523.0,455.0,545.0,513.0
516.0,436.0,537.0,511.0
511.0,455.0,527.0,515.0
511.0,499.0,519.0,516.0
503.0,512.0,508.0,521.0
502.0,524.0,501.0,521.0
502.0,542.0,500.0,520.0
504.0,544.0,500.0,520.0
514.0,542.0,501.0,518.0
507.0,529.0,500.0,514.0
505.0,520.0,504.0,513.0
506.0,509.0,512.0,506.0
512.0,505.0,520.0,507.0
516.0,506.0,528.0,508.0
520.0,506.0,538.0,510.0
522.0,513.0,543.0,516.0
518.0,511.0,542.0,512.0
510.0,504.0,540.0,509.0
505.0,498.0,533.0,511.0
490.0,491.0,526.0,515.0
495.0,494.0,511.0,515.0
498.0,504.0,507.0,520.0
505.0,501.0,499.0,520.0
511.0,506.0,497.0,520.0
521.0,512.0,497.0,519.0
517.0,502.0,499.0,517.0
512.0,495.0,497.0,512.0
512.0,493.0,505.0,513.0
516.0,502.0,515.0,511.0
517.0,523.0,520.0,512.0
519.0,514.0,532.0,512.0
522.0,505.0,547.0,508.0
528.0,502.0,540.0,506.0
523.0,495.0,541.0,512.0
516.0,501.0,536.0,510.0
509.0,496.0,529.0,511.0
506.0,498.0,519.0,515.0
508.0,512.0,508.0,518.0
507.0,512.0,502.0,522.0
504.0,513.0,497.0,518.0
507.0,510.0,495.0,519.0
514.0,519.0,496.0,516.0
513.0,507.0,496.0,516.0
511.0,509.0,495.0,513.0
511.0,517.0,503.0,512.0
516.0,520.0,514.0,513.0
516.0,513.0,520.0,509.0
523.0,513.0,531.0,510.0
526.0,507.0,538.0,517.0
526.0,511.0,538.0,511.0
522.0,506.0,538.0,512.0
519.0,501.0,533.0,512.0
509.0,493.0,526.0,515.0
507.0,498.0,518.0,515.0
501.0,501.0,503.0,518.0
501.0,505.0,498.0,520.0
505.0,508.0,495.0,519.0
505.0,510.0,495.0,520.0
510.0,513.0,495.0,518.0
507.0,503.0,496.0,514.0
506.0,509.0,500.0,514.0
511.0,507.0,509.0,511.0
515.0,505.0,515.0,509.0
522.0,504.0,526.0,509.0
528.0,504.0,534.0,508.0
528.0,507.0,540.0,508.0
528.0,504.0,537.0,509.0
521.0,493.0,537.0,510.0
516.0,487.0,530.0,516.0
504.0,483.0,519.0,517.0
497.0,473.0,512.0,517.0
500.0,496.0,505.0,523.0
503.0,529.0,499.0,525.0
499.0,523.0,495.0,522.0
506.0,525.0,498.0,523.0
504.0,524.0,499.0,520.0
500.0,519.0,500.0,517.0
508.0,516.0,503.0,514.0
511.0,513.0,513.0,512.0
518.0,503.0,520.0,508.0
524.0,504.0,525.0,510.0
523.0,503.0,535.0,509.0
528.0,511.0,539.0,506.0
525.0,531.0,537.0,511.0
513.0,510.0,532.0,510.0
509.0,497.0,526.0,510.0
503.0,496.0,515.0,513.0
499.0,501.0,502.0,515.0
500.0,489.0,498.0,519.0
503.0,495.0,494.0,521.0
503.0,508.0,488.0,519.0
508.0,511.0,492.0,518.0
507.0,513.0,492.0,513.0
505.0,521.0,496.0,511.0
511.0,525.0,502.0,510.0
511.0,517.0,514.0,512.0
520.0,507.0,524.0,510.0
520.0,494.0,534.0,514.0
525.0,492.0,542.0,513.0
527.0,493.0,542.0,512.0
521.0,492.0,537.0,509.0
506.0,480.0,529.0,509.0
496.0,485.0,523.0,509.0
501.0,497.0,514.0,512.0
509.0,501.0,502.0,516.0
509.0,507.0,500.0,519.0
512.0,505.0,491.0,518.0
516.0,501.0,492.0,518.0
516.0,506.0,495.0,515.0
515.0,502.0,492.0,513.0
515.0,512.0,499.0,513.0
505.0,523.0,504.0,506.0
498.0,524.0,512.0,507.0
511.0,532.0,521.0,503.0
521.0,527.0,531.0,505.0
522.0,523.0,537.0,507.0
526.0,521.0,537.0,509.0
516.0,479.0,537.0,510.0
511.0,467.0,530.0,509.0
506.0,471.0,520.0,515.0
501.0,479.0,511.0,517.0
498.0,501.0,500.0,516.0
503.0,528.0,495.0,520.0
500.0,534.0,492.0,519.0
506.0,528.0,495.0,518.0
506.0,519.0,496.0,518.0
501.0,518.0,497.0,516.0
503.0,517.0,502.0,510.0
509.0,513.0,510.0,507.0
518.0,518.0,521.0,510.0
519.0,515.0,527.0,511.0
523.0,513.0,532.0,509.0
527.0,510.0,540.0,509.0
524.0,510.0,541.0,512.0
515.0,502.0,531.0,509.0
509.0,499.0,530.0,512.0
501.0,493.0,518.0,513.0
497.0,495.0,510.0,518.0
496.0,499.0,501.0,518.0
501.0,501.0,495.0,520.0
505.0,507.0,494.0,519.0
510.0,508.0,495.0,516.0
509.0,507.0,495.0,515.0
506.0,505.0,499.0,514.0
508.0,513.0,505.0,511.0
513.0,510.0,512.0,510.0
518.0,510.0,522.0,510.0
521.0,518.0,528.0,510.0
526.0,514.0,537.0,510.0
527.0,511.0,538.0,511.0
523.0,505.0,537.0,515.0
515.0,491.0,545.0,520.0
508.0,491.0,530.0,515.0
504.0,492.0,507.0,515.0
501.0,498.0,503.0,516.0
501.0,504.0,496.0,520.0
504.0,513.0,511.0,522.0
506.0,502.0,504.0,521.0
510.0,506.0,495.0,518.0
506.0,503.0,487.0,513.0
505.0,501.0,497.0,508.0
508.0,498.0,500.0,510.0
511.0,517.0,515.0,509.0
515.0,525.0,529.0,510.0
522.0,520.0,533.0,513.0
525.0,518.0,539.0,509.0
527.0,516.0,542.0,510.0
521.0,511.0,537.0,510.0
512.0,489.0,530.0,512.0
501.0,479.0,519.0,514.0
500.0,489.0,510.0,515.0
498.0,496.0,502.0,518.0
503.0,504.0,496.0,523.0
503.0,507.0,491.0,518.0
509.0,514.0,494.0,520.0
511.0,515.0,495.0,517.0
509.0,505.0,498.0,512.0
509.0,502.0,502.0,513.0
511.0,502.0,506.0,511.0
519.0,503.0,518.0,510.0
521.0,507.0,526.0,508.0
525.0,516.0,533.0,510.0
524.0,517.0,540.0,511.0
524.0,513.0,541.0,513.0
516.0,497.0,532.0,514.0
514.0,485.0,528.0,512.0
501.0,475.0,518.0,517.0
498.0,481.0,510.0,519.0
497.0,492.0,503.0,520.0
499.0,512.0,499.0,520.0
505.0,518.0,496.0,518.0
511.0,535.0,499.0,519.0
509.0,528.0,501.0,516.0
509.0,514.0,500.0,513.0
509.0,507.0,505.0,510.0
511.0,494.0,513.0,508.0
514.0,502.0,523.0,509.0
522.0,510.0,530.0,507.0
526.0,509.0,536.0,505.0
527.0,515.0,542.0,509.0
529.0,521.0,537.0,512.0
521.0,509.0,532.0,511.0
506.0,498.0,526.0,514.0
502.0,493.0,512.0,521.0
501.0,497.0,504.0,515.0
504.0,504.0,495.0,518.0
507.0,508.0,495.0,518.0
509.0,512.0,490.0,516.0
510.0,506.0,494.0,515.0
509.0,501.0,494.0,514.0
510.0,493.0,497.0,512.0
509.0,485.0,504.0,509.0
512.0,500.0,518.0,509.0
520.0,504.0,523.0,509.0
528.0,504.0,532.0,511.0
531.0,513.0,540.0,510.0
531.0,518.0,541.0,511.0
522.0,514.0,539.0,512.0
504.0,504.0,531.0,513.0
505.0,501.0,522.0,512.0
501.0,498.0,513.0,514.0
501.0,494.0,503.0,520.0
502.0,505.0,496.0,520.0
496.0,497.0,491.0,518.0
504.0,505.0,494.0,519.0
508.0,527.0,497.0,515.0
497.0,522.0,496.0,515.0
501.0,518.0,502.0,513.0
508.0,513.0,509.0,511.0
516.0,514.0,519.0,510.0
523.0,508.0,529.0,508.0
530.0,511.0,536.0,511.0
525.0,510.0,540.0,510.0
526.0,503.0,540.0,513.0
519.0,503.0,534.0,513.0
515.0,492.0,528.0,517.0
506.0,486.0,515.0,515.0
507.0,492.0,509.0,518.0
503.0,496.0,506.0,521.0
507.0,504.0,495.0,521.0
507.0,511.0,494.0,520.0
510.0,519.0,495.0,519.0
507.0,520.0,496.0,517.0
502.0,512.0,500.0,512.0
505.0,501.0,503.0,513.0
514.0,499.0,515.0,513.0
515.0,505.0,519.0,510.0
519.0,514.0,532.0,510.0
522.0,510.0,541.0,511.0
525.0,505.0,541.0,511.0
522.0,494.0,540.0,510.0
513.0,494.0,533.0,513.0
501.0,478.0,523.0,514.0
501.0,501.0,514.0,515.0
496.0,507.0,507.0,517.0
501.0,516.0,500.0,518.0
506.0,518.0,495.0,520.0
508.0,524.0,491.0,519.0
507.0,521.0,496.0,518.0
512.0,477.0,495.0,516.0
518.0,480.0,500.0,516.0
522.0,501.0,506.0,511.0
525.0,508.0,514.0,511.0
529.0,513.0,523.0,510.0
535.0,510.0,533.0,510.0
528.0,504.0,539.0,511.0
519.0,505.0,542.0,513.0
503.0,506.0,544.0,514.0
499.0,495.0,529.0,514.0
501.0,490.0,519.0,516.0
500.0,490.0,513.0,515.0
499.0,497.0,504.0,520.0
501.0,506.0,500.0,521.0
502.0,512.0,497.0,518.0
507.0,512.0,498.0,519.0
509.0,513.0,498.0,520.0
506.0,508.0,499.0,515.0
509.0,507.0,503.0,508.0
509.0,506.0,506.0,510.0
515.0,503.0,519.0,510.0
517.0,508.0,531.0,510.0
525.0,501.0,536.0,506.0
522.0,495.0,542.0,511.0
525.0,498.0,541.0,510.0
516.0,491.0,536.0,511.0
512.0,487.0,527.0,513.0
505.0,509.0,518.0,515.0
499.0,507.0,509.0,519.0
497.0,504.0,503.0,520.0
503.0,504.0,497.0,517.0
503.0,506.0,493.0,519.0
507.0,511.0,494.0,517.0
509.0,513.0,496.0,514.0
506.0,509.0,499.0,514.0
512.0,514.0,501.0,511.0
512.0,509.0,514.0,511.0
517.0,498.0,521.0,509.0
523.0,494.0,530.0,511.0
524.0,498.0,536.0,510.0
524.0,511.0,543.0,513.0
526.0,510.0,538.0,511.0
518.0,505.0,532.0,512.0
507.0,507.0,526.0,514.0
501.0,504.0,518.0,515.0
500.0,498.0,505.0,519.0
501.0,498.0,500.0,521.0
503.0,503.0,497.0,519.0
504.0,504.0,495.0,518.0
509.0,513.0,497.0,519.0
504.0,507.0,498.0,514.0
508.0,505.0,501.0,513.0
511.0,504.0,508.0,509.0
514.0,511.0,516.0,510.0
522.0,515.0,524.0,515.0
528.0,513.0,533.0,508.0
529.0,514.0,541.0,510.0
523.0,507.0,544.0,513.0
522.0,501.0,538.0,512.0
512.0,501.0,532.0,510.0
504.0,495.0,521.0,513.0
503.0,492.0,514.0,516.0
499.0,493.0,506.0,519.0
502.0,501.0,497.0,517.0
503.0,506.0,496.0,519.0
508.0,514.0,496.0,517.0
510.0,523.0,495.0,518.0
504.0,516.0,497.0,514.0
505.0,508.0,503.0,511.0
508.0,506.0,510.0,510.0
514.0,513.0,517.0,511.0
522.0,511.0,527.0,509.0
525.0,500.0,535.0,510.0
527.0,505.0,541.0,511.0
525.0,506.0,541.0,513.0
519.0,501.0,533.0,513.0
511.0,494.0,525.0,513.0
503.0,491.0,519.0,517.0
498.0,499.0,509.0,519.0
500.0,507.0,503.0,521.0
503.0,510.0,497.0,518.0
503.0,512.0,493.0,521.0
506.0,513.0,496.0,517.0
507.0,516.0,497.0,517.0
503.0,504.0,499.0,514.0
508.0,504.0,505.0,512.0
513.0,501.0,513.0,510.0
517.0,515.0,522.0,506.0
523.0,520.0,531.0,510.0
526.0,521.0,538.0,509.0
529.0,527.0,539.0,512.0
522.0,496.0,541.0,512.0
510.0,493.0,536.0,514.0
502.0,496.0,524.0,515.0
501.0,477.0,514.0,517.0
498.0,473.0,505.0,518.0
497.0,485.0,498.0,520.0
499.0,494.0,494.0,520.0
497.0,500.0,493.0,519.0
498.0,524.0,496.0,519.0
504.0,515.0,494.0,516.0
507.0,513.0,497.0,515.0
511.0,516.0,507.0,510.0
515.0,514.0,516.0,510.0
518.0,512.0,526.0,511.0
531.0,504.0,535.0,512.0
532.0,515.0,539.0,508.0
529.0,515.0,543.0,511.0
522.0,502.0,538.0,514.0
516.0,484.0,530.0,512.0
508.0,480.0,521.0,510.0
505.0,488.0,512.0,516.0
507.0,505.0,504.0,517.0
507.0,515.0,496.0,520.0
503.0,510.0,495.0,521.0
505.0,504.0,492.0,519.0
503.0,521.0,493.0,517.0
501.0,511.0,496.0,515.0
504.0,497.0,501.0,513.0
507.0,490.0,510.0,509.0
512.0,489.0,517.0,510.0
517.0,503.0,530.0,511.0
525.0,509.0,536.0,510.0
529.0,516.0,540.0,516.0
523.0,531.0,539.0,509.0
513.0,508.0,532.0,511.0
515.0,499.0,526.0,512.0
513.0,499.0,518.0,512.0
505.0,498.0,509.0,518.0
501.0,491.0,499.0,519.0
499.0,497.0,493.0,518.0
499.0,496.0,491.0,517.0
503.0,508.0,495.0,515.0
503.0,520.0,495.0,515.0
508.0,517.0,497.0,514.0
510.0,524.0,505.0,509.0
506.0,516.0,512.0,509.0
509.0,509.0,520.0,510.0
513.0,507.0,533.0,509.0
519.0,506.0,536.0,505.0
516.0,507.0,538.0,512.0
515.0,504.0,536.0,510.0
516.0,489.0,531.0,511.0
519.0,478.0,525.0,513.0
515.0,486.0,513.0,512.0
508.0,503.0,506.0,518.0
508.0,503.0,497.0,520.0
506.0,510.0,494.0,519.0
507.0,519.0,491.0,521.0
516.0,530.0,496.0,516.0
509.0,531.0,498.0,518.0
508.0,516.0,500.0,516.0
511.0,505.0,508.0,513.0
511.0,492.0,518.0,512.0
521.0,501.0,527.0,511.0
527.0,507.0,537.0,511.0
528.0,508.0,544.0,511.0
528.0,512.0,537.0,511.0
525.0,509.0,535.0,511.0
512.0,497.0,527.0,508.0
506.0,489.0,518.0,509.0
502.0,489.0,507.0,509.0
500.0,496.0,501.0,515.0
502.0,502.0,494.0,518.0
506.0,504.0,494.0,517.0
510.0,512.0,493.0,518.0
511.0,517.0,496.0,516.0
506.0,510.0,495.0,517.0
509.0,508.0,501.0,514.0
510.0,505.0,509.0,512.0
511.0,503.0,524.0,515.0
519.0,505.0,529.0,510.0
520.0,506.0,540.0,511.0
524.0,507.0,535.0,509.0
525.0,496.0,536.0,509.0
518.0,476.0,531.0,514.0
511.0,473.0,526.0,509.0
501.0,479.0,524.0,513.0
500.0,497.0,505.0,514.0
503.0,521.0,498.0,517.0
504.0,525.0,494.0,516.0
503.0,518.0,491.0,517.0
509.0,521.0,491.0,518.0
509.0,522.0,494.0,515.0
504.0,517.0,495.0,513.0
509.0,513.0,503.0,509.0
511.0,511.0,511.0,506.0
513.0,508.0,520.0,510.0
518.0,506.0,530.0,506.0
524.0,506.0,537.0,509.0
524.0,509.0,542.0,512.0
527.0,508.0,536.0,513.0
519.0,499.0,533.0,510.0
506.0,492.0,525.0,513.0
500.0,493.0,514.0,518.0
499.0,498.0,505.0,518.0
501.0,505.0,500.0,521.0
505.0,514.0,496.0,522.0
507.0,512.0,494.0,521.0
510.0,519.0,497.0,519.0
508.0,506.0,498.0,513.0
506.0,498.0,501.0,512.0
509.0,503.0,506.0,512.0
513.0,507.0,516.0,512.0
516.0,496.0,524.0,517.0
523.0,490.0,532.0,507.0
525.0,498.0,541.0,512.0
524.0,494.0,541.0,511.0
520.0,492.0,538.0,510.0
516.0,497.0,532.0,510.0
504.0,490.0,524.0,515.0
502.0,503.0,512.0,518.0
499.0,507.0,506.0,518.0
500.0,513.0,499.0,522.0
500.0,514.0,495.0,520.0
496.0,516.0,502.0,521.0
503.0,511.0,500.0,519.0
503.0,509.0,495.0,515.0
500.0,504.0,502.0,512.0
511.0,508.0,507.0,510.0
519.0,511.0,516.0,506.0
529.0,512.0,526.0,505.0
539.0,516.0,535.0,510.0
539.0,519.0,540.0,509.0
535.0,511.0,539.0,512.0
521.0,486.0,537.0,513.0
512.0,482.0,527.0,513.0
500.0,490.0,519.0,515.0
494.0,494.0,508.0,518.0
493.0,506.0,500.0,518.0
501.0,511.0,492.0,520.0
503.0,509.0,490.0,520.0
508.0,510.0,495.0,518.0
505.0,505.0,497.0,518.0
508.0,495.0,497.0,514.0
504.0,493.0,505.0,509.0
511.0,500.0,512.0,511.0
515.0,523.0,520.0,508.0
520.0,522.0,528.0,511.0
523.0,512.0,538.0,508.0
525.0,510.0,540.0,512.0
523.0,515.0,540.0,510.0
517.0,507.0,533.0,509.0
505.0,498.0,527.0,515.0
502.0,489.0,514.0,516.0
504.0,484.0,507.0,519.0
502.0,501.0,498.0,519.0
502.0,511.0,492.0,519.0
506.0,504.0,495.0,518.0
506.0,490.0,495.0,518.0
508.0,500.0,497.0,516.0
505.0,503.0,500.0,509.0
513.0,516.0,508.0,512.0
514.0,520.0,520.0,511.0
523.0,518.0,523.0,511.0
521.0,508.0,533.0,510.0
525.0,500.0,539.0,508.0
526.0,502.0,540.0,512.0
522.0,516.0,538.0,513.0
513.0,511.0,529.0,513.0
501.0,502.0,524.0,516.0
500.0,505.0,513.0,515.0
500.0,505.0,505.0,517.0
499.0,501.0,497.0,520.0
499.0,499.0,494.0,518.0
492.0,509.0,490.0,517.0
493.0,517.0,492.0,517.0
495.0,515.0,495.0,514.0
497.0,515.0,497.0,513.0
501.0,517.0,510.0,509.0
509.0,503.0,516.0,507.0
527.0,508.0,525.0,510.0
545.0,512.0,536.0,511.0
543.0,508.0,540.0,510.0
537.0,506.0,536.0,511.0
527.0,502.0,536.0,511.0
515.0,498.0,533.0,513.0
502.0,493.0,522.0,517.0
501.0,497.0,505.0,519.0
502.0,500.0,502.0,519.0
504.0,504.0,497.0,521.0
508.0,505.0,492.0,521.0
515.0,510.0,493.0,519.0
515.0,510.0,495.0,516.0
508.0,503.0,499.0,515.0
513.0,505.0,503.0,513.0
513.0,514.0,513.0,512.0
518.0,510.0,521.0,508.0
527.0,509.0,530.0,509.0
525.0,500.0,533.0,509.0
522.0,505.0,542.0,507.0
522.0,511.0,538.0,513.0
516.0,511.0,533.0,511.0
507.0,503.0,529.0,512.0
503.0,499.0,519.0,517.0
499.0,495.0,508.0,518.0
499.0,496.0,498.0,517.0
503.0,491.0,494.0,518.0
503.0,500.0,493.0,518.0
507.0,514.0,495.0,518.0
507.0,508.0,497.0,511.0
505.0,501.0,498.0,514.0
511.0,498.0,505.0,510.0
512.0,503.0,516.0,510.0
517.0,501.0,524.0,509.0
520.0,497.0,532.0,511.0
527.0,506.0,539.0,507.0
527.0,516.0,539.0,510.0
521.0,515.0,538.0,512.0
515.0,510.0,534.0,514.0
508.0,500.0,523.0,518.0
501.0,486.0,511.0,517.0
495.0,474.0,502.0,519.0
495.0,486.0,497.0,522.0
495.0,494.0,497.0,521.0
502.0,495.0,494.0,521.0
507.0,505.0,497.0,520.0
510.0,512.0,498.0,516.0
507.0,503.0,502.0,514.0
513.0,511.0,513.0,511.0
518.0,517.0,521.0,514.0
525.0,520.0,529.0,513.0
527.0,516.0,537.0,513.0
525.0,519.0,542.0,512.0
521.0,512.0,543.0,513.0
514.0,506.0,533.0,510.0
511.0,498.0,528.0,508.0
502.0,489.0,514.0,509.0
498.0,489.0,507.0,512.0
498.0,484.0,499.0,515.0
501.0,493.0,494.0,514.0
500.0,495.0,490.0,516.0
507.0,507.0,492.0,516.0
515.0,532.0,492.0,513.0
507.0,535.0,497.0,513.0
501.0,512.0,500.0,510.0
511.0,509.0,510.0,508.0
515.0,516.0,518.0,509.0
523.0,528.0,526.0,508.0
527.0,525.0,536.0,510.0
528.0,518.0,538.0,512.0
525.0,517.0,536.0,512.0
514.0,469.0,531.0,512.0
504.0,473.0,524.0,511.0
503.0,490.0,516.0,516.0
497.0,491.0,509.0,519.0
499.0,500.0,500.0,516.0
502.0,502.0,496.0,522.0
505.0,512.0,494.0,522.0
513.0,525.0,493.0,521.0
511.0,520.0,493.0,518.0
508.0,503.0,498.0,517.0
507.0,505.0,504.0,511.0
514.0,506.0,517.0,511.0
515.0,515.0,523.0,512.0
523.0,512.0,537.0,513.0
526.0,507.0,544.0,513.0
525.0,509.0,546.0,512.0
522.0,506.0,540.0,511.0
513.0,504.0,527.0,510.0
505.0,494.0,520.0,512.0
500.0,500.0,511.0,515.0
497.0,501.0,501.0,515.0
493.0,502.0,495.0,514.0
504.0,507.0,492.0,517.0
507.0,509.0,491.0,515.0
509.0,506.0,492.0,514.0
508.0,503.0,496.0,513.0
507.0,499.0,495.0,510.0
509.0,497.0,507.0,511.0
517.0,505.0,516.0,509.0
520.0,507.0,525.0,515.0
526.0,512.0,534.0,506.0
529.0,509.0,539.0,510.0
525.0,496.0,537.0,511.0
523.0,498.0,537.0,511.0
514.0,495.0,531.0,513.0
505.0,483.0,517.0,514.0
503.0,496.0,508.0,516.0
497.0,496.0,501.0,519.0
503.0,503.0,496.0,518.0
505.0,496.0,494.0,521.0
505.0,501.0,494.0,518.0
508.0,500.0,494.0,518.0
507.0,496.0,498.0,513.0
509.0,503.0,500.0,511.0
509.0,518.0,512.0,509.0
515.0,515.0,519.0,511.0
523.0,510.0,527.0,509.0
526.0,516.0,537.0,508.0
528.0,515.0,539.0,509.0
522.0,512.0,537.0,511.0
519.0,508.0,535.0,510.0
507.0,500.0,527.0,514.0
501.0,497.0,514.0,516.0
497.0,500.0,508.0,519.0
495.0,501.0,500.0,520.0
500.0,509.0,496.0,521.0
503.0,513.0,490.0,520.0
505.0,518.0,494.0,519.0
506.0,513.0,497.0,514.0
507.0,504.0,498.0,512.0
507.0,497.0,503.0,509.0
512.0,498.0,514.0,509.0
516.0,503.0,523.0,507.0
522.0,510.0,531.0,511.0
531.0,500.0,539.0,510.0
535.0,498.0,540.0,515.0
529.0,504.0,538.0,511.0
517.0,511.0,530.0,510.0
509.0,503.0,524.0,511.0
507.0,498.0,513.0,519.0
508.0,496.0,504.0,520.0
505.0,497.0,498.0,520.0
509.0,501.0,493.0,521.0
510.0,503.0,494.0,522.0
510.0,508.0,495.0,516.0
508.0,498.0,498.0,517.0
496.0,512.0,501.0,514.0
501.0,510.0,508.0,511.0
509.0,502.0,516.0,502.0
519.0,509.0,523.0,509.0
527.0,514.0,534.0,509.0
525.0,516.0,540.0,511.0
524.0,514.0,540.0,513.0
520.0,507.0,534.0,513.0
512.0,500.0,524.0,510.0
507.0,495.0,517.0,515.0
498.0,490.0,509.0,519.0
500.0,506.0,500.0,520.0
502.0,526.0,499.0,522.0
500.0,495.0,496.0,520.0
508.0,515.0,498.0,519.0
510.0,523.0,498.0,520.0
504.0,509.0,499.0,511.0
508.0,505.0,503.0,510.0
510.0,502.0,508.0,509.0
509.0,499.0,518.0,511.0
520.0,503.0,528.0,507.0
527.0,509.0,534.0,509.0
524.0,508.0,537.0,508.0
524.0,510.0,536.0,509.0
518.0,503.0,531.0,509.0
507.0,493.0,526.0,511.0
501.0,485.0,514.0,514.0
501.0,486.0,505.0,513.0
503.0,498.0,499.0,516.0
502.0,518.0,495.0,521.0
507.0,521.0,490.0,519.0
511.0,524.0,496.0,518.0
508.0,515.0,495.0,517.0
503.0,488.0,497.0,513.0
508.0,492.0,504.0,507.0
508.0,505.0,513.0,507.0
515.0,502.0,518.0,505.0
522.0,513.0,531.0,508.0
526.0,512.0,536.0,509.0
526.0,509.0,540.0,510.0
519.0,507.0,538.0,513.0
516.0,499.0,530.0,511.0
506.0,493.0,524.0,511.0
501.0,495.0,512.0,516.0
502.0,496.0,503.0,516.0
501.0,501.0,496.0,521.0
502.0,503.0,497.0,520.0
506.0,506.0,495.0,519.0
509.0,509.0,495.0,515.0
510.0,506.0,498.0,513.0
507.0,503.0,501.0,514.0
515.0,505.0,506.0,510.0
513.0,503.0,517.0,509.0
520.0,509.0,526.0,510.0
524.0,514.0,534.0,510.0
526.0,515.0,538.0,508.0
524.0,516.0,538.0,511.0
520.0,507.0,536.0,512.0
514.0,494.0,530.0,511.0
503.0,491.0,521.0,514.0
502.0,494.0,508.0,517.0
500.0,493.0,503.0,517.0
502.0,503.0,496.0,520.0
503.0,508.0,493.0,517.0
505.0,513.0,495.0,518.0
507.0,513.0,493.0,517.0
507.0,510.0,497.0,514.0
510.0,510.0,501.0,512.0
515.0,512.0,513.0,512.0
518.0,510.0,519.0,508.0
525.0,512.0,527.0,510.0
525.0,507.0,532.0,510.0
525.0,504.0,539.0,507.0
522.0,505.0,535.0,510.0
517.0,502.0,534.0,511.0
506.0,491.0,525.0,514.0
497.0,489.0,514.0,515.0
498.0,489.0,506.0,518.0
499.0,500.0,499.0,519.0
502.0,507.0,496.0,519.0
505.0,512.0,491.0,520.0
511.0,516.0,492.0,519.0
509.0,514.0,494.0,516.0
504.0,503.0,497.0,514.0
510.0,501.0,504.0,508.0
509.0,505.0,516.0,509.0
515.0,506.0,520.0,509.0
523.0,510.0,531.0,508.0
523.0,509.0,533.0,509.0
527.0,513.0,540.0,512.0
522.0,499.0,537.0,511.0
515.0,496.0,529.0,511.0
505.0,490.0,523.0,516.0
501.0,490.0,514.0,516.0
497.0,495.0,504.0,518.0
501.0,508.0,497.0,520.0
504.0,513.0,493.0,520.0
505.0,509.0,492.0,518.0
510.0,515.0,494.0,517.0
510.0,510.0,496.0,513.0
508.0,500.0,499.0,512.0
513.0,501.0,507.0,511.0
516.0,504.0,512.0,511.0
524.0,500.0,525.0,507.0
528.0,498.0,532.0,510.0
530.0,505.0,538.0,511.0
523.0,499.0,539.0,512.0
520.0,505.0,536.0,509.0
512.0,521.0,530.0,512.0
504.0,491.0,521.0,516.0
502.0,489.0,506.0,519.0
501.0,498.0,500.0,520.0
502.0,503.0,496.0,520.0
502.0,515.0,493.0,516.0
503.0,513.0,490.0,518.0
505.0,519.0,493.0,516.0
504.0,511.0,494.0,514.0
506.0,509.0,501.0,508.0
509.0,502.0,509.0,510.0
513.0,500.0,518.0,507.0
519.0,502.0,525.0,509.0
525.0,505.0,535.0,509.0
522.0,499.0,539.0,509.0
526.0,510.0,538.0,509.0
524.0,515.0,533.0,510.0
512.0,501.0,527.0,511.0
506.0,493.0,514.0,515.0
499.0,493.0,508.0,518.0
496.0,495.0,500.0,521.0
504.0,511.0,494.0,521.0
505.0,519.0,494.0,519.0
511.0,528.0,493.0,518.0
514.0,533.0,495.0,515.0
507.0,507.0,495.0,513.0
507.0,493.0,505.0,511.0
511.0,487.0,510.0,508.0
518.0,495.0,521.0,511.0
522.0,507.0,533.0,511.0
526.0,508.0,537.0,510.0
523.0,510.0,536.0,511.0
518.0,506.0,539.0,512.0
513.0,502.0,532.0,512.0
498.0,491.0,521.0,514.0
499.0,490.0,513.0,517.0
497.0,493.0,505.0,514.0
502.0,501.0,498.0,520.0
506.0,502.0,495.0,517.0
505.0,512.0,492.0,519.0
508.0,516.0,494.0,518.0
510.0,514.0,497.0,513.0
503.0,507.0,499.0,513.0
511.0,506.0,507.0,510.0
514.0,509.0,520.0,510.0
520.0,510.0,523.0,509.0
525.0,505.0,533.0,509.0
523.0,498.0,539.0,511.0
525.0,502.0,538.0,511.0
521.0,500.0,537.0,510.0
512.0,490.0,531.0,511.0
504.0,487.0,520.0,517.0
501.0,496.0,511.0,518.0
498.0,492.0,503.0,515.0
500.0,498.0,496.0,519.0
505.0,506.0,493.0,522.0
513.0,514.0,492.0,519.0
513.0,515.0,492.0,517.0
511.0,511.0,501.0,515.0
509.0,508.0,501.0,511.0
514.0,506.0,510.0,509.0
512.0,517.0,518.0,508.0
521.0,527.0,527.0,507.0
526.0,524.0,535.0,506.0
526.0,515.0,537.0,509.0
524.0,506.0,540.0,512.0
518.0,489.0,535.0,513.0
513.0,484.0,526.0,515.0
503.0,485.0,516.0,511.0
502.0,490.0,507.0,519.0
502.0,491.0,498.0,521.0
499.0,496.0,495.0,522.0
500.0,504.0,492.0,520.0
504.0,518.0,494.0,520.0
507.0,500.0,496.0,516.0
507.0,492.0,495.0,513.0
508.0,492.0,502.0,510.0
512.0,501.0,512.0,508.0
521.0,505.0,520.0,511.0
522.0,512.0,531.0,513.0
528.0,514.0,538.0,513.0
526.0,516.0,539.0,515.0
523.0,510.0,539.0,516.0
515.0,508.0,534.0,515.0
501.0,491.0,527.0,514.0
502.0,497.0,516.0,520.0
499.0,497.0,504.0,518.0
502.0,498.0,493.0,517.0
506.0,505.0,490.0,515.0
505.0,503.0,494.0,513.0
513.0,496.0,487.0,511.0
513.0,498.0,492.0,506.0
507.0,499.0,495.0,509.0
515.0,503.0,503.0,507.0
517.0,504.0,512.0,509.0
519.0,497.0,522.0,508.0
523.0,510.0,531.0,505.0
519.0,524.0,538.0,504.0
523.0,525.0,540.0,506.0
525.0,551.0,534.0,512.0
506.0,514.0,529.0,511.0
492.0,478.0,517.0,515.0
491.0,489.0,505.0,516.0
495.0,494.0,499.0,516.0
498.0,501.0,495.0,517.0
501.0,501.0,493.0,516.0
509.0,509.0,493.0,517.0
514.0,511.0,494.0,518.0
518.0,514.0,497.0,514.0
517.0,511.0,500.0,511.0
519.0,516.0,506.0,508.0
520.0,513.0,513.0,506.0
526.0,511.0,526.0,507.0
521.0,503.0,533.0,504.0
520.0,505.0,543.0,509.0
521.0,508.0,537.0,509.0
520.0,510.0,533.0,507.0
508.0,504.0,525.0,512.0
500.0,498.0,516.0,515.0
501.0,492.0,504.0,516.0
501.0,493.0,499.0,515.0
503.0,498.0,494.0,517.0
507.0,511.0,492.0,515.0
510.0,518.0,491.0,518.0
509.0,510.0,492.0,516.0
505.0,507.0,493.0,512.0
508.0,500.0,500.0,510.0
511.0,501.0,517.0,510.0
517.0,505.0,520.0,507.0
523.0,510.0,528.0,510.0
526.0,521.0,536.0,510.0
526.0,516.0,539.0,510.0
521.0,505.0,538.0,513.0
517.0,496.0,533.0,512.0
504.0,487.0,524.0,517.0
499.0,485.0,514.0,518.0
497.0,487.0,504.0,520.0
500.0,493.0,497.0,520.0
502.0,501.0,491.0,520.0
506.0,505.0,489.0,519.0
510.0,507.0,494.0,516.0
507.0,518.0,499.0,516.0
505.0,514.0,498.0,514.0
513.0,509.0,506.0,510.0
520.0,509.0,517.0,510.0
518.0,511.0,525.0,510.0
525.0,512.0,530.0,508.0
523.0,506.0,539.0,509.0
524.0,502.0,538.0,510.0
520.0,498.0,533.0,510.0
512.0,496.0,530.0,511.0
503.0,490.0,519.0,515.0
500.0,487.0,508.0,517.0
498.0,489.0,502.0,518.0
502.0,493.0,495.0,518.0
503.0,500.0,493.0,515.0
510.0,508.0,494.0,519.0
509.0,524.0,493.0,519.0
509.0,513.0,497.0,523.0
508.0,504.0,502.0,512.0
508.0,505.0,509.0,511.0
514.0,507.0,517.0,506.0
521.0,507.0,527.0,507.0
524.0,509.0,535.0,511.0
522.0,504.0,538.0,508.0
525.0,504.0,540.0,510.0
516.0,489.0,536.0,514.0
508.0,478.0,531.0,514.0
504.0,486.0,518.0,517.0
501.0,492.0,505.0,519.0
502.0,502.0,501.0,522.0
507.0,512.0,495.0,518.0
507.0,516.0,494.0,521.0
511.0,517.0,495.0,519.0
509.0,517.0,495.0,517.0
508.0,509.0,498.0,513.0
508.0,504.0,501.0,510.0
511.0,505.0,516.0,509.0
522.0,506.0,521.0,507.0
523.0,507.0,527.0,509.0
526.0,511.0,532.0,508.0
529.0,509.0,538.0,511.0
522.0,506.0,536.0,512.0
518.0,514.0,532.0,513.0
506.0,504.0,524.0,512.0
499.0,498.0,510.0,517.0
501.0,497.0,504.0,518.0
497.0,465.0,498.0,520.0
502.0,478.0,493.0,518.0
507.0,498.0,490.0,520.0
508.0,501.0,492.0,519.0
511.0,497.0,495.0,519.0
511.0,496.0,498.0,511.0
513.0,499.0,505.0,513.0
513.0,506.0,513.0,507.0
516.0,532.0,523.0,508.0
527.0,546.0,532.0,509.0
524.0,534.0,537.0,510.0
525.0,525.0,539.0,515.0
521.0,516.0,533.0,512.0
516.0,500.0,528.0,518.0
502.0,474.0,520.0,516.0
499.0,478.0,509.0,518.0
500.0,486.0,501.0,517.0
497.0,496.0,494.0,517.0
500.0,511.0,495.0,519.0
507.0,514.0,492.0,516.0
510.0,513.0,491.0,515.0
501.0,500.0,496.0,514.0
502.0,506.0,499.0,511.0
504.0,505.0,506.0,511.0
510.0,508.0,514.0,508.0
516.0,507.0,526.0,509.0
523.0,510.0,533.0,506.0
522.0,512.0,538.0,509.0
527.0,503.0,537.0,514.0
528.0,501.0,532.0,514.0
518.0,491.0,526.0,513.0
507.0,497.0,517.0,511.0
503.0,501.0,507.0,516.0
501.0,499.0,499.0,519.0
501.0,504.0,491.0,521.0
508.0,510.0,491.0,519.0
511.0,515.0,493.0,519.0
508.0,514.0,495.0,516.0
508.0,509.0,498.0,514.0
509.0,506.0,503.0,509.0
511.0,509.0,510.0,511.0
517.0,510.0,516.0,509.0
524.0,510.0,528.0,508.0
528.0,511.0,535.0,511.0
525.0,506.0,541.0,513.0
520.0,500.0,537.0,510.0
520.0,496.0,533.0,510.0
507.0,488.0,524.0,514.0
503.0,495.0,515.0,515.0
501.0,496.0,504.0,517.0
503.0,500.0,499.0,520.0
503.0,504.0,495.0,520.0
505.0,499.0,493.0,518.0
509.0,506.0,494.0,518.0
508.0,505.0,496.0,516.0
505.0,501.0,497.0,513.0
510.0,514.0,506.0,510.0
512.0,511.0,512.0,511.0
521.0,515.0,523.0,513.0
524.0,517.0,529.0,512.0
523.0,516.0,542.0,511.0
526.0,504.0,538.0,512.0
523.0,504.0,535.0,510.0
515.0,496.0,530.0,513.0
500.0,489.0,517.0,515.0
500.0,488.0,508.0,517.0
501.0,490.0,504.0,516.0
501.0,495.0,498.0,519.0
502.0,503.0,494.0,518.0
507.0,510.0,493.0,516.0
509.0,528.0,493.0,519.0
509.0,529.0,497.0,515.0
508.0,505.0,497.0,511.0
508.0,490.0,509.0,510.0
511.0,490.0,516.0,510.0
517.0,504.0,524.0,508.0
524.0,522.0,529.0,507.0
525.0,519.0,536.0,507.0
522.0,514.0,536.0,509.0
520.0,504.0,532.0,511.0
513.0,498.0,524.0,512.0
502.0,490.0,514.0,515.0
499.0,490.0,505.0,514.0
497.0,498.0,498.0,519.0
499.0,503.0,494.0,520.0
501.0,504.0,491.0,520.0
505.0,509.0,494.0,520.0
509.0,515.0,496.0,518.0
506.0,507.0,499.0,515.0
508.0,502.0,504.0,512.0
517.0,507.0,509.0,510.0
523.0,507.0,517.0,507.0
524.0,508.0,528.0,507.0
530.0,510.0,531.0,507.0
531.0,511.0,537.0,505.0
525.0,503.0,533.0,509.0
515.0,503.0,530.0,509.0
502.0,478.0,522.0,513.0
495.0,473.0,514.0,516.0
494.0,481.0,503.0,518.0
501.0,502.0,495.0,518.0
504.0,522.0,496.0,521.0
510.0,536.0,490.0,520.0
514.0,533.0,494.0,517.0
509.0,520.0,496.0,521.0
504.0,502.0,498.0,516.0
506.0,502.0,507.0,510.0
512.0,501.0,515.0,508.0
520.0,501.0,523.0,508.0
525.0,506.0,528.0,509.0
525.0,501.0,536.0,508.0
526.0,506.0,537.0,510.0
524.0,514.0,534.0,509.0
519.0,510.0,528.0,509.0
511.0,511.0,517.0,514.0
506.0,511.0,507.0,515.0
501.0,477.0,499.0,516.0
503.0,500.0,494.0,517.0
503.0,507.0,490.0,518.0
506.0,511.0,489.0,516.0
510.0,515.0,495.0,516.0
508.0,513.0,498.0,514.0
508.0,514.0,498.0,517.0
512.0,512.0,507.0,507.0
516.0,506.0,514.0,512.0
526.0,512.0,522.0,508.0
526.0,509.0,532.0,508.0
524.0,507.0,535.0,509.0
524.0,510.0,533.0,510.0
519.0,503.0,534.0,513.0
511.0,495.0,527.0,511.0
500.0,487.0,516.0,516.0
499.0,491.0,505.0,517.0
498.0,496.0,498.0,518.0
503.0,496.0,490.0,519.0
505.0,500.0,490.0,520.0
510.0,510.0,492.0,521.0
509.0,505.0,493.0,516.0
509.0,513.0,498.0,514.0
509.0,512.0,500.0,511.0
510.0,503.0,508.0,509.0
512.0,505.0,521.0,506.0
520.0,506.0,526.0,510.0
528.0,501.0,535.0,511.0
525.0,495.0,542.0,513.0
521.0,492.0,537.0,509.0
515.0,501.0,531.0,510.0
506.0,512.0,523.0,514.0
504.0,510.0,513.0,515.0
502.0,508.0,504.0,516.0
503.0,510.0,495.0,519.0
503.0,499.0,493.0,520.0
506.0,503.0,491.0,519.0
508.0,514.0,490.0,518.0
507.0,514.0,493.0,515.0
506.0,508.0,497.0,513.0
508.0,507.0,502.0,508.0
514.0,508.0,513.0,506.0
520.0,508.0,517.0,507.0
526.0,508.0,528.0,509.0
526.0,503.0,535.0,508.0
525.0,500.0,539.0,511.0
520.0,502.0,531.0,511.0
515.0,499.0,527.0,511.0
503.0,491.0,520.0,511.0
499.0,496.0,508.0,517.0
499.0,498.0,503.0,519.0
502.0,501.0,491.0,521.0
503.0,505.0,493.0,521.0
510.0,518.0,493.0,519.0
515.0,519.0,491.0,516.0
512.0,514.0,497.0,516.0
510.0,507.0,498.0,511.0
507.0,507.0,514.0,511.0
512.0,508.0,515.0,509.0
522.0,510.0,525.0,505.0
525.0,513.0,531.0,510.0
525.0,503.0,536.0,511.0
527.0,496.0,537.0,512.0
529.0,495.0,532.0,512.0
512.0,488.0,525.0,513.0
505.0,486.0,517.0,515.0
502.0,508.0,509.0,518.0
510.0,523.0,499.0,519.0
510.0,513.0,493.0,524.0
513.0,520.0,491.0,520.0
516.0,529.0,491.0,520.0
509.0,501.0,492.0,516.0
504.0,481.0,496.0,515.0
505.0,496.0,502.0,509.0
508.0,500.0,509.0,509.0
511.0,511.0,518.0,508.0
517.0,514.0,527.0,510.0
525.0,509.0,533.0,509.0
524.0,509.0,539.0,509.0
514.0,504.0,539.0,512.0
510.0,498.0,531.0,511.0
501.0,487.0,524.0,510.0
498.0,494.0,515.0,514.0
499.0,498.0,505.0,517.0
498.0,497.0,499.0,520.0
505.0,503.0,494.0,519.0
510.0,510.0,491.0,516.0
520.0,517.0,494.0,517.0
516.0,510.0,493.0,515.0
514.0,505.0,498.0,514.0
510.0,494.0,505.0,512.0
515.0,488.0,514.0,508.0
517.0,495.0,524.0,511.0
527.0,502.0,532.0,508.0
527.0,508.0,537.0,511.0
530.0,516.0,538.0,513.0
525.0,519.0,535.0,511.0
516.0,518.0,530.0,513.0
506.0,506.0,518.0,514.0
504.0,510.0,509.0,514.0
501.0,522.0,503.0,519.0
501.0,501.0,496.0,517.0
503.0,483.0,490.0,519.0
507.0,497.0,493.0,518.0
509.0,507.0,494.0,514.0
510.0,509.0,496.0,512.0
506.0,509.0,500.0,510.0
511.0,509.0,506.0,511.0
515.0,504.0,517.0,507.0
521.0,508.0,521.0,508.0
526.0,506.0,534.0,509.0
524.0,510.0,538.0,509.0
523.0,505.0,535.0,511.0
520.0,505.0,533.0,510.0
513.0,500.0,525.0,512.0
501.0,492.0,517.0,516.0
501.0,494.0,506.0,518.0
500.0,492.0,500.0,518.0
503.0,492.0,495.0,519.0
505.0,495.0,493.0,518.0
510.0,506.0,492.0,519.0
507.0,511.0,494.0,517.0
507.0,521.0,498.0,516.0
509.0,516.0,504.0,512.0
511.0,511.0,507.0,509.0
516.0,509.0,520.0,509.0
522.0,503.0,529.0,511.0
526.0,501.0,534.0,507.0
530.0,502.0,539.0,509.0
526.0,499.0,536.0,510.0
521.0,504.0,530.0,511.0
509.0,493.0,524.0,512.0
504.0,493.0,514.0,515.0
498.0,494.0,507.0,519.0
498.0,489.0,499.0,520.0
503.0,493.0,494.0,520.0
509.0,503.0,493.0,519.0
509.0,516.0,495.0,518.0
512.0,533.0,496.0,515.0
507.0,520.0,497.0,513.0
510.0,513.0,503.0,507.0
514.0,506.0,520.0,509.0
518.0,510.0,522.0,508.0
525.0,511.0,530.0,508.0
527.0,503.0,534.0,512.0
527.0,509.0,539.0,508.0
520.0,508.0,536.0,510.0
516.0,502.0,531.0,512.0
503.0,493.0,522.0,512.0
497.0,493.0,511.0,512.0
500.0,493.0,502.0,518.0
502.0,503.0,494.0,519.0
503.0,499.0,491.0,520.0
506.0,508.0,491.0,520.0
508.0,511.0,495.0,519.0
509.0,511.0,498.0,514.0
507.0,503.0,499.0,513.0
511.0,495.0,510.0,512.0
518.0,490.0,518.0,513.0
526.0,501.0,525.0,510.0
531.0,509.0,536.0,506.0
530.0,513.0,537.0,509.0
532.0,516.0,537.0,513.0
527.0,519.0,534.0,510.0
517.0,509.0,525.0,509.0
501.0,496.0,517.0,513.0
489.0,476.0,507.0,515.0
491.0,494.0,499.0,524.0
500.0,495.0,495.0,520.0
504.0,502.0,491.0,520.0
507.0,507.0,494.0,518.0
506.0,494.0,498.0,517.0
508.0,491.0,495.0,513.0
508.0,494.0,503.0,512.0
507.0,513.0,512.0,511.0
508.0,519.0,517.0,510.0
508.0,519.0,528.0,510.0
514.0,516.0,538.0,509.0
518.0,500.0,541.0,511.0
520.0,491.0,536.0,512.0
518.0,491.0,534.0,513.0
508.0,487.0,525.0,515.0
511.0,491.0,514.0,514.0
512.0,515.0,507.0,517.0
505.0,506.0,500.0,520.0
506.0,512.0,493.0,520.0
507.0,519.0,494.0,518.0
514.0,539.0,496.0,516.0
513.0,531.0,496.0,513.0
511.0,522.0,498.0,512.0
513.0,509.0,506.0,509.0
513.0,501.0,516.0,509.0
520.0,495.0,521.0,508.0
525.0,501.0,531.0,509.0
525.0,500.0,538.0,508.0
524.0,503.0,538.0,512.0
521.0,500.0,534.0,513.0
517.0,497.0,532.0,514.0
504.0,495.0,522.0,517.0
501.0,494.0,517.0,518.0
499.0,494.0,507.0,520.0
500.0,500.0,499.0,521.0
508.0,507.0,495.0,522.0
506.0,510.0,496.0,519.0
510.0,512.0,496.0,519.0
512.0,510.0,498.0,515.0
507.0,501.0,500.0,512.0
512.0,499.0,507.0,508.0
514.0,500.0,516.0,509.0
522.0,502.0,531.0,510.0
528.0,501.0,535.0,509.0
526.0,498.0,540.0,509.0
526.0,507.0,542.0,512.0
523.0,504.0,537.0,512.0
513.0,501.0,530.0,517.0
502.0,498.0,521.0,514.0
501.0,496.0,509.0,513.0
503.0,497.0,501.0,515.0
505.0,499.0,493.0,515.0
505.0,498.0,493.0,520.0
510.0,505.0,495.0,519.0
513.0,509.0,496.0,516.0
513.0,499.0,498.0,514.0
509.0,500.0,502.0,511.0
508.0,508.0,510.0,510.0
513.0,509.0,519.0,509.0
517.0,510.0,528.0,509.0
522.0,511.0,534.0,510.0
524.0,507.0,539.0,509.0
523.0,503.0,539.0,509.0
517.0,502.0,532.0,514.0
503.0,492.0,529.0,516.0
508.0,493.0,519.0,518.0
500.0,495.0,505.0,519.0
500.0,498.0,499.0,520.0
502.0,504.0,496.0,521.0
506.0,511.0,493.0,519.0
510.0,514.0,495.0,518.0
511.0,514.0,496.0,514.0
509.0,502.0,498.0,512.0
507.0,495.0,503.0,509.0
514.0,494.0,513.0,505.0
517.0,494.0,528.0,508.0
524.0,502.0,530.0,507.0
531.0,507.0,537.0,507.0
528.0,514.0,538.0,514.0
522.0,519.0,538.0,510.0
519.0,515.0,531.0,515.0
501.0,490.0,524.0,516.0
498.0,491.0,515.0,515.0
497.0,494.0,505.0,520.0
503.0,496.0,498.0,519.0
500.0,500.0,493.0,520.0
504.0,507.0,492.0,516.0
509.0,507.0,497.0,519.0
509.0,504.0,500.0,517.0
509.0,501.0,502.0,513.0
506.0,496.0,510.0,512.0
509.0,504.0,517.0,509.0
519.0,518.0,527.0,509.0
525.0,522.0,534.0,511.0
524.0,518.0,544.0,510.0
525.0,514.0,537.0,510.0
522.0,489.0,534.0,510.0
513.0,492.0,527.0,513.0
504.0,486.0,518.0,512.0
503.0,493.0,508.0,516.0
504.0,519.0,500.0,519.0
508.0,518.0,497.0,519.0
504.0,517.0,495.0,516.0
511.0,517.0,495.0,519.0
508.0,492.0,499.0,517.0
501.0,476.0,497.0,515.0
503.0,495.0,503.0,510.0
509.0,501.0,513.0,511.0
517.0,496.0,521.0,510.0
526.0,493.0,527.0,512.0
531.0,496.0,534.0,509.0
534.0,497.0,542.0,509.0
529.0,497.0,535.0,511.0
521.0,498.0,540.0,514.0
511.0,498.0,525.0,514.0
503.0,495.0,516.0,512.0
498.0,498.0,508.0,516.0
497.0,503.0,501.0,522.0
502.0,507.0,498.0,522.0
505.0,510.0,491.0,519.0
506.0,518.0,497.0,520.0
504.0,508.0,499.0,517.0
501.0,498.0,498.0,512.0
503.0,507.0,504.0,509.0
508.0,513.0,511.0,507.0
514.0,507.0,522.0,509.0
520.0,503.0,530.0,510.0
523.0,506.0,540.0,511.0
528.0,512.0,542.0,511.0
532.0,511.0,538.0,509.0
520.0,504.0,532.0,514.0
511.0,495.0,525.0,514.0
504.0,497.0,514.0,518.0
503.0,501.0,505.0,519.0
505.0,504.0,500.0,517.0
505.0,509.0,494.0,521.0
510.0,515.0,496.0,520.0
513.0,526.0,497.0,517.0
510.0,512.0,497.0,517.0
510.0,515.0,503.0,514.0
511.0,511.0,511.0,509.0
515.0,509.0,520.0,509.0
519.0,513.0,528.0,508.0
526.0,513.0,534.0,511.0
526.0,507.0,537.0,512.0
525.0,496.0,538.0,512.0
520.0,490.0,537.0,513.0
512.0,497.0,532.0,514.0
504.0,489.0,521.0,514.0
499.0,491.0,510.0,519.0
499.0,494.0,502.0,520.0
500.0,498.0,498.0,522.0
502.0,504.0,497.0,521.0
509.0,510.0,495.0,520.0
510.0,510.0,495.0,517.0
507.0,508.0,503.0,517.0
507.0,506.0,506.0,513.0
512.0,501.0,514.0,513.0
516.0,504.0,522.0,510.0
521.0,505.0,531.0,510.0
526.0,504.0,537.0,510.0
525.0,504.0,536.0,511.0
522.0,508.0,540.0,513.0
516.0,508.0,535.0,511.0
505.0,496.0,528.0,510.0
503.0,494.0,518.0,512.0
497.0,496.0,506.0,519.0
501.0,497.0,500.0,519.0
502.0,503.0,496.0,521.0
505.0,508.0,494.0,519.0
509.0,499.0,496.0,520.0
509.0,500.0,501.0,516.0
508.0,505.0,502.0,515.0
508.0,501.0,513.0,512.0
512.0,505.0,515.0,511.0
522.0,513.0,523.0,510.0
520.0,519.0,532.0,513.0
525.0,517.0,539.0,511.0
524.0,509.0,542.0,513.0
523.0,497.0,542.0,513.0
519.0,490.0,534.0,510.0
508.0,481.0,523.0,514.0
504.0,484.0,514.0,518.0
501.0,485.0,505.0,522.0
500.0,494.0,499.0,521.0
500.0,500.0,497.0,521.0
508.0,505.0,497.0,517.0
506.0,511.0,496.0,518.0
511.0,505.0,503.0,516.0
510.0,501.0,503.0,513.0
513.0,499.0,512.0,509.0
515.0,496.0,518.0,509.0
520.0,503.0,524.0,510.0
525.0,511.0,533.0,510.0
523.0,513.0,539.0,512.0
523.0,516.0,541.0,515.0
517.0,514.0,536.0,513.0
511.0,506.0,530.0,513.0
502.0,496.0,520.0,517.0
501.0,494.0,511.0,522.0
507.0,498.0,502.0,520.0
503.0,499.0,496.0,520.0
504.0,514.0,493.0,518.0
510.0,512.0,497.0,515.0
509.0,508.0,498.0,514.0
514.0,510.0,498.0,515.0
513.0,503.0,500.0,513.0
512.0,502.0,510.0,512.0
515.0,502.0,521.0,510.0
523.0,515.0,530.0,508.0
523.0,531.0,537.0,513.0
523.0,528.0,541.0,515.0
523.0,526.0,541.0,516.0
518.0,515.0,536.0,520.0
503.0,465.0,529.0,517.0
496.0,474.0,520.0,518.0
497.0,485.0,509.0,523.0
499.0,494.0,506.0,519.0
501.0,499.0,504.0,523.0
500.0,494.0,500.0,523.0
507.0,497.0,494.0,520.0
506.0,497.0,500.0,514.0
509.0,493.0,500.0,511.0
511.0,507.0,503.0,507.0
516.0,510.0,510.0,502.0
516.0,510.0,518.0,505.0
522.0,511.0,529.0,506.0
524.0,509.0,536.0,504.0
525.0,507.0,537.0,507.0
525.0,502.0,537.0,510.0
519.0,512.0,532.0,509.0
502.0,499.0,526.0,514.0
507.0,498.0,516.0,515.0
501.0,497.0,506.0,513.0
500.0,500.0,501.0,515.0
504.0,502.0,497.0,516.0
505.0,507.0,496.0,516.0
510.0,507.0,495.0,516.0
508.0,509.0,500.0,511.0
508.0,505.0,498.0,512.0
508.0,508.0,511.0,509.0
516.0,505.0,518.0,509.0
515.0,506.0,527.0,507.0
525.0,504.0,535.0,512.0
524.0,502.0,542.0,507.0
526.0,503.0,541.0,513.0
522.0,510.0,537.0,513.0
516.0,502.0,535.0,514.0
506.0,491.0,520.0,513.0
500.0,481.0,514.0,519.0
496.0,472.0,505.0,518.0
499.0,476.0,500.0,519.0
506.0,505.0,495.0,518.0
510.0,510.0,497.0,518.0
506.0,507.0,499.0,515.0
510.0,506.0,499.0,515.0
514.0,514.0,506.0,511.0
515.0,512.0,514.0,509.0
512.0,515.0,523.0,511.0
520.0,503.0,531.0,511.0
525.0,505.0,539.0,510.0
524.0,500.0,541.0,513.0
522.0,500.0,538.0,513.0
517.0,492.0,536.0,512.0
508.0,489.0,529.0,512.0
501.0,494.0,519.0,517.0
496.0,506.0,509.0,518.0
500.0,505.0,503.0,520.0
503.0,504.0,497.0,521.0
506.0,507.0,497.0,518.0
511.0,515.0,496.0,518.0
507.0,510.0,501.0,517.0
510.0,509.0,502.0,514.0
513.0,506.0,506.0,511.0
515.0,502.0,517.0,510.0
520.0,506.0,523.0,510.0
522.0,506.0,534.0,511.0
528.0,506.0,540.0,510.0
526.0,509.0,543.0,513.0
524.0,504.0,540.0,513.0
518.0,499.0,536.0,512.0
504.0,484.0,525.0,516.0
498.0,491.0,516.0,522.0
502.0,493.0,507.0,519.0
503.0,492.0,500.0,521.0
508.0,497.0,499.0,521.0
509.0,501.0,495.0,520.0
515.0,504.0,498.0,519.0
512.0,500.0,499.0,517.0
508.0,496.0,502.0,514.0
506.0,498.0,510.0,513.0
511.0,495.0,521.0,514.0
516.0,512.0,529.0,510.0
522.0,517.0,535.0,512.0
527.0,511.0,540.0,511.0
524.0,497.0,544.0,511.0
517.0,518.0,537.0,514.0
516.0,521.0,533.0,514.0
504.0,509.0,523.0,518.0
500.0,521.0,513.0,521.0
496.0,513.0,505.0,524.0
494.0,495.0,503.0,523.0
496.0,505.0,502.0,521.0
503.0,511.0,499.0,521.0
509.0,509.0,498.0,518.0
511.0,504.0,502.0,515.0
507.0,496.0,502.0,509.0
513.0,502.0,514.0,509.0
518.0,514.0,521.0,510.0
521.0,521.0,531.0,508.0
524.0,518.0,538.0,510.0
523.0,513.0,541.0,513.0
523.0,505.0,536.0,512.0
517.0,489.0,536.0,509.0
508.0,486.0,530.0,514.0
502.0,483.0,521.0,518.0
501.0,487.0,510.0,517.0
501.0,489.0,503.0,519.0
502.0,500.0,498.0,524.0
505.0,507.0,499.0,523.0
509.0,506.0,498.0,525.0
509.0,503.0,501.0,518.0
512.0,502.0,503.0,516.0
507.0,510.0,512.0,516.0
511.0,514.0,517.0,514.0
517.0,515.0,527.0,512.0
526.0,526.0,532.0,512.0
525.0,505.0,540.0,509.0
526.0,467.0,541.0,509.0
520.0,475.0,537.0,508.0
518.0,472.0,531.0,507.0
504.0,464.0,522.0,510.0
502.0,475.0,514.0,515.0
507.0,509.0,503.0,517.0
501.0,503.0,498.0,519.0
509.0,510.0,497.0,519.0
499.0,507.0,499.0,520.0
506.0,511.0,496.0,521.0
508.0,516.0,497.0,516.0
506.0,510.0,502.0,514.0
510.0,496.0,511.0,513.0
511.0,496.0,520.0,512.0
526.0,510.0,526.0,511.0
527.0,529.0,536.0,512.0
526.0,523.0,540.0,513.0
521.0,512.0,545.0,514.0
521.0,508.0,540.0,512.0
515.0,499.0,535.0,513.0
504.0,494.0,523.0,518.0
498.0,493.0,516.0,518.0
500.0,502.0,505.0,520.0
503.0,503.0,498.0,521.0
503.0,510.0,495.0,518.0
508.0,510.0,494.0,519.0
506.0,513.0,497.0,515.0
508.0,511.0,501.0,514.0
508.0,503.0,504.0,510.0
509.0,504.0,514.0,509.0
515.0,502.0,523.0,510.0
519.0,507.0,532.0,510.0
520.0,507.0,536.0,508.0
522.0,502.0,543.0,510.0
524.0,499.0,540.0,511.0
517.0,496.0,537.0,512.0
510.0,488.0,529.0,516.0
504.0,492.0,519.0,517.0
501.0,492.0,509.0,519.0
501.0,497.0,502.0,516.0
501.0,503.0,499.0,520.0
505.0,506.0,496.0,521.0
507.0,513.0,497.0,521.0
509.0,514.0,498.0,513.0
510.0,508.0,503.0,514.0
511.0,504.0,508.0,509.0
518.0,510.0,516.0,511.0
523.0,508.0,522.0,511.0
525.0,507.0,533.0,511.0
526.0,509.0,538.0,512.0
523.0,495.0,542.0,515.0
523.0,494.0,539.0,512.0
515.0,490.0,536.0,514.0
504.0,480.0,526.0,515.0
502.0,486.0,515.0,516.0
500.0,492.0,506.0,517.0
501.0,503.0,499.0,520.0
500.0,506.0,496.0,521.0
502.0,511.0,494.0,519.0
506.0,509.0,498.0,518.0
507.0,503.0,497.0,514.0
504.0,494.0,502.0,513.0
507.0,482.0,510.0,513.0
513.0,482.0,521.0,511.0
519.0,479.0,528.0,510.0
521.0,483.0,537.0,512.0
527.0,501.0,538.0,513.0
528.0,526.0,542.0,513.0
527.0,526.0,538.0,510.0
514.0,521.0,535.0,517.0
505.0,505.0,521.0,517.0
498.0,502.0,512.0,519.0
495.0,503.0,505.0,521.0
497.0,506.0,498.0,523.0
504.0,510.0,497.0,524.0
503.0,515.0,497.0,522.0
509.0,514.0,499.0,520.0
509.0,512.0,500.0,518.0
509.0,505.0,506.0,512.0
512.0,505.0,514.0,514.0
513.0,508.0,522.0,511.0
519.0,522.0,531.0,511.0
527.0,532.0,535.0,509.0
528.0,528.0,540.0,515.0
527.0,518.0,537.0,514.0
522.0,491.0,535.0,514.0
504.0,433.0,529.0,515.0
499.0,451.0,520.0,517.0
499.0,488.0,512.0,520.0
499.0,502.0,502.0,522.0
506.0,524.0,499.0,519.0
505.0,525.0,497.0,519.0
512.0,522.0,495.0,520.0
512.0,514.0,499.0,518.0
508.0,496.0,497.0,514.0
507.0,494.0,504.0,512.0
513.0,501.0,515.0,511.0
516.0,494.0,523.0,514.0
521.0,500.0,536.0,513.0
531.0,503.0,534.0,512.0
530.0,503.0,542.0,518.0
524.0,504.0,537.0,514.0
518.0,501.0,534.0,515.0
507.0,497.0,525.0,515.0
496.0,492.0,517.0,515.0
491.0,484.0,506.0,524.0
493.0,488.0,499.0,522.0
501.0,501.0,497.0,521.0
503.0,501.0,495.0,521.0
509.0,503.0,495.0,518.0
507.0,495.0,499.0,517.0
503.0,488.0,502.0,515.0
505.0,494.0,508.0,511.0
511.0,504.0,517.0,511.0
516.0,508.0,526.0,511.0
524.0,513.0,535.0,513.0
523.0,512.0,542.0,510.0
527.0,511.0,542.0,512.0
520.0,513.0,536.0,515.0
515.0,505.0,534.0,512.0
504.0,494.0,521.0,519.0
501.0,499.0,514.0,519.0
494.0,500.0,501.0,520.0
501.0,506.0,499.0,521.0
500.0,509.0,498.0,522.0
506.0,512.0,495.0,520.0
511.0,514.0,496.0,518.0
510.0,511.0,499.0,517.0
509.0,503.0,504.0,512.0
514.0,498.0,511.0,513.0
515.0,498.0,522.0,512.0
525.0,509.0,530.0,511.0
525.0,509.0,539.0,510.0
527.0,508.0,541.0,512.0
524.0,504.0,544.0,513.0
517.0,503.0,537.0,510.0
505.0,495.0,531.0,513.0
495.0,487.0,519.0,517.0
498.0,490.0,508.0,519.0
498.0,494.0,502.0,519.0
497.0,509.0,499.0,522.0
502.0,506.0,497.0,519.0
507.0,513.0,497.0,519.0
509.0,511.0,498.0,518.0
512.0,514.0,501.0,514.0
509.0,505.0,507.0,510.0
511.0,506.0,516.0,511.0
520.0,505.0,522.0,510.0
523.0,506.0,528.0,509.0
524.0,509.0,539.0,509.0
527.0,503.0,540.0,513.0
522.0,505.0,535.0,513.0
517.0,505.0,533.0,514.0
504.0,492.0,524.0,516.0
505.0,489.0,515.0,516.0
502.0,486.0,507.0,518.0
507.0,492.0,498.0,521.0
508.0,499.0,498.0,521.0
506.0,504.0,496.0,521.0
508.0,513.0,495.0,523.0
506.0,514.0,499.0,515.0
501.0,513.0,502.0,516.0
507.0,510.0,507.0,512.0
508.0,508.0,518.0,510.0
517.0,510.0,526.0,512.0
524.0,509.0,531.0,509.0
522.0,505.0,540.0,512.0
524.0,505.0,541.0,513.0
515.0,498.0,537.0,514.0
514.0,492.0,533.0,515.0
500.0,488.0,522.0,516.0
499.0,491.0,512.0,519.0
500.0,496.0,500.0,520.0
503.0,501.0,499.0,521.0
506.0,504.0,495.0,522.0
506.0,510.0,492.0,521.0
511.0,513.0,495.0,519.0
512.0,513.0,498.0,517.0
511.0,507.0,504.0,514.0
511.0,500.0,509.0,513.0
515.0,491.0,519.0,515.0
520.0,496.0,530.0,513.0
524.0,493.0,534.0,512.0
522.0,495.0,537.0,515.0
525.0,504.0,539.0,511.0
520.0,510.0,533.0,514.0
511.0,494.0,530.0,516.0
502.0,475.0,519.0,518.0
496.0,470.0,507.0,520.0
500.0,490.0,501.0,517.0
503.0,512.0,496.0,519.0
503.0,521.0,495.0,519.0
509.0,527.0,495.0,521.0
511.0,523.0,498.0,518.0
511.0,518.0,501.0,517.0
513.0,515.0,505.0,516.0
518.0,518.0,513.0,510.0
520.0,521.0,522.0,512.0
524.0,523.0,531.0,511.0
526.0,518.0,537.0,509.0
521.0,480.0,540.0,513.0
519.0,492.0,537.0,514.0
516.0,492.0,533.0,514.0
504.0,482.0,525.0,515.0
502.0,491.0,513.0,520.0
500.0,497.0,506.0,519.0
499.0,497.0,500.0,520.0
500.0,504.0,499.0,523.0
505.0,503.0,494.0,521.0
510.0,500.0,495.0,519.0
508.0,503.0,497.0,517.0
509.0,504.0,500.0,514.0
510.0,499.0,509.0,510.0
516.0,501.0,518.0,513.0
519.0,500.0,526.0,512.0
523.0,504.0,532.0,511.0
523.0,509.0,539.0,510.0
525.0,505.0,541.0,510.0
520.0,499.0,536.0,514.0
515.0,494.0,532.0,516.0
505.0,480.0,522.0,518.0
501.0,483.0,511.0,518.0
499.0,499.0,503.0,519.0
495.0,492.0,499.0,522.0
503.0,499.0,496.0,520.0
506.0,498.0,493.0,520.0
511.0,507.0,497.0,517.0
510.0,517.0,500.0,517.0
509.0,523.0,502.0,516.0
510.0,507.0,511.0,514.0
512.0,504.0,520.0,516.0
521.0,512.0,524.0,512.0
527.0,515.0,534.0,511.0
525.0,506.0,537.0,518.0
524.0,507.0,539.0,513.0
518.0,501.0,534.0,515.0
512.0,496.0,525.0,514.0
504.0,486.0,519.0,517.0
504.0,494.0,507.0,519.0
507.0,503.0,497.0,519.0
503.0,502.0,500.0,520.0
506.0,502.0,489.0,520.0
510.0,509.0,494.0,519.0
507.0,510.0,497.0,517.0
506.0,512.0,496.0,515.0
503.0,506.0,505.0,513.0
508.0,506.0,512.0,512.0
517.0,506.0,522.0,511.0
520.0,509.0,531.0,512.0
523.0,507.0,536.0,513.0
526.0,505.0,543.0,515.0
520.0,500.0,538.0,517.0
514.0,498.0,533.0,517.0
504.0,487.0,526.0,520.0
499.0,488.0,514.0,519.0
499.0,496.0,505.0,521.0
500.0,500.0,499.0,521.0
500.0,508.0,495.0,520.0
503.0,512.0,491.0,518.0
508.0,511.0,496.0,517.0
508.0,504.0,491.0,514.0
506.0,486.0,497.0,513.0
512.0,481.0,502.0,510.0
519.0,482.0,510.0,510.0
523.0,508.0,518.0,511.0
528.0,525.0,531.0,512.0
529.0,519.0,535.0,512.0
532.0,520.0,537.0,513.0
516.0,497.0,535.0,516.0
509.0,500.0,529.0,515.0
502.0,496.0,521.0,515.0
497.0,494.0,512.0,520.0
494.0,488.0,502.0,522.0
496.0,497.0,496.0,524.0
500.0,502.0,497.0,523.0
503.0,507.0,493.0,522.0
507.0,509.0,497.0,519.0
511.0,507.0,499.0,517.0
509.0,503.0,503.0,517.0
511.0,496.0,511.0,514.0
515.0,496.0,517.0,511.0
523.0,504.0,526.0,509.0
524.0,504.0,535.0,511.0
523.0,512.0,538.0,510.0
519.0,519.0,536.0,514.0
510.0,511.0,533.0,513.0
506.0,505.0,528.0,515.0
499.0,501.0,514.0,517.0
496.0,497.0,508.0,519.0
494.0,491.0,500.0,521.0
502.0,491.0,496.0,522.0
505.0,507.0,491.0,522.0
509.0,511.0,497.0,519.0
508.0,530.0,494.0,518.0
508.0,526.0,500.0,516.0
509.0,500.0,503.0,509.0
512.0,483.0,513.0,512.0
518.0,496.0,522.0,510.0
528.0,510.0,531.0,513.0
527.0,511.0,537.0,513.0
527.0,509.0,537.0,514.0
521.0,507.0,539.0,517.0
513.0,485.0,533.0,516.0
502.0,479.0,529.0,517.0
500.0,483.0,515.0,520.0
499.0,494.0,505.0,520.0
502.0,503.0,499.0,523.0
505.0,507.0,494.0,523.0
505.0,513.0,495.0,523.0
501.0,514.0,496.0,521.0
503.0,512.0,496.0,515.0
504.0,509.0,499.0,516.0
508.0,502.0,509.0,513.0
512.0,501.0,515.0,511.0
516.0,505.0,522.0,512.0
519.0,504.0,530.0,513.0
525.0,502.0,537.0,513.0
525.0,502.0,540.0,512.0
514.0,496.0,538.0,515.0
515.0,491.0,531.0,516.0
504.0,486.0,521.0,516.0
502.0,491.0,514.0,520.0
501.0,496.0,504.0,522.0
501.0,510.0,501.0,523.0
502.0,504.0,496.0,522.0
507.0,507.0,497.0,522.0
513.0,517.0,495.0,521.0
509.0,487.0,497.0,516.0
509.0,487.0,502.0,512.0
510.0,502.0,509.0,512.0
517.0,508.0,516.0,513.0
519.0,523.0,529.0,515.0
523.0,516.0,536.0,513.0
524.0,509.0,540.0,511.0
523.0,502.0,539.0,514.0
518.0,501.0,535.0,514.0
512.0,500.0,531.0,515.0
501.0,490.0,520.0,518.0
501.0,496.0,509.0,517.0
499.0,500.0,502.0,521.0
503.0,503.0,497.0,522.0
504.0,506.0,492.0,521.0
509.0,512.0,496.0,516.0
512.0,517.0,497.0,518.0
511.0,515.0,498.0,516.0
509.0,509.0,503.0,513.0
513.0,503.0,514.0,514.0
513.0,499.0,522.0,512.0
520.0,498.0,531.0,512.0
525.0,507.0,538.0,508.0
524.0,502.0,540.0,514.0
518.0,501.0,541.0,515.0
519.0,502.0,534.0,514.0
513.0,497.0,527.0,517.0
503.0,493.0,516.0,520.0
501.0,494.0,505.0,518.0
502.0,495.0,499.0,522.0
504.0,498.0,501.0,524.0
507.0,502.0,492.0,520.0
510.0,509.0,493.0,518.0
512.0,512.0,498.0,514.0
508.0,514.0,502.0,517.0
507.0,502.0,509.0,515.0
514.0,503.0,517.0,512.0
520.0,507.0,523.0,511.0
521.0,511.0,534.0,512.0
524.0,508.0,536.0,512.0
526.0,511.0,540.0,514.0
521.0,505.0,534.0,514.0
518.0,507.0,530.0,512.0
503.0,496.0,521.0,516.0
500.0,489.0,510.0,519.0
502.0,492.0,503.0,517.0
503.0,507.0,498.0,520.0
506.0,504.0,497.0,521.0
505.0,515.0,496.0,520.0
511.0,510.0,497.0,516.0
512.0,499.0,497.0,517.0
508.0,494.0,502.0,512.0
513.0,498.0,509.0,510.0
519.0,495.0,517.0,513.0
522.0,495.0,527.0,512.0
526.0,499.0,531.0,511.0
520.0,502.0,538.0,514.0
519.0,498.0,537.0,514.0
510.0,501.0,534.0,514.0
508.0,497.0,527.0,518.0
497.0,490.0,518.0,517.0
498.0,491.0,508.0,521.0
501.0,500.0,500.0,520.0
507.0,511.0,496.0,524.0
505.0,515.0,496.0,521.0
512.0,516.0,497.0,519.0
513.0,516.0,498.0,520.0
508.0,513.0,500.0,517.0
505.0,505.0,504.0,514.0
508.0,507.0,513.0,509.0
511.0,506.0,519.0,510.0
520.0,513.0,525.0,509.0
528.0,533.0,532.0,510.0
529.0,537.0,539.0,512.0
526.0,520.0,536.0,514.0
520.0,507.0,533.0,512.0
505.0,470.0,525.0,516.0
497.0,457.0,515.0,516.0
495.0,478.0,504.0,522.0
496.0,480.0,498.0,522.0
504.0,493.0,492.0,521.0
506.0,516.0,490.0,520.0
509.0,515.0,494.0,518.0
514.0,513.0,498.0,517.0
509.0,507.0,499.0,515.0
509.0,500.0,505.0,511.0
511.0,506.0,513.0,510.0
516.0,501.0,519.0,515.0
524.0,498.0,528.0,512.0
520.0,491.0,536.0,512.0
522.0,498.0,537.0,510.0
514.0,504.0,536.0,514.0
514.0,501.0,527.0,515.0
505.0,499.0,520.0,514.0
504.0,509.0,511.0,517.0
500.0,505.0,503.0,520.0
499.0,507.0,496.0,520.0
500.0,506.0,493.0,519.0
505.0,511.0,495.0,520.0
510.0,513.0,494.0,515.0
511.0,514.0,496.0,517.0
509.0,506.0,498.0,514.0
511.0,505.0,507.0,512.0
515.0,504.0,516.0,512.0
522.0,502.0,525.0,512.0
525.0,505.0,531.0,511.0
526.0,516.0,537.0,512.0
524.0,518.0,537.0,511.0
514.0,503.0,532.0,513.0
514.0,497.0,526.0,510.0
502.0,492.0,517.0,516.0
502.0,495.0,508.0,519.0
501.0,493.0,499.0,522.0
504.0,496.0,495.0,518.0
504.0,502.0,493.0,521.0
511.0,507.0,492.0,520.0
510.0,504.0,495.0,516.0
514.0,514.0,502.0,515.0
511.0,513.0,501.0,513.0
506.0,506.0,512.0,511.0
512.0,523.0,518.0,511.0
518.0,519.0,527.0,513.0
524.0,497.0,535.0,509.0
521.0,499.0,540.0,513.0
522.0,500.0,537.0,512.0
518.0,500.0,532.0,515.0
506.0,493.0,522.0,516.0
500.0,493.0,516.0,518.0
496.0,496.0,511.0,521.0
500.0,501.0,500.0,522.0
500.0,502.0,496.0,523.0
499.0,501.0,493.0,519.0
504.0,512.0,491.0,519.0
508.0,511.0,495.0,516.0
514.0,509.0,498.0,514.0
512.0,509.0,502.0,511.0
520.0,521.0,513.0,507.0
523.0,509.0,520.0,508.0
524.0,515.0,527.0,511.0
527.0,511.0,535.0,512.0
522.0,465.0,538.0,515.0
514.0,471.0,530.0,514.0
509.0,502.0,529.0,515.0
499.0,494.0,521.0,518.0
499.0,497.0,509.0,517.0
497.0,496.0,502.0,518.0
503.0,505.0,493.0,522.0
506.0,505.0,492.0,522.0
506.0,508.0,491.0,521.0
511.0,512.0,490.0,518.0
508.0,513.0,493.0,517.0
504.0,511.0,499.0,514.0
509.0,508.0,505.0,513.0
512.0,505.0,515.0,517.0
517.0,507.0,525.0,512.0
521.0,506.0,529.0,511.0
524.0,509.0,534.0,509.0
524.0,507.0,535.0,513.0
519.0,503.0,527.0,513.0
516.0,502.0,525.0,510.0
503.0,494.0,513.0,516.0
501.0,491.0,503.0,519.0
500.0,500.0,496.0,516.0
503.0,501.0,493.0,522.0
504.0,503.0,491.0,519.0
505.0,499.0,491.0,520.0
506.0,493.0,493.0,521.0
508.0,496.0,496.0,516.0
506.0,499.0,499.0,514.0
511.0,516.0,505.0,510.0
513.0,519.0,519.0,508.0
520.0,508.0,529.0,509.0
529.0,514.0,534.0,511.0
529.0,505.0,536.0,512.0
525.0,525.0,531.0,509.0
518.0,526.0,526.0,513.0
509.0,524.0,521.0,515.0
506.0,525.0,515.0,514.0
504.0,500.0,510.0,516.0
492.0,441.0,507.0,520.0
500.0,492.0,496.0,518.0
504.0,506.0,496.0,517.0
507.0,509.0,499.0,513.0
509.0,506.0,500.0,514.0
510.0,512.0,497.0,513.0
508.0,507.0,500.0,513.0
513.0,495.0,509.0,510.0
517.0,510.0,518.0,511.0
523.0,523.0,528.0,514.0
523.0,510.0,533.0,512.0
522.0,493.0,533.0,515.0
522.0,496.0,530.0,512.0
516.0,494.0,525.0,515.0
502.0,491.0,521.0,515.0
499.0,490.0,509.0,519.0
499.0,500.0,500.0,519.0
505.0,498.0,493.0,519.0
510.0,501.0,489.0,520.0
508.0,503.0,490.0,519.0
512.0,511.0,489.0,517.0
512.0,506.0,491.0,514.0
511.0,508.0,498.0,512.0
511.0,502.0,506.0,511.0
510.0,505.0,514.0,509.0
512.0,506.0,522.0,506.0
518.0,505.0,529.0,509.0
522.0,501.0,533.0,507.0
522.0,509.0,534.0,511.0
520.0,507.0,528.0,512.0
517.0,501.0,526.0,513.0
506.0,494.0,514.0,513.0
498.0,495.0,504.0,517.0
498.0,503.0,499.0,518.0
501.0,512.0,491.0,519.0
503.0,517.0,493.0,521.0
504.0,520.0,495.0,522.0
505.0,514.0,497.0,517.0
505.0,508.0,494.0,515.0
507.0,496.0,501.0,511.0
506.0,500.0,507.0,510.0
511.0,501.0,518.0,510.0
520.0,504.0,526.0,509.0
523.0,503.0,532.0,508.0
522.0,501.0,536.0,512.0
521.0,501.0,537.0,511.0
519.0,496.0,530.0,513.0
512.0,497.0,519.0,513.0
502.0,495.0,511.0,515.0
499.0,487.0,497.0,518.0
498.0,488.0,493.0,517.0
504.0,491.0,491.0,518.0
504.0,505.0,492.0,518.0
509.0,513.0,493.0,517.0
508.0,521.0,494.0,515.0
511.0,516.0,500.0,514.0
514.0,510.0,503.0,510.0
516.0,503.0,512.0,507.0
518.0,502.0,517.0,507.0
518.0,506.0,531.0,511.0
523.0,504.0,531.0,511.0
524.0,504.0,533.0,512.0
520.0,498.0,533.0,512.0
519.0,496.0,526.0,512.0
506.0,491.0,520.0,514.0
503.0,496.0,508.0,512.0
502.0,504.0,500.0,513.0
503.0,499.0,495.0,519.0
502.0,505.0,491.0,521.0
505.0,508.0,492.0,518.0
507.0,514.0,493.0,516.0
509.0,511.0,495.0,513.0
509.0,510.0,498.0,510.0
510.0,501.0,503.0,510.0
513.0,494.0,514.0,507.0
524.0,491.0,523.0,509.0
532.0,494.0,531.0,509.0
533.0,494.0,535.0,509.0
533.0,498.0,533.0,511.0
526.0,500.0,532.0,511.0
524.0,502.0,525.0,512.0
505.0,506.0,518.0,514.0
498.0,495.0,504.0,516.0
492.0,497.0,498.0,515.0
494.0,512.0,488.0,520.0
497.0,528.0,488.0,522.0
504.0,544.0,491.0,519.0
508.0,539.0,492.0,517.0
504.0,506.0,495.0,515.0
504.0,491.0,500.0,511.0
508.0,500.0,510.0,510.0
515.0,504.0,518.0,507.0
520.0,510.0,522.0,508.0
520.0,509.0,532.0,509.0
518.0,515.0,531.0,508.0
522.0,514.0,530.0,509.0
516.0,515.0,525.0,510.0
507.0,503.0,521.0,511.0
498.0,479.0,509.0,514.0
497.0,482.0,499.0,516.0
502.0,484.0,495.0,516.0
504.0,495.0,495.0,520.0
505.0,498.0,493.0,520.0
509.0,509.0,492.0,518.0
508.0,508.0,491.0,514.0
507.0,507.0,497.0,511.0
508.0,493.0,502.0,509.0
512.0,495.0,512.0,506.0
517.0,497.0,519.0,509.0
525.0,506.0,526.0,509.0
522.0,513.0,531.0,508.0
525.0,535.0,533.0,508.0
522.0,507.0,529.0,506.0
517.0,490.0,525.0,509.0
506.0,479.0,512.0,508.0
499.0,474.0,503.0,514.0
499.0,486.0,495.0,517.0
504.0,507.0,491.0,519.0
505.0,506.0,488.0,519.0
503.0,502.0,489.0,519.0
505.0,511.0,490.0,515.0
512.0,513.0,499.0,514.0
511.0,510.0,505.0,514.0
509.0,522.0,508.0,510.0
513.0,508.0,514.0,509.0
523.0,483.0,518.0,506.0
527.0,508.0,522.0,505.0
527.0,514.0,531.0,508.0
527.0,519.0,532.0,511.0
522.0,512.0,530.0,508.0
518.0,515.0,525.0,513.0
502.0,501.0,511.0,510.0
491.0,493.0,500.0,513.0
492.0,509.0,493.0,515.0
499.0,525.0,487.0,515.0
504.0,536.0,481.0,513.0
507.0,545.0,487.0,513.0
510.0,526.0,487.0,512.0
510.0,500.0,488.0,511.0
499.0,465.0,495.0,509.0
507.0,477.0,504.0,507.0
515.0,496.0,515.0,505.0
521.0,501.0,524.0,504.0
525.0,504.0,532.0,508.0
522.0,501.0,534.0,508.0
521.0,510.0,531.0,508.0
520.0,512.0,527.0,515.0
508.0,494.0,519.0,512.0
496.0,474.0,507.0,515.0
497.0,489.0,502.0,517.0
497.0,496.0,492.0,519.0
501.0,503.0,491.0,516.0
503.0,501.0,489.0,517.0
508.0,506.0,489.0,514.0
510.0,507.0,490.0,520.0
508.0,507.0,493.0,512.0
506.0,502.0,499.0,508.0
512.0,497.0,506.0,507.0
517.0,504.0,517.0,504.0
522.0,508.0,525.0,505.0
520.0,507.0,536.0,506.0
525.0,501.0,529.0,509.0
519.0,496.0,526.0,510.0
518.0,496.0,520.0,510.0
507.0,489.0,511.0,512.0
500.0,496.0,505.0,514.0
498.0,494.0,494.0,519.0
501.0,500.0,490.0,516.0
503.0,502.0,487.0,518.0
505.0,499.0,488.0,517.0
509.0,493.0,488.0,517.0
507.0,492.0,489.0,514.0
512.0,502.0,494.0,513.0
515.0,507.0,501.0,508.0
515.0,515.0,512.0,508.0
520.0,516.0,520.0,507.0
525.0,505.0,526.0,510.0
523.0,502.0,530.0,510.0
523.0,501.0,530.0,513.0
514.0,499.0,529.0,512.0
514.0,499.0,525.0,517.0
506.0,495.0,510.0,513.0
500.0,505.0,504.0,515.0
503.0,503.0,492.0,520.0
502.0,503.0,490.0,519.0
503.0,509.0,488.0,522.0
505.0,509.0,488.0,518.0
508.0,517.0,489.0,514.0
510.0,523.0,490.0,506.0
516.0,524.0,493.0,501.0
515.0,518.0,501.0,503.0
514.0,507.0,510.0,506.0
519.0,507.0,518.0,507.0
525.0,511.0,526.0,506.0
522.0,510.0,531.0,510.0
525.0,511.0,529.0,511.0
520.0,502.0,523.0,512.0
509.0,490.0,516.0,511.0
499.0,476.0,508.0,516.0
501.0,493.0,496.0,516.0
503.0,501.0,497.0,520.0
504.0,511.0,492.0,521.0
507.0,511.0,489.0,522.0
507.0,500.0,493.0,517.0
508.0,512.0,501.0,517.0
514.0,544.0,500.0,514.0
514.0,541.0,498.0,509.0
516.0,534.0,507.0,510.0
524.0,538.0,509.0,508.0
524.0,503.0,517.0,505.0
524.0,446.0,521.0,499.0
523.0,470.0,524.0,504.0
516.0,474.0,524.0,504.0
512.0,488.0,518.0,506.0
499.0,488.0,515.0,509.0
494.0,480.0,504.0,513.0
495.0,472.0,497.0,514.0
497.0,486.0,493.0,513.0
503.0,495.0,487.0,514.0
504.0,487.0,484.0,511.0
513.0,494.0,483.0,507.0
508.0,522.0,486.0,507.0
513.0,518.0,490.0,502.0
506.0,518.0,496.0,505.0
510.0,529.0,506.0,504.0
510.0,525.0,516.0,508.0
517.0,518.0,526.0,510.0
521.0,506.0,532.0,509.0
521.0,504.0,532.0,510.0
520.0,498.0,526.0,510.0
515.0,503.0,523.0,510.0
504.0,499.0,509.0,514.0
499.0,499.0,501.0,520.0
500.0,511.0,494.0,518.0
506.0,500.0,490.0,519.0
510.0,497.0,489.0,518.0
510.0,510.0,491.0,514.0
509.0,509.0,489.0,513.0
511.0,522.0,492.0,512.0
513.0,510.0,495.0,504.0
512.0,513.0,507.0,510.0
512.0,509.0,509.0,506.0
513.0,506.0,520.0,503.0
519.0,511.0,527.0,509.0
520.0,501.0,532.0,507.0
517.0,495.0,528.0,509.0
516.0,493.0,525.0,513.0
510.0,504.0,523.0,516.0
502.0,487.0,510.0,521.0
501.0,487.0,502.0,519.0
500.0,509.0,493.0,520.0
501.0,522.0,491.0,518.0
501.0,517.0,484.0,512.0
511.0,533.0,484.0,511.0
508.0,527.0,486.0,513.0
508.0,508.0,491.0,508.0
509.0,506.0,495.0,509.0
518.0,501.0,509.0,508.0
521.0,492.0,517.0,505.0
523.0,503.0,523.0,507.0
527.0,511.0,528.0,507.0
529.0,522.0,529.0,508.0
518.0,519.0,531.0,509.0
515.0,521.0,529.0,506.0
498.0,500.0,504.0,503.0
496.0,463.0,497.0,503.0
498.0,482.0,493.0,511.0
501.0,495.0,489.0,512.0
502.0,498.0,490.0,515.0
503.0,502.0,487.0,512.0
503.0,505.0,489.0,514.0
506.0,504.0,490.0,511.0
506.0,502.0,496.0,509.0
508.0,498.0,503.0,506.0
514.0,500.0,510.0,500.0
522.0,503.0,517.0,501.0
525.0,503.0,523.0,504.0
523.0,505.0,529.0,505.0
526.0,507.0,529.0,503.0
518.0,502.0,523.0,508.0
518.0,503.0,520.0,511.0
504.0,493.0,511.0,514.0
499.0,497.0,503.0,514.0
497.0,496.0,492.0,517.0
502.0,498.0,489.0,519.0
502.0,498.0,490.0,518.0
508.0,508.0,487.0,521.0
511.0,509.0,492.0,512.0
511.0,518.0,495.0,515.0
510.0,504.0,498.0,513.0
509.0,496.0,507.0,509.0
516.0,490.0,514.0,508.0
522.0,508.0,524.0,507.0
522.0,525.0,530.0,509.0
524.0,515.0,533.0,510.0
520.0,507.0,529.0,510.0
519.0,502.0,526.0,511.0
513.0,496.0,518.0,512.0
503.0,496.0,508.0,510.0
500.0,493.0,498.0,511.0
497.0,505.0,490.0,514.0
501.0,511.0,485.0,514.0
505.0,516.0,484.0,512.0
510.0,518.0,485.0,510.0
506.0,514.0,488.0,508.0
507.0,508.0,492.0,509.0
506.0,498.0,504.0,507.0
512.0,500.0,507.0,504.0
517.0,494.0,517.0,505.0
520.0,491.0,525.0,506.0
524.0,496.0,533.0,510.0
522.0,492.0,531.0,513.0
522.0,498.0,530.0,514.0
524.0,512.0,525.0,513.0
515.0,509.0,518.0,512.0
506.0,515.0,509.0,518.0
503.0,505.0,500.0,521.0
494.0,504.0,497.0,523.0
499.0,490.0,491.0,523.0
510.0,527.0,488.0,518.0
519.0,558.0,488.0,514.0
515.0,549.0,484.0,509.0
514.0,542.0,491.0,510.0
505.0,474.0,497.0,498.0
506.0,458.0,503.0,503.0
518.0,492.0,510.0,504.0
527.0,501.0,521.0,505.0
534.0,494.0,530.0,507.0
531.0,507.0,531.0,508.0
526.0,501.0,527.0,506.0
525.0,473.0,523.0,505.0
511.0,476.0,506.0,505.0
500.0,486.0,497.0,505.0
494.0,493.0,490.0,511.0
494.0,497.0,487.0,512.0
499.0,508.0,482.0,511.0
498.0,513.0,485.0,513.0
498.0,531.0,489.0,512.0
507.0,527.0,492.0,511.0
509.0,512.0,494.0,508.0
508.0,495.0,505.0,507.0
515.0,497.0,515.0,509.0
523.0,494.0,522.0,510.0
524.0,482.0,534.0,515.0
523.0,487.0,537.0,523.0
515.0,526.0,536.0,520.0
517.0,526.0,529.0,519.0
516.0,513.0,519.0,513.0
502.0,505.0,506.0,505.0
496.0,509.0,491.0,501.0
496.0,513.0,485.0,506.0
502.0,500.0,486.0,507.0
505.0,510.0,477.0,508.0
506.0,538.0,481.0,508.0
504.0,529.0,483.0,507.0
506.0,527.0,491.0,509.0
509.0,514.0,500.0,506.0
517.0,519.0,508.0,507.0
523.0,525.0,516.0,506.0
530.0,516.0,525.0,506.0
533.0,500.0,527.0,504.0
534.0,488.0,525.0,498.0
526.0,466.0,517.0,492.0
516.0,467.0,511.0,496.0
504.0,478.0,502.0,500.0
500.0,513.0,498.0,506.0
500.0,545.0,490.0,510.0
499.0,544.0,495.0,512.0
503.0,525.0,480.0,510.0
493.0,451.0,480.0,514.0
500.0,491.0,485.0,514.0
505.0,514.0,489.0,518.0
508.0,513.0,493.0,511.0
508.0,510.0,503.0,510.0
514.0,515.0,508.0,507.0
515.0,513.0,517.0,512.0
520.0,511.0,526.0,508.0
521.0,506.0,526.0,507.0
522.0,505.0,526.0,508.0
521.0,502.0,523.0,507.0
512.0,504.0,521.0,512.0
503.0,493.0,514.0,510.0
500.0,491.0,505.0,518.0
503.0,498.0,496.0,519.0
500.0,509.0,492.0,519.0
502.0,510.0,485.0,518.0
510.0,526.0,482.0,511.0
511.0,517.0,478.0,505.0
509.0,499.0,482.0,502.0
510.0,498.0,489.0,498.0
510.0,495.0,494.0,497.0
511.0,506.0,506.0,498.0
519.0,503.0,516.0,503.0
523.0,501.0,523.0,502.0
522.0,501.0,524.0,502.0
523.0,501.0,528.0,506.0
517.0,494.0,524.0,505.0
509.0,493.0,519.0,506.0
504.0,497.0,509.0,509.0
503.0,496.0,498.0,518.0
501.0,506.0,494.0,515.0
503.0,508.0,486.0,516.0
502.0,500.0,488.0,518.0
507.0,503.0,490.0,515.0
504.0,505.0,492.0,517.0
504.0,510.0,496.0,516.0
508.0,500.0,503.0,514.0
515.0,503.0,514.0,514.0
519.0,502.0,521.0,517.0
528.0,503.0,528.0,515.0
530.0,525.0,534.0,517.0
529.0,518.0,534.0,515.0
523.0,510.0,529.0,511.0
517.0,515.0,523.0,509.0
505.0,517.0,516.0,508.0
504.0,519.0,500.0,510.0
496.0,514.0,494.0,514.0
484.0,484.0,492.0,520.0
492.0,457.0,489.0,520.0
500.0,458.0,489.0,518.0
505.0,472.0,490.0,514.0
512.0,492.0,493.0,508.0
517.0,504.0,496.0,507.0
517.0,515.0,503.0,503.0
519.0,518.0,509.0,502.0
528.0,530.0,515.0,506.0
531.0,513.0,516.0,504.0
528.0,485.0,523.0,505.0
521.0,487.0,526.0,505.0
517.0,490.0,521.0,506.0
516.0,488.0,518.0,505.0
504.0,495.0,506.0,507.0
508.0,506.0,500.0,509.0
503.0,481.0,493.0,512.0
492.0,502.0,487.0,518.0
493.0,541.0,489.0,519.0
499.0,551.0,492.0,520.0
501.0,536.0,492.0,517.0
500.0,544.0,497.0,522.0
505.0,527.0,505.0,524.0
508.0,505.0,516.0,522.0
518.0,510.0,524.0,516.0
526.0,541.0,531.0,517.0
538.0,562.0,539.0,516.0
537.0,540.0,539.0,510.0
537.0,530.0,538.0,508.0
515.0,441.0,527.0,502.0
495.0,444.0,506.0,498.0
493.0,479.0,492.0,502.0
486.0,468.0,480.0,504.0
495.0,467.0,482.0,504.0
501.0,483.0,478.0,506.0
508.0,491.0,473.0,503.0
516.0,520.0,482.0,502.0
516.0,512.0,485.0,503.0
515.0,525.0,488.0,505.0
509.0,513.0,492.0,504.0
504.0,500.0,501.0,501.0
504.0,492.0,509.0,505.0
510.0,479.0,521.0,508.0
520.0,475.0,530.0,508.0
530.0,487.0,534.0,511.0
528.0,494.0,533.0,512.0
522.0,500.0,532.0,520.0
507.0,498.0,521.0,521.0
506.0,495.0,506.0,521.0
504.0,514.0,497.0,518.0
497.0,518.0,486.0,512.0
500.0,545.0,478.0,507.0
506.0,547.0,474.0,502.0
514.0,550.0,483.0,509.0
514.0,542.0,486.0,507.0
507.0,502.0,487.0,510.0
503.0,503.0,500.0,507.0
515.0,529.0,516.0,515.0
523.0,537.0,529.0,516.0
519.0,529.0,539.0,518.0
526.0,505.0,543.0,514.0
523.0,496.0,542.0,514.0
516.0,478.0,523.0,509.0
510.0,498.0,512.0,499.0
498.0,502.0,489.0,498.0
494.0,511.0,487.0,503.0
498.0,528.0,487.0,505.0
515.0,550.0,487.0,514.0
508.0,556.0,494.0,520.0
503.0,535.0,495.0,515.0
509.0,489.0,486.0,505.0
501.0,437.0,483.0,504.0
497.0,431.0,487.0,494.0
507.0,476.0,505.0,488.0
508.0,510.0,503.0,490.0
514.0,506.0,508.0,490.0
525.0,507.0,510.0,488.0
525.0,522.0,506.0,489.0
525.0,533.0,515.0,498.0
528.0,527.0,512.0,501.0
523.0,515.0,513.0,503.0
507.0,514.0,508.0,511.0
492.0,451.0,500.0,517.0
494.0,474.0,492.0,521.0
500.0,498.0,491.0,522.0
500.0,482.0,490.0,525.0
500.0,504.0,495.0,527.0
504.0,496.0,503.0,526.0
505.0,495.0,499.0,517.0
509.0,505.0,501.0,512.0
517.0,505.0,504.0,514.0
523.0,506.0,506.0,504.0
529.0,518.0,513.0,501.0
530.0,504.0,529.0,504.0
523.0,509.0,536.0,501.0
526.0,518.0,522.0,494.0
521.0,493.0,510.0,493.0
504.0,481.0,499.0,496.0
502.0,488.0,489.0,498.0
488.0,488.0,482.0,499.0
495.0,495.0,478.0,503.0
494.0,514.0,477.0,508.0
496.0,490.0,481.0,509.0
502.0,508.0,482.0,507.0
508.0,519.0,485.0,507.0
514.0,530.0,490.0,507.0
515.0,525.0,501.0,506.0
526.0,516.0,504.0,503.0
533.0,492.0,515.0,509.0
535.0,489.0,528.0,508.0
531.0,498.0,531.0,510.0
521.0,511.0,533.0,508.0
510.0,522.0,529.0,510.0
509.0,510.0,524.0,509.0
506.0,507.0,515.0,513.0
497.0,504.0,507.0,516.0
495.0,493.0,501.0,518.0
497.0,497.0,492.0,518.0
496.0,503.0,490.0,519.0
499.0,513.0,502.0,523.0
503.0,518.0,502.0,520.0
507.0,509.0,497.0,521.0
502.0,496.0,502.0,512.0
504.0,519.0,510.0,517.0
511.0,516.0,514.0,509.0
521.0,511.0,519.0,508.0
523.0,474.0,526.0,508.0
517.0,454.0,533.0,509.0
525.0,495.0,534.0,511.0
521.0,468.0,524.0,513.0
520.0,530.0,523.0,514.0
502.0,496.0,515.0,524.0
499.0,474.0,509.0,525.0
504.0,502.0,511.0,523.0
506.0,557.0,513.0,522.0
517.0,569.0,506.0,520.0
519.0,580.0,491.0,509.0
517.0,508.0,476.0,502.0
516.0,512.0,471.0,496.0
510.0,506.0,477.0,491.0
512.0,480.0,489.0,489.0
512.0,467.0,499.0,487.0
522.0,485.0,512.0,489.0
510.0,495.0,522.0,498.0
500.0,438.0,523.0,504.0
513.0,469.0,523.0,510.0
517.0,491.0,523.0,515.0
509.0,579.0,520.0,512.0
513.0,579.0,512.0,517.0
517.0,570.0,510.0,520.0
495.0,522.0,508.0,523.0
498.0,496.0,507.0,528.0
495.0,470.0,486.0,512.0
511.0,486.0,468.0,496.0
526.0,484.0,466.0,488.0
532.0,505.0,477.0,494.0
532.0,496.0,491.0,498.0
523.0,469.0,507.0,504.0
516.0,465.0,521.0,514.0
506.0,450.0,534.0,524.0
509.0,499.0,535.0,522.0
516.0,541.0,538.0,516.0
519.0,509.0,531.0,508.0
508.0,508.0,533.0,516.0
492.0,546.0,546.0,513.0
488.0,514.0,505.0,496.0
494.0,534.0,457.0,482.0
508.0,541.0,460.0,486.0
506.0,526.0,476.0,498.0
513.0,518.0,487.0,509.0
512.0,493.0,486.0,511.0
515.0,490.0,498.0,513.0
510.0,523.0,502.0,509.0
508.0,507.0,513.0,510.0
512.0,481.0,527.0,508.0
524.0,495.0,519.0,499.0
528.0,508.0,523.0,499.0
521.0,497.0,520.0,508.0
512.0,487.0,520.0,513.0
510.0,462.0,520.0,514.0
528.0,507.0,510.0,516.0
518.0,528.0,509.0,519.0
520.0,557.0,516.0,520.0
509.0,586.0,517.0,520.0
504.0,443.0,503.0,523.0
508.0,472.0,481.0,512.0
508.0,517.0,468.0,499.0
486.0,469.0,463.0,490.0
