CH1,CH2,CH3,CH4
501.0,522.0,498.0,511.0
509.0,504.0,504.0,506.0
514.0,508.0,509.0,506.0
521.0,511.0,520.0,505.0
523.0,511.0,527.0,506.0
525.0,509.0,532.0,505.0
525.0,506.0,535.0,510.0
518.0,497.0,529.0,510.0
513.0,494.0,524.0,512.0
502.0,487.0,515.0,512.0
499.0,492.0,507.0,516.0
496.0,497.0,503.0,518.0
499.0,506.0,500.0,518.0
500.0,516.0,494.0,517.0
505.0,520.0,496.0,515.0
506.0,515.0,495.0,514.0
507.0,514.0,495.0,513.0
508.0,516.0,503.0,511.0
514.0,516.0,510.0,508.0
513.0,507.0,516.0,508.0
521.0,513.0,522.0,509.0
526.0,510.0,527.0,508.0
524.0,490.0,532.0,510.0
521.0,490.0,532.0,508.0
518.0,500.0,527.0,511.0
510.0,496.0,522.0,513.0
502.0,490.0,512.0,515.0
502.0,490.0,505.0,519.0
501.0,493.0,500.0,517.0
503.0,498.0,497.0,517.0
502.0,501.0,496.0,518.0
507.0,511.0,498.0,518.0
515.0,514.0,497.0,513.0
512.0,507.0,500.0,513.0
514.0,506.0,505.0,507.0
515.0,504.0,511.0,509.0
520.0,505.0,519.0,509.0
525.0,506.0,525.0,510.0
527.0,508.0,532.0,508.0
525.0,512.0,533.0,508.0
519.0,508.0,528.0,513.0
516.0,513.0,527.0,511.0
506.0,498.0,519.0,513.0
502.0,498.0,511.0,516.0
499.0,497.0,504.0,516.0
498.0,502.0,496.0,518.0
499.0,502.0,498.0,518.0
505.0,503.0,496.0,517.0
508.0,504.0,496.0,515.0
509.0,510.0,499.0,514.0
510.0,509.0,502.0,509.0
509.0,505.0,510.0,510.0
515.0,501.0,512.0,509.0
520.0,503.0,520.0,507.0
527.0,507.0,528.0,510.0
522.0,507.0,533.0,510.0
523.0,508.0,535.0,512.0
519.0,507.0,531.0,511.0
516.0,509.0,525.0,513.0
506.0,500.0,516.0,515.0
501.0,500.0,511.0,516.0
501.0,499.0,503.0,518.0
502.0,502.0,498.0,516.0
497.0,505.0,494.0,519.0
503.0,512.0,497.0,517.0
507.0,517.0,498.0,513.0
508.0,513.0,500.0,514.0
512.0,509.0,502.0,509.0
510.0,504.0,507.0,509.0
514.0,501.0,512.0,507.0
523.0,510.0,522.0,508.0
527.0,511.0,530.0,509.0
525.0,507.0,532.0,510.0
523.0,506.0,532.0,511.0
519.0,500.0,529.0,508.0
511.0,492.0,520.0,511.0
504.0,483.0,515.0,514.0
502.0,488.0,508.0,514.0
501.0,493.0,502.0,516.0
503.0,502.0,497.0,519.0
503.0,522.0,498.0,518.0
502.0,518.0,495.0,517.0
507.0,516.0,499.0,514.0
511.0,513.0,500.0,512.0
513.0,509.0,502.0,507.0
513.0,506.0,511.0,508.0
518.0,505.0,515.0,507.0
525.0,503.0,525.0,509.0
528.0,505.0,530.0,508.0
525.0,501.0,533.0,510.0
522.0,494.0,530.0,510.0
519.0,504.0,525.0,512.0
503.0,491.0,518.0,515.0
501.0,490.0,513.0,514.0
501.0,498.0,504.0,513.0
499.0,510.0,496.0,517.0
500.0,505.0,494.0,519.0
504.0,509.0,495.0,520.0
506.0,515.0,495.0,515.0
506.0,504.0,498.0,514.0
507.0,507.0,499.0,512.0
513.0,506.0,504.0,509.0
515.0,495.0,511.0,507.0
522.0,498.0,519.0,508.0
526.0,518.0,524.0,508.0
525.0,503.0,530.0,507.0
524.0,509.0,530.0,509.0
517.0,519.0,528.0,510.0
513.0,509.0,522.0,512.0
504.0,499.0,511.0,511.0
501.0,505.0,508.0,516.0
503.0,521.0,502.0,516.0
502.0,524.0,498.0,518.0
502.0,526.0,497.0,518.0
508.0,521.0,495.0,517.0
511.0,522.0,499.0,514.0
514.0,515.0,500.0,512.0
511.0,496.0,499.0,508.0
512.0,477.0,509.0,508.0
508.0,513.0,517.0,505.0
518.0,514.0,520.0,509.0
526.0,515.0,528.0,508.0
521.0,515.0,534.0,508.0
526.0,499.0,531.0,511.0
515.0,491.0,529.0,507.0
507.0,487.0,523.0,512.0
501.0,489.0,518.0,514.0
504.0,494.0,507.0,517.0
498.0,501.0,500.0,517.0
501.0,512.0,498.0,515.0
503.0,512.0,496.0,517.0
506.0,519.0,496.0,516.0
508.0,517.0,493.0,513.0
508.0,511.0,498.0,511.0
511.0,505.0,502.0,509.0
515.0,505.0,512.0,510.0
518.0,505.0,516.0,509.0
523.0,507.0,525.0,510.0
528.0,508.0,530.0,509.0
525.0,506.0,532.0,511.0
521.0,501.0,529.0,510.0
517.0,498.0,526.0,516.0
503.0,495.0,520.0,517.0
503.0,499.0,511.0,515.0
499.0,495.0,503.0,516.0
499.0,506.0,500.0,517.0
503.0,505.0,497.0,517.0
503.0,509.0,492.0,517.0
506.0,513.0,498.0,517.0
507.0,513.0,498.0,514.0
507.0,511.0,501.0,511.0
507.0,505.0,507.0,510.0
514.0,506.0,514.0,510.0
521.0,509.0,519.0,508.0
525.0,512.0,524.0,508.0
528.0,510.0,533.0,505.0
528.0,508.0,532.0,511.0
522.0,503.0,529.0,511.0
517.0,501.0,519.0,510.0
505.0,493.0,514.0,512.0
500.0,497.0,509.0,515.0
498.0,501.0,503.0,516.0
499.0,508.0,500.0,519.0
505.0,510.0,497.0,518.0
507.0,505.0,496.0,512.0
509.0,506.0,498.0,511.0
509.0,509.0,496.0,513.0
509.0,506.0,501.0,508.0
513.0,509.0,509.0,509.0
517.0,511.0,515.0,509.0
522.0,513.0,521.0,509.0
526.0,508.0,530.0,508.0
520.0,501.0,532.0,510.0
524.0,500.0,530.0,510.0
520.0,496.0,527.0,511.0
512.0,497.0,519.0,510.0
503.0,490.0,513.0,514.0
500.0,497.0,506.0,513.0
500.0,498.0,501.0,516.0
502.0,502.0,498.0,519.0
502.0,507.0,497.0,517.0
507.0,514.0,496.0,516.0
509.0,511.0,497.0,513.0
510.0,508.0,500.0,509.0
513.0,504.0,505.0,511.0
514.0,492.0,510.0,508.0
516.0,501.0,519.0,507.0
522.0,509.0,526.0,510.0
525.0,512.0,530.0,505.0
525.0,510.0,534.0,508.0
523.0,508.0,531.0,510.0
520.0,490.0,529.0,512.0
509.0,475.0,520.0,512.0
502.0,466.0,512.0,516.0
500.0,476.0,507.0,516.0
503.0,484.0,500.0,518.0
505.0,520.0,495.0,518.0
504.0,533.0,495.0,515.0
505.0,537.0,491.0,514.0
506.0,529.0,499.0,512.0
507.0,516.0,501.0,512.0
508.0,522.0,505.0,507.0
518.0,514.0,514.0,506.0
521.0,514.0,521.0,505.0
524.0,512.0,529.0,508.0
524.0,508.0,532.0,507.0
527.0,506.0,531.0,509.0
521.0,503.0,527.0,507.0
518.0,502.0,525.0,508.0
507.0,499.0,517.0,513.0
500.0,495.0,509.0,514.0
502.0,493.0,502.0,515.0
502.0,502.0,498.0,514.0
502.0,501.0,496.0,518.0
504.0,501.0,496.0,517.0
508.0,512.0,496.0,513.0
510.0,533.0,500.0,511.0
509.0,536.0,502.0,510.0
513.0,555.0,508.0,510.0
519.0,552.0,516.0,509.0
526.0,551.0,524.0,506.0
530.0,523.0,527.0,509.0
517.0,458.0,530.0,511.0
521.0,475.0,531.0,511.0
518.0,495.0,526.0,512.0
511.0,492.0,524.0,509.0
503.0,482.0,515.0,513.0
500.0,486.0,507.0,516.0
499.0,495.0,501.0,517.0
503.0,505.0,499.0,524.0
505.0,507.0,498.0,515.0
510.0,509.0,495.0,514.0
509.0,493.0,497.0,514.0
508.0,494.0,496.0,512.0
511.0,500.0,502.0,508.0
512.0,494.0,509.0,508.0
518.0,492.0,513.0,507.0
522.0,509.0,524.0,507.0
522.0,502.0,530.0,509.0
523.0,496.0,533.0,517.0
523.0,507.0,531.0,508.0
517.0,508.0,528.0,510.0
507.0,500.0,521.0,510.0
504.0,501.0,513.0,513.0
502.0,500.0,505.0,517.0
499.0,497.0,499.0,519.0
501.0,503.0,498.0,523.0
501.0,508.0,496.0,514.0
509.0,515.0,495.0,516.0
510.0,512.0,497.0,514.0
509.0,509.0,502.0,512.0
512.0,508.0,503.0,509.0
513.0,506.0,513.0,508.0
520.0,508.0,519.0,509.0
524.0,511.0,524.0,508.0
525.0,510.0,532.0,506.0
524.0,506.0,534.0,508.0
520.0,504.0,530.0,509.0
519.0,503.0,525.0,512.0
506.0,495.0,517.0,515.0
502.0,495.0,508.0,515.0
501.0,499.0,502.0,517.0
501.0,502.0,498.0,518.0
503.0,505.0,497.0,515.0
506.0,505.0,494.0,517.0
508.0,503.0,498.0,515.0
509.0,504.0,500.0,513.0
509.0,504.0,503.0,512.0
512.0,500.0,505.0,507.0
517.0,501.0,514.0,508.0
518.0,509.0,521.0,508.0
528.0,511.0,527.0,508.0
526.0,507.0,531.0,507.0
530.0,501.0,530.0,511.0
521.0,492.0,527.0,512.0
517.0,479.0,524.0,514.0
508.0,477.0,514.0,515.0
504.0,482.0,507.0,517.0
497.0,504.0,500.0,518.0
496.0,523.0,496.0,519.0
503.0,517.0,496.0,516.0
502.0,525.0,500.0,518.0
505.0,529.0,495.0,515.0
506.0,528.0,502.0,512.0
510.0,522.0,505.0,510.0
514.0,519.0,511.0,509.0
522.0,519.0,515.0,511.0
527.0,518.0,524.0,510.0
527.0,514.0,531.0,514.0
524.0,510.0,535.0,517.0
524.0,508.0,535.0,515.0
517.0,490.0,526.0,515.0
511.0,485.0,524.0,518.0
508.0,506.0,515.0,519.0
504.0,519.0,505.0,519.0
505.0,521.0,502.0,518.0
499.0,489.0,502.0,520.0
502.0,494.0,501.0,517.0
505.0,501.0,495.0,513.0
504.0,498.0,494.0,511.0
505.0,501.0,498.0,509.0
509.0,497.0,502.0,507.0
513.0,503.0,508.0,503.0
522.0,517.0,514.0,505.0
526.0,518.0,522.0,505.0
530.0,521.0,523.0,508.0
529.0,525.0,531.0,507.0
526.0,509.0,534.0,512.0
520.0,497.0,529.0,512.0
509.0,493.0,523.0,517.0
505.0,497.0,516.0,522.0
500.0,500.0,513.0,522.0
496.0,488.0,503.0,519.0
498.0,493.0,494.0,518.0
504.0,498.0,493.0,515.0
510.0,504.0,494.0,514.0
512.0,516.0,495.0,510.0
510.0,522.0,497.0,506.0
507.0,516.0,502.0,504.0
510.0,500.0,510.0,499.0
516.0,490.0,516.0,501.0
521.0,501.0,525.0,505.0
523.0,517.0,529.0,507.0
521.0,526.0,530.0,508.0
514.0,513.0,526.0,506.0
512.0,507.0,520.0,508.0
500.0,504.0,512.0,511.0
496.0,501.0,504.0,516.0
497.0,506.0,505.0,515.0
504.0,510.0,500.0,516.0
501.0,508.0,494.0,514.0
506.0,505.0,493.0,519.0
507.0,508.0,499.0,512.0
508.0,506.0,496.0,510.0
512.0,508.0,503.0,504.0
513.0,507.0,507.0,507.0
513.0,507.0,517.0,507.0
521.0,512.0,520.0,506.0
527.0,510.0,528.0,505.0
525.0,506.0,532.0,506.0
519.0,504.0,532.0,511.0
518.0,502.0,527.0,510.0
509.0,495.0,523.0,510.0
505.0,495.0,512.0,514.0
502.0,497.0,507.0,517.0
500.0,502.0,501.0,518.0
502.0,502.0,497.0,518.0
504.0,505.0,498.0,518.0
508.0,509.0,497.0,515.0
512.0,507.0,499.0,514.0
509.0,506.0,500.0,513.0
510.0,504.0,507.0,509.0
513.0,498.0,513.0,510.0
519.0,500.0,518.0,510.0
526.0,501.0,525.0,508.0
527.0,503.0,532.0,510.0
531.0,509.0,533.0,512.0
522.0,508.0,530.0,513.0
516.0,512.0,525.0,512.0
504.0,502.0,518.0,513.0
499.0,493.0,512.0,515.0
497.0,489.0,508.0,519.0
500.0,506.0,502.0,517.0
502.0,490.0,497.0,517.0
499.0,493.0,497.0,519.0
502.0,497.0,499.0,517.0
506.0,502.0,499.0,514.0
509.0,514.0,503.0,511.0
512.0,508.0,508.0,513.0
519.0,516.0,512.0,511.0
523.0,525.0,523.0,510.0
523.0,522.0,528.0,511.0
524.0,516.0,534.0,510.0
524.0,517.0,534.0,508.0
520.0,507.0,529.0,513.0
515.0,502.0,525.0,511.0
504.0,496.0,513.0,515.0
501.0,494.0,508.0,518.0
499.0,496.0,500.0,520.0
502.0,503.0,499.0,517.0
500.0,506.0,497.0,516.0
507.0,518.0,498.0,520.0
511.0,513.0,498.0,516.0
511.0,520.0,500.0,513.0
511.0,510.0,505.0,511.0
511.0,505.0,508.0,511.0
515.0,507.0,518.0,511.0
519.0,509.0,525.0,509.0
522.0,510.0,530.0,509.0
523.0,503.0,533.0,512.0
524.0,504.0,532.0,510.0
520.0,501.0,527.0,509.0
510.0,484.0,522.0,516.0
504.0,485.0,515.0,517.0
502.0,487.0,507.0,515.0
501.0,493.0,501.0,519.0
501.0,501.0,499.0,519.0
501.0,501.0,496.0,516.0
501.0,506.0,496.0,515.0
510.0,529.0,499.0,511.0
509.0,508.0,502.0,513.0
509.0,493.0,505.0,514.0
514.0,507.0,513.0,508.0
517.0,512.0,517.0,506.0
523.0,512.0,525.0,510.0
524.0,510.0,532.0,511.0
526.0,508.0,531.0,512.0
522.0,504.0,529.0,512.0
518.0,507.0,527.0,511.0
506.0,487.0,519.0,514.0
501.0,490.0,512.0,515.0
499.0,492.0,500.0,517.0
500.0,503.0,500.0,514.0
502.0,505.0,498.0,519.0
507.0,503.0,499.0,517.0
510.0,508.0,494.0,515.0
512.0,518.0,499.0,512.0
511.0,507.0,502.0,509.0
511.0,522.0,506.0,508.0
512.0,521.0,513.0,512.0
512.0,503.0,521.0,507.0
519.0,506.0,526.0,509.0
517.0,504.0,539.0,511.0
523.0,511.0,530.0,512.0
519.0,503.0,530.0,513.0
514.0,510.0,523.0,512.0
503.0,496.0,516.0,516.0
501.0,491.0,507.0,517.0
500.0,497.0,503.0,517.0
504.0,497.0,499.0,514.0
503.0,503.0,500.0,518.0
511.0,512.0,496.0,515.0
511.0,523.0,500.0,516.0
506.0,519.0,496.0,514.0
508.0,515.0,503.0,511.0
511.0,509.0,511.0,508.0
511.0,511.0,517.0,508.0
522.0,520.0,524.0,508.0
524.0,521.0,531.0,511.0
524.0,514.0,534.0,510.0
523.0,516.0,530.0,510.0
519.0,511.0,527.0,511.0
510.0,497.0,519.0,512.0
501.0,492.0,510.0,517.0
499.0,477.0,505.0,517.0
506.0,493.0,498.0,518.0
505.0,509.0,496.0,518.0
505.0,506.0,498.0,517.0
509.0,508.0,494.0,514.0
509.0,511.0,501.0,512.0
510.0,509.0,506.0,507.0
514.0,511.0,514.0,508.0
517.0,509.0,520.0,509.0
522.0,501.0,527.0,509.0
525.0,501.0,533.0,505.0
526.0,506.0,534.0,507.0
517.0,495.0,530.0,507.0
516.0,502.0,529.0,511.0
509.0,495.0,522.0,512.0
506.0,499.0,514.0,510.0
503.0,509.0,504.0,515.0
501.0,512.0,497.0,514.0
507.0,514.0,495.0,518.0
509.0,511.0,492.0,517.0
510.0,511.0,496.0,515.0
511.0,518.0,498.0,513.0
510.0,509.0,499.0,512.0
510.0,506.0,509.0,516.0
512.0,506.0,519.0,509.0
522.0,510.0,525.0,509.0
525.0,513.0,526.0,508.0
524.0,510.0,529.0,509.0
521.0,507.0,530.0,509.0
520.0,509.0,529.0,507.0
518.0,507.0,524.0,506.0
503.0,498.0,519.0,511.0
500.0,499.0,511.0,513.0
500.0,503.0,502.0,514.0
502.0,508.0,498.0,517.0
498.0,499.0,494.0,516.0
507.0,509.0,491.0,513.0
507.0,510.0,496.0,511.0
512.0,512.0,495.0,514.0
512.0,505.0,500.0,508.0
510.0,497.0,508.0,508.0
514.0,500.0,515.0,508.0
520.0,505.0,524.0,509.0
525.0,512.0,529.0,507.0
523.0,514.0,534.0,509.0
527.0,510.0,532.0,509.0
521.0,503.0,531.0,510.0
516.0,498.0,526.0,513.0
506.0,489.0,516.0,516.0
503.0,496.0,505.0,517.0
499.0,498.0,503.0,517.0
504.0,506.0,493.0,517.0
506.0,512.0,494.0,516.0
507.0,516.0,495.0,513.0
510.0,515.0,495.0,514.0
508.0,514.0,501.0,513.0
510.0,505.0,503.0,509.0
513.0,509.0,510.0,509.0
515.0,508.0,517.0,507.0
520.0,507.0,525.0,507.0
525.0,509.0,533.0,509.0
524.0,507.0,534.0,511.0
516.0,500.0,532.0,511.0
518.0,504.0,527.0,511.0
507.0,489.0,522.0,513.0
506.0,492.0,513.0,514.0
503.0,484.0,502.0,515.0
507.0,494.0,500.0,516.0
514.0,500.0,494.0,518.0
517.0,509.0,496.0,514.0
515.0,518.0,496.0,515.0
515.0,526.0,496.0,512.0
506.0,504.0,498.0,511.0
503.0,510.0,506.0,509.0
502.0,516.0,515.0,508.0
509.0,512.0,522.0,506.0
518.0,513.0,530.0,509.0
522.0,508.0,534.0,508.0
519.0,504.0,533.0,509.0
518.0,503.0,530.0,512.0
517.0,498.0,527.0,511.0
503.0,487.0,516.0,513.0
499.0,493.0,512.0,517.0
498.0,502.0,502.0,516.0
501.0,513.0,498.0,518.0
504.0,520.0,499.0,517.0
508.0,524.0,497.0,516.0
507.0,518.0,497.0,516.0
507.0,519.0,503.0,513.0
509.0,510.0,503.0,508.0
508.0,488.0,506.0,507.0
514.0,483.0,516.0,511.0
525.0,486.0,524.0,507.0
526.0,490.0,530.0,506.0
522.0,494.0,534.0,507.0
519.0,498.0,534.0,510.0
521.0,505.0,531.0,510.0
517.0,512.0,526.0,511.0
504.0,500.0,517.0,514.0
498.0,502.0,510.0,514.0
502.0,506.0,504.0,517.0
504.0,505.0,496.0,518.0
506.0,512.0,496.0,518.0
506.0,497.0,493.0,514.0
506.0,511.0,497.0,514.0
510.0,509.0,497.0,514.0
510.0,506.0,507.0,512.0
516.0,503.0,515.0,508.0
516.0,519.0,524.0,509.0
523.0,537.0,532.0,508.0
526.0,526.0,535.0,510.0
527.0,526.0,540.0,508.0
522.0,529.0,527.0,508.0
518.0,517.0,523.0,506.0
506.0,488.0,517.0,513.0
503.0,499.0,513.0,510.0
499.0,469.0,507.0,516.0
500.0,482.0,499.0,516.0
508.0,500.0,496.0,518.0
509.0,495.0,497.0,520.0
509.0,490.0,497.0,516.0
506.0,497.0,497.0,513.0
507.0,502.0,503.0,514.0
502.0,502.0,505.0,509.0
509.0,518.0,511.0,508.0
515.0,516.0,518.0,504.0
520.0,510.0,521.0,504.0
521.0,499.0,528.0,502.0
521.0,502.0,532.0,507.0
521.0,504.0,530.0,504.0
515.0,512.0,528.0,511.0
502.0,492.0,518.0,508.0
497.0,491.0,508.0,514.0
505.0,494.0,501.0,512.0
505.0,503.0,492.0,513.0
506.0,503.0,494.0,513.0
510.0,507.0,492.0,511.0
508.0,507.0,494.0,513.0
511.0,515.0,494.0,512.0
512.0,518.0,500.0,507.0
510.0,521.0,504.0,506.0
512.0,515.0,516.0,508.0
519.0,521.0,524.0,507.0
525.0,516.0,529.0,508.0
524.0,507.0,535.0,510.0
520.0,503.0,536.0,515.0
519.0,506.0,532.0,510.0
516.0,501.0,523.0,510.0
505.0,490.0,516.0,512.0
500.0,495.0,507.0,512.0
501.0,496.0,500.0,515.0
501.0,502.0,496.0,517.0
505.0,509.0,495.0,512.0
505.0,510.0,496.0,514.0
509.0,513.0,498.0,514.0
512.0,512.0,499.0,512.0
511.0,507.0,509.0,512.0
516.0,513.0,514.0,511.0
516.0,510.0,520.0,511.0
522.0,515.0,529.0,512.0
526.0,514.0,530.0,511.0
524.0,501.0,534.0,512.0
517.0,483.0,532.0,512.0
521.0,493.0,529.0,511.0
511.0,486.0,515.0,508.0
500.0,485.0,512.0,513.0
500.0,501.0,506.0,510.0
500.0,504.0,500.0,512.0
506.0,509.0,493.0,516.0
508.0,507.0,493.0,520.0
508.0,512.0,494.0,515.0
507.0,516.0,496.0,511.0
508.0,518.0,496.0,507.0
509.0,510.0,503.0,506.0
512.0,515.0,511.0,507.0
517.0,509.0,520.0,508.0
520.0,508.0,528.0,505.0
523.0,505.0,533.0,508.0
523.0,506.0,535.0,507.0
520.0,503.0,529.0,507.0
520.0,506.0,523.0,508.0
506.0,496.0,518.0,506.0
502.0,494.0,508.0,512.0
498.0,491.0,502.0,515.0
501.0,491.0,497.0,516.0
500.0,493.0,493.0,513.0
504.0,511.0,495.0,514.0
504.0,507.0,494.0,512.0
506.0,510.0,498.0,514.0
513.0,512.0,502.0,507.0
512.0,509.0,509.0,507.0
512.0,509.0,513.0,507.0
521.0,507.0,521.0,506.0
526.0,504.0,528.0,506.0
525.0,503.0,533.0,508.0
521.0,499.0,535.0,511.0
519.0,492.0,534.0,512.0
516.0,493.0,526.0,512.0
507.0,487.0,518.0,512.0
503.0,489.0,508.0,512.0
502.0,507.0,500.0,512.0
504.0,511.0,497.0,513.0
500.0,514.0,494.0,517.0
505.0,516.0,496.0,516.0
510.0,514.0,498.0,512.0
510.0,511.0,498.0,513.0
515.0,509.0,504.0,508.0
514.0,518.0,509.0,505.0
514.0,517.0,516.0,507.0
520.0,515.0,522.0,503.0
523.0,516.0,528.0,509.0
529.0,519.0,532.0,508.0
525.0,503.0,529.0,508.0
523.0,504.0,526.0,510.0
512.0,466.0,523.0,512.0
503.0,464.0,516.0,512.0
500.0,496.0,508.0,511.0
497.0,500.0,502.0,520.0
501.0,515.0,500.0,517.0
504.0,504.0,494.0,516.0
506.0,505.0,495.0,511.0
507.0,507.0,496.0,510.0
507.0,503.0,496.0,509.0
505.0,499.0,502.0,505.0
508.0,505.0,512.0,507.0
515.0,514.0,520.0,507.0
520.0,514.0,527.0,509.0
524.0,519.0,532.0,509.0
528.0,527.0,536.0,509.0
519.0,524.0,534.0,512.0
511.0,517.0,532.0,512.0
498.0,484.0,519.0,515.0
500.0,493.0,514.0,515.0
499.0,498.0,505.0,517.0
498.0,502.0,500.0,515.0
500.0,497.0,490.0,511.0
508.0,504.0,493.0,512.0
507.0,506.0,490.0,508.0
510.0,519.0,496.0,511.0
508.0,520.0,499.0,510.0
511.0,521.0,506.0,509.0
515.0,508.0,513.0,506.0
520.0,513.0,524.0,509.0
528.0,516.0,529.0,508.0
524.0,507.0,533.0,508.0
524.0,502.0,537.0,509.0
516.0,499.0,532.0,513.0
515.0,498.0,526.0,512.0
506.0,496.0,516.0,512.0
497.0,498.0,506.0,517.0
499.0,501.0,503.0,516.0
504.0,504.0,496.0,511.0
505.0,504.0,494.0,514.0
509.0,507.0,495.0,512.0
507.0,505.0,491.0,514.0
507.0,502.0,503.0,514.0
509.0,500.0,500.0,510.0
510.0,500.0,511.0,510.0
519.0,504.0,517.0,505.0
524.0,510.0,522.0,507.0
526.0,524.0,529.0,509.0
528.0,512.0,536.0,510.0
522.0,499.0,538.0,508.0
516.0,496.0,532.0,511.0
509.0,492.0,523.0,512.0
502.0,490.0,512.0,514.0
503.0,490.0,505.0,514.0
499.0,506.0,501.0,521.0
500.0,515.0,497.0,519.0
504.0,515.0,493.0,516.0
506.0,513.0,495.0,515.0
507.0,512.0,496.0,513.0
511.0,513.0,497.0,510.0
509.0,508.0,502.0,503.0
514.0,506.0,508.0,504.0
518.0,507.0,518.0,504.0
522.0,510.0,524.0,507.0
523.0,507.0,532.0,509.0
526.0,503.0,534.0,510.0
519.0,497.0,532.0,509.0
520.0,498.0,527.0,512.0
506.0,486.0,520.0,521.0
501.0,491.0,512.0,518.0
502.0,497.0,504.0,513.0
502.0,502.0,501.0,520.0
506.0,506.0,498.0,520.0
506.0,507.0,498.0,520.0
508.0,504.0,499.0,516.0
508.0,502.0,500.0,517.0
513.0,501.0,502.0,508.0
513.0,496.0,507.0,506.0
517.0,494.0,515.0,505.0
525.0,501.0,524.0,505.0
527.0,506.0,530.0,508.0
525.0,520.0,535.0,511.0
517.0,512.0,534.0,512.0
520.0,517.0,528.0,511.0
518.0,516.0,525.0,510.0
507.0,495.0,515.0,512.0
499.0,494.0,509.0,520.0
494.0,486.0,502.0,517.0
492.0,491.0,501.0,517.0
495.0,515.0,496.0,516.0
501.0,513.0,494.0,513.0
506.0,522.0,489.0,506.0
509.0,521.0,490.0,507.0
507.0,507.0,494.0,503.0
513.0,502.0,506.0,503.0
516.0,499.0,512.0,504.0
524.0,497.0,521.0,505.0
525.0,500.0,530.0,507.0
530.0,500.0,535.0,510.0
528.0,510.0,532.0,510.0
523.0,532.0,529.0,511.0
514.0,521.0,520.0,510.0
498.0,506.0,515.0,513.0
498.0,506.0,505.0,511.0
497.0,499.0,499.0,516.0
498.0,484.0,493.0,512.0
502.0,493.0,494.0,516.0
506.0,520.0,495.0,514.0
509.0,520.0,496.0,514.0
513.0,518.0,499.0,512.0
509.0,526.0,506.0,510.0
512.0,533.0,514.0,508.0
517.0,523.0,521.0,508.0
524.0,508.0,527.0,510.0
524.0,499.0,533.0,507.0
524.0,502.0,535.0,507.0
515.0,494.0,532.0,507.0
513.0,496.0,527.0,513.0
503.0,489.0,519.0,513.0
500.0,484.0,509.0,513.0
498.0,494.0,501.0,515.0
496.0,505.0,504.0,518.0
500.0,508.0,495.0,515.0
505.0,512.0,497.0,515.0
503.0,505.0,495.0,515.0
510.0,514.0,498.0,511.0
510.0,509.0,501.0,507.0
508.0,505.0,506.0,505.0
513.0,504.0,513.0,504.0
521.0,498.0,520.0,503.0
525.0,500.0,525.0,504.0
526.0,498.0,535.0,506.0
524.0,490.0,529.0,506.0
523.0,500.0,527.0,511.0
516.0,516.0,526.0,512.0
503.0,498.0,517.0,517.0
500.0,501.0,510.0,515.0
500.0,506.0,500.0,516.0
502.0,508.0,499.0,516.0
503.0,508.0,496.0,517.0
506.0,509.0,496.0,511.0
507.0,506.0,497.0,516.0
510.0,507.0,497.0,513.0
510.0,495.0,502.0,510.0
511.0,485.0,508.0,507.0
511.0,481.0,518.0,509.0
519.0,491.0,525.0,509.0
520.0,508.0,533.0,510.0
525.0,521.0,536.0,510.0
521.0,518.0,534.0,511.0
520.0,518.0,532.0,514.0
512.0,508.0,526.0,515.0
503.0,494.0,516.0,515.0
503.0,494.0,510.0,518.0
501.0,493.0,504.0,522.0
505.0,499.0,497.0,518.0
505.0,518.0,496.0,513.0
508.0,512.0,494.0,514.0
511.0,518.0,493.0,511.0
515.0,530.0,499.0,507.0
513.0,525.0,504.0,509.0
520.0,526.0,510.0,504.0
518.0,520.0,516.0,509.0
522.0,485.0,524.0,508.0
527.0,490.0,530.0,509.0
526.0,497.0,533.0,511.0
515.0,508.0,531.0,510.0
515.0,509.0,530.0,515.0
505.0,494.0,529.0,516.0
501.0,488.0,519.0,521.0
500.0,482.0,509.0,517.0
502.0,488.0,504.0,524.0
507.0,505.0,498.0,517.0
513.0,532.0,495.0,514.0
509.0,514.0,495.0,507.0
513.0,489.0,496.0,511.0
508.0,499.0,497.0,508.0
507.0,520.0,502.0,506.0
513.0,511.0,506.0,504.0
513.0,505.0,516.0,503.0
520.0,511.0,525.0,504.0
525.0,500.0,531.0,509.0
522.0,496.0,533.0,512.0
521.0,490.0,531.0,513.0
517.0,497.0,529.0,515.0
499.0,499.0,518.0,514.0
495.0,504.0,509.0,518.0
499.0,512.0,502.0,518.0
496.0,516.0,500.0,519.0
495.0,510.0,497.0,516.0
503.0,513.0,496.0,513.0
507.0,504.0,494.0,508.0
513.0,501.0,496.0,515.0
515.0,494.0,500.0,506.0
513.0,487.0,509.0,504.0
512.0,490.0,512.0,505.0
520.0,507.0,522.0,511.0
525.0,538.0,528.0,506.0
519.0,530.0,532.0,505.0
517.0,506.0,530.0,509.0
518.0,510.0,529.0,505.0
516.0,507.0,523.0,508.0
508.0,496.0,514.0,511.0
501.0,509.0,504.0,510.0
498.0,490.0,498.0,516.0
502.0,495.0,497.0,515.0
508.0,504.0,494.0,515.0
504.0,506.0,496.0,516.0
509.0,515.0,498.0,514.0
509.0,516.0,500.0,515.0
506.0,508.0,503.0,512.0
512.0,514.0,513.0,510.0
517.0,511.0,520.0,510.0
526.0,518.0,526.0,508.0
529.0,523.0,533.0,510.0
528.0,479.0,534.0,511.0
522.0,478.0,529.0,510.0
524.0,500.0,531.0,513.0
509.0,490.0,519.0,515.0
504.0,494.0,512.0,521.0
502.0,500.0,505.0,519.0
503.0,502.0,500.0,521.0
500.0,502.0,498.0,527.0
501.0,508.0,498.0,515.0
500.0,514.0,500.0,517.0
506.0,525.0,502.0,517.0
510.0,525.0,504.0,514.0
511.0,509.0,505.0,509.0
514.0,513.0,512.0,508.0
520.0,517.0,513.0,505.0
520.0,512.0,521.0,504.0
525.0,510.0,530.0,507.0
525.0,506.0,535.0,509.0
520.0,500.0,538.0,511.0
520.0,499.0,523.0,510.0
505.0,481.0,516.0,512.0
499.0,477.0,510.0,513.0
500.0,483.0,500.0,513.0
501.0,488.0,494.0,519.0
503.0,500.0,493.0,515.0
507.0,503.0,492.0,515.0
510.0,496.0,491.0,512.0
511.0,528.0,496.0,513.0
508.0,521.0,500.0,514.0
508.0,522.0,510.0,514.0
511.0,510.0,516.0,514.0
518.0,512.0,529.0,513.0
522.0,507.0,538.0,513.0
526.0,515.0,542.0,515.0
520.0,515.0,542.0,515.0
520.0,504.0,531.0,515.0
513.0,492.0,519.0,510.0
500.0,480.0,508.0,510.0
499.0,482.0,497.0,503.0
504.0,492.0,493.0,505.0
505.0,525.0,490.0,512.0
507.0,529.0,489.0,513.0
511.0,521.0,493.0,515.0
509.0,521.0,503.0,517.0
514.0,517.0,500.0,518.0
512.0,510.0,501.0,511.0
512.0,506.0,512.0,509.0
513.0,502.0,518.0,505.0
518.0,509.0,525.0,500.0
521.0,510.0,525.0,504.0
523.0,503.0,530.0,514.0
518.0,500.0,526.0,504.0
518.0,501.0,522.0,503.0
507.0,492.0,516.0,505.0
500.0,483.0,508.0,515.0
501.0,504.0,502.0,513.0
508.0,520.0,499.0,516.0
513.0,527.0,498.0,515.0
514.0,530.0,496.0,515.0
497.0,504.0,491.0,512.0
498.0,469.0,491.0,508.0
506.0,497.0,495.0,509.0
509.0,518.0,506.0,507.0
512.0,528.0,509.0,508.0
514.0,516.0,518.0,510.0
521.0,506.0,527.0,511.0
525.0,489.0,536.0,513.0
521.0,471.0,540.0,513.0
515.0,476.0,535.0,518.0
519.0,509.0,530.0,514.0
500.0,508.0,519.0,513.0
503.0,509.0,510.0,515.0
502.0,511.0,506.0,517.0
500.0,509.0,505.0,522.0
504.0,503.0,497.0,520.0
501.0,493.0,496.0,518.0
504.0,512.0,493.0,512.0
509.0,519.0,491.0,507.0
511.0,523.0,490.0,502.0
512.0,513.0,498.0,500.0
513.0,511.0,509.0,499.0
518.0,508.0,519.0,501.0
520.0,504.0,531.0,504.0
524.0,497.0,530.0,509.0
519.0,494.0,530.0,506.0
518.0,498.0,527.0,507.0
513.0,503.0,525.0,511.0
502.0,496.0,516.0,513.0
499.0,497.0,508.0,515.0
500.0,494.0,502.0,514.0
500.0,503.0,497.0,518.0
506.0,501.0,495.0,517.0
509.0,498.0,496.0,514.0
511.0,518.0,492.0,513.0
516.0,533.0,498.0,514.0
511.0,512.0,504.0,509.0
515.0,501.0,510.0,510.0
515.0,497.0,516.0,511.0
529.0,528.0,528.0,510.0
534.0,566.0,536.0,513.0
537.0,560.0,536.0,514.0
528.0,560.0,532.0,511.0
516.0,508.0,537.0,517.0
499.0,411.0,526.0,515.0
493.0,446.0,514.0,519.0
495.0,478.0,509.0,517.0
498.0,495.0,502.0,521.0
507.0,508.0,502.0,523.0
513.0,532.0,498.0,516.0
514.0,527.0,494.0,515.0
515.0,497.0,492.0,513.0
507.0,486.0,500.0,512.0
497.0,490.0,507.0,510.0
507.0,496.0,515.0,510.0
514.0,505.0,521.0,509.0
517.0,510.0,528.0,505.0
520.0,509.0,527.0,504.0
526.0,527.0,529.0,504.0
524.0,533.0,526.0,509.0
520.0,523.0,526.0,510.0
511.0,500.0,511.0,513.0
504.0,507.0,508.0,518.0
493.0,478.0,506.0,522.0
498.0,502.0,503.0,527.0
504.0,531.0,506.0,528.0
505.0,550.0,506.0,532.0
504.0,526.0,508.0,531.0
509.0,527.0,507.0,521.0
514.0,513.0,508.0,514.0
514.0,506.0,514.0,512.0
514.0,500.0,523.0,510.0
523.0,501.0,528.0,510.0
523.0,482.0,532.0,506.0
529.0,489.0,529.0,505.0
522.0,490.0,533.0,504.0
522.0,482.0,520.0,499.0
527.0,498.0,507.0,496.0
515.0,494.0,500.0,499.0
507.0,491.0,494.0,501.0
501.0,508.0,491.0,503.0
491.0,523.0,488.0,508.0
487.0,518.0,492.0,509.0
496.0,512.0,489.0,515.0
501.0,513.0,489.0,506.0
504.0,512.0,492.0,504.0
507.0,511.0,498.0,503.0
508.0,510.0,505.0,503.0
516.0,505.0,514.0,504.0
527.0,504.0,523.0,503.0
531.0,502.0,530.0,508.0
533.0,489.0,533.0,509.0
524.0,490.0,528.0,508.0
521.0,492.0,524.0,509.0
513.0,483.0,518.0,509.0
506.0,501.0,511.0,513.0
497.0,508.0,503.0,521.0
493.0,512.0,500.0,524.0
488.0,506.0,508.0,526.0
493.0,517.0,507.0,523.0
499.0,523.0,501.0,516.0
503.0,521.0,497.0,509.0
509.0,532.0,499.0,505.0
514.0,524.0,503.0,504.0
518.0,524.0,504.0,502.0
522.0,503.0,513.0,502.0
521.0,478.0,521.0,505.0
522.0,491.0,534.0,507.0
521.0,500.0,537.0,510.0
513.0,503.0,534.0,518.0
515.0,501.0,538.0,516.0
504.0,496.0,527.0,518.0
499.0,493.0,506.0,517.0
497.0,493.0,495.0,510.0
502.0,500.0,495.0,505.0
503.0,502.0,492.0,507.0
507.0,508.0,485.0,508.0
505.0,507.0,481.0,506.0
507.0,511.0,485.0,505.0
510.0,507.0,492.0,504.0
511.0,503.0,500.0,501.0
511.0,493.0,508.0,503.0
519.0,500.0,518.0,502.0
525.0,497.0,525.0,503.0
523.0,497.0,534.0,509.0
526.0,507.0,530.0,511.0
521.0,512.0,527.0,512.0
513.0,511.0,524.0,512.0
501.0,490.0,513.0,511.0
501.0,485.0,501.0,512.0
503.0,483.0,501.0,517.0
506.0,477.0,495.0,518.0
507.0,490.0,496.0,520.0
508.0,531.0,497.0,518.0
508.0,526.0,499.0,519.0
513.0,514.0,498.0,518.0
508.0,502.0,502.0,513.0
509.0,498.0,509.0,512.0
512.0,519.0,516.0,509.0
522.0,512.0,520.0,508.0
523.0,511.0,531.0,506.0
520.0,520.0,534.0,509.0
517.0,524.0,530.0,509.0
518.0,521.0,528.0,508.0
512.0,510.0,522.0,512.0
505.0,501.0,517.0,513.0
497.0,476.0,505.0,514.0
494.0,479.0,499.0,517.0
500.0,494.0,492.0,516.0
505.0,500.0,489.0,516.0
512.0,501.0,493.0,516.0
516.0,496.0,496.0,512.0
518.0,494.0,499.0,510.0
511.0,511.0,504.0,511.0
527.0,525.0,509.0,509.0
530.0,525.0,518.0,509.0
530.0,497.0,526.0,510.0
530.0,492.0,527.0,509.0
525.0,502.0,534.0,507.0
508.0,496.0,529.0,515.0
506.0,513.0,529.0,517.0
498.0,512.0,523.0,521.0
496.0,509.0,516.0,524.0
495.0,521.0,511.0,524.0
499.0,519.0,505.0,527.0
500.0,522.0,503.0,531.0
503.0,527.0,504.0,529.0
507.0,535.0,502.0,523.0
508.0,510.0,500.0,517.0
507.0,505.0,498.0,508.0
513.0,513.0,506.0,506.0
514.0,519.0,513.0,503.0
513.0,476.0,519.0,500.0
514.0,472.0,520.0,500.0
519.0,497.0,523.0,498.0
518.0,489.0,523.0,505.0
520.0,499.0,518.0,504.0
526.0,510.0,519.0,507.0
512.0,485.0,508.0,506.0
510.0,459.0,500.0,509.0
512.0,476.0,496.0,513.0
505.0,523.0,492.0,514.0
496.0,527.0,492.0,515.0
504.0,546.0,494.0,517.0
514.0,551.0,497.0,516.0
514.0,519.0,500.0,519.0
501.0,487.0,501.0,514.0
509.0,513.0,512.0,510.0
514.0,518.0,523.0,516.0
520.0,500.0,538.0,523.0
525.0,501.0,544.0,515.0
531.0,515.0,542.0,516.0
515.0,499.0,530.0,514.0
505.0,494.0,523.0,511.0
501.0,491.0,515.0,507.0
495.0,490.0,498.0,505.0
495.0,491.0,491.0,507.0
495.0,511.0,493.0,514.0
502.0,528.0,488.0,517.0
504.0,528.0,488.0,518.0
506.0,519.0,489.0,521.0
513.0,518.0,507.0,518.0
510.0,518.0,514.0,517.0
505.0,507.0,506.0,510.0
509.0,505.0,523.0,520.0
517.0,511.0,537.0,513.0
521.0,509.0,530.0,506.0
523.0,507.0,522.0,497.0
521.0,501.0,521.0,498.0
518.0,491.0,515.0,499.0
515.0,484.0,518.0,505.0
497.0,480.0,518.0,514.0
489.0,488.0,509.0,521.0
497.0,502.0,504.0,520.0
501.0,501.0,498.0,520.0
504.0,518.0,485.0,508.0
502.0,517.0,486.0,508.0
504.0,504.0,482.0,503.0
510.0,507.0,486.0,500.0
509.0,516.0,493.0,500.0
511.0,509.0,508.0,507.0
513.0,512.0,521.0,511.0
516.0,505.0,526.0,513.0
524.0,504.0,529.0,517.0
527.0,493.0,528.0,509.0
523.0,490.0,522.0,501.0
518.0,487.0,517.0,502.0
512.0,480.0,514.0,501.0
499.0,498.0,505.0,503.0
498.0,499.0,497.0,505.0
498.0,506.0,487.0,507.0
503.0,517.0,487.0,511.0
508.0,522.0,486.0,514.0
507.0,518.0,492.0,515.0
510.0,509.0,492.0,516.0
513.0,514.0,497.0,514.0
510.0,509.0,506.0,516.0
512.0,508.0,513.0,512.0
515.0,509.0,519.0,512.0
523.0,514.0,520.0,508.0
525.0,523.0,522.0,499.0
524.0,508.0,526.0,507.0
519.0,488.0,525.0,504.0
517.0,487.0,521.0,502.0
507.0,484.0,519.0,508.0
505.0,476.0,509.0,511.0
513.0,517.0,501.0,512.0
515.0,543.0,495.0,519.0
513.0,488.0,493.0,520.0
504.0,532.0,489.0,518.0
505.0,501.0,491.0,515.0
510.0,488.0,492.0,513.0
508.0,486.0,497.0,512.0
507.0,525.0,506.0,516.0
516.0,523.0,511.0,516.0
515.0,526.0,524.0,518.0
518.0,548.0,534.0,517.0
523.0,503.0,542.0,518.0
525.0,494.0,544.0,522.0
515.0,505.0,531.0,514.0
509.0,470.0,522.0,510.0
502.0,474.0,510.0,507.0
517.0,473.0,502.0,517.0
525.0,481.0,501.0,514.0
532.0,501.0,498.0,518.0
529.0,538.0,499.0,521.0
514.0,493.0,504.0,522.0
501.0,494.0,499.0,522.0
492.0,512.0,495.0,517.0
475.0,522.0,491.0,507.0
487.0,520.0,495.0,506.0
499.0,476.0,503.0,512.0
509.0,517.0,514.0,508.0
521.0,506.0,521.0,507.0
526.0,505.0,525.0,511.0
524.0,521.0,535.0,514.0
515.0,541.0,524.0,518.0
512.0,515.0,515.0,517.0
497.0,484.0,506.0,517.0
499.0,508.0,517.0,523.0
508.0,517.0,508.0,524.0
512.0,514.0,509.0,526.0
509.0,509.0,506.0,525.0
507.0,486.0,497.0,514.0
498.0,478.0,489.0,504.0
502.0,494.0,477.0,495.0
497.0,483.0,472.0,487.0
501.0,476.0,484.0,492.0
507.0,481.0,494.0,498.0
521.0,480.0,512.0,506.0
530.0,507.0,521.0,509.0
528.0,506.0,534.0,513.0
526.0,535.0,539.0,519.0
524.0,554.0,536.0,517.0
514.0,535.0,517.0,514.0
502.0,536.0,507.0,511.0
496.0,505.0,495.0,508.0
499.0,508.0,485.0,507.0
493.0,522.0,478.0,503.0
496.0,525.0,481.0,502.0
502.0,518.0,473.0,502.0
502.0,515.0,479.0,501.0
508.0,515.0,486.0,500.0
507.0,512.0,498.0,501.0
511.0,507.0,497.0,504.0
514.0,506.0,511.0,512.0
520.0,503.0,520.0,512.0
524.0,501.0,529.0,512.0
523.0,498.0,529.0,506.0
515.0,495.0,530.0,507.0
511.0,503.0,524.0,506.0
506.0,503.0,515.0,509.0
509.0,515.0,499.0,512.0
506.0,505.0,489.0,513.0
504.0,504.0,483.0,514.0
503.0,470.0,485.0,515.0
509.0,488.0,492.0,519.0
510.0,523.0,496.0,519.0
513.0,555.0,511.0,521.0
516.0,519.0,514.0,518.0
509.0,504.0,501.0,510.0
508.0,504.0,504.0,509.0
518.0,504.0,510.0,510.0
522.0,508.0,517.0,514.0
521.0,498.0,526.0,509.0
524.0,494.0,525.0,506.0
518.0,487.0,522.0,509.0
518.0,467.0,516.0,508.0
521.0,501.0,508.0,515.0
509.0,500.0,500.0,521.0
496.0,489.0,500.0,523.0
492.0,477.0,494.0,519.0
490.0,466.0,497.0,518.0
499.0,507.0,498.0,521.0
500.0,552.0,498.0,521.0
506.0,526.0,500.0,510.0
509.0,490.0,493.0,503.0
522.0,493.0,487.0,504.0
523.0,500.0,500.0,505.0
525.0,485.0,515.0,510.0
528.0,485.0,526.0,507.0
523.0,526.0,532.0,514.0
510.0,530.0,536.0,521.0
510.0,512.0,537.0,529.0
509.0,500.0,525.0,525.0
505.0,485.0,512.0,520.0
500.0,461.0,497.0,513.0
503.0,439.0,485.0,512.0
509.0,452.0,484.0,510.0
506.0,502.0,487.0,513.0
514.0,573.0,497.0,522.0
521.0,589.0,499.0,519.0
522.0,603.0,498.0,514.0
523.0,539.0,499.0,509.0
520.0,490.0,502.0,504.0
509.0,527.0,503.0,509.0
524.0,548.0,509.0,505.0
512.0,502.0,514.0,504.0
514.0,526.0,518.0,507.0
517.0,516.0,518.0,506.0
523.0,494.0,521.0,511.0
507.0,469.0,522.0,515.0
499.0,422.0,515.0,516.0
500.0,415.0,501.0,517.0
498.0,442.0,501.0,520.0
487.0,502.0,488.0,516.0
512.0,536.0,491.0,510.0
506.0,544.0,490.0,514.0
510.0,549.0,494.0,518.0
521.0,565.0,498.0,519.0
528.0,570.0,511.0,515.0
524.0,563.0,510.0,511.0
517.0,538.0,520.0,518.0
510.0,511.0,530.0,517.0
501.0,495.0,535.0,515.0
502.0,431.0,523.0,507.0
509.0,456.0,522.0,504.0
512.0,465.0,523.0,506.0
512.0,453.0,511.0,504.0
520.0,519.0,501.0,508.0
511.0,585.0,487.0,509.0
517.0,617.0,480.0,505.0
510.0,617.0,473.0,504.0
496.0,519.0,474.0,498.0
497.0,511.0,474.0,499.0
507.0,492.0,479.0,506.0
510.0,494.0,489.0,509.0
515.0,470.0,502.0,515.0
497.0,450.0,516.0,512.0
521.0,489.0,527.0,513.0
529.0,523.0,544.0,520.0
526.0,494.0,553.0,526.0
516.0,505.0,539.0,517.0
510.0,524.0,510.0,499.0
507.0,454.0,492.0,494.0
496.0,462.0,489.0,498.0
510.0,506.0,491.0,502.0
509.0,533.0,484.0,504.0
502.0,477.0,481.0,501.0
505.0,516.0,501.0,516.0
514.0,590.0,505.0,513.0
534.0,596.0,479.0,501.0
542.0,595.0,463.0,500.0
513.0,486.0,485.0,506.0
520.0,421.0,504.0,509.0
510.0,394.0,512.0,512.0
526.0,406.0,536.0,516.0
540.0,462.0,569.0,526.0
534.0,441.0,557.0,524.0
538.0,506.0,534.0,519.0
518.0,601.0,520.0,505.0
493.0,591.0,505.0,502.0
479.0,475.0,498.0,501.0
487.0,485.0,488.0,496.0
502.0,540.0,475.0,493.0
496.0,512.0,466.0,489.0
503.0,500.0,465.0,489.0
509.0,508.0,477.0,500.0
518.0,542.0,491.0,514.0
507.0,519.0,499.0,518.0
490.0,471.0,512.0,524.0
480.0,471.0,515.0,524.0
509.0,519.0,518.0,514.0
508.0,508.0,522.0,508.0
506.0,508.0,526.0,510.0
518.0,553.0,523.0,506.0
538.0,552.0,514.0,505.0
543.0,500.0,504.0,505.0
530.0,443.0,512.0,513.0
510.0,443.0,540.0,523.0
484.0,434.0,530.0,536.0
491.0,474.0,510.0,534.0
494.0,547.0,508.0,524.0
529.0,561.0,502.0,516.0
548.0,553.0,494.0,512.0
544.0,483.0,488.0,508.0
501.0,493.0,500.0,511.0
487.0,450.0,514.0,511.0
470.0,434.0,518.0,502.0
523.0,525.0,503.0,491.0
538.0,532.0,498.0,492.0
537.0,552.0,514.0,500.0
523.0,502.0,528.0,509.0
513.0,540.0,532.0,514.0
528.0,580.0,538.0,524.0
511.0,611.0,543.0,532.0
510.0,535.0,516.0,528.0
502.0,490.0,482.0,512.0
483.0,489.0,468.0,498.0
499.0,413.0,468.0,488.0
529.0,396.0,478.0,490.0
531.0,426.0,478.0,485.0
524.0,445.0,477.0,485.0
500.0,429.0,484.0,486.0
456.0,487.0,494.0,492.0
515.0,713.0,503.0,505.0
537.0,702.0,523.0,515.0
530.0,636.0,534.0,516.0
514.0,546.0,539.0,523.0
499.0,533.0,546.0,526.0
518.0,577.0,545.0,519.0
547.0,511.0,528.0,507.0
526.0,414.0,504.0,497.0
536.0,427.0,483.0,500.0
492.0,472.0,484.0,490.0
447.0,460.0,470.0,485.0
442.0,458.0,471.0,492.0
483.0,459.0,472.0,494.0
510.0,471.0,481.0,497.0
518.0,490.0,486.0,496.0
534.0,560.0,491.0,494.0
553.0,512.0,495.0,497.0
544.0,502.0,506.0,501.0
551.0,456.0,525.0,510.0
571.0,562.0,542.0,522.0
515.0,428.0,552.0,524.0
490.0,389.0,539.0,521.0
528.0,572.0,526.0,515.0
536.0,602.0,526.0,515.0
480.0,489.0,512.0,516.0
463.0,467.0,511.0,517.0
457.0,522.0,489.0,511.0
500.0,513.0,468.0,497.0
523.0,530.0,462.0,497.0
518.0,560.0,463.0,497.0
530.0,524.0,473.0,494.0
524.0,502.0,483.0,501.0
483.0,510.0,492.0,504.0
473.0,554.0,519.0,494.0
477.0,556.0,523.0,498.0
463.0,343.0,505.0,491.0
489.0,449.0,515.0,498.0
523.0,565.0,525.0,508.0
524.0,638.0,529.0,514.0
531.0,719.0,527.0,511.0
485.0,509.0,521.0,507.0
504.0,423.0,509.0,502.0
522.0,514.0,501.0,503.0
515.0,469.0,501.0,508.0
506.0,403.0,498.0,512.0
508.0,487.0,510.0,512.0
480.0,463.0,508.0,509.0
494.0,420.0,509.0,508.0
535.0,387.0,508.0,508.0
599.0,481.0,499.0,502.0
594.0,528.0,488.0,487.0
558.0,534.0,506.0,495.0
490.0,544.0,527.0,497.0
429.0,504.0,525.0,505.0
450.0,479.0,532.0,507.0
477.0,514.0,547.0,510.0
478.0,455.0,535.0,520.0
486.0,530.0,512.0,506.0
492.0,439.0,516.0,492.0
501.0,530.0,475.0,492.0
529.0,564.0,450.0,501.0
487.0,556.0,468.0,503.0
487.0,600.0,478.0,505.0
469.0,497.0,493.0,503.0
468.0,395.0,517.0,504.0
536.0,475.0,513.0,500.0
605.0,559.0,525.0,509.0
607.0,630.0,521.0,505.0
562.0,720.0,529.0,504.0
489.0,411.0,520.0,496.0
474.0,387.0,511.0,491.0
445.0,480.0,503.0,484.0
469.0,486.0,502.0,487.0
493.0,455.0,512.0,499.0
494.0,429.0,496.0,507.0
498.0,411.0,492.0,507.0
509.0,443.0,513.0,501.0
512.0,532.0,507.0,498.0
515.0,622.0,497.0,509.0
512.0,522.0,514.0,506.0
507.0,441.0,494.0,502.0
502.0,498.0,487.0,490.0
536.0,470.0,490.0,488.0
550.0,509.0,489.0,486.0
527.0,501.0,487.0,482.0
485.0,451.0,490.0,481.0
505.0,515.0,502.0,488.0
511.0,505.0,517.0,495.0
512.0,548.0,530.0,502.0
535.0,539.0,523.0,505.0
514.0,554.0,501.0,499.0
507.0,614.0,504.0,511.0
498.0,537.0,500.0,515.0
469.0,462.0,487.0,507.0
492.0,519.0,484.0,502.0
509.0,478.0,486.0,500.0
531.0,547.0,490.0,500.0
540.0,676.0,497.0,505.0
536.0,536.0,503.0,499.0
497.0,405.0,507.0,500.0
507.0,351.0,519.0,509.0
558.0,485.0,538.0,519.0
551.0,357.0,552.0,524.0
509.0,413.0,552.0,518.0
516.0,498.0,534.0,507.0
478.0,547.0,523.0,500.0
465.0,580.0,509.0,495.0
458.0,600.0,493.0,492.0
493.0,537.0,473.0,492.0
505.0,570.0,469.0,495.0
537.0,609.0,471.0,499.0
508.0,469.0,473.0,499.0
476.0,395.0,478.0,497.0
517.0,348.0,483.0,497.0
543.0,447.0,495.0,502.0
541.0,595.0,500.0,511.0
526.0,657.0,514.0,510.0
493.0,589.0,522.0,514.0
475.0,338.0,537.0,515.0
488.0,532.0,537.0,509.0
515.0,512.0,537.0,506.0
511.0,527.0,530.0,502.0
485.0,473.0,528.0,504.0
486.0,516.0,510.0,508.0
536.0,489.0,499.0,511.0
537.0,386.0,484.0,508.0
504.0,313.0,482.0,502.0
530.0,504.0,488.0,502.0
525.0,644.0,498.0,505.0
493.0,565.0,506.0,509.0
486.0,499.0,516.0,511.0
459.0,509.0,535.0,527.0
474.0,571.0,536.0,531.0
502.0,602.0,522.0,519.0
501.0,561.0,504.0,499.0
495.0,502.0,494.0,485.0
504.0,498.0,504.0,480.0
505.0,476.0,518.0,488.0
505.0,478.0,497.0,492.0
509.0,487.0,508.0,501.0
526.0,468.0,493.0,496.0
536.0,452.0,487.0,495.0
543.0,447.0,485.0,498.0
517.0,454.0,481.0,514.0
492.0,516.0,501.0,508.0
492.0,670.0,504.0,507.0
495.0,684.0,494.0,518.0
517.0,605.0,520.0,521.0
503.0,430.0,519.0,511.0
488.0,410.0,512.0,506.0
491.0,360.0,512.0,506.0
536.0,409.0,533.0,518.0
543.0,489.0,551.0,525.0
538.0,557.0,541.0,518.0
520.0,449.0,526.0,507.0
522.0,533.0,537.0,504.0
522.0,508.0,535.0,513.0
541.0,466.0,513.0,519.0
543.0,441.0,497.0,514.0
515.0,393.0,488.0,509.0
478.0,542.0,466.0,496.0
477.0,522.0,461.0,492.0
469.0,554.0,472.0,486.0
523.0,642.0,475.0,493.0
542.0,560.0,481.0,495.0
519.0,464.0,488.0,494.0
437.0,318.0,495.0,498.0
448.0,432.0,505.0,496.0
485.0,595.0,514.0,498.0
516.0,598.0,521.0,501.0
507.0,558.0,529.0,503.0
515.0,553.0,539.0,515.0
515.0,557.0,538.0,516.0
505.0,520.0,524.0,513.0
500.0,452.0,514.0,516.0
517.0,436.0,506.0,512.0
536.0,406.0,494.0,512.0
557.0,439.0,491.0,508.0
539.0,467.0,489.0,505.0
515.0,494.0,491.0,503.0
515.0,476.0,501.0,506.0
494.0,506.0,506.0,518.0
481.0,637.0,513.0,520.0
532.0,739.0,514.0,510.0
527.0,614.0,519.0,506.0
515.0,520.0,524.0,502.0
523.0,524.0,526.0,502.0
539.0,455.0,530.0,505.0
536.0,490.0,528.0,508.0
541.0,359.0,527.0,514.0
535.0,403.0,523.0,517.0
485.0,512.0,522.0,520.0
480.0,525.0,507.0,513.0
496.0,518.0,500.0,508.0
475.0,559.0,499.0,508.0
487.0,561.0,506.0,511.0
502.0,540.0,505.0,513.0
516.0,502.0,500.0,508.0
541.0,500.0,500.0,507.0
522.0,461.0,498.0,507.0
508.0,474.0,495.0,500.0
465.0,360.0,495.0,498.0
516.0,478.0,513.0,501.0
545.0,488.0,523.0,505.0
531.0,516.0,522.0,502.0
477.0,434.0,523.0,506.0
469.0,511.0,521.0,511.0
473.0,547.0,525.0,518.0
474.0,528.0,518.0,519.0
483.0,519.0,513.0,521.0
491.0,523.0,504.0,517.0
502.0,498.0,503.0,515.0
504.0,492.0,505.0,518.0
520.0,501.0,509.0,519.0
526.0,549.0,500.0,516.0
525.0,549.0,508.0,515.0
527.0,537.0,496.0,506.0
509.0,463.0,496.0,504.0
531.0,537.0,509.0,504.0
544.0,525.0,516.0,501.0
540.0,439.0,519.0,508.0
566.0,459.0,522.0,512.0
534.0,607.0,526.0,513.0
526.0,640.0,524.0,518.0
476.0,392.0,527.0,523.0
460.0,438.0,520.0,522.0
471.0,408.0,511.0,519.0
483.0,498.0,506.0,518.0
497.0,558.0,502.0,514.0
502.0,565.0,489.0,512.0
502.0,518.0,482.0,505.0
498.0,537.0,483.0,503.0
516.0,486.0,495.0,507.0
541.0,547.0,503.0,508.0
562.0,540.0,517.0,508.0
538.0,409.0,528.0,509.0
484.0,353.0,534.0,510.0
501.0,479.0,534.0,511.0
501.0,516.0,537.0,516.0
479.0,511.0,542.0,524.0
468.0,512.0,539.0,522.0
498.0,528.0,522.0,514.0
530.0,531.0,499.0,516.0
542.0,510.0,497.0,515.0
538.0,498.0,492.0,516.0
537.0,495.0,500.0,515.0
522.0,485.0,500.0,519.0
512.0,442.0,503.0,514.0
506.0,490.0,500.0,507.0
477.0,625.0,505.0,508.0
472.0,561.0,510.0,512.0
509.0,463.0,509.0,508.0
523.0,489.0,510.0,505.0
527.0,525.0,513.0,505.0
533.0,535.0,514.0,508.0
524.0,545.0,519.0,512.0
490.0,526.0,527.0,513.0
488.0,436.0,507.0,507.0
491.0,396.0,500.0,508.0
488.0,486.0,494.0,506.0
512.0,537.0,493.0,505.0
520.0,518.0,495.0,516.0
500.0,516.0,502.0,519.0
508.0,535.0,505.0,522.0
509.0,500.0,511.0,522.0
517.0,477.0,509.0,524.0
515.0,485.0,513.0,522.0
530.0,501.0,519.0,514.0
546.0,469.0,528.0,511.0
542.0,484.0,534.0,509.0
515.0,509.0,538.0,513.0
513.0,522.0,532.0,512.0
522.0,541.0,525.0,508.0
526.0,503.0,511.0,507.0
517.0,478.0,509.0,513.0
526.0,424.0,499.0,515.0
515.0,414.0,497.0,511.0
518.0,452.0,498.0,518.0
530.0,446.0,498.0,521.0
505.0,575.0,507.0,522.0
544.0,697.0,508.0,519.0
530.0,755.0,500.0,513.0
503.0,569.0,511.0,512.0
487.0,363.0,521.0,518.0
497.0,368.0,517.0,515.0
551.0,464.0,533.0,513.0
546.0,500.0,535.0,507.0
496.0,684.0,526.0,513.0
497.0,587.0,525.0,515.0
490.0,517.0,526.0,511.0
463.0,538.0,521.0,515.0
458.0,479.0,514.0,521.0
467.0,456.0,503.0,526.0
481.0,467.0,494.0,515.0
498.0,550.0,492.0,517.0
496.0,482.0,492.0,516.0
494.0,463.0,497.0,516.0
508.0,487.0,500.0,514.0
500.0,483.0,510.0,517.0
507.0,519.0,527.0,525.0
515.0,517.0,530.0,526.0
537.0,536.0,537.0,520.0
541.0,534.0,550.0,526.0
542.0,460.0,559.0,529.0
535.0,495.0,549.0,529.0
523.0,553.0,528.0,521.0
533.0,535.0,498.0,499.0
522.0,424.0,484.0,495.0
544.0,460.0,486.0,499.0
512.0,348.0,490.0,511.0
509.0,436.0,496.0,516.0
502.0,536.0,497.0,517.0
498.0,576.0,499.0,516.0
521.0,547.0,491.0,512.0
480.0,383.0,493.0,518.0
443.0,536.0,501.0,516.0
487.0,522.0,507.0,508.0
523.0,566.0,506.0,504.0
522.0,545.0,518.0,508.0
524.0,572.0,519.0,509.0
532.0,600.0,521.0,512.0
520.0,523.0,522.0,515.0
519.0,498.0,517.0,511.0
507.0,468.0,518.0,515.0
487.0,486.0,513.0,519.0
493.0,482.0,507.0,520.0
494.0,501.0,500.0,518.0
488.0,471.0,506.0,517.0
519.0,463.0,502.0,519.0
550.0,441.0,505.0,527.0
552.0,478.0,508.0,524.0
539.0,483.0,509.0,515.0
509.0,461.0,513.0,509.0
469.0,571.0,504.0,507.0
476.0,576.0,514.0,503.0
509.0,541.0,519.0,502.0
508.0,517.0,528.0,509.0
515.0,512.0,535.0,519.0
514.0,508.0,537.0,523.0
515.0,547.0,535.0,520.0
515.0,510.0,530.0,523.0
518.0,494.0,524.0,521.0
509.0,486.0,508.0,517.0
507.0,474.0,491.0,516.0
501.0,503.0,477.0,505.0
489.0,524.0,475.0,501.0
511.0,491.0,482.0,501.0
528.0,475.0,491.0,506.0
526.0,435.0,495.0,508.0
526.0,446.0,502.0,509.0
526.0,475.0,505.0,506.0
516.0,532.0,513.0,502.0
490.0,535.0,515.0,502.0
512.0,516.0,527.0,503.0
518.0,471.0,532.0,509.0
534.0,549.0,526.0,514.0
536.0,597.0,530.0,516.0
537.0,533.0,523.0,520.0
529.0,450.0,518.0,522.0
515.0,377.0,508.0,523.0
534.0,477.0,502.0,521.0
512.0,555.0,498.0,518.0
454.0,619.0,489.0,517.0
460.0,593.0,487.0,510.0
498.0,564.0,491.0,510.0
513.0,559.0,501.0,509.0
533.0,537.0,506.0,513.0
528.0,437.0,528.0,516.0
536.0,534.0,523.0,511.0
544.0,465.0,531.0,516.0
555.0,512.0,538.0,520.0
515.0,543.0,536.0,521.0
491.0,536.0,530.0,518.0
501.0,479.0,528.0,521.0
506.0,392.0,519.0,519.0
515.0,522.0,500.0,515.0
521.0,531.0,492.0,510.0
513.0,710.0,497.0,514.0
480.0,504.0,496.0,518.0
459.0,335.0,498.0,520.0
480.0,424.0,507.0,520.0
536.0,437.0,508.0,510.0
561.0,474.0,498.0,506.0
550.0,484.0,509.0,511.0
534.0,533.0,524.0,516.0
509.0,526.0,531.0,518.0
479.0,548.0,531.0,520.0
488.0,495.0,543.0,521.0
494.0,550.0,543.0,514.0
514.0,506.0,531.0,514.0
510.0,563.0,538.0,521.0
506.0,578.0,516.0,518.0
501.0,538.0,492.0,513.0
486.0,433.0,489.0,514.0
489.0,474.0,482.0,510.0
496.0,471.0,485.0,517.0
503.0,503.0,491.0,519.0
518.0,530.0,501.0,522.0
518.0,545.0,513.0,523.0
515.0,557.0,528.0,522.0
516.0,540.0,546.0,522.0
516.0,440.0,535.0,520.0
529.0,510.0,536.0,519.0
531.0,515.0,561.0,522.0
518.0,494.0,548.0,525.0
517.0,514.0,525.0,520.0
514.0,493.0,517.0,512.0
487.0,512.0,514.0,516.0
498.0,484.0,518.0,526.0
500.0,489.0,506.0,524.0
503.0,501.0,486.0,519.0
503.0,527.0,473.0,514.0
512.0,536.0,488.0,505.0
516.0,507.0,484.0,503.0
520.0,522.0,485.0,505.0
508.0,519.0,493.0,503.0
515.0,498.0,501.0,508.0
509.0,450.0,516.0,512.0
517.0,493.0,526.0,515.0
524.0,551.0,532.0,516.0
524.0,456.0,527.0,517.0
541.0,449.0,528.0,514.0
543.0,495.0,525.0,515.0
528.0,478.0,516.0,513.0
495.0,430.0,505.0,515.0
458.0,414.0,498.0,518.0
470.0,440.0,494.0,520.0
495.0,494.0,488.0,518.0
507.0,543.0,489.0,514.0
512.0,537.0,493.0,515.0
514.0,526.0,494.0,508.0
495.0,497.0,498.0,511.0
509.0,491.0,510.0,515.0
546.0,555.0,527.0,519.0
548.0,512.0,527.0,515.0
563.0,513.0,529.0,519.0
552.0,504.0,541.0,521.0
513.0,496.0,544.0,520.0
462.0,495.0,528.0,514.0
497.0,496.0,522.0,516.0
506.0,527.0,514.0,515.0
506.0,516.0,499.0,509.0
502.0,516.0,489.0,504.0
512.0,485.0,483.0,509.0
522.0,508.0,480.0,508.0
507.0,572.0,485.0,513.0
492.0,595.0,489.0,511.0
522.0,563.0,495.0,512.0
532.0,502.0,500.0,511.0
524.0,503.0,506.0,513.0
510.0,536.0,517.0,511.0
514.0,544.0,522.0,514.0
488.0,372.0,528.0,513.0
507.0,540.0,529.0,514.0
533.0,561.0,528.0,516.0
517.0,487.0,530.0,515.0
519.0,467.0,524.0,513.0
505.0,469.0,519.0,513.0
499.0,469.0,510.0,517.0
517.0,452.0,506.0,523.0
529.0,469.0,502.0,519.0
529.0,506.0,499.0,520.0
523.0,562.0,500.0,521.0
461.0,565.0,494.0,516.0
469.0,585.0,498.0,512.0
506.0,563.0,500.0,512.0
520.0,533.0,513.0,514.0
517.0,486.0,519.0,516.0
517.0,473.0,524.0,515.0
531.0,488.0,530.0,514.0
536.0,495.0,537.0,517.0
535.0,509.0,533.0,516.0
524.0,490.0,530.0,517.0
484.0,497.0,525.0,516.0
488.0,514.0,515.0,515.0
503.0,487.0,509.0,522.0
508.0,471.0,503.0,523.0
510.0,502.0,498.0,522.0
501.0,530.0,497.0,522.0
499.0,521.0,507.0,523.0
494.0,510.0,505.0,521.0
512.0,521.0,506.0,518.0
514.0,480.0,510.0,519.0
511.0,491.0,516.0,517.0
521.0,543.0,518.0,519.0
531.0,541.0,526.0,516.0
521.0,570.0,527.0,513.0
538.0,615.0,534.0,515.0
521.0,457.0,534.0,518.0
512.0,473.0,533.0,522.0
493.0,440.0,524.0,524.0
483.0,461.0,516.0,523.0
480.0,485.0,509.0,526.0
494.0,486.0,499.0,521.0
504.0,489.0,491.0,515.0
515.0,493.0,493.0,518.0
513.0,469.0,513.0,520.0
508.0,472.0,501.0,517.0
508.0,530.0,498.0,514.0
514.0,520.0,507.0,514.0
516.0,514.0,521.0,515.0
523.0,533.0,528.0,515.0
522.0,490.0,523.0,511.0
518.0,467.0,521.0,508.0
509.0,448.0,525.0,511.0
507.0,480.0,527.0,518.0
517.0,550.0,532.0,518.0
511.0,533.0,523.0,518.0
506.0,513.0,506.0,519.0
497.0,489.0,505.0,524.0
505.0,473.0,508.0,529.0
523.0,491.0,509.0,528.0
523.0,482.0,512.0,530.0
509.0,474.0,528.0,531.0
506.0,523.0,522.0,534.0
513.0,468.0,502.0,521.0
545.0,550.0,503.0,513.0
547.0,557.0,503.0,506.0
535.0,517.0,505.0,499.0
505.0,484.0,517.0,503.0
496.0,528.0,526.0,509.0
502.0,544.0,522.0,507.0
514.0,543.0,520.0,513.0
512.0,532.0,515.0,507.0
494.0,461.0,508.0,509.0
493.0,477.0,501.0,516.0
492.0,496.0,497.0,520.0
508.0,527.0,507.0,523.0
510.0,512.0,504.0,517.0
515.0,524.0,487.0,511.0
515.0,513.0,491.0,514.0
506.0,498.0,498.0,515.0
490.0,463.0,504.0,511.0
511.0,508.0,510.0,506.0
522.0,571.0,518.0,517.0
525.0,540.0,527.0,515.0
525.0,531.0,534.0,512.0
527.0,537.0,533.0,512.0
512.0,429.0,529.0,510.0
521.0,467.0,528.0,512.0
512.0,458.0,520.0,516.0
510.0,483.0,514.0,516.0
495.0,464.0,507.0,520.0
480.0,512.0,503.0,521.0
466.0,441.0,499.0,523.0
488.0,436.0,496.0,518.0
511.0,495.0,495.0,519.0
512.0,550.0,498.0,515.0
517.0,557.0,503.0,521.0
511.0,550.0,504.0,512.0
503.0,528.0,513.0,511.0
516.0,542.0,523.0,512.0
515.0,546.0,529.0,516.0
513.0,524.0,534.0,514.0
519.0,463.0,535.0,519.0
522.0,455.0,533.0,515.0
523.0,487.0,529.0,521.0
505.0,494.0,520.0,518.0
475.0,494.0,512.0,520.0
465.0,516.0,504.0,519.0
489.0,529.0,501.0,522.0
509.0,523.0,496.0,521.0
510.0,509.0,499.0,521.0
522.0,503.0,500.0,519.0
514.0,520.0,499.0,520.0
503.0,511.0,503.0,513.0
489.0,506.0,508.0,512.0
490.0,506.0,517.0,514.0
504.0,516.0,525.0,512.0
517.0,518.0,526.0,515.0
524.0,502.0,531.0,516.0
516.0,482.0,533.0,517.0
524.0,480.0,525.0,515.0
543.0,505.0,522.0,516.0
551.0,533.0,516.0,523.0
539.0,528.0,508.0,521.0
518.0,522.0,503.0,521.0
505.0,434.0,499.0,525.0
509.0,521.0,497.0,524.0
517.0,520.0,495.0,518.0
521.0,525.0,498.0,518.0
527.0,532.0,503.0,518.0
525.0,520.0,506.0,516.0
527.0,517.0,515.0,517.0
532.0,512.0,517.0,516.0
534.0,510.0,529.0,519.0
536.0,520.0,534.0,518.0
535.0,518.0,537.0,521.0
523.0,506.0,535.0,521.0
522.0,506.0,529.0,520.0
511.0,497.0,517.0,519.0
509.0,497.0,512.0,522.0
508.0,491.0,508.0,521.0
507.0,498.0,505.0,525.0
509.0,503.0,501.0,527.0
508.0,503.0,500.0,524.0
512.0,498.0,501.0,519.0
520.0,505.0,501.0,516.0
518.0,506.0,501.0,516.0
523.0,526.0,508.0,514.0
528.0,535.0,516.0,518.0
536.0,531.0,523.0,515.0
525.0,458.0,531.0,517.0
527.0,497.0,537.0,515.0
526.0,515.0,538.0,520.0
519.0,501.0,534.0,518.0
521.0,499.0,530.0,519.0
510.0,497.0,520.0,527.0
506.0,496.0,511.0,523.0
511.0,497.0,506.0,520.0
512.0,495.0,500.0,524.0
508.0,474.0,501.0,525.0
508.0,491.0,502.0,523.0
505.0,478.0,502.0,520.0
506.0,501.0,504.0,520.0
500.0,482.0,509.0,519.0
510.0,512.0,514.0,519.0
515.0,563.0,525.0,519.0
516.0,512.0,529.0,517.0
521.0,495.0,535.0,517.0
528.0,506.0,539.0,518.0
528.0,524.0,543.0,521.0
524.0,537.0,541.0,521.0
515.0,515.0,527.0,519.0
502.0,501.0,512.0,519.0
502.0,498.0,513.0,522.0
499.0,501.0,505.0,528.0
503.0,498.0,505.0,525.0
508.0,511.0,500.0,525.0
507.0,520.0,516.0,526.0
507.0,505.0,513.0,523.0
513.0,506.0,497.0,520.0
509.0,500.0,509.0,517.0
514.0,519.0,517.0,518.0
523.0,523.0,523.0,513.0
524.0,517.0,525.0,515.0
522.0,505.0,536.0,516.0
525.0,501.0,538.0,518.0
517.0,496.0,537.0,519.0
519.0,511.0,534.0,516.0
505.0,500.0,528.0,522.0
502.0,497.0,518.0,522.0
504.0,500.0,508.0,523.0
506.0,502.0,510.0,525.0
509.0,500.0,505.0,519.0
510.0,503.0,497.0,523.0
501.0,496.0,500.0,522.0
506.0,506.0,501.0,520.0
509.0,524.0,506.0,519.0
508.0,507.0,512.0,515.0
514.0,513.0,520.0,513.0
521.0,503.0,527.0,515.0
530.0,503.0,531.0,516.0
532.0,512.0,537.0,517.0
527.0,512.0,536.0,523.0
523.0,490.0,535.0,517.0
526.0,502.0,532.0,519.0
518.0,492.0,524.0,521.0
509.0,486.0,515.0,518.0
493.0,497.0,508.0,528.0
488.0,505.0,504.0,523.0
484.0,494.0,501.0,525.0
493.0,510.0,501.0,521.0
490.0,502.0,501.0,522.0
496.0,518.0,507.0,523.0
499.0,513.0,507.0,519.0
505.0,529.0,513.0,511.0
508.0,508.0,520.0,512.0
523.0,514.0,527.0,516.0
538.0,522.0,532.0,518.0
538.0,525.0,538.0,516.0
526.0,516.0,537.0,516.0
523.0,509.0,532.0,517.0
517.0,502.0,533.0,520.0
511.0,503.0,520.0,522.0
504.0,509.0,512.0,526.0
508.0,509.0,504.0,523.0
506.0,512.0,505.0,522.0
506.0,512.0,503.0,521.0
511.0,509.0,497.0,517.0
508.0,509.0,504.0,519.0
516.0,513.0,504.0,518.0
512.0,509.0,506.0,515.0
517.0,507.0,514.0,511.0
518.0,506.0,522.0,515.0
520.0,509.0,530.0,517.0
525.0,513.0,539.0,517.0
529.0,515.0,542.0,517.0
520.0,505.0,537.0,517.0
518.0,506.0,533.0,518.0
507.0,491.0,525.0,519.0
500.0,493.0,516.0,521.0
498.0,496.0,509.0,522.0
501.0,503.0,505.0,521.0
504.0,505.0,497.0,520.0
506.0,511.0,506.0,527.0
509.0,513.0,508.0,523.0
513.0,517.0,507.0,516.0
514.0,512.0,499.0,511.0
510.0,502.0,507.0,513.0
517.0,504.0,533.0,518.0
525.0,511.0,530.0,520.0
533.0,523.0,528.0,510.0
532.0,521.0,539.0,509.0
530.0,508.0,532.0,516.0
516.0,476.0,532.0,515.0
512.0,497.0,530.0,515.0
504.0,496.0,520.0,527.0
500.0,497.0,515.0,521.0
499.0,504.0,509.0,521.0
505.0,510.0,497.0,521.0
505.0,511.0,496.0,520.0
510.0,515.0,506.0,517.0
506.0,512.0,500.0,519.0
513.0,517.0,500.0,515.0
513.0,524.0,506.0,515.0
515.0,526.0,508.0,512.0
518.0,520.0,528.0,514.0
526.0,493.0,528.0,510.0
520.0,458.0,539.0,514.0
527.0,503.0,545.0,514.0
524.0,509.0,540.0,514.0
521.0,512.0,533.0,511.0
513.0,512.0,527.0,517.0
504.0,498.0,518.0,518.0
498.0,489.0,511.0,521.0
504.0,495.0,505.0,523.0
503.0,497.0,511.0,522.0
510.0,505.0,496.0,517.0
511.0,511.0,498.0,517.0
508.0,496.0,495.0,516.0
513.0,517.0,507.0,520.0
505.0,517.0,528.0,515.0
509.0,503.0,515.0,509.0
514.0,498.0,518.0,509.0
526.0,521.0,529.0,513.0
526.0,521.0,534.0,514.0
529.0,525.0,543.0,516.0
521.0,518.0,538.0,513.0
517.0,514.0,532.0,513.0
504.0,509.0,526.0,517.0
505.0,504.0,520.0,519.0
504.0,483.0,511.0,519.0
501.0,483.0,505.0,520.0
503.0,509.0,503.0,518.0
503.0,520.0,501.0,521.0
510.0,513.0,501.0,514.0
515.0,514.0,505.0,514.0
509.0,495.0,505.0,511.0
512.0,490.0,514.0,509.0
506.0,514.0,521.0,508.0
513.0,499.0,528.0,511.0
528.0,504.0,537.0,507.0
527.0,528.0,542.0,512.0
526.0,524.0,543.0,520.0
523.0,514.0,537.0,513.0
515.0,512.0,532.0,514.0
505.0,507.0,527.0,517.0
502.0,503.0,518.0,516.0
501.0,516.0,506.0,517.0
502.0,532.0,505.0,518.0
506.0,535.0,505.0,518.0
507.0,502.0,500.0,516.0
504.0,495.0,501.0,515.0
509.0,510.0,504.0,513.0
508.0,507.0,508.0,509.0
510.0,500.0,517.0,507.0
519.0,496.0,523.0,508.0
524.0,495.0,530.0,509.0
528.0,496.0,538.0,516.0
523.0,501.0,541.0,513.0
516.0,488.0,541.0,512.0
515.0,497.0,537.0,510.0
510.0,504.0,532.0,520.0
499.0,500.0,524.0,515.0
498.0,498.0,512.0,515.0
496.0,503.0,507.0,519.0
500.0,517.0,504.0,518.0
495.0,523.0,503.0,518.0
502.0,520.0,503.0,520.0
505.0,514.0,503.0,516.0
509.0,513.0,506.0,513.0
510.0,511.0,509.0,511.0
511.0,512.0,518.0,510.0
522.0,515.0,525.0,509.0
526.0,511.0,534.0,510.0
519.0,508.0,545.0,511.0
518.0,508.0,543.0,510.0
505.0,497.0,542.0,512.0
504.0,498.0,537.0,514.0
497.0,488.0,528.0,514.0
493.0,490.0,519.0,522.0
480.0,496.0,513.0,517.0
489.0,498.0,504.0,519.0
500.0,511.0,503.0,519.0
507.0,515.0,499.0,516.0
510.0,517.0,503.0,516.0
509.0,514.0,503.0,513.0
511.0,505.0,507.0,512.0
526.0,504.0,513.0,509.0
539.0,502.0,521.0,506.0
546.0,525.0,528.0,505.0
545.0,524.0,535.0,511.0
540.0,517.0,541.0,509.0
535.0,512.0,540.0,511.0
525.0,501.0,540.0,512.0
524.0,498.0,534.0,513.0
509.0,481.0,525.0,516.0
508.0,487.0,517.0,513.0
509.0,507.0,507.0,517.0
509.0,518.0,501.0,517.0
511.0,517.0,503.0,523.0
516.0,510.0,500.0,517.0
513.0,500.0,500.0,514.0
520.0,516.0,503.0,514.0
518.0,518.0,507.0,512.0
519.0,515.0,513.0,507.0
519.0,518.0,522.0,509.0
522.0,507.0,528.0,509.0
529.0,515.0,537.0,510.0
524.0,514.0,537.0,511.0
523.0,499.0,539.0,511.0
518.0,505.0,533.0,511.0
518.0,506.0,530.0,513.0
502.0,443.0,520.0,514.0
502.0,509.0,512.0,515.0
502.0,514.0,507.0,514.0
502.0,485.0,502.0,519.0
501.0,481.0,498.0,517.0
508.0,505.0,499.0,518.0
506.0,504.0,499.0,512.0
514.0,522.0,504.0,512.0
511.0,523.0,509.0,509.0
514.0,518.0,513.0,508.0
516.0,512.0,518.0,508.0
523.0,514.0,531.0,509.0
530.0,516.0,536.0,512.0
531.0,514.0,539.0,510.0
523.0,488.0,536.0,513.0
517.0,518.0,533.0,511.0
506.0,500.0,527.0,512.0
508.0,503.0,515.0,514.0
506.0,510.0,508.0,512.0
503.0,513.0,504.0,516.0
507.0,505.0,500.0,512.0
508.0,507.0,498.0,515.0
503.0,507.0,497.0,513.0
503.0,509.0,500.0,509.0
510.0,516.0,503.0,507.0
509.0,516.0,505.0,508.0
519.0,516.0,517.0,507.0
519.0,516.0,523.0,508.0
528.0,535.0,532.0,508.0
520.0,534.0,538.0,507.0
523.0,536.0,540.0,509.0
515.0,521.0,531.0,508.0
512.0,471.0,532.0,511.0
498.0,442.0,522.0,512.0
495.0,478.0,513.0,516.0
500.0,493.0,504.0,515.0
498.0,504.0,498.0,515.0
500.0,509.0,497.0,516.0
508.0,504.0,497.0,516.0
505.0,511.0,497.0,513.0
508.0,510.0,499.0,513.0
512.0,505.0,504.0,508.0
513.0,516.0,511.0,507.0
516.0,519.0,518.0,506.0
522.0,516.0,525.0,507.0
525.0,521.0,534.0,506.0
525.0,516.0,537.0,507.0
519.0,514.0,540.0,510.0
518.0,512.0,534.0,510.0
516.0,508.0,528.0,511.0
501.0,482.0,517.0,512.0
501.0,484.0,505.0,513.0
499.0,495.0,503.0,514.0
502.0,503.0,500.0,518.0
504.0,507.0,496.0,514.0
508.0,511.0,498.0,517.0
506.0,508.0,496.0,513.0
510.0,511.0,501.0,508.0
509.0,507.0,506.0,509.0
510.0,502.0,508.0,507.0
514.0,498.0,520.0,504.0
521.0,499.0,529.0,506.0
525.0,500.0,535.0,504.0
527.0,513.0,538.0,508.0
523.0,513.0,534.0,510.0
521.0,509.0,529.0,511.0
512.0,497.0,524.0,509.0
501.0,492.0,515.0,515.0
496.0,494.0,507.0,514.0
497.0,501.0,499.0,517.0
494.0,503.0,497.0,517.0
506.0,511.0,497.0,515.0
510.0,516.0,496.0,516.0
506.0,509.0,502.0,514.0
514.0,511.0,503.0,510.0
510.0,505.0,503.0,506.0
516.0,503.0,512.0,504.0
519.0,504.0,521.0,507.0
517.0,516.0,530.0,507.0
526.0,515.0,536.0,506.0
525.0,506.0,537.0,510.0
511.0,490.0,536.0,511.0
516.0,484.0,530.0,510.0
502.0,473.0,521.0,509.0
500.0,492.0,510.0,514.0
503.0,507.0,505.0,516.0
502.0,512.0,499.0,519.0
506.0,525.0,496.0,517.0
515.0,528.0,495.0,517.0
513.0,520.0,497.0,514.0
516.0,524.0,498.0,513.0
518.0,519.0,504.0,511.0
515.0,504.0,509.0,506.0
512.0,501.0,519.0,506.0
512.0,520.0,524.0,507.0
512.0,519.0,533.0,509.0
521.0,515.0,533.0,509.0
523.0,506.0,535.0,510.0
515.0,499.0,529.0,511.0
514.0,495.0,529.0,510.0
506.0,489.0,517.0,512.0
504.0,490.0,508.0,511.0
502.0,500.0,499.0,516.0
505.0,510.0,497.0,519.0
502.0,510.0,498.0,518.0
508.0,518.0,496.0,516.0
504.0,507.0,498.0,513.0
513.0,509.0,498.0,511.0
512.0,508.0,501.0,512.0
512.0,513.0,509.0,508.0
511.0,513.0,522.0,508.0
521.0,517.0,531.0,506.0
524.0,517.0,527.0,506.0
526.0,510.0,534.0,510.0
519.0,499.0,534.0,510.0
517.0,487.0,530.0,512.0
505.0,471.0,522.0,510.0
502.0,469.0,515.0,513.0
500.0,475.0,503.0,514.0
503.0,498.0,498.0,517.0
504.0,531.0,492.0,518.0
507.0,557.0,495.0,516.0
512.0,560.0,495.0,513.0
513.0,559.0,496.0,516.0
510.0,486.0,500.0,511.0
508.0,495.0,502.0,508.0
510.0,498.0,520.0,508.0
519.0,489.0,521.0,510.0
524.0,504.0,526.0,508.0
526.0,507.0,531.0,509.0
524.0,513.0,534.0,507.0
515.0,499.0,530.0,507.0
509.0,503.0,529.0,512.0
505.0,498.0,520.0,510.0
501.0,497.0,511.0,515.0
501.0,506.0,502.0,513.0
501.0,501.0,496.0,518.0
505.0,504.0,496.0,515.0
506.0,512.0,494.0,513.0
508.0,512.0,495.0,513.0
512.0,523.0,497.0,511.0
509.0,514.0,508.0,513.0
512.0,501.0,505.0,507.0
514.0,495.0,515.0,505.0
522.0,499.0,522.0,507.0
528.0,510.0,532.0,506.0
525.0,509.0,536.0,508.0
524.0,515.0,537.0,509.0
516.0,505.0,531.0,510.0
517.0,507.0,525.0,512.0
504.0,501.0,517.0,515.0
502.0,504.0,510.0,516.0
506.0,503.0,503.0,516.0
505.0,496.0,494.0,516.0
502.0,499.0,494.0,521.0
504.0,513.0,494.0,515.0
504.0,504.0,493.0,512.0
509.0,505.0,497.0,513.0
508.0,489.0,502.0,508.0
509.0,465.0,514.0,509.0
517.0,472.0,517.0,509.0
523.0,485.0,525.0,509.0
526.0,483.0,532.0,511.0
528.0,562.0,536.0,512.0
517.0,555.0,536.0,510.0
516.0,508.0,533.0,510.0
508.0,497.0,526.0,515.0
506.0,498.0,517.0,516.0
503.0,496.0,508.0,515.0
500.0,510.0,499.0,515.0
498.0,521.0,495.0,516.0
500.0,525.0,493.0,513.0
503.0,519.0,493.0,516.0
505.0,516.0,494.0,511.0
509.0,512.0,497.0,513.0
507.0,510.0,503.0,510.0
512.0,510.0,513.0,507.0
517.0,509.0,522.0,505.0
522.0,510.0,531.0,506.0
524.0,515.0,537.0,509.0
525.0,510.0,538.0,511.0
517.0,501.0,534.0,509.0
518.0,495.0,526.0,511.0
504.0,489.0,517.0,511.0
503.0,490.0,509.0,520.0
497.0,494.0,502.0,523.0
503.0,496.0,495.0,524.0
504.0,493.0,490.0,524.0
506.0,505.0,490.0,516.0
507.0,508.0,490.0,511.0
514.0,518.0,496.0,508.0
515.0,532.0,500.0,509.0
510.0,530.0,505.0,507.0
512.0,502.0,515.0,506.0
520.0,506.0,524.0,509.0
522.0,505.0,532.0,509.0
520.0,501.0,539.0,512.0
520.0,493.0,539.0,515.0
515.0,487.0,532.0,515.0
516.0,491.0,526.0,516.0
504.0,500.0,516.0,517.0
501.0,507.0,508.0,520.0
501.0,515.0,506.0,524.0
504.0,512.0,505.0,528.0
505.0,511.0,507.0,531.0
511.0,515.0,504.0,529.0
506.0,504.0,500.0,530.0
509.0,509.0,501.0,512.0
512.0,504.0,498.0,499.0
515.0,504.0,501.0,496.0
515.0,509.0,508.0,497.0
520.0,516.0,515.0,498.0
521.0,515.0,520.0,498.0
523.0,509.0,527.0,504.0
519.0,502.0,527.0,504.0
516.0,500.0,524.0,503.0
510.0,487.0,518.0,504.0
501.0,484.0,512.0,508.0
502.0,489.0,503.0,510.0
503.0,487.0,497.0,514.0
509.0,492.0,491.0,514.0
511.0,497.0,487.0,512.0
516.0,497.0,492.0,511.0
510.0,498.0,494.0,511.0
508.0,519.0,494.0,510.0
506.0,528.0,500.0,505.0
508.0,544.0,511.0,508.0
516.0,543.0,517.0,507.0
522.0,528.0,528.0,508.0
526.0,497.0,534.0,507.0
528.0,492.0,535.0,516.0
522.0,509.0,528.0,509.0
522.0,522.0,527.0,510.0
501.0,448.0,520.0,515.0
500.0,464.0,510.0,515.0
496.0,506.0,504.0,515.0
495.0,509.0,497.0,517.0
501.0,521.0,494.0,511.0
509.0,528.0,494.0,518.0
505.0,515.0,496.0,516.0
508.0,517.0,497.0,514.0
509.0,512.0,501.0,519.0
512.0,492.0,506.0,508.0
517.0,493.0,517.0,510.0
525.0,501.0,523.0,511.0
529.0,507.0,532.0,506.0
527.0,509.0,534.0,512.0
524.0,522.0,538.0,513.0
517.0,509.0,531.0,513.0
514.0,508.0,529.0,515.0
499.0,494.0,516.0,514.0
496.0,491.0,507.0,511.0
492.0,489.0,505.0,517.0
502.0,502.0,495.0,514.0
505.0,516.0,494.0,516.0
511.0,515.0,496.0,514.0
507.0,506.0,496.0,513.0
507.0,507.0,499.0,513.0
508.0,504.0,502.0,510.0
509.0,508.0,508.0,508.0
512.0,511.0,517.0,507.0
523.0,514.0,522.0,507.0
527.0,514.0,527.0,506.0
522.0,518.0,536.0,510.0
520.0,514.0,533.0,507.0
519.0,506.0,527.0,512.0
510.0,499.0,522.0,512.0
502.0,497.0,514.0,515.0
502.0,498.0,504.0,516.0
502.0,497.0,497.0,518.0
507.0,506.0,495.0,519.0
502.0,508.0,498.0,519.0
506.0,514.0,492.0,516.0
505.0,509.0,495.0,515.0
510.0,511.0,500.0,515.0
509.0,506.0,506.0,510.0
511.0,505.0,513.0,509.0
519.0,508.0,523.0,510.0
522.0,507.0,529.0,510.0
523.0,507.0,532.0,507.0
525.0,490.0,534.0,510.0
515.0,470.0,528.0,511.0
517.0,472.0,526.0,513.0
506.0,493.0,520.0,514.0
503.0,514.0,513.0,514.0
503.0,528.0,501.0,515.0
501.0,513.0,496.0,517.0
504.0,516.0,495.0,516.0
511.0,517.0,493.0,517.0
504.0,509.0,493.0,516.0
511.0,506.0,496.0,514.0
513.0,507.0,498.0,509.0
512.0,505.0,506.0,508.0
516.0,506.0,513.0,507.0
521.0,515.0,523.0,510.0
526.0,521.0,529.0,511.0
526.0,510.0,536.0,510.0
527.0,505.0,535.0,519.0
520.0,498.0,532.0,513.0
523.0,495.0,526.0,511.0
510.0,480.0,516.0,519.0
504.0,480.0,508.0,517.0
506.0,491.0,501.0,514.0
495.0,510.0,495.0,517.0
493.0,519.0,494.0,520.0
507.0,526.0,493.0,519.0
505.0,528.0,496.0,515.0
510.0,523.0,498.0,511.0
506.0,514.0,499.0,511.0
512.0,487.0,504.0,507.0
503.0,449.0,514.0,511.0
510.0,468.0,525.0,510.0
518.0,506.0,529.0,509.0
520.0,533.0,535.0,510.0
519.0,518.0,532.0,508.0
515.0,508.0,527.0,512.0
509.0,500.0,523.0,514.0
503.0,497.0,514.0,516.0
500.0,490.0,505.0,515.0
502.0,496.0,502.0,520.0
504.0,508.0,497.0,521.0
504.0,508.0,495.0,515.0
508.0,510.0,495.0,517.0
506.0,509.0,500.0,514.0
510.0,503.0,503.0,513.0
510.0,506.0,507.0,511.0
516.0,509.0,513.0,509.0
517.0,505.0,520.0,507.0
526.0,504.0,524.0,507.0
525.0,504.0,531.0,506.0
525.0,505.0,536.0,509.0
519.0,498.0,530.0,512.0
520.0,512.0,529.0,511.0
508.0,501.0,520.0,511.0
503.0,510.0,513.0,516.0
501.0,511.0,501.0,518.0
505.0,507.0,498.0,519.0
504.0,503.0,493.0,518.0
506.0,499.0,490.0,517.0
503.0,501.0,491.0,516.0
509.0,507.0,494.0,512.0
509.0,515.0,495.0,511.0
511.0,509.0,505.0,506.0
515.0,500.0,513.0,507.0
522.0,496.0,523.0,510.0
526.0,478.0,530.0,509.0
524.0,475.0,535.0,510.0
522.0,491.0,535.0,506.0
513.0,509.0,530.0,511.0
515.0,500.0,526.0,511.0
499.0,483.0,515.0,515.0
499.0,488.0,509.0,516.0
498.0,493.0,501.0,518.0
499.0,502.0,497.0,519.0
502.0,523.0,492.0,520.0
506.0,526.0,490.0,515.0
507.0,525.0,488.0,512.0
511.0,529.0,495.0,510.0
512.0,518.0,499.0,509.0
512.0,515.0,505.0,507.0
513.0,512.0,516.0,510.0
522.0,513.0,524.0,506.0
525.0,511.0,529.0,509.0
526.0,505.0,535.0,509.0
520.0,497.0,535.0,513.0
513.0,497.0,531.0,513.0
510.0,490.0,525.0,513.0
504.0,496.0,512.0,515.0
500.0,505.0,506.0,516.0
501.0,496.0,498.0,517.0
504.0,496.0,493.0,520.0
505.0,500.0,491.0,514.0
510.0,523.0,491.0,513.0
506.0,532.0,489.0,510.0
513.0,536.0,495.0,506.0
514.0,540.0,502.0,505.0
512.0,495.0,509.0,504.0
517.0,502.0,517.0,507.0
518.0,509.0,526.0,508.0
522.0,489.0,532.0,508.0
524.0,496.0,535.0,510.0
512.0,492.0,531.0,511.0
514.0,493.0,526.0,512.0
503.0,489.0,513.0,512.0
501.0,493.0,509.0,516.0
500.0,499.0,502.0,518.0
502.0,507.0,497.0,518.0
505.0,514.0,492.0,516.0
508.0,512.0,494.0,518.0
511.0,508.0,493.0,515.0
510.0,510.0,497.0,514.0
509.0,504.0,500.0,512.0
508.0,489.0,508.0,511.0
517.0,488.0,514.0,507.0
522.0,498.0,520.0,512.0
528.0,507.0,534.0,510.0
528.0,528.0,535.0,510.0
523.0,534.0,536.0,510.0
512.0,476.0,531.0,508.0
512.0,488.0,527.0,513.0
499.0,492.0,518.0,517.0
498.0,492.0,509.0,517.0
502.0,489.0,500.0,523.0
504.0,504.0,498.0,519.0
507.0,518.0,493.0,519.0
512.0,528.0,494.0,518.0
510.0,528.0,495.0,516.0
511.0,531.0,496.0,514.0
512.0,516.0,501.0,508.0
510.0,502.0,506.0,509.0
506.0,507.0,517.0,511.0
512.0,498.0,524.0,509.0
521.0,500.0,527.0,508.0
524.0,493.0,535.0,510.0
522.0,484.0,531.0,510.0
512.0,488.0,530.0,512.0
510.0,501.0,524.0,513.0
497.0,498.0,512.0,514.0
500.0,503.0,507.0,518.0
506.0,515.0,499.0,517.0
501.0,507.0,494.0,520.0
506.0,510.0,490.0,518.0
512.0,524.0,494.0,516.0
508.0,517.0,494.0,512.0
512.0,520.0,495.0,512.0
510.0,521.0,502.0,509.0
510.0,494.0,509.0,510.0
515.0,504.0,516.0,508.0
523.0,514.0,525.0,510.0
522.0,507.0,532.0,516.0
523.0,514.0,533.0,512.0
519.0,511.0,533.0,511.0
521.0,510.0,526.0,512.0
510.0,500.0,520.0,511.0
503.0,499.0,509.0,516.0
497.0,503.0,504.0,518.0
501.0,504.0,498.0,519.0
504.0,491.0,494.0,519.0
506.0,501.0,493.0,517.0
506.0,509.0,492.0,513.0
504.0,509.0,496.0,514.0
509.0,505.0,496.0,511.0
507.0,499.0,505.0,508.0
511.0,496.0,512.0,510.0
520.0,497.0,520.0,509.0
523.0,507.0,528.0,507.0
526.0,519.0,533.0,511.0
521.0,520.0,535.0,509.0
515.0,505.0,529.0,512.0
515.0,502.0,528.0,511.0
504.0,488.0,518.0,514.0
501.0,498.0,507.0,516.0
500.0,505.0,499.0,518.0
506.0,513.0,497.0,520.0
505.0,517.0,495.0,518.0
508.0,509.0,494.0,521.0
509.0,507.0,495.0,512.0
509.0,507.0,496.0,512.0
509.0,498.0,499.0,511.0
511.0,504.0,508.0,507.0
518.0,503.0,515.0,509.0
522.0,503.0,519.0,508.0
527.0,502.0,531.0,510.0
528.0,495.0,532.0,510.0
527.0,496.0,535.0,515.0
526.0,500.0,527.0,514.0
523.0,496.0,526.0,516.0
513.0,494.0,514.0,516.0
504.0,494.0,507.0,519.0
505.0,495.0,500.0,520.0
508.0,504.0,500.0,522.0
493.0,513.0,498.0,519.0
496.0,520.0,501.0,520.0
502.0,518.0,500.0,519.0
506.0,519.0,505.0,518.0
507.0,508.0,507.0,508.0
509.0,512.0,511.0,507.0
515.0,516.0,517.0,508.0
519.0,515.0,526.0,508.0
528.0,516.0,531.0,508.0
527.0,515.0,535.0,509.0
520.0,507.0,530.0,510.0
518.0,505.0,527.0,510.0
508.0,486.0,518.0,505.0
502.0,473.0,507.0,516.0
498.0,486.0,501.0,514.0
498.0,493.0,496.0,511.0
497.0,492.0,493.0,515.0
504.0,494.0,491.0,512.0
510.0,492.0,491.0,508.0
506.0,499.0,491.0,508.0
504.0,511.0,498.0,509.0
506.0,511.0,500.0,506.0
515.0,543.0,511.0,506.0
516.0,536.0,522.0,507.0
525.0,521.0,528.0,506.0
530.0,513.0,531.0,506.0
526.0,512.0,534.0,510.0
517.0,474.0,530.0,510.0
522.0,491.0,526.0,512.0
509.0,499.0,514.0,511.0
500.0,496.0,508.0,519.0
498.0,507.0,503.0,512.0
499.0,505.0,494.0,517.0
502.0,506.0,494.0,515.0
506.0,508.0,494.0,517.0
505.0,518.0,495.0,515.0
503.0,525.0,497.0,516.0
509.0,520.0,502.0,509.0
511.0,515.0,506.0,509.0
514.0,498.0,514.0,507.0
521.0,504.0,523.0,511.0
525.0,513.0,533.0,511.0
525.0,512.0,536.0,512.0
521.0,507.0,536.0,513.0
516.0,500.0,531.0,511.0
515.0,498.0,525.0,507.0
505.0,497.0,513.0,512.0
503.0,504.0,508.0,516.0
505.0,506.0,501.0,516.0
506.0,515.0,496.0,520.0
506.0,520.0,494.0,518.0
510.0,511.0,495.0,516.0
508.0,497.0,492.0,512.0
511.0,500.0,500.0,513.0
508.0,486.0,502.0,508.0
512.0,475.0,510.0,510.0
517.0,490.0,517.0,509.0
526.0,508.0,528.0,508.0
523.0,517.0,533.0,508.0
525.0,531.0,534.0,510.0
521.0,521.0,532.0,511.0
520.0,515.0,528.0,511.0
510.0,495.0,523.0,513.0
497.0,447.0,511.0,514.0
498.0,483.0,504.0,517.0
503.0,505.0,497.0,516.0
506.0,508.0,496.0,517.0
506.0,505.0,494.0,517.0
512.0,504.0,495.0,516.0
508.0,500.0,494.0,513.0
513.0,511.0,498.0,510.0
509.0,505.0,503.0,509.0
515.0,501.0,513.0,508.0
519.0,506.0,522.0,511.0
523.0,517.0,529.0,507.0
522.0,516.0,533.0,509.0
520.0,508.0,536.0,513.0
515.0,498.0,533.0,515.0
514.0,500.0,530.0,515.0
502.0,486.0,519.0,517.0
496.0,486.0,511.0,518.0
504.0,492.0,501.0,518.0
503.0,506.0,496.0,517.0
504.0,512.0,495.0,517.0
509.0,517.0,494.0,517.0
509.0,515.0,491.0,513.0
509.0,515.0,496.0,512.0
511.0,508.0,501.0,509.0
511.0,499.0,507.0,508.0
516.0,501.0,517.0,508.0
522.0,510.0,524.0,507.0
530.0,519.0,532.0,508.0
533.0,521.0,537.0,508.0
535.0,523.0,534.0,511.0
520.0,493.0,527.0,509.0
514.0,485.0,524.0,511.0
502.0,490.0,515.0,513.0
495.0,487.0,505.0,515.0
493.0,489.0,499.0,519.0
501.0,496.0,495.0,519.0
500.0,497.0,492.0,517.0
503.0,500.0,494.0,518.0
502.0,494.0,496.0,516.0
507.0,494.0,498.0,514.0
512.0,495.0,502.0,511.0
514.0,519.0,510.0,506.0
519.0,513.0,516.0,509.0
522.0,521.0,523.0,507.0
525.0,530.0,529.0,507.0
526.0,525.0,532.0,509.0
519.0,513.0,531.0,508.0
517.0,516.0,527.0,511.0
512.0,508.0,522.0,511.0
510.0,498.0,511.0,515.0
508.0,490.0,506.0,516.0
506.0,488.0,500.0,514.0
504.0,514.0,497.0,518.0
505.0,537.0,495.0,518.0
505.0,511.0,496.0,518.0
505.0,500.0,499.0,515.0
512.0,511.0,500.0,517.0
512.0,507.0,504.0,511.0
514.0,506.0,512.0,513.0
514.0,516.0,518.0,510.0
522.0,517.0,529.0,509.0
525.0,515.0,535.0,512.0
524.0,507.0,537.0,511.0
517.0,492.0,532.0,513.0
514.0,493.0,531.0,510.0
502.0,487.0,519.0,513.0
498.0,489.0,509.0,514.0
497.0,504.0,499.0,514.0
499.0,516.0,496.0,515.0
502.0,520.0,493.0,513.0
507.0,521.0,492.0,514.0
506.0,514.0,491.0,509.0
509.0,511.0,493.0,510.0
508.0,501.0,498.0,510.0
507.0,500.0,500.0,506.0
512.0,500.0,513.0,507.0
522.0,505.0,521.0,511.0
526.0,505.0,529.0,507.0
524.0,498.0,533.0,508.0
526.0,497.0,533.0,511.0
516.0,494.0,528.0,503.0
515.0,495.0,524.0,513.0
504.0,490.0,515.0,514.0
499.0,494.0,507.0,514.0
502.0,505.0,500.0,518.0
503.0,506.0,496.0,519.0
501.0,508.0,493.0,519.0
509.0,512.0,494.0,519.0
504.0,509.0,496.0,515.0
510.0,522.0,500.0,514.0
509.0,514.0,503.0,513.0
511.0,507.0,513.0,513.0
517.0,502.0,520.0,514.0
520.0,505.0,531.0,513.0
522.0,509.0,538.0,513.0
524.0,508.0,538.0,514.0
519.0,499.0,534.0,508.0
514.0,497.0,526.0,515.0
506.0,488.0,517.0,509.0
499.0,484.0,506.0,510.0
496.0,491.0,507.0,514.0
500.0,500.0,497.0,514.0
503.0,504.0,491.0,516.0
507.0,508.0,489.0,514.0
508.0,515.0,494.0,514.0
506.0,513.0,493.0,510.0
514.0,519.0,498.0,509.0
510.0,508.0,501.0,508.0
509.0,500.0,511.0,513.0
517.0,504.0,517.0,509.0
522.0,500.0,527.0,507.0
523.0,497.0,530.0,508.0
525.0,508.0,534.0,511.0
517.0,502.0,532.0,512.0
520.0,503.0,527.0,512.0
505.0,503.0,519.0,515.0
503.0,501.0,510.0,516.0
500.0,499.0,502.0,516.0
504.0,505.0,495.0,520.0
509.0,504.0,495.0,518.0
514.0,501.0,496.0,518.0
516.0,498.0,495.0,524.0
516.0,502.0,499.0,515.0
518.0,503.0,501.0,514.0
513.0,505.0,506.0,514.0
514.0,524.0,515.0,510.0
510.0,519.0,521.0,508.0
515.0,511.0,531.0,506.0
521.0,512.0,536.0,511.0
522.0,519.0,536.0,513.0
513.0,505.0,532.0,513.0
518.0,503.0,528.0,511.0
502.0,495.0,511.0,511.0
499.0,495.0,504.0,515.0
501.0,509.0,497.0,515.0
504.0,509.0,495.0,514.0
506.0,506.0,490.0,516.0
514.0,521.0,492.0,518.0
504.0,497.0,496.0,513.0
502.0,499.0,497.0,510.0
504.0,486.0,500.0,508.0
507.0,481.0,506.0,508.0
515.0,496.0,514.0,508.0
518.0,523.0,524.0,508.0
519.0,538.0,530.0,509.0
522.0,527.0,537.0,511.0
520.0,519.0,529.0,510.0
519.0,518.0,528.0,512.0
508.0,499.0,523.0,514.0
504.0,500.0,512.0,516.0
500.0,492.0,504.0,516.0
501.0,493.0,499.0,517.0
502.0,501.0,497.0,520.0
506.0,508.0,493.0,518.0
511.0,511.0,494.0,519.0
506.0,505.0,494.0,515.0
509.0,512.0,501.0,515.0
513.0,514.0,506.0,511.0
515.0,513.0,515.0,511.0
516.0,512.0,522.0,514.0
525.0,515.0,532.0,513.0
525.0,510.0,534.0,515.0
523.0,512.0,534.0,510.0
519.0,514.0,530.0,509.0
518.0,513.0,526.0,510.0
509.0,524.0,519.0,510.0
505.0,530.0,508.0,513.0
503.0,507.0,500.0,518.0
503.0,516.0,499.0,516.0
498.0,454.0,492.0,515.0
502.0,480.0,491.0,516.0
505.0,494.0,491.0,513.0
504.0,505.0,496.0,512.0
507.0,502.0,500.0,510.0
506.0,497.0,506.0,507.0
513.0,497.0,512.0,506.0
516.0,496.0,522.0,506.0
525.0,504.0,528.0,506.0
523.0,499.0,534.0,510.0
524.0,503.0,535.0,512.0
514.0,508.0,531.0,507.0
517.0,506.0,527.0,513.0
506.0,496.0,515.0,513.0
497.0,496.0,508.0,515.0
498.0,495.0,501.0,520.0
504.0,505.0,497.0,519.0
503.0,503.0,493.0,518.0
508.0,509.0,496.0,518.0
506.0,504.0,493.0,515.0
508.0,509.0,497.0,514.0
507.0,512.0,501.0,511.0
511.0,510.0,508.0,511.0
516.0,513.0,518.0,507.0
522.0,514.0,522.0,509.0
527.0,511.0,533.0,507.0
526.0,510.0,533.0,509.0
518.0,495.0,530.0,509.0
511.0,494.0,528.0,509.0
510.0,492.0,524.0,512.0
503.0,490.0,512.0,515.0
501.0,491.0,506.0,516.0
502.0,497.0,497.0,518.0
503.0,501.0,492.0,518.0
505.0,505.0,495.0,518.0
508.0,510.0,493.0,515.0
503.0,503.0,497.0,514.0
509.0,512.0,500.0,509.0
511.0,502.0,503.0,510.0
516.0,503.0,511.0,516.0
521.0,516.0,521.0,508.0
524.0,512.0,525.0,508.0
527.0,509.0,533.0,510.0
531.0,508.0,532.0,510.0
520.0,493.0,528.0,510.0
519.0,492.0,528.0,513.0
506.0,476.0,526.0,516.0
499.0,472.0,508.0,516.0
499.0,491.0,504.0,518.0
500.0,503.0,494.0,520.0
505.0,496.0,493.0,518.0
505.0,489.0,493.0,520.0
506.0,487.0,496.0,515.0
509.0,501.0,499.0,516.0
510.0,527.0,504.0,515.0
499.0,538.0,512.0,517.0
507.0,531.0,522.0,517.0
520.0,539.0,527.0,515.0
527.0,533.0,534.0,513.0
529.0,529.0,536.0,512.0
530.0,528.0,536.0,510.0
518.0,482.0,527.0,504.0
519.0,490.0,522.0,505.0
511.0,486.0,507.0,506.0
505.0,481.0,503.0,510.0
504.0,494.0,498.0,513.0
503.0,501.0,493.0,513.0
504.0,506.0,492.0,516.0
512.0,524.0,491.0,515.0
505.0,517.0,491.0,513.0
501.0,524.0,497.0,512.0
506.0,510.0,498.0,509.0
508.0,500.0,505.0,506.0
513.0,504.0,515.0,508.0
521.0,503.0,523.0,507.0
524.0,504.0,530.0,506.0
524.0,510.0,535.0,506.0
518.0,502.0,532.0,511.0
510.0,498.0,529.0,514.0
513.0,503.0,523.0,514.0
502.0,497.0,514.0,516.0
500.0,498.0,505.0,520.0
500.0,503.0,501.0,522.0
504.0,505.0,498.0,522.0
504.0,512.0,491.0,520.0
510.0,513.0,493.0,516.0
502.0,507.0,495.0,513.0
509.0,511.0,500.0,511.0
509.0,493.0,501.0,508.0
516.0,498.0,512.0,509.0
520.0,505.0,519.0,509.0
527.0,508.0,526.0,509.0
525.0,494.0,537.0,509.0
526.0,496.0,535.0,510.0
525.0,484.0,532.0,509.0
521.0,479.0,526.0,513.0
508.0,473.0,521.0,511.0
496.0,515.0,513.0,516.0
498.0,527.0,505.0,516.0
500.0,516.0,497.0,516.0
504.0,505.0,494.0,517.0
508.0,509.0,492.0,514.0
510.0,519.0,492.0,513.0
508.0,518.0,493.0,509.0
514.0,524.0,496.0,507.0
511.0,527.0,504.0,505.0
514.0,524.0,510.0,505.0
520.0,527.0,521.0,508.0
525.0,523.0,526.0,506.0
523.0,506.0,534.0,511.0
522.0,499.0,534.0,508.0
512.0,495.0,530.0,511.0
515.0,502.0,527.0,515.0
505.0,494.0,518.0,511.0
500.0,493.0,508.0,517.0
499.0,498.0,500.0,518.0
504.0,503.0,497.0,516.0
504.0,506.0,494.0,518.0
506.0,511.0,494.0,517.0
507.0,509.0,493.0,512.0
504.0,511.0,497.0,512.0
508.0,506.0,502.0,508.0
511.0,505.0,507.0,509.0
515.0,505.0,516.0,513.0
519.0,505.0,522.0,509.0
524.0,508.0,530.0,507.0
522.0,506.0,535.0,510.0
522.0,500.0,533.0,509.0
513.0,497.0,530.0,512.0
509.0,493.0,525.0,515.0
504.0,494.0,514.0,514.0
503.0,494.0,506.0,515.0
502.0,495.0,499.0,520.0
502.0,502.0,497.0,518.0
507.0,507.0,495.0,516.0
513.0,516.0,494.0,516.0
505.0,507.0,494.0,512.0
510.0,511.0,500.0,513.0
506.0,502.0,504.0,512.0
514.0,505.0,510.0,509.0
516.0,504.0,516.0,507.0
518.0,507.0,527.0,506.0
526.0,511.0,533.0,509.0
526.0,512.0,534.0,511.0
520.0,503.0,533.0,514.0
515.0,505.0,529.0,515.0
508.0,493.0,519.0,513.0
500.0,493.0,511.0,516.0
498.0,495.0,504.0,524.0
502.0,498.0,497.0,519.0
501.0,500.0,493.0,519.0
504.0,512.0,495.0,519.0
507.0,511.0,495.0,515.0
505.0,503.0,494.0,509.0
510.0,500.0,500.0,513.0
512.0,491.0,505.0,507.0
515.0,493.0,512.0,508.0
520.0,516.0,520.0,508.0
525.0,519.0,529.0,511.0
528.0,538.0,534.0,508.0
530.0,535.0,535.0,510.0
515.0,474.0,529.0,513.0
515.0,478.0,526.0,514.0
505.0,498.0,513.0,514.0
500.0,501.0,507.0,518.0
502.0,487.0,501.0,518.0
505.0,500.0,497.0,517.0
502.0,488.0,499.0,519.0
503.0,474.0,493.0,519.0
504.0,495.0,494.0,516.0
508.0,512.0,499.0,513.0
506.0,495.0,499.0,511.0
508.0,485.0,508.0,507.0
513.0,486.0,515.0,509.0
520.0,514.0,523.0,509.0
527.0,537.0,530.0,509.0
528.0,548.0,533.0,510.0
527.0,520.0,533.0,512.0
515.0,494.0,529.0,511.0
506.0,495.0,524.0,514.0
504.0,497.0,515.0,514.0
504.0,500.0,505.0,517.0
501.0,516.0,500.0,519.0
506.0,517.0,494.0,518.0
507.0,519.0,490.0,517.0
509.0,519.0,491.0,518.0
508.0,515.0,498.0,514.0
512.0,513.0,499.0,510.0
512.0,509.0,500.0,509.0
517.0,504.0,511.0,509.0
522.0,510.0,519.0,510.0
528.0,503.0,529.0,508.0
531.0,485.0,533.0,510.0
533.0,502.0,535.0,512.0
525.0,507.0,534.0,511.0
517.0,507.0,528.0,513.0
505.0,491.0,521.0,513.0
502.0,493.0,510.0,516.0
493.0,498.0,509.0,519.0
490.0,509.0,498.0,518.0
496.0,520.0,496.0,520.0
500.0,515.0,495.0,519.0
511.0,514.0,494.0,515.0
508.0,508.0,497.0,516.0
511.0,508.0,501.0,511.0
508.0,507.0,508.0,510.0
517.0,512.0,516.0,510.0
523.0,515.0,519.0,509.0
522.0,513.0,526.0,510.0
521.0,512.0,532.0,509.0
522.0,508.0,534.0,509.0
515.0,499.0,530.0,511.0
517.0,503.0,524.0,513.0
505.0,495.0,518.0,513.0
501.0,495.0,507.0,517.0
498.0,499.0,503.0,519.0
505.0,503.0,497.0,517.0
503.0,505.0,494.0,518.0
510.0,513.0,495.0,512.0
505.0,507.0,497.0,514.0
508.0,513.0,498.0,512.0
510.0,507.0,499.0,508.0
512.0,505.0,506.0,514.0
516.0,507.0,512.0,508.0
521.0,508.0,521.0,507.0
523.0,509.0,530.0,508.0
526.0,508.0,532.0,510.0
520.0,504.0,534.0,509.0
517.0,500.0,530.0,510.0
511.0,496.0,525.0,514.0
503.0,493.0,516.0,515.0
501.0,491.0,507.0,516.0
498.0,494.0,499.0,518.0
504.0,504.0,493.0,518.0
505.0,506.0,491.0,517.0
510.0,508.0,494.0,515.0
506.0,500.0,492.0,512.0
510.0,504.0,498.0,511.0
509.0,498.0,501.0,508.0
515.0,514.0,509.0,507.0
514.0,506.0,518.0,511.0
522.0,503.0,524.0,508.0
524.0,503.0,531.0,508.0
526.0,505.0,534.0,510.0
519.0,498.0,530.0,510.0
516.0,498.0,527.0,510.0
507.0,496.0,520.0,514.0
500.0,495.0,512.0,515.0
501.0,509.0,504.0,515.0
502.0,510.0,497.0,518.0
507.0,516.0,496.0,517.0
508.0,519.0,494.0,510.0
505.0,482.0,494.0,517.0
502.0,467.0,494.0,511.0
507.0,492.0,499.0,510.0
508.0,494.0,505.0,509.0
514.0,518.0,514.0,510.0
521.0,531.0,521.0,509.0
526.0,529.0,527.0,510.0
525.0,518.0,533.0,511.0
528.0,514.0,535.0,511.0
518.0,486.0,531.0,511.0
509.0,486.0,525.0,514.0
506.0,492.0,517.0,514.0
501.0,494.0,509.0,514.0
498.0,493.0,502.0,515.0
501.0,497.0,497.0,520.0
502.0,489.0,490.0,517.0
505.0,497.0,495.0,518.0
506.0,488.0,493.0,516.0
509.0,514.0,498.0,512.0
513.0,515.0,500.0,510.0
509.0,525.0,506.0,510.0
516.0,521.0,516.0,509.0
524.0,526.0,523.0,508.0
522.0,526.0,536.0,510.0
526.0,517.0,532.0,510.0
528.0,504.0,534.0,512.0
516.0,497.0,529.0,512.0
513.0,495.0,522.0,513.0
502.0,487.0,520.0,516.0
503.0,488.0,504.0,516.0
503.0,501.0,500.0,515.0
503.0,500.0,494.0,518.0
509.0,506.0,494.0,517.0
513.0,544.0,494.0,517.0
508.0,541.0,494.0,512.0
515.0,535.0,494.0,511.0
518.0,523.0,504.0,510.0
517.0,450.0,511.0,505.0
517.0,463.0,517.0,508.0
524.0,478.0,527.0,508.0
522.0,509.0,533.0,509.0
525.0,539.0,536.0,509.0
521.0,529.0,530.0,511.0
513.0,518.0,529.0,513.0
502.0,474.0,521.0,515.0
498.0,482.0,511.0,512.0
496.0,499.0,506.0,518.0
499.0,513.0,497.0,517.0
505.0,523.0,496.0,518.0
502.0,517.0,495.0,517.0
508.0,524.0,495.0,516.0
508.0,521.0,496.0,510.0
511.0,502.0,500.0,518.0
511.0,491.0,503.0,510.0
516.0,506.0,512.0,506.0
522.0,513.0,520.0,504.0
525.0,511.0,527.0,509.0
526.0,508.0,530.0,509.0
527.0,512.0,535.0,509.0
519.0,508.0,531.0,510.0
517.0,498.0,526.0,512.0
502.0,489.0,519.0,515.0
499.0,493.0,510.0,515.0
500.0,497.0,500.0,518.0
502.0,503.0,497.0,517.0
499.0,507.0,493.0,517.0
508.0,513.0,489.0,515.0
505.0,511.0,494.0,514.0
506.0,511.0,496.0,513.0
508.0,508.0,499.0,509.0
510.0,504.0,506.0,507.0
515.0,509.0,514.0,508.0
521.0,504.0,523.0,509.0
525.0,507.0,530.0,509.0
526.0,508.0,535.0,509.0
522.0,503.0,535.0,508.0
514.0,497.0,529.0,511.0
513.0,496.0,525.0,510.0
503.0,494.0,513.0,515.0
500.0,493.0,506.0,516.0
505.0,499.0,500.0,516.0
505.0,499.0,496.0,514.0
505.0,501.0,491.0,516.0
505.0,508.0,494.0,516.0
504.0,508.0,493.0,514.0
508.0,510.0,498.0,513.0
509.0,509.0,503.0,508.0
509.0,506.0,510.0,508.0
514.0,509.0,520.0,509.0
523.0,510.0,526.0,511.0
527.0,510.0,533.0,509.0
527.0,510.0,537.0,511.0
519.0,499.0,533.0,512.0
518.0,491.0,530.0,512.0
504.0,480.0,518.0,514.0
500.0,496.0,513.0,516.0
499.0,497.0,504.0,518.0
500.0,503.0,502.0,519.0
506.0,508.0,495.0,518.0
504.0,512.0,495.0,518.0
510.0,514.0,493.0,516.0
504.0,504.0,500.0,514.0
514.0,515.0,499.0,512.0
513.0,509.0,506.0,511.0
514.0,506.0,514.0,510.0
518.0,507.0,519.0,508.0
524.0,506.0,528.0,509.0
524.0,506.0,532.0,509.0
525.0,506.0,535.0,509.0
518.0,499.0,532.0,512.0
516.0,501.0,526.0,513.0
502.0,494.0,524.0,517.0
499.0,498.0,510.0,515.0
498.0,498.0,500.0,516.0
502.0,501.0,498.0,518.0
506.0,505.0,495.0,517.0
511.0,507.0,494.0,518.0
508.0,505.0,495.0,515.0
514.0,503.0,497.0,513.0
516.0,495.0,499.0,509.0
515.0,493.0,509.0,509.0
519.0,506.0,512.0,509.0
525.0,508.0,524.0,509.0
527.0,522.0,532.0,509.0
521.0,510.0,535.0,507.0
519.0,507.0,535.0,511.0
511.0,496.0,530.0,513.0
512.0,494.0,525.0,514.0
497.0,496.0,512.0,515.0
494.0,495.0,508.0,518.0
496.0,495.0,501.0,514.0
501.0,505.0,498.0,520.0
505.0,502.0,494.0,515.0
511.0,513.0,496.0,515.0
511.0,506.0,493.0,513.0
510.0,514.0,505.0,513.0
513.0,528.0,504.0,507.0
519.0,540.0,510.0,507.0
521.0,532.0,519.0,508.0
521.0,542.0,524.0,509.0
521.0,499.0,533.0,506.0
527.0,503.0,536.0,509.0
526.0,509.0,534.0,507.0
519.0,491.0,527.0,513.0
510.0,487.0,522.0,513.0
501.0,495.0,513.0,513.0
493.0,497.0,505.0,523.0
498.0,507.0,501.0,520.0
497.0,508.0,496.0,521.0
501.0,509.0,496.0,518.0
506.0,514.0,498.0,519.0
503.0,513.0,496.0,516.0
510.0,513.0,503.0,515.0
511.0,508.0,508.0,512.0
514.0,509.0,511.0,508.0
518.0,509.0,521.0,507.0
523.0,510.0,527.0,506.0
525.0,505.0,532.0,505.0
523.0,501.0,533.0,507.0
516.0,492.0,527.0,508.0
513.0,497.0,525.0,509.0
506.0,493.0,517.0,510.0
502.0,521.0,509.0,511.0
502.0,535.0,499.0,516.0
505.0,518.0,496.0,516.0
506.0,511.0,491.0,516.0
501.0,457.0,491.0,516.0
506.0,469.0,492.0,514.0
507.0,499.0,501.0,512.0
512.0,515.0,499.0,508.0
513.0,512.0,502.0,508.0
516.0,508.0,514.0,508.0
522.0,512.0,522.0,509.0
522.0,512.0,529.0,508.0
520.0,509.0,535.0,509.0
521.0,510.0,536.0,512.0
513.0,501.0,530.0,512.0
512.0,499.0,528.0,514.0
501.0,494.0,524.0,516.0
501.0,496.0,507.0,514.0
500.0,499.0,498.0,514.0
504.0,501.0,492.0,516.0
506.0,504.0,492.0,515.0
505.0,507.0,493.0,515.0
504.0,505.0,493.0,512.0
509.0,506.0,496.0,510.0
507.0,513.0,500.0,509.0
512.0,513.0,508.0,508.0
514.0,508.0,518.0,509.0
519.0,510.0,526.0,510.0
525.0,511.0,531.0,509.0
526.0,510.0,534.0,510.0
522.0,505.0,533.0,511.0
513.0,499.0,528.0,509.0
505.0,492.0,524.0,514.0
502.0,487.0,512.0,512.0
500.0,495.0,503.0,517.0
501.0,499.0,499.0,519.0
506.0,501.0,495.0,518.0
507.0,504.0,492.0,516.0
514.0,514.0,492.0,515.0
508.0,508.0,496.0,512.0
515.0,512.0,499.0,513.0
512.0,510.0,505.0,510.0
518.0,508.0,513.0,509.0
524.0,510.0,521.0,508.0
525.0,498.0,529.0,510.0
522.0,498.0,539.0,510.0
524.0,497.0,534.0,510.0
514.0,495.0,530.0,509.0
511.0,493.0,529.0,514.0
504.0,487.0,519.0,512.0
497.0,486.0,510.0,518.0
498.0,499.0,504.0,517.0
505.0,500.0,498.0,519.0
503.0,505.0,495.0,518.0
506.0,502.0,495.0,518.0
504.0,518.0,494.0,516.0
505.0,515.0,497.0,513.0
511.0,527.0,501.0,512.0
518.0,516.0,507.0,509.0
518.0,508.0,513.0,508.0
522.0,506.0,523.0,509.0
526.0,504.0,531.0,507.0
525.0,509.0,535.0,511.0
521.0,520.0,534.0,512.0
515.0,511.0,530.0,509.0
517.0,525.0,527.0,512.0
501.0,515.0,512.0,512.0
497.0,509.0,508.0,516.0
502.0,508.0,501.0,518.0
500.0,472.0,497.0,518.0
500.0,480.0,492.0,518.0
502.0,507.0,495.0,517.0
506.0,520.0,494.0,514.0
508.0,519.0,498.0,514.0
509.0,512.0,503.0,507.0
511.0,501.0,511.0,508.0
516.0,489.0,517.0,506.0
520.0,513.0,524.0,510.0
528.0,519.0,530.0,509.0
528.0,511.0,536.0,509.0
525.0,504.0,534.0,508.0
514.0,495.0,529.0,514.0
511.0,499.0,523.0,515.0
504.0,509.0,512.0,517.0
505.0,518.0,507.0,520.0
497.0,458.0,500.0,520.0
500.0,486.0,494.0,520.0
504.0,507.0,493.0,519.0
506.0,506.0,494.0,517.0
504.0,494.0,495.0,513.0
512.0,504.0,501.0,512.0
511.0,507.0,507.0,507.0
515.0,498.0,515.0,510.0
520.0,497.0,518.0,510.0
526.0,501.0,527.0,509.0
527.0,503.0,532.0,507.0
524.0,498.0,534.0,507.0
519.0,496.0,529.0,509.0
515.0,500.0,524.0,512.0
506.0,495.0,518.0,513.0
501.0,502.0,512.0,515.0
501.0,530.0,502.0,517.0
502.0,521.0,497.0,519.0
505.0,509.0,494.0,519.0
504.0,511.0,495.0,514.0
506.0,515.0,495.0,514.0
503.0,514.0,492.0,512.0
511.0,515.0,501.0,513.0
513.0,515.0,508.0,509.0
515.0,513.0,515.0,506.0
522.0,511.0,523.0,509.0
526.0,509.0,529.0,507.0
522.0,506.0,531.0,508.0
523.0,505.0,531.0,511.0
514.0,493.0,527.0,512.0
516.0,495.0,524.0,510.0
508.0,482.0,515.0,514.0
509.0,486.0,504.0,514.0
506.0,488.0,500.0,515.0
509.0,495.0,497.0,518.0
510.0,501.0,495.0,515.0
512.0,521.0,495.0,517.0
506.0,513.0,493.0,514.0
503.0,525.0,499.0,513.0
501.0,520.0,501.0,510.0
508.0,515.0,514.0,511.0
511.0,512.0,519.0,508.0
519.0,510.0,525.0,505.0
522.0,502.0,531.0,507.0
520.0,499.0,535.0,514.0
518.0,492.0,534.0,516.0
509.0,498.0,530.0,513.0
507.0,497.0,522.0,514.0
503.0,500.0,506.0,513.0
499.0,504.0,501.0,521.0
498.0,496.0,499.0,516.0
501.0,512.0,495.0,519.0
500.0,513.0,492.0,515.0
509.0,516.0,494.0,517.0
507.0,502.0,494.0,518.0
509.0,510.0,500.0,514.0
511.0,512.0,505.0,509.0
515.0,506.0,513.0,509.0
522.0,508.0,520.0,507.0
523.0,514.0,525.0,508.0
524.0,517.0,531.0,511.0
527.0,515.0,535.0,510.0
521.0,506.0,530.0,512.0
517.0,503.0,528.0,509.0
507.0,493.0,520.0,511.0
501.0,490.0,508.0,517.0
501.0,497.0,503.0,517.0
505.0,506.0,494.0,518.0
510.0,511.0,495.0,517.0
509.0,521.0,495.0,514.0
515.0,536.0,496.0,516.0
513.0,527.0,497.0,512.0
516.0,526.0,498.0,509.0
515.0,519.0,508.0,510.0
511.0,477.0,513.0,509.0
518.0,481.0,523.0,507.0
522.0,490.0,531.0,506.0
519.0,492.0,536.0,510.0
520.0,494.0,532.0,512.0
512.0,491.0,530.0,512.0
514.0,514.0,524.0,512.0
503.0,501.0,517.0,511.0
504.0,499.0,508.0,513.0
499.0,494.0,498.0,518.0
503.0,489.0,498.0,517.0
508.0,494.0,496.0,518.0
511.0,499.0,493.0,516.0
511.0,502.0,494.0,515.0
512.0,490.0,496.0,513.0
512.0,492.0,501.0,508.0
519.0,502.0,510.0,511.0
519.0,517.0,518.0,510.0
522.0,521.0,521.0,507.0
527.0,513.0,532.0,509.0
530.0,514.0,534.0,508.0
522.0,510.0,533.0,509.0
512.0,507.0,530.0,512.0
512.0,507.0,521.0,514.0
503.0,494.0,515.0,513.0
499.0,514.0,506.0,515.0
498.0,526.0,496.0,517.0
498.0,455.0,493.0,519.0
496.0,482.0,495.0,517.0
502.0,513.0,493.0,514.0
503.0,517.0,495.0,515.0
506.0,519.0,496.0,512.0
502.0,517.0,505.0,509.0
513.0,527.0,511.0,505.0
517.0,522.0,520.0,510.0
523.0,514.0,528.0,509.0
525.0,500.0,532.0,510.0
525.0,494.0,535.0,511.0
518.0,500.0,530.0,509.0
513.0,509.0,526.0,512.0
504.0,517.0,517.0,513.0
504.0,526.0,511.0,514.0
500.0,498.0,502.0,518.0
497.0,465.0,498.0,525.0
503.0,503.0,495.0,518.0
502.0,513.0,493.0,519.0
505.0,508.0,493.0,514.0
503.0,501.0,497.0,515.0
509.0,515.0,499.0,512.0
514.0,509.0,503.0,508.0
517.0,505.0,513.0,511.0
521.0,508.0,523.0,508.0
525.0,514.0,528.0,508.0
524.0,511.0,532.0,508.0
526.0,514.0,536.0,509.0
515.0,502.0,528.0,509.0
515.0,507.0,524.0,512.0
503.0,498.0,513.0,513.0
499.0,503.0,507.0,517.0
501.0,502.0,501.0,513.0
500.0,498.0,496.0,519.0
505.0,501.0,495.0,517.0
507.0,507.0,494.0,517.0
511.0,507.0,495.0,512.0
508.0,509.0,499.0,512.0
509.0,511.0,503.0,508.0
511.0,506.0,510.0,508.0
515.0,517.0,516.0,509.0
519.0,505.0,525.0,509.0
527.0,505.0,530.0,510.0
526.0,506.0,536.0,512.0
524.0,501.0,536.0,513.0
514.0,494.0,528.0,514.0
509.0,492.0,526.0,516.0
502.0,492.0,516.0,518.0
501.0,495.0,509.0,520.0
501.0,499.0,499.0,518.0
504.0,507.0,494.0,518.0
506.0,509.0,491.0,516.0
509.0,513.0,496.0,516.0
508.0,504.0,497.0,514.0
511.0,501.0,502.0,510.0
509.0,499.0,507.0,512.0
516.0,503.0,514.0,509.0
520.0,501.0,521.0,513.0
525.0,518.0,527.0,506.0
523.0,514.0,530.0,507.0
523.0,518.0,532.0,505.0
520.0,508.0,527.0,508.0
516.0,510.0,523.0,505.0
508.0,491.0,515.0,509.0
501.0,479.0,505.0,510.0
498.0,494.0,501.0,514.0
503.0,503.0,494.0,515.0
506.0,511.0,494.0,514.0
506.0,514.0,488.0,514.0
511.0,513.0,490.0,514.0
506.0,506.0,496.0,509.0
511.0,504.0,498.0,510.0
511.0,497.0,504.0,507.0
515.0,493.0,512.0,508.0
520.0,492.0,519.0,508.0
525.0,491.0,529.0,510.0
522.0,488.0,531.0,511.0
520.0,505.0,532.0,511.0
516.0,508.0,530.0,513.0
513.0,497.0,526.0,514.0
507.0,493.0,517.0,511.0
506.0,501.0,504.0,514.0
509.0,510.0,502.0,515.0
505.0,512.0,498.0,519.0
507.0,524.0,497.0,519.0
515.0,527.0,496.0,514.0
510.0,538.0,495.0,518.0
505.0,515.0,499.0,511.0
508.0,494.0,504.0,512.0
506.0,477.0,511.0,511.0
510.0,489.0,518.0,510.0
519.0,515.0,526.0,512.0
528.0,537.0,533.0,508.0
523.0,522.0,533.0,509.0
518.0,514.0,531.0,507.0
509.0,489.0,526.0,509.0
504.0,486.0,521.0,511.0
500.0,498.0,512.0,514.0
497.0,503.0,507.0,515.0
496.0,500.0,506.0,519.0
503.0,508.0,494.0,519.0
505.0,498.0,494.0,515.0
506.0,499.0,495.0,516.0
507.0,507.0,495.0,513.0
514.0,526.0,499.0,512.0
513.0,516.0,504.0,508.0
520.0,525.0,510.0,509.0
522.0,473.0,518.0,506.0
523.0,485.0,526.0,504.0
527.0,504.0,533.0,506.0
527.0,504.0,533.0,508.0
523.0,487.0,531.0,512.0
516.0,481.0,527.0,512.0
501.0,489.0,520.0,515.0
497.0,503.0,509.0,514.0
496.0,516.0,503.0,516.0
499.0,511.0,499.0,519.0
503.0,509.0,495.0,515.0
507.0,512.0,495.0,513.0
509.0,513.0,495.0,516.0
503.0,508.0,497.0,514.0
509.0,514.0,501.0,508.0
509.0,517.0,506.0,512.0
514.0,523.0,512.0,510.0
520.0,523.0,522.0,512.0
519.0,516.0,535.0,513.0
523.0,513.0,534.0,511.0
522.0,509.0,535.0,512.0
510.0,500.0,530.0,508.0
511.0,496.0,526.0,515.0
504.0,485.0,517.0,513.0
500.0,486.0,509.0,513.0
497.0,500.0,502.0,516.0
502.0,508.0,495.0,518.0
505.0,510.0,489.0,515.0
512.0,517.0,494.0,517.0
511.0,511.0,494.0,511.0
509.0,507.0,496.0,512.0
512.0,507.0,501.0,509.0
514.0,509.0,507.0,506.0
516.0,504.0,512.0,508.0
522.0,506.0,524.0,508.0
525.0,506.0,532.0,509.0
526.0,506.0,533.0,510.0
523.0,504.0,534.0,510.0
512.0,492.0,527.0,511.0
508.0,498.0,524.0,511.0
501.0,496.0,512.0,514.0
499.0,494.0,506.0,517.0
499.0,499.0,497.0,518.0
502.0,505.0,494.0,517.0
501.0,506.0,499.0,518.0
509.0,512.0,493.0,516.0
507.0,507.0,494.0,511.0
507.0,507.0,502.0,513.0
508.0,504.0,504.0,509.0
515.0,507.0,510.0,508.0
520.0,508.0,518.0,507.0
525.0,508.0,527.0,510.0
525.0,508.0,534.0,509.0
529.0,508.0,536.0,510.0
521.0,504.0,529.0,510.0
514.0,497.0,528.0,513.0
507.0,489.0,519.0,514.0
501.0,489.0,511.0,515.0
503.0,496.0,504.0,515.0
499.0,506.0,497.0,518.0
503.0,504.0,495.0,519.0
505.0,508.0,496.0,518.0
511.0,510.0,495.0,516.0
509.0,507.0,496.0,508.0
511.0,511.0,501.0,512.0
511.0,505.0,507.0,509.0
516.0,504.0,514.0,508.0
518.0,508.0,522.0,507.0
523.0,508.0,529.0,514.0
522.0,504.0,535.0,510.0
525.0,501.0,536.0,512.0
519.0,501.0,530.0,513.0
516.0,494.0,525.0,511.0
504.0,477.0,518.0,516.0
499.0,477.0,509.0,517.0
500.0,487.0,500.0,518.0
505.0,495.0,501.0,520.0
503.0,505.0,496.0,521.0
509.0,511.0,494.0,515.0
510.0,502.0,497.0,517.0
507.0,493.0,496.0,519.0
509.0,505.0,500.0,509.0
514.0,520.0,507.0,504.0
518.0,535.0,514.0,507.0
520.0,524.0,522.0,508.0
530.0,521.0,530.0,506.0
526.0,472.0,532.0,508.0
525.0,466.0,531.0,509.0
518.0,489.0,528.0,508.0
513.0,484.0,523.0,509.0
504.0,476.0,513.0,514.0
497.0,516.0,503.0,516.0
498.0,532.0,498.0,518.0
503.0,522.0,494.0,518.0
503.0,517.0,493.0,519.0
507.0,519.0,492.0,514.0
505.0,519.0,496.0,511.0
510.0,513.0,496.0,510.0
504.0,508.0,503.0,507.0
515.0,508.0,510.0,509.0
520.0,506.0,517.0,509.0
525.0,506.0,526.0,509.0
524.0,507.0,531.0,509.0
522.0,516.0,536.0,511.0
517.0,513.0,532.0,509.0
512.0,501.0,526.0,509.0
500.0,491.0,519.0,513.0
502.0,496.0,511.0,515.0
500.0,495.0,503.0,515.0
500.0,498.0,497.0,519.0
505.0,504.0,494.0,518.0
504.0,508.0,494.0,518.0
511.0,509.0,492.0,514.0
507.0,504.0,495.0,510.0
511.0,503.0,497.0,511.0
510.0,504.0,504.0,510.0
520.0,510.0,512.0,509.0
521.0,524.0,519.0,509.0
528.0,528.0,528.0,509.0
525.0,507.0,534.0,508.0
525.0,499.0,534.0,506.0
518.0,501.0,528.0,508.0
516.0,507.0,526.0,511.0
512.0,491.0,517.0,513.0
505.0,485.0,508.0,512.0
502.0,491.0,499.0,517.0
506.0,496.0,497.0,516.0
505.0,502.0,495.0,516.0
509.0,510.0,495.0,515.0
510.0,506.0,492.0,515.0
504.0,506.0,496.0,511.0
502.0,515.0,502.0,509.0
506.0,514.0,508.0,510.0
508.0,510.0,515.0,510.0
519.0,507.0,524.0,510.0
523.0,506.0,529.0,509.0
523.0,514.0,534.0,508.0
522.0,504.0,535.0,510.0
516.0,495.0,526.0,509.0
509.0,501.0,523.0,511.0
500.0,517.0,514.0,515.0
502.0,513.0,507.0,517.0
502.0,511.0,497.0,516.0
502.0,500.0,497.0,519.0
505.0,496.0,494.0,518.0
509.0,505.0,494.0,513.0
507.0,504.0,493.0,512.0
506.0,510.0,498.0,513.0
510.0,514.0,504.0,510.0
512.0,515.0,511.0,509.0
517.0,513.0,519.0,508.0
522.0,512.0,527.0,507.0
525.0,514.0,533.0,509.0
526.0,511.0,534.0,511.0
520.0,509.0,532.0,512.0
511.0,503.0,527.0,512.0
506.0,499.0,521.0,514.0
501.0,483.0,508.0,515.0
497.0,483.0,501.0,514.0
501.0,492.0,496.0,517.0
502.0,496.0,493.0,518.0
506.0,501.0,495.0,517.0
507.0,509.0,493.0,513.0
506.0,510.0,496.0,514.0
513.0,528.0,500.0,511.0
512.0,526.0,506.0,513.0
515.0,525.0,515.0,509.0
523.0,511.0,524.0,507.0
524.0,461.0,531.0,510.0
526.0,475.0,536.0,510.0
526.0,499.0,535.0,514.0
518.0,505.0,531.0,514.0
520.0,510.0,527.0,513.0
502.0,501.0,519.0,516.0
497.0,502.0,508.0,516.0
488.0,500.0,502.0,517.0
499.0,513.0,497.0,515.0
500.0,514.0,495.0,518.0
506.0,516.0,493.0,513.0
506.0,506.0,492.0,513.0
502.0,505.0,497.0,510.0
506.0,509.0,498.0,509.0
511.0,510.0,506.0,508.0
516.0,509.0,517.0,506.0
520.0,507.0,525.0,509.0
522.0,512.0,533.0,509.0
524.0,512.0,534.0,511.0
521.0,507.0,532.0,510.0
511.0,496.0,528.0,511.0
506.0,500.0,525.0,513.0
500.0,492.0,513.0,514.0
500.0,484.0,504.0,516.0
502.0,484.0,500.0,516.0
499.0,489.0,496.0,515.0
505.0,497.0,493.0,520.0
511.0,512.0,494.0,515.0
507.0,522.0,496.0,514.0
509.0,514.0,498.0,512.0
509.0,508.0,503.0,509.0
514.0,502.0,509.0,509.0
517.0,485.0,519.0,507.0
519.0,493.0,525.0,509.0
522.0,496.0,533.0,513.0
521.0,517.0,534.0,511.0
519.0,502.0,534.0,508.0
509.0,487.0,528.0,512.0
504.0,485.0,523.0,513.0
497.0,494.0,510.0,515.0
495.0,504.0,505.0,517.0
497.0,533.0,501.0,519.0
505.0,540.0,495.0,520.0
506.0,527.0,495.0,515.0
508.0,520.0,496.0,515.0
506.0,525.0,498.0,515.0
507.0,520.0,498.0,510.0
508.0,497.0,506.0,511.0
513.0,506.0,514.0,510.0
519.0,519.0,522.0,512.0
527.0,525.0,530.0,510.0
528.0,517.0,531.0,509.0
526.0,509.0,534.0,512.0
517.0,484.0,532.0,511.0
515.0,497.0,524.0,511.0
507.0,501.0,516.0,514.0
501.0,511.0,509.0,518.0
504.0,515.0,505.0,518.0
499.0,474.0,500.0,520.0
501.0,481.0,497.0,517.0
507.0,494.0,490.0,518.0
509.0,499.0,493.0,513.0
505.0,500.0,493.0,510.0
507.0,507.0,501.0,509.0
510.0,510.0,509.0,508.0
517.0,514.0,514.0,507.0
521.0,508.0,522.0,506.0
525.0,505.0,529.0,508.0
526.0,499.0,535.0,508.0
524.0,495.0,530.0,508.0
514.0,489.0,532.0,509.0
512.0,490.0,520.0,510.0
501.0,489.0,514.0,515.0
496.0,487.0,505.0,515.0
497.0,494.0,499.0,518.0
501.0,498.0,492.0,515.0
506.0,502.0,493.0,515.0
512.0,522.0,495.0,513.0
512.0,521.0,495.0,514.0
514.0,516.0,496.0,512.0
515.0,513.0,503.0,509.0
520.0,508.0,510.0,508.0
523.0,498.0,518.0,509.0
528.0,503.0,526.0,508.0
529.0,513.0,529.0,507.0
526.0,516.0,533.0,510.0
513.0,513.0,530.0,510.0
504.0,504.0,528.0,509.0
498.0,495.0,524.0,513.0
499.0,503.0,512.0,514.0
500.0,502.0,504.0,514.0
497.0,508.0,498.0,519.0
505.0,502.0,495.0,515.0
506.0,489.0,492.0,517.0
505.0,496.0,495.0,516.0
506.0,498.0,497.0,513.0
511.0,508.0,499.0,512.0
510.0,527.0,504.0,510.0
514.0,518.0,514.0,507.0
519.0,508.0,519.0,509.0
524.0,507.0,528.0,508.0
526.0,517.0,534.0,508.0
521.0,518.0,535.0,514.0
519.0,508.0,530.0,512.0
515.0,491.0,527.0,508.0
502.0,488.0,518.0,516.0
499.0,493.0,512.0,517.0
499.0,499.0,503.0,517.0
501.0,500.0,498.0,521.0
504.0,504.0,496.0,519.0
503.0,510.0,496.0,516.0
510.0,521.0,495.0,516.0
507.0,513.0,498.0,512.0
510.0,506.0,498.0,509.0
513.0,501.0,507.0,506.0
512.0,497.0,516.0,508.0
523.0,498.0,522.0,508.0
527.0,509.0,527.0,508.0
525.0,513.0,533.0,509.0
524.0,511.0,534.0,509.0
518.0,510.0,527.0,510.0
513.0,500.0,524.0,509.0
502.0,493.0,515.0,512.0
498.0,492.0,507.0,517.0
502.0,500.0,500.0,515.0
504.0,516.0,497.0,520.0
504.0,515.0,495.0,519.0
512.0,514.0,495.0,517.0
510.0,511.0,495.0,513.0
507.0,509.0,492.0,511.0
509.0,508.0,502.0,510.0
511.0,511.0,510.0,511.0
520.0,513.0,519.0,510.0
523.0,511.0,527.0,509.0
524.0,506.0,529.0,509.0
524.0,483.0,533.0,507.0
521.0,491.0,531.0,513.0
516.0,491.0,528.0,509.0
509.0,484.0,520.0,513.0
503.0,481.0,515.0,514.0
501.0,488.0,505.0,513.0
504.0,497.0,500.0,517.0
505.0,496.0,496.0,518.0
507.0,519.0,492.0,515.0
515.0,547.0,496.0,516.0
513.0,539.0,494.0,514.0
512.0,530.0,496.0,511.0
508.0,500.0,506.0,509.0
506.0,477.0,515.0,508.0
514.0,497.0,520.0,509.0
520.0,501.0,529.0,511.0
522.0,501.0,532.0,509.0
521.0,500.0,532.0,509.0
518.0,487.0,531.0,515.0
519.0,490.0,527.0,510.0
508.0,489.0,519.0,513.0
505.0,492.0,510.0,513.0
501.0,503.0,503.0,517.0
504.0,512.0,495.0,518.0
504.0,517.0,495.0,515.0
501.0,516.0,496.0,517.0
500.0,513.0,494.0,515.0
500.0,505.0,497.0,513.0
511.0,506.0,500.0,510.0
512.0,515.0,506.0,508.0
510.0,521.0,513.0,506.0
514.0,522.0,524.0,509.0
523.0,523.0,531.0,504.0
522.0,508.0,534.0,510.0
520.0,510.0,536.0,512.0
518.0,501.0,530.0,512.0
513.0,493.0,526.0,514.0
506.0,493.0,516.0,516.0
502.0,496.0,508.0,515.0
500.0,497.0,502.0,519.0
504.0,512.0,498.0,519.0
502.0,512.0,496.0,514.0
508.0,509.0,495.0,515.0
507.0,508.0,496.0,515.0
506.0,512.0,499.0,510.0
509.0,506.0,504.0,511.0
513.0,504.0,513.0,508.0
516.0,501.0,516.0,509.0
520.0,501.0,533.0,509.0
526.0,507.0,532.0,508.0
528.0,507.0,536.0,506.0
524.0,497.0,533.0,513.0
515.0,494.0,528.0,515.0
507.0,496.0,522.0,511.0
504.0,499.0,512.0,513.0
498.0,497.0,502.0,522.0
500.0,505.0,498.0,516.0
502.0,512.0,495.0,519.0
505.0,512.0,501.0,518.0
509.0,515.0,496.0,517.0
506.0,509.0,497.0,512.0
505.0,514.0,500.0,512.0
510.0,509.0,505.0,507.0
512.0,508.0,510.0,507.0
521.0,509.0,519.0,508.0
527.0,507.0,530.0,509.0
524.0,506.0,532.0,506.0
525.0,516.0,536.0,511.0
521.0,513.0,531.0,509.0
513.0,500.0,526.0,513.0
505.0,488.0,519.0,512.0
498.0,476.0,511.0,514.0
493.0,455.0,503.0,516.0
497.0,472.0,497.0,519.0
499.0,488.0,494.0,516.0
508.0,509.0,496.0,517.0
514.0,528.0,497.0,515.0
510.0,521.0,497.0,513.0
511.0,516.0,500.0,514.0
511.0,519.0,510.0,512.0
513.0,516.0,517.0,508.0
518.0,516.0,526.0,510.0
519.0,518.0,532.0,510.0
519.0,510.0,537.0,509.0
518.0,507.0,539.0,511.0
513.0,498.0,532.0,518.0
511.0,494.0,529.0,516.0
502.0,491.0,515.0,512.0
500.0,492.0,505.0,514.0
501.0,496.0,498.0,512.0
501.0,510.0,494.0,514.0
501.0,501.0,490.0,514.0
503.0,506.0,492.0,514.0
509.0,518.0,492.0,510.0
508.0,516.0,496.0,508.0
512.0,519.0,501.0,508.0
512.0,528.0,513.0,508.0
515.0,504.0,518.0,507.0
524.0,511.0,526.0,507.0
528.0,512.0,532.0,507.0
528.0,498.0,534.0,510.0
525.0,498.0,531.0,509.0
516.0,494.0,526.0,510.0
505.0,489.0,525.0,513.0
503.0,487.0,514.0,515.0
500.0,488.0,502.0,516.0
502.0,503.0,499.0,517.0
505.0,499.0,496.0,517.0
506.0,497.0,494.0,518.0
513.0,513.0,496.0,513.0
510.0,519.0,496.0,512.0
512.0,518.0,500.0,513.0
516.0,506.0,505.0,510.0
520.0,504.0,513.0,509.0
520.0,508.0,520.0,509.0
524.0,502.0,528.0,508.0
523.0,511.0,534.0,507.0
523.0,520.0,538.0,512.0
521.0,510.0,534.0,513.0
515.0,500.0,529.0,511.0
500.0,490.0,520.0,515.0
502.0,488.0,508.0,515.0
495.0,491.0,501.0,516.0
498.0,501.0,497.0,517.0
496.0,502.0,492.0,517.0
500.0,507.0,492.0,512.0
508.0,506.0,494.0,514.0
507.0,507.0,491.0,508.0
512.0,505.0,499.0,507.0
514.0,514.0,505.0,507.0
517.0,520.0,512.0,507.0
517.0,511.0,527.0,507.0
522.0,508.0,527.0,508.0
524.0,515.0,533.0,510.0
525.0,514.0,532.0,510.0
519.0,509.0,528.0,510.0
518.0,506.0,526.0,511.0
504.0,483.0,515.0,513.0
500.0,491.0,507.0,516.0
499.0,500.0,498.0,515.0
502.0,500.0,496.0,518.0
503.0,509.0,490.0,515.0
509.0,512.0,495.0,517.0
511.0,512.0,493.0,511.0
506.0,501.0,495.0,512.0
509.0,500.0,502.0,506.0
513.0,502.0,508.0,506.0
518.0,506.0,513.0,507.0
525.0,506.0,525.0,510.0
524.0,508.0,535.0,509.0
523.0,505.0,537.0,512.0
521.0,499.0,533.0,512.0
518.0,496.0,529.0,512.0
508.0,509.0,523.0,514.0
501.0,508.0,513.0,511.0
500.0,498.0,503.0,514.0
502.0,506.0,499.0,516.0
500.0,505.0,493.0,517.0
504.0,510.0,494.0,516.0
506.0,515.0,497.0,516.0
507.0,510.0,497.0,510.0
508.0,509.0,503.0,512.0
511.0,506.0,506.0,509.0
516.0,512.0,514.0,511.0
521.0,506.0,520.0,509.0
524.0,509.0,529.0,508.0
526.0,503.0,531.0,510.0
525.0,499.0,534.0,510.0
519.0,492.0,530.0,511.0
511.0,485.0,528.0,512.0
506.0,480.0,520.0,515.0
502.0,481.0,510.0,514.0
502.0,500.0,503.0,517.0
506.0,511.0,498.0,518.0
504.0,503.0,494.0,518.0
509.0,509.0,491.0,517.0
512.0,513.0,494.0,515.0
507.0,515.0,495.0,514.0
497.0,518.0,502.0,513.0
502.0,510.0,507.0,510.0
512.0,503.0,515.0,511.0
519.0,500.0,525.0,506.0
521.0,500.0,531.0,510.0
523.0,500.0,536.0,510.0
524.0,516.0,537.0,512.0
515.0,503.0,530.0,513.0
512.0,509.0,528.0,512.0
500.0,498.0,517.0,514.0
499.0,495.0,508.0,513.0
495.0,497.0,500.0,517.0
503.0,503.0,495.0,516.0
503.0,508.0,495.0,517.0
510.0,516.0,492.0,520.0
513.0,520.0,495.0,510.0
506.0,513.0,496.0,510.0
512.0,505.0,502.0,505.0
516.0,503.0,509.0,506.0
520.0,499.0,517.0,504.0
526.0,530.0,525.0,504.0
530.0,537.0,532.0,507.0
525.0,501.0,535.0,506.0
525.0,497.0,534.0,510.0
514.0,489.0,528.0,507.0
503.0,486.0,520.0,512.0
503.0,494.0,514.0,517.0
502.0,507.0,507.0,516.0
502.0,511.0,497.0,518.0
503.0,497.0,497.0,516.0
507.0,492.0,495.0,514.0
509.0,494.0,493.0,515.0
504.0,480.0,493.0,511.0
506.0,485.0,495.0,511.0
508.0,500.0,503.0,506.0
513.0,517.0,510.0,504.0
519.0,527.0,521.0,509.0
526.0,520.0,526.0,508.0
527.0,514.0,531.0,508.0
529.0,510.0,533.0,506.0
521.0,498.0,530.0,508.0
511.0,474.0,527.0,510.0
508.0,490.0,520.0,514.0
502.0,497.0,511.0,513.0
502.0,501.0,499.0,515.0
504.0,500.0,497.0,518.0
506.0,505.0,493.0,518.0
504.0,522.0,494.0,517.0
510.0,530.0,494.0,514.0
510.0,520.0,495.0,513.0
513.0,511.0,500.0,517.0
513.0,489.0,507.0,514.0
513.0,483.0,514.0,509.0
517.0,485.0,524.0,506.0
524.0,498.0,529.0,508.0
522.0,502.0,534.0,508.0
523.0,518.0,535.0,509.0
514.0,524.0,529.0,511.0
511.0,526.0,524.0,509.0
500.0,496.0,516.0,515.0
501.0,496.0,508.0,515.0
497.0,502.0,501.0,515.0
501.0,511.0,493.0,516.0
505.0,511.0,492.0,517.0
511.0,524.0,491.0,520.0
512.0,528.0,492.0,516.0
507.0,510.0,495.0,513.0
507.0,504.0,498.0,511.0
514.0,500.0,510.0,510.0
520.0,492.0,519.0,511.0
523.0,497.0,529.0,514.0
526.0,499.0,543.0,512.0
528.0,496.0,542.0,515.0
525.0,497.0,540.0,512.0
514.0,489.0,534.0,514.0
509.0,485.0,526.0,513.0
503.0,497.0,514.0,513.0
497.0,501.0,502.0,511.0
494.0,498.0,493.0,513.0
498.0,506.0,492.0,513.0
505.0,512.0,487.0,513.0
508.0,516.0,490.0,511.0
508.0,506.0,490.0,510.0
508.0,501.0,494.0,509.0
507.0,508.0,502.0,505.0
511.0,517.0,510.0,507.0
518.0,515.0,518.0,505.0
523.0,509.0,523.0,505.0
526.0,505.0,532.0,505.0
527.0,509.0,534.0,510.0
523.0,504.0,530.0,510.0
514.0,499.0,524.0,511.0
505.0,498.0,518.0,512.0
502.0,486.0,510.0,513.0
503.0,491.0,502.0,516.0
505.0,504.0,495.0,516.0
515.0,518.0,493.0,518.0
509.0,530.0,495.0,517.0
511.0,529.0,497.0,516.0
507.0,482.0,495.0,514.0
507.0,488.0,505.0,513.0
511.0,509.0,505.0,510.0
518.0,517.0,516.0,508.0
519.0,521.0,523.0,506.0
520.0,516.0,530.0,508.0
522.0,515.0,536.0,510.0
523.0,518.0,535.0,508.0
513.0,490.0,530.0,509.0
508.0,492.0,524.0,512.0
505.0,499.0,517.0,512.0
500.0,494.0,508.0,517.0
501.0,496.0,503.0,518.0
501.0,499.0,495.0,519.0
503.0,508.0,493.0,518.0
503.0,513.0,497.0,518.0
506.0,514.0,492.0,514.0
502.0,504.0,497.0,512.0
508.0,500.0,502.0,508.0
513.0,500.0,509.0,508.0
517.0,498.0,512.0,509.0
521.0,499.0,523.0,508.0
529.0,503.0,532.0,511.0
531.0,489.0,536.0,514.0
531.0,497.0,534.0,510.0
519.0,490.0,533.0,514.0
516.0,485.0,523.0,516.0
503.0,486.0,516.0,518.0
493.0,471.0,508.0,519.0
496.0,482.0,499.0,520.0
493.0,519.0,495.0,519.0
503.0,512.0,493.0,517.0
507.0,515.0,496.0,516.0
500.0,523.0,497.0,515.0
505.0,517.0,498.0,520.0
515.0,530.0,509.0,514.0
518.0,529.0,516.0,514.0
523.0,512.0,520.0,512.0
525.0,500.0,525.0,508.0
523.0,511.0,531.0,509.0
520.0,513.0,536.0,509.0
516.0,506.0,533.0,509.0
510.0,507.0,532.0,510.0
504.0,501.0,523.0,517.0
500.0,499.0,512.0,512.0
501.0,497.0,500.0,517.0
501.0,496.0,496.0,518.0
508.0,518.0,494.0,514.0
513.0,533.0,493.0,517.0
516.0,535.0,489.0,512.0
511.0,524.0,487.0,508.0
506.0,513.0,492.0,504.0
508.0,490.0,498.0,504.0
514.0,497.0,507.0,504.0
528.0,539.0,518.0,501.0
530.0,555.0,525.0,507.0
528.0,495.0,533.0,509.0
519.0,475.0,529.0,511.0
514.0,486.0,532.0,514.0
508.0,481.0,525.0,512.0
496.0,475.0,518.0,517.0
492.0,485.0,513.0,518.0
497.0,491.0,504.0,523.0
503.0,508.0,501.0,522.0
508.0,519.0,501.0,522.0
510.0,519.0,501.0,521.0
509.0,517.0,502.0,519.0
509.0,508.0,504.0,514.0
506.0,495.0,505.0,509.0
507.0,495.0,507.0,508.0
512.0,508.0,514.0,507.0
520.0,508.0,523.0,506.0
523.0,501.0,533.0,509.0
522.0,507.0,539.0,509.0
519.0,497.0,536.0,512.0
514.0,491.0,531.0,512.0
503.0,478.0,521.0,510.0
499.0,474.0,516.0,509.0
500.0,483.0,496.0,506.0
498.0,485.0,487.0,507.0
503.0,505.0,492.0,511.0
504.0,512.0,487.0,509.0
510.0,512.0,488.0,516.0
508.0,508.0,492.0,506.0
509.0,513.0,495.0,508.0
514.0,512.0,502.0,505.0
518.0,522.0,511.0,504.0
523.0,522.0,519.0,510.0
525.0,522.0,528.0,513.0
532.0,523.0,536.0,510.0
530.0,525.0,538.0,516.0
521.0,527.0,534.0,517.0
508.0,489.0,529.0,516.0
502.0,450.0,523.0,518.0
501.0,484.0,511.0,519.0
501.0,502.0,503.0,517.0
505.0,504.0,498.0,520.0
506.0,519.0,490.0,516.0
506.0,514.0,493.0,513.0
509.0,513.0,492.0,514.0
508.0,503.0,493.0,515.0
506.0,505.0,498.0,510.0
512.0,502.0,499.0,505.0
512.0,509.0,511.0,506.0
518.0,525.0,519.0,509.0
521.0,522.0,527.0,512.0
523.0,517.0,541.0,510.0
524.0,521.0,533.0,507.0
519.0,500.0,524.0,509.0
510.0,478.0,526.0,512.0
502.0,481.0,518.0,514.0
502.0,488.0,507.0,514.0
502.0,488.0,501.0,515.0
506.0,483.0,489.0,515.0
509.0,486.0,488.0,516.0
512.0,491.0,490.0,512.0
512.0,518.0,494.0,513.0
497.0,532.0,498.0,511.0
509.0,529.0,500.0,512.0
513.0,514.0,510.0,511.0
518.0,512.0,516.0,512.0
526.0,513.0,525.0,514.0
532.0,525.0,532.0,517.0
531.0,509.0,540.0,518.0
525.0,484.0,536.0,517.0
520.0,464.0,533.0,519.0
514.0,455.0,527.0,519.0
509.0,468.0,519.0,520.0
506.0,514.0,507.0,520.0
501.0,577.0,497.0,513.0
503.0,561.0,490.0,515.0
504.0,540.0,491.0,512.0
501.0,493.0,491.0,516.0
495.0,500.0,496.0,509.0
501.0,510.0,492.0,504.0
504.0,513.0,493.0,502.0
508.0,511.0,502.0,502.0
516.0,507.0,511.0,500.0
522.0,508.0,517.0,501.0
525.0,508.0,523.0,503.0
520.0,506.0,531.0,508.0
518.0,502.0,530.0,508.0
514.0,491.0,523.0,510.0
504.0,489.0,517.0,511.0
502.0,490.0,508.0,512.0
501.0,501.0,499.0,512.0
503.0,505.0,495.0,513.0
506.0,504.0,491.0,517.0
511.0,510.0,492.0,516.0
513.0,511.0,493.0,514.0
506.0,521.0,492.0,514.0
511.0,526.0,499.0,509.0
514.0,516.0,504.0,509.0
519.0,504.0,512.0,509.0
524.0,488.0,520.0,505.0
525.0,466.0,529.0,511.0
533.0,477.0,534.0,512.0
534.0,505.0,536.0,517.0
522.0,500.0,533.0,518.0
515.0,500.0,529.0,518.0
502.0,504.0,518.0,523.0
499.0,518.0,512.0,521.0
499.0,513.0,505.0,523.0
501.0,507.0,497.0,521.0
500.0,510.0,500.0,521.0
504.0,504.0,496.0,518.0
506.0,508.0,497.0,514.0
503.0,514.0,496.0,508.0
508.0,509.0,495.0,500.0
506.0,503.0,505.0,499.0
512.0,506.0,513.0,501.0
521.0,514.0,519.0,503.0
521.0,510.0,521.0,504.0
525.0,512.0,522.0,502.0
523.0,511.0,523.0,504.0
514.0,506.0,521.0,505.0
508.0,504.0,513.0,505.0
505.0,508.0,507.0,508.0
500.0,472.0,502.0,515.0
499.0,470.0,494.0,516.0
506.0,502.0,492.0,513.0
509.0,497.0,490.0,511.0
513.0,478.0,491.0,514.0
511.0,472.0,492.0,514.0
499.0,479.0,498.0,515.0
510.0,513.0,505.0,516.0
517.0,528.0,518.0,517.0
516.0,524.0,524.0,518.0
520.0,521.0,529.0,518.0
519.0,525.0,537.0,518.0
524.0,531.0,537.0,513.0
523.0,507.0,531.0,514.0
517.0,494.0,523.0,508.0
509.0,487.0,514.0,506.0
506.0,499.0,505.0,511.0
500.0,516.0,507.0,516.0
501.0,520.0,490.0,516.0
501.0,516.0,490.0,517.0
498.0,521.0,491.0,516.0
505.0,510.0,490.0,511.0
506.0,499.0,494.0,513.0
507.0,505.0,495.0,509.0
509.0,506.0,505.0,503.0
513.0,510.0,515.0,504.0
519.0,509.0,520.0,504.0
522.0,506.0,529.0,507.0
522.0,503.0,527.0,507.0
519.0,517.0,527.0,508.0
518.0,503.0,526.0,512.0
514.0,487.0,524.0,513.0
505.0,474.0,516.0,524.0
504.0,473.0,509.0,519.0
506.0,492.0,504.0,519.0
507.0,527.0,500.0,522.0
511.0,551.0,503.0,529.0
517.0,543.0,501.0,529.0
511.0,492.0,505.0,525.0
499.0,458.0,509.0,518.0
502.0,479.0,511.0,513.0
513.0,496.0,514.0,510.0
521.0,540.0,506.0,498.0
525.0,539.0,505.0,499.0
528.0,545.0,523.0,509.0
525.0,516.0,532.0,510.0
517.0,456.0,535.0,516.0
509.0,496.0,528.0,514.0
506.0,507.0,524.0,513.0
512.0,489.0,513.0,512.0
517.0,487.0,501.0,512.0
516.0,478.0,494.0,513.0
509.0,477.0,490.0,513.0
507.0,502.0,487.0,509.0
503.0,517.0,480.0,507.0
493.0,531.0,485.0,506.0
486.0,516.0,488.0,500.0
507.0,514.0,490.0,501.0
519.0,504.0,503.0,503.0
519.0,482.0,512.0,504.0
520.0,485.0,522.0,511.0
515.0,535.0,531.0,512.0
519.0,496.0,531.0,513.0
513.0,500.0,527.0,513.0
511.0,501.0,525.0,514.0
500.0,489.0,514.0,517.0
499.0,494.0,510.0,519.0
491.0,480.0,508.0,518.0
494.0,489.0,503.0,521.0
503.0,507.0,495.0,516.0
506.0,520.0,487.0,511.0
506.0,527.0,489.0,508.0
504.0,520.0,490.0,508.0
511.0,520.0,496.0,505.0
509.0,516.0,503.0,506.0
514.0,508.0,507.0,508.0
523.0,514.0,508.0,498.0
528.0,512.0,516.0,497.0
529.0,513.0,521.0,500.0
525.0,508.0,527.0,505.0
521.0,478.0,522.0,507.0
510.0,467.0,517.0,513.0
502.0,468.0,509.0,512.0
505.0,480.0,504.0,521.0
512.0,520.0,499.0,522.0
515.0,525.0,501.0,524.0
517.0,518.0,503.0,527.0
524.0,520.0,502.0,526.0
524.0,529.0,506.0,522.0
515.0,512.0,497.0,512.0
507.0,499.0,502.0,508.0
496.0,528.0,504.0,505.0
507.0,550.0,512.0,506.0
521.0,547.0,517.0,499.0
533.0,529.0,515.0,496.0
525.0,480.0,517.0,500.0
512.0,471.0,518.0,502.0
501.0,499.0,518.0,504.0
501.0,503.0,516.0,516.0
496.0,513.0,528.0,525.0
501.0,501.0,519.0,521.0
499.0,491.0,481.0,513.0
502.0,511.0,478.0,513.0
500.0,510.0,481.0,508.0
508.0,509.0,481.0,507.0
506.0,509.0,484.0,504.0
507.0,505.0,491.0,514.0
511.0,518.0,507.0,513.0
519.0,525.0,512.0,515.0
520.0,513.0,521.0,517.0
524.0,521.0,526.0,516.0
522.0,508.0,530.0,511.0
524.0,501.0,525.0,500.0
522.0,497.0,514.0,497.0
516.0,484.0,506.0,495.0
505.0,473.0,506.0,501.0
506.0,467.0,504.0,510.0
496.0,463.0,501.0,517.0
499.0,494.0,493.0,515.0
510.0,529.0,490.0,516.0
517.0,522.0,487.0,512.0
516.0,519.0,487.0,510.0
496.0,486.0,488.0,508.0
502.0,491.0,494.0,515.0
507.0,489.0,501.0,512.0
511.0,522.0,516.0,516.0
516.0,532.0,520.0,513.0
518.0,521.0,529.0,512.0
524.0,506.0,530.0,511.0
526.0,502.0,531.0,515.0
526.0,486.0,527.0,513.0
520.0,467.0,516.0,512.0
513.0,452.0,505.0,510.0
507.0,448.0,496.0,513.0
502.0,473.0,492.0,515.0
492.0,522.0,495.0,515.0
490.0,543.0,488.0,515.0
503.0,530.0,491.0,518.0
512.0,528.0,495.0,516.0
516.0,549.0,490.0,511.0
512.0,549.0,489.0,508.0
505.0,477.0,502.0,508.0
523.0,504.0,517.0,515.0
534.0,493.0,540.0,523.0
540.0,508.0,540.0,517.0
553.0,538.0,523.0,516.0
530.0,476.0,528.0,518.0
504.0,499.0,516.0,511.0
489.0,486.0,517.0,509.0
482.0,472.0,517.0,516.0
487.0,490.0,515.0,521.0
489.0,508.0,505.0,523.0
493.0,544.0,500.0,521.0
498.0,529.0,490.0,522.0
506.0,522.0,485.0,518.0
505.0,507.0,482.0,506.0
498.0,509.0,487.0,503.0
506.0,505.0,491.0,496.0
512.0,488.0,500.0,496.0
511.0,495.0,505.0,505.0
518.0,516.0,510.0,495.0
525.0,546.0,511.0,502.0
532.0,551.0,522.0,508.0
529.0,535.0,536.0,512.0
524.0,517.0,520.0,514.0
509.0,466.0,515.0,521.0
505.0,476.0,522.0,529.0
506.0,553.0,519.0,533.0
502.0,501.0,505.0,529.0
505.0,527.0,494.0,532.0
505.0,499.0,499.0,530.0
508.0,506.0,506.0,526.0
505.0,468.0,500.0,515.0
498.0,440.0,500.0,510.0
514.0,506.0,515.0,509.0
529.0,531.0,514.0,503.0
526.0,560.0,490.0,487.0
521.0,560.0,490.0,485.0
527.0,550.0,502.0,489.0
522.0,506.0,505.0,495.0
509.0,477.0,515.0,501.0
500.0,451.0,541.0,509.0
500.0,498.0,536.0,520.0
506.0,517.0,512.0,522.0
513.0,477.0,487.0,507.0
508.0,472.0,481.0,508.0
507.0,488.0,482.0,508.0
504.0,486.0,489.0,508.0
507.0,545.0,484.0,514.0
507.0,522.0,480.0,508.0
511.0,504.0,492.0,506.0
509.0,496.0,495.0,503.0
512.0,504.0,493.0,498.0
520.0,539.0,507.0,505.0
531.0,549.0,517.0,501.0
532.0,516.0,525.0,504.0
528.0,490.0,521.0,504.0
514.0,447.0,525.0,501.0
498.0,451.0,512.0,506.0
487.0,486.0,495.0,513.0
500.0,514.0,494.0,516.0
513.0,544.0,495.0,522.0
507.0,528.0,507.0,526.0
509.0,502.0,510.0,538.0
516.0,531.0,510.0,529.0
511.0,519.0,508.0,521.0
524.0,489.0,505.0,512.0
521.0,450.0,507.0,519.0
516.0,499.0,510.0,516.0
501.0,468.0,516.0,512.0
517.0,514.0,514.0,507.0
529.0,527.0,511.0,498.0
534.0,552.0,509.0,495.0
526.0,548.0,502.0,491.0
507.0,509.0,507.0,498.0
492.0,494.0,506.0,502.0
491.0,437.0,496.0,502.0
487.0,420.0,489.0,506.0
500.0,470.0,487.0,509.0
502.0,411.0,486.0,512.0
495.0,478.0,489.0,513.0
511.0,506.0,491.0,513.0
505.0,562.0,501.0,512.0
498.0,627.0,495.0,508.0
507.0,560.0,500.0,505.0
510.0,430.0,504.0,506.0
531.0,493.0,518.0,511.0
539.0,541.0,525.0,518.0
545.0,578.0,531.0,522.0
540.0,574.0,536.0,523.0
523.0,515.0,536.0,523.0
510.0,526.0,532.0,517.0
527.0,489.0,508.0,511.0
508.0,517.0,497.0,514.0
496.0,435.0,493.0,518.0
493.0,407.0,488.0,521.0
509.0,544.0,485.0,518.0
538.0,600.0,484.0,511.0
538.0,593.0,485.0,509.0
523.0,534.0,490.0,512.0
476.0,339.0,499.0,519.0
472.0,473.0,516.0,523.0
498.0,529.0,531.0,526.0
508.0,515.0,548.0,529.0
524.0,470.0,547.0,531.0
545.0,535.0,553.0,530.0
546.0,509.0,538.0,518.0
534.0,561.0,518.0,502.0
525.0,555.0,494.0,485.0
495.0,448.0,473.0,482.0
482.0,477.0,467.0,481.0
477.0,477.0,463.0,481.0
510.0,455.0,465.0,489.0
508.0,468.0,462.0,491.0
504.0,524.0,472.0,497.0
509.0,596.0,476.0,502.0
494.0,554.0,489.0,505.0
487.0,468.0,499.0,508.0
496.0,460.0,505.0,504.0
527.0,496.0,509.0,504.0
545.0,462.0,529.0,512.0
522.0,477.0,529.0,512.0
509.0,454.0,525.0,510.0
468.0,432.0,512.0,505.0
485.0,483.0,510.0,502.0
498.0,508.0,507.0,503.0
518.0,576.0,507.0,507.0
534.0,622.0,500.0,513.0
519.0,513.0,492.0,518.0
502.0,534.0,504.0,522.0
483.0,500.0,505.0,523.0
513.0,537.0,506.0,514.0
539.0,559.0,507.0,517.0
559.0,631.0,503.0,516.0
534.0,606.0,502.0,512.0
486.0,515.0,507.0,509.0
488.0,430.0,515.0,502.0
528.0,507.0,497.0,493.0
551.0,460.0,508.0,489.0
537.0,468.0,519.0,493.0
529.0,440.0,520.0,499.0
515.0,462.0,519.0,506.0
497.0,513.0,511.0,505.0
465.0,509.0,498.0,504.0
472.0,501.0,492.0,506.0
484.0,443.0,482.0,505.0
508.0,416.0,475.0,501.0
526.0,543.0,478.0,499.0
532.0,531.0,482.0,500.0
524.0,563.0,499.0,498.0
494.0,553.0,508.0,500.0
464.0,528.0,499.0,500.0
470.0,414.0,509.0,506.0
500.0,418.0,514.0,502.0
514.0,502.0,521.0,504.0
500.0,505.0,519.0,501.0
518.0,528.0,524.0,499.0
511.0,517.0,517.0,500.0
510.0,510.0,514.0,498.0
505.0,462.0,504.0,505.0
515.0,397.0,493.0,503.0
542.0,449.0,485.0,500.0
551.0,508.0,480.0,497.0
560.0,610.0,486.0,498.0
515.0,552.0,505.0,510.0
476.0,517.0,519.0,530.0
468.0,634.0,509.0,533.0
468.0,432.0,526.0,514.0
516.0,616.0,535.0,516.0
569.0,586.0,528.0,520.0
564.0,521.0,533.0,512.0
555.0,567.0,522.0,503.0
538.0,584.0,503.0,501.0
468.0,524.0,488.0,485.0
470.0,505.0,490.0,484.0
476.0,390.0,487.0,486.0
485.0,415.0,487.0,491.0
485.0,418.0,493.0,498.0
466.0,388.0,493.0,506.0
508.0,427.0,495.0,510.0
545.0,496.0,486.0,506.0
537.0,561.0,490.0,505.0
542.0,488.0,494.0,506.0
562.0,479.0,497.0,506.0
509.0,473.0,503.0,504.0
513.0,584.0,512.0,506.0
556.0,648.0,520.0,506.0
524.0,637.0,519.0,503.0
512.0,572.0,515.0,493.0
467.0,386.0,516.0,496.0
472.0,433.0,520.0,498.0
466.0,542.0,528.0,506.0
476.0,631.0,530.0,520.0
476.0,521.0,525.0,523.0
481.0,484.0,522.0,520.0
498.0,431.0,500.0,513.0
497.0,395.0,469.0,498.0
514.0,497.0,455.0,490.0
530.0,588.0,459.0,485.0
546.0,600.0,467.0,480.0
517.0,438.0,476.0,484.0
490.0,403.0,490.0,486.0
466.0,475.0,502.0,489.0
480.0,535.0,512.0,494.0
508.0,567.0,521.0,494.0
520.0,483.0,522.0,495.0
518.0,467.0,529.0,497.0
510.0,498.0,529.0,509.0
499.0,511.0,528.0,514.0
493.0,439.0,508.0,505.0
536.0,412.0,502.0,507.0
567.0,480.0,505.0,515.0
573.0,484.0,504.0,518.0
544.0,485.0,485.0,507.0
482.0,559.0,478.0,504.0
444.0,484.0,483.0,503.0
491.0,559.0,487.0,500.0
512.0,595.0,495.0,505.0
519.0,560.0,506.0,504.0
492.0,540.0,508.0,501.0
491.0,564.0,525.0,500.0
503.0,492.0,534.0,499.0
503.0,433.0,523.0,498.0
501.0,460.0,511.0,493.0
502.0,499.0,512.0,495.0
523.0,516.0,512.0,503.0
530.0,538.0,514.0,507.0
509.0,493.0,519.0,519.0
493.0,427.0,525.0,531.0
493.0,455.0,532.0,532.0
511.0,531.0,534.0,532.0
554.0,521.0,537.0,531.0
552.0,459.0,524.0,518.0
547.0,446.0,486.0,489.0
518.0,480.0,454.0,461.0
482.0,462.0,451.0,455.0
489.0,567.0,460.0,463.0
512.0,569.0,487.0,473.0
477.0,486.0,500.0,479.0
476.0,448.0,513.0,489.0
470.0,474.0,514.0,492.0
468.0,525.0,506.0,491.0
476.0,500.0,504.0,496.0
511.0,524.0,496.0,508.0
520.0,565.0,498.0,517.0
520.0,525.0,498.0,523.0
506.0,474.0,499.0,516.0
504.0,543.0,496.0,520.0
555.0,564.0,497.0,517.0
581.0,493.0,496.0,512.0
582.0,435.0,497.0,504.0
539.0,369.0,506.0,506.0
495.0,412.0,515.0,507.0
480.0,531.0,520.0,508.0
491.0,550.0,532.0,505.0
490.0,571.0,544.0,507.0
483.0,541.0,554.0,511.0
500.0,560.0,545.0,518.0
521.0,505.0,534.0,520.0
500.0,462.0,517.0,517.0
505.0,565.0,504.0,511.0
498.0,486.0,500.0,504.0
522.0,517.0,483.0,508.0
521.0,517.0,477.0,499.0
528.0,387.0,482.0,502.0
509.0,490.0,483.0,494.0
499.0,506.0,485.0,490.0
523.0,527.0,494.0,493.0
511.0,529.0,508.0,498.0
514.0,546.0,519.0,509.0
551.0,580.0,528.0,509.0
532.0,517.0,527.0,508.0
513.0,568.0,530.0,505.0
475.0,473.0,528.0,508.0
487.0,476.0,526.0,511.0
502.0,443.0,522.0,512.0
516.0,453.0,504.0,507.0
499.0,473.0,493.0,506.0
518.0,590.0,506.0,519.0
504.0,502.0,506.0,519.0
508.0,561.0,494.0,517.0
475.0,458.0,496.0,512.0
472.0,414.0,498.0,507.0
493.0,361.0,509.0,507.0
538.0,475.0,508.0,506.0
563.0,514.0,496.0,504.0
548.0,538.0,500.0,502.0
502.0,489.0,512.0,501.0
491.0,571.0,521.0,499.0
500.0,567.0,520.0,500.0
529.0,593.0,524.0,505.0
512.0,597.0,526.0,508.0
475.0,515.0,525.0,513.0
477.0,469.0,518.0,516.0
494.0,456.0,505.0,516.0
505.0,480.0,502.0,525.0
532.0,455.0,496.0,517.0
539.0,486.0,497.0,512.0
558.0,537.0,506.0,517.0
561.0,459.0,511.0,521.0
537.0,607.0,511.0,518.0
507.0,700.0,518.0,517.0
522.0,573.0,523.0,508.0
510.0,488.0,529.0,507.0
494.0,459.0,526.0,497.0
486.0,527.0,523.0,495.0
486.0,425.0,515.0,485.0
519.0,454.0,508.0,487.0
531.0,456.0,506.0,487.0
552.0,445.0,505.0,500.0
546.0,427.0,501.0,508.0
529.0,415.0,508.0,516.0
489.0,407.0,500.0,517.0
434.0,507.0,498.0,510.0
509.0,576.0,499.0,514.0
522.0,554.0,502.0,509.0
535.0,583.0,516.0,514.0
529.0,564.0,515.0,518.0
484.0,653.0,517.0,517.0
466.0,622.0,523.0,519.0
497.0,437.0,542.0,526.0
511.0,500.0,546.0,526.0
496.0,477.0,540.0,521.0
502.0,598.0,534.0,515.0
489.0,442.0,524.0,511.0
476.0,373.0,524.0,509.0
480.0,382.0,503.0,501.0
499.0,421.0,482.0,500.0
495.0,502.0,483.0,510.0
505.0,524.0,480.0,504.0
500.0,517.0,475.0,501.0
514.0,558.0,481.0,499.0
525.0,546.0,491.0,499.0
515.0,548.0,499.0,501.0
512.0,476.0,510.0,505.0
515.0,484.0,513.0,507.0
503.0,497.0,527.0,510.0
532.0,482.0,535.0,509.0
536.0,520.0,542.0,508.0
546.0,560.0,536.0,514.0
560.0,509.0,529.0,518.0
520.0,455.0,514.0,508.0
495.0,457.0,505.0,500.0
492.0,487.0,496.0,504.0
465.0,524.0,491.0,506.0
494.0,565.0,496.0,513.0
528.0,497.0,498.0,516.0
539.0,471.0,497.0,518.0
535.0,465.0,501.0,518.0
502.0,469.0,500.0,516.0
475.0,458.0,505.0,511.0
492.0,471.0,505.0,506.0
504.0,481.0,512.0,506.0
542.0,577.0,517.0,511.0
534.0,597.0,537.0,517.0
509.0,518.0,542.0,518.0
514.0,550.0,538.0,511.0
520.0,660.0,529.0,515.0
522.0,550.0,522.0,508.0
510.0,455.0,514.0,512.0
486.0,361.0,504.0,514.0
499.0,415.0,495.0,508.0
479.0,452.0,491.0,514.0
441.0,492.0,495.0,517.0
496.0,497.0,498.0,511.0
530.0,524.0,507.0,516.0
527.0,488.0,511.0,517.0
545.0,463.0,517.0,517.0
549.0,473.0,525.0,517.0
528.0,520.0,528.0,517.0
529.0,553.0,522.0,508.0
524.0,565.0,509.0,501.0
491.0,555.0,510.0,502.0
517.0,529.0,516.0,503.0
522.0,547.0,522.0,505.0
515.0,552.0,511.0,511.0
518.0,487.0,514.0,515.0
504.0,371.0,511.0,515.0
494.0,430.0,495.0,511.0
522.0,519.0,494.0,510.0
533.0,553.0,497.0,518.0
504.0,603.0,501.0,517.0
505.0,494.0,507.0,522.0
490.0,482.0,506.0,519.0
503.0,514.0,518.0,520.0
529.0,611.0,528.0,522.0
510.0,547.0,531.0,518.0
523.0,453.0,530.0,512.0
521.0,522.0,532.0,516.0
497.0,391.0,532.0,519.0
503.0,476.0,534.0,520.0
509.0,517.0,519.0,505.0
511.0,488.0,494.0,497.0
495.0,478.0,489.0,498.0
485.0,462.0,485.0,508.0
496.0,497.0,487.0,509.0
507.0,522.0,487.0,510.0
511.0,507.0,490.0,509.0
506.0,521.0,493.0,513.0
509.0,491.0,499.0,514.0
497.0,507.0,503.0,512.0
488.0,511.0,510.0,504.0
501.0,505.0,516.0,504.0
522.0,503.0,528.0,511.0
518.0,485.0,534.0,514.0
509.0,465.0,537.0,510.0
520.0,516.0,539.0,517.0
540.0,510.0,550.0,521.0
529.0,493.0,548.0,530.0
523.0,486.0,536.0,528.0
509.0,484.0,524.0,530.0
509.0,537.0,510.0,523.0
493.0,544.0,498.0,524.0
482.0,496.0,492.0,514.0
481.0,476.0,485.0,511.0
493.0,464.0,485.0,507.0
500.0,483.0,489.0,506.0
520.0,569.0,500.0,505.0
527.0,549.0,501.0,512.0
519.0,582.0,506.0,496.0
525.0,498.0,506.0,493.0
524.0,468.0,513.0,501.0
533.0,449.0,525.0,505.0
542.0,498.0,529.0,510.0
536.0,501.0,526.0,508.0
521.0,523.0,521.0,508.0
489.0,453.0,513.0,513.0
485.0,426.0,503.0,517.0
499.0,426.0,497.0,526.0
516.0,510.0,492.0,514.0
502.0,576.0,489.0,509.0
521.0,618.0,495.0,513.0
540.0,607.0,498.0,511.0
534.0,518.0,495.0,507.0
519.0,427.0,499.0,505.0
520.0,471.0,503.0,504.0
503.0,534.0,514.0,505.0
498.0,491.0,523.0,507.0
493.0,458.0,532.0,509.0
501.0,443.0,535.0,514.0
504.0,462.0,530.0,513.0
502.0,507.0,523.0,512.0
497.0,557.0,522.0,515.0
515.0,602.0,514.0,521.0
525.0,505.0,511.0,522.0
540.0,453.0,507.0,520.0
537.0,413.0,502.0,521.0
526.0,468.0,502.0,524.0
518.0,471.0,499.0,520.0
511.0,562.0,498.0,514.0
517.0,602.0,497.0,507.0
541.0,548.0,504.0,508.0
526.0,546.0,518.0,504.0
505.0,551.0,523.0,516.0
507.0,554.0,529.0,512.0
484.0,367.0,535.0,509.0
481.0,473.0,539.0,512.0
472.0,438.0,529.0,510.0
475.0,491.0,521.0,512.0
491.0,559.0,509.0,513.0
480.0,492.0,504.0,510.0
482.0,547.0,499.0,512.0
495.0,564.0,496.0,512.0
506.0,627.0,494.0,519.0
528.0,570.0,499.0,521.0
524.0,487.0,497.0,522.0
500.0,534.0,500.0,512.0
504.0,413.0,503.0,513.0
526.0,473.0,510.0,507.0
538.0,502.0,512.0,503.0
553.0,537.0,519.0,499.0
546.0,510.0,529.0,503.0
537.0,474.0,534.0,508.0
507.0,500.0,533.0,513.0
491.0,481.0,533.0,524.0
489.0,457.0,530.0,526.0
491.0,459.0,515.0,528.0
499.0,494.0,521.0,531.0
507.0,489.0,529.0,531.0
516.0,514.0,515.0,529.0
