CH1,CH2,CH3,CH4
498.0,468.0,502.0,517.0
493.0,484.0,498.0,518.0
496.0,485.0,496.0,520.0
502.0,510.0,497.0,519.0
505.0,508.0,498.0,518.0
509.0,503.0,499.0,514.0
508.0,504.0,499.0,513.0
511.0,500.0,505.0,508.0
518.0,500.0,513.0,504.0
520.0,519.0,520.0,509.0
527.0,521.0,526.0,507.0
523.0,516.0,533.0,507.0
525.0,512.0,534.0,511.0
520.0,503.0,530.0,508.0
514.0,504.0,523.0,510.0
505.0,494.0,519.0,515.0
501.0,486.0,510.0,518.0
501.0,497.0,503.0,518.0
493.0,482.0,501.0,521.0
496.0,502.0,496.0,518.0
508.0,515.0,496.0,519.0
508.0,517.0,494.0,517.0
503.0,506.0,499.0,516.0
506.0,517.0,504.0,512.0
506.0,517.0,507.0,511.0
512.0,512.0,516.0,508.0
517.0,519.0,525.0,508.0
523.0,513.0,532.0,512.0
528.0,510.0,534.0,511.0
520.0,506.0,535.0,512.0
515.0,499.0,534.0,513.0
510.0,496.0,525.0,514.0
502.0,493.0,514.0,514.0
500.0,497.0,503.0,516.0
499.0,502.0,496.0,515.0
501.0,512.0,493.0,513.0
502.0,520.0,493.0,513.0
510.0,525.0,494.0,512.0
512.0,521.0,491.0,511.0
507.0,507.0,497.0,508.0
508.0,504.0,498.0,507.0
509.0,501.0,508.0,505.0
514.0,507.0,515.0,506.0
523.0,519.0,523.0,507.0
524.0,515.0,527.0,507.0
524.0,497.0,531.0,509.0
521.0,501.0,528.0,509.0
516.0,496.0,525.0,512.0
504.0,494.0,520.0,512.0
501.0,498.0,513.0,512.0
495.0,501.0,505.0,516.0
500.0,505.0,497.0,517.0
506.0,507.0,496.0,518.0
502.0,504.0,493.0,517.0
507.0,513.0,495.0,516.0
508.0,511.0,499.0,514.0
510.0,505.0,500.0,512.0
510.0,504.0,507.0,508.0
513.0,505.0,514.0,507.0
518.0,507.0,520.0,507.0
524.0,510.0,525.0,507.0
524.0,512.0,528.0,507.0
527.0,509.0,532.0,509.0
518.0,504.0,532.0,510.0
511.0,497.0,524.0,510.0
502.0,491.0,516.0,511.0
496.0,492.0,513.0,516.0
497.0,497.0,501.0,517.0
498.0,501.0,496.0,520.0
503.0,507.0,496.0,518.0
508.0,514.0,496.0,518.0
509.0,519.0,494.0,515.0
510.0,517.0,499.0,512.0
512.0,515.0,505.0,512.0
512.0,513.0,507.0,510.0
515.0,501.0,517.0,507.0
522.0,496.0,523.0,509.0
524.0,511.0,527.0,508.0
523.0,502.0,534.0,511.0
525.0,502.0,536.0,512.0
520.0,495.0,529.0,514.0
506.0,488.0,527.0,513.0
503.0,486.0,517.0,516.0
498.0,494.0,509.0,517.0
500.0,502.0,500.0,516.0
501.0,507.0,498.0,517.0
504.0,511.0,496.0,518.0
509.0,519.0,495.0,517.0
512.0,515.0,499.0,512.0
508.0,503.0,499.0,513.0
506.0,502.0,502.0,509.0
512.0,508.0,509.0,509.0
514.0,508.0,519.0,507.0
523.0,507.0,523.0,506.0
527.0,509.0,528.0,504.0
521.0,466.0,532.0,511.0
518.0,479.0,529.0,510.0
514.0,486.0,525.0,506.0
498.0,487.0,520.0,513.0
502.0,496.0,512.0,513.0
499.0,521.0,504.0,515.0
495.0,531.0,501.0,519.0
502.0,524.0,494.0,520.0
506.0,521.0,493.0,519.0
509.0,524.0,497.0,519.0
509.0,510.0,498.0,515.0
509.0,507.0,499.0,512.0
511.0,509.0,505.0,503.0
510.0,510.0,511.0,506.0
517.0,513.0,518.0,509.0
524.0,516.0,527.0,509.0
526.0,513.0,530.0,513.0
525.0,520.0,534.0,509.0
517.0,511.0,530.0,512.0
514.0,504.0,523.0,511.0
502.0,492.0,517.0,513.0
501.0,494.0,508.0,515.0
499.0,496.0,501.0,519.0
500.0,502.0,498.0,519.0
499.0,505.0,498.0,517.0
509.0,513.0,497.0,518.0
507.0,513.0,499.0,517.0
508.0,502.0,499.0,514.0
509.0,505.0,504.0,510.0
515.0,501.0,514.0,510.0
517.0,505.0,517.0,507.0
527.0,510.0,525.0,507.0
527.0,512.0,529.0,507.0
525.0,512.0,529.0,509.0
521.0,511.0,530.0,510.0
517.0,514.0,527.0,510.0
512.0,506.0,520.0,511.0
503.0,501.0,514.0,517.0
501.0,490.0,506.0,517.0
499.0,483.0,501.0,521.0
503.0,485.0,500.0,517.0
505.0,498.0,497.0,520.0
509.0,514.0,495.0,517.0
508.0,512.0,501.0,517.0
506.0,508.0,500.0,513.0
506.0,512.0,505.0,509.0
513.0,517.0,510.0,507.0
515.0,517.0,513.0,505.0
519.0,518.0,523.0,507.0
527.0,521.0,529.0,507.0
527.0,513.0,532.0,509.0
525.0,508.0,530.0,509.0
513.0,498.0,524.0,509.0
500.0,489.0,521.0,513.0
499.0,491.0,513.0,515.0
497.0,488.0,506.0,515.0
500.0,493.0,501.0,518.0
501.0,493.0,497.0,516.0
501.0,494.0,496.0,517.0
506.0,508.0,496.0,515.0
507.0,513.0,497.0,513.0
506.0,518.0,498.0,511.0
510.0,522.0,506.0,505.0
514.0,515.0,511.0,509.0
520.0,518.0,521.0,506.0
524.0,518.0,526.0,509.0
525.0,513.0,531.0,508.0
527.0,508.0,534.0,508.0
522.0,507.0,528.0,511.0
512.0,502.0,526.0,514.0
505.0,505.0,519.0,513.0
499.0,514.0,514.0,516.0
500.0,507.0,504.0,520.0
500.0,474.0,495.0,519.0
498.0,489.0,495.0,519.0
500.0,507.0,496.0,518.0
508.0,508.0,497.0,515.0
507.0,502.0,494.0,513.0
507.0,506.0,498.0,510.0
510.0,504.0,508.0,508.0
515.0,502.0,515.0,506.0
520.0,503.0,519.0,508.0
523.0,502.0,527.0,506.0
523.0,509.0,529.0,507.0
519.0,512.0,532.0,508.0
517.0,517.0,528.0,509.0
507.0,501.0,520.0,509.0
500.0,496.0,513.0,513.0
496.0,496.0,506.0,514.0
498.0,496.0,500.0,516.0
501.0,498.0,500.0,519.0
501.0,504.0,496.0,517.0
507.0,509.0,498.0,517.0
510.0,510.0,498.0,513.0
507.0,510.0,497.0,513.0
508.0,505.0,503.0,508.0
514.0,509.0,512.0,505.0
517.0,509.0,519.0,508.0
521.0,512.0,525.0,505.0
526.0,505.0,530.0,511.0
526.0,503.0,534.0,506.0
517.0,498.0,532.0,511.0
513.0,498.0,528.0,509.0
504.0,492.0,522.0,513.0
502.0,505.0,512.0,512.0
501.0,504.0,500.0,517.0
497.0,503.0,503.0,518.0
502.0,504.0,496.0,518.0
505.0,509.0,496.0,519.0
514.0,516.0,501.0,517.0
509.0,515.0,498.0,515.0
509.0,509.0,499.0,512.0
512.0,503.0,508.0,507.0
515.0,507.0,516.0,505.0
521.0,508.0,522.0,507.0
526.0,506.0,527.0,509.0
524.0,507.0,531.0,508.0
524.0,506.0,533.0,509.0
520.0,501.0,529.0,512.0
510.0,502.0,526.0,512.0
503.0,491.0,519.0,512.0
500.0,488.0,509.0,518.0
498.0,493.0,505.0,518.0
502.0,497.0,499.0,522.0
504.0,496.0,494.0,519.0
505.0,505.0,496.0,517.0
509.0,503.0,494.0,515.0
506.0,500.0,499.0,514.0
505.0,501.0,502.0,508.0
513.0,514.0,506.0,507.0
515.0,525.0,513.0,507.0
520.0,519.0,521.0,513.0
524.0,509.0,528.0,508.0
521.0,496.0,531.0,509.0
523.0,493.0,534.0,511.0
525.0,499.0,530.0,511.0
509.0,498.0,523.0,511.0
502.0,515.0,513.0,514.0
502.0,526.0,506.0,514.0
502.0,519.0,500.0,518.0
502.0,518.0,499.0,520.0
504.0,526.0,497.0,518.0
510.0,525.0,497.0,518.0
507.0,509.0,497.0,513.0
499.0,471.0,498.0,512.0
504.0,483.0,505.0,510.0
509.0,492.0,513.0,510.0
516.0,504.0,518.0,511.0
524.0,517.0,527.0,513.0
528.0,516.0,534.0,512.0
526.0,519.0,538.0,513.0
523.0,509.0,535.0,514.0
516.0,499.0,525.0,511.0
505.0,492.0,518.0,511.0
500.0,497.0,509.0,510.0
498.0,493.0,501.0,513.0
498.0,480.0,495.0,517.0
499.0,470.0,491.0,515.0
495.0,470.0,489.0,512.0
503.0,475.0,491.0,514.0
508.0,523.0,493.0,513.0
508.0,544.0,497.0,510.0
512.0,522.0,505.0,511.0
517.0,513.0,512.0,507.0
520.0,510.0,522.0,505.0
522.0,508.0,526.0,505.0
527.0,507.0,530.0,505.0
527.0,513.0,531.0,503.0
521.0,511.0,530.0,509.0
518.0,514.0,520.0,509.0
505.0,500.0,514.0,512.0
501.0,496.0,510.0,515.0
501.0,510.0,501.0,514.0
501.0,520.0,497.0,516.0
501.0,513.0,496.0,517.0
509.0,516.0,496.0,520.0
510.0,521.0,494.0,516.0
504.0,508.0,499.0,514.0
509.0,509.0,502.0,512.0
511.0,509.0,510.0,510.0
515.0,513.0,516.0,510.0
520.0,514.0,526.0,509.0
523.0,507.0,533.0,510.0
525.0,507.0,534.0,510.0
526.0,512.0,535.0,507.0
518.0,505.0,528.0,512.0
508.0,499.0,521.0,515.0
503.0,505.0,512.0,514.0
497.0,498.0,504.0,515.0
497.0,494.0,497.0,515.0
497.0,504.0,494.0,518.0
502.0,509.0,493.0,516.0
509.0,515.0,497.0,514.0
506.0,513.0,498.0,516.0
512.0,508.0,501.0,513.0
514.0,505.0,504.0,509.0
509.0,494.0,510.0,509.0
514.0,500.0,518.0,511.0
520.0,513.0,526.0,509.0
523.0,513.0,531.0,508.0
525.0,512.0,531.0,509.0
521.0,505.0,531.0,510.0
515.0,501.0,523.0,508.0
502.0,492.0,518.0,513.0
499.0,490.0,510.0,516.0
498.0,495.0,504.0,516.0
497.0,502.0,499.0,520.0
504.0,506.0,497.0,521.0
504.0,508.0,495.0,515.0
510.0,514.0,498.0,514.0
511.0,512.0,500.0,515.0
508.0,514.0,501.0,514.0
512.0,511.0,505.0,508.0
524.0,510.0,515.0,509.0
523.0,503.0,524.0,511.0
525.0,508.0,531.0,506.0
517.0,503.0,534.0,510.0
524.0,506.0,534.0,507.0
521.0,499.0,529.0,509.0
514.0,490.0,521.0,511.0
503.0,484.0,517.0,512.0
499.0,484.0,506.0,518.0
499.0,479.0,500.0,518.0
503.0,502.0,495.0,518.0
502.0,499.0,495.0,515.0
505.0,510.0,497.0,518.0
507.0,517.0,498.0,516.0
508.0,518.0,499.0,514.0
506.0,513.0,503.0,510.0
509.0,515.0,507.0,506.0
512.0,519.0,516.0,508.0
521.0,532.0,526.0,509.0
527.0,528.0,531.0,506.0
526.0,525.0,533.0,507.0
522.0,507.0,533.0,508.0
516.0,472.0,527.0,512.0
505.0,468.0,521.0,512.0
504.0,466.0,513.0,515.0
506.0,459.0,506.0,518.0
502.0,476.0,500.0,518.0
504.0,513.0,498.0,520.0
508.0,536.0,494.0,522.0
511.0,533.0,497.0,523.0
513.0,512.0,503.0,519.0
514.0,510.0,504.0,519.0
512.0,502.0,512.0,516.0
516.0,515.0,522.0,514.0
518.0,515.0,527.0,513.0
524.0,509.0,531.0,513.0
525.0,509.0,532.0,511.0
519.0,498.0,533.0,510.0
519.0,490.0,529.0,512.0
507.0,516.0,524.0,512.0
494.0,507.0,517.0,514.0
498.0,498.0,508.0,511.0
499.0,497.0,502.0,515.0
498.0,489.0,495.0,513.0
499.0,506.0,493.0,515.0
503.0,530.0,492.0,515.0
511.0,538.0,492.0,512.0
511.0,539.0,497.0,511.0
510.0,531.0,495.0,508.0
514.0,518.0,507.0,507.0
516.0,495.0,511.0,503.0
518.0,502.0,517.0,505.0
529.0,511.0,526.0,503.0
527.0,506.0,531.0,504.0
525.0,517.0,529.0,502.0
515.0,515.0,525.0,500.0
511.0,505.0,520.0,505.0
499.0,503.0,515.0,511.0
498.0,500.0,504.0,513.0
499.0,498.0,499.0,514.0
503.0,509.0,496.0,516.0
504.0,511.0,494.0,514.0
508.0,521.0,494.0,515.0
506.0,528.0,497.0,516.0
508.0,530.0,499.0,512.0
506.0,519.0,500.0,509.0
513.0,507.0,509.0,508.0
516.0,490.0,516.0,505.0
522.0,495.0,521.0,506.0
523.0,493.0,528.0,504.0
524.0,499.0,531.0,507.0
523.0,504.0,531.0,508.0
517.0,502.0,528.0,507.0
507.0,499.0,519.0,512.0
501.0,496.0,510.0,513.0
500.0,494.0,505.0,517.0
499.0,500.0,499.0,519.0
498.0,501.0,497.0,518.0
503.0,502.0,493.0,519.0
508.0,509.0,495.0,520.0
510.0,509.0,498.0,513.0
505.0,507.0,500.0,514.0
508.0,507.0,504.0,508.0
514.0,505.0,512.0,506.0
516.0,507.0,518.0,514.0
521.0,512.0,527.0,508.0
525.0,511.0,531.0,505.0
526.0,508.0,534.0,511.0
520.0,507.0,531.0,510.0
509.0,501.0,526.0,512.0
505.0,492.0,519.0,509.0
499.0,495.0,511.0,516.0
500.0,493.0,505.0,518.0
496.0,496.0,499.0,519.0
502.0,498.0,497.0,519.0
505.0,498.0,496.0,520.0
509.0,501.0,501.0,516.0
508.0,499.0,501.0,514.0
510.0,500.0,503.0,510.0
513.0,517.0,507.0,509.0
520.0,522.0,512.0,508.0
522.0,536.0,522.0,511.0
527.0,537.0,527.0,509.0
527.0,530.0,533.0,508.0
525.0,528.0,532.0,510.0
518.0,491.0,529.0,512.0
510.0,482.0,525.0,513.0
502.0,486.0,514.0,516.0
501.0,480.0,505.0,517.0
502.0,483.0,499.0,514.0
504.0,490.0,495.0,520.0
503.0,486.0,495.0,518.0
508.0,495.0,496.0,517.0
510.0,492.0,495.0,517.0
508.0,494.0,498.0,515.0
508.0,503.0,503.0,513.0
513.0,509.0,508.0,509.0
517.0,500.0,516.0,508.0
522.0,517.0,525.0,506.0
528.0,525.0,531.0,508.0
526.0,514.0,534.0,510.0
525.0,491.0,532.0,509.0
521.0,483.0,527.0,513.0
498.0,508.0,521.0,509.0
499.0,500.0,512.0,515.0
501.0,493.0,504.0,515.0
502.0,490.0,499.0,518.0
503.0,489.0,496.0,522.0
507.0,503.0,493.0,521.0
512.0,544.0,497.0,519.0
509.0,541.0,499.0,518.0
505.0,528.0,500.0,520.0
501.0,526.0,507.0,513.0
506.0,522.0,514.0,513.0
516.0,523.0,524.0,513.0
513.0,491.0,527.0,511.0
515.0,490.0,519.0,513.0
510.0,479.0,513.0,511.0
509.0,496.0,502.0,518.0
505.0,514.0,499.0,518.0
508.0,515.0,493.0,520.0
509.0,516.0,496.0,519.0
521.0,522.0,497.0,517.0
514.0,507.0,495.0,514.0
512.0,507.0,502.0,510.0
509.0,512.0,506.0,510.0
514.0,515.0,511.0,508.0
520.0,510.0,518.0,509.0
524.0,507.0,524.0,510.0
523.0,485.0,533.0,508.0
526.0,481.0,533.0,509.0
520.0,487.0,528.0,508.0
511.0,491.0,526.0,512.0
504.0,493.0,512.0,513.0
501.0,493.0,510.0,516.0
503.0,499.0,499.0,517.0
501.0,510.0,495.0,518.0
503.0,527.0,496.0,519.0
512.0,527.0,495.0,519.0
514.0,542.0,498.0,516.0
509.0,508.0,496.0,515.0
512.0,501.0,504.0,512.0
513.0,502.0,510.0,507.0
512.0,513.0,517.0,510.0
518.0,515.0,522.0,514.0
518.0,516.0,529.0,507.0
519.0,508.0,532.0,512.0
521.0,507.0,531.0,512.0
512.0,487.0,528.0,512.0
515.0,497.0,525.0,512.0
503.0,497.0,515.0,516.0
502.0,497.0,507.0,520.0
500.0,508.0,500.0,518.0
507.0,505.0,494.0,517.0
507.0,504.0,498.0,519.0
507.0,494.0,498.0,517.0
506.0,494.0,493.0,509.0
505.0,507.0,499.0,512.0
508.0,522.0,501.0,507.0
513.0,513.0,510.0,507.0
521.0,509.0,518.0,506.0
520.0,514.0,525.0,508.0
527.0,511.0,531.0,507.0
525.0,512.0,531.0,509.0
524.0,508.0,528.0,505.0
516.0,500.0,523.0,512.0
509.0,501.0,518.0,512.0
501.0,500.0,509.0,513.0
498.0,500.0,503.0,516.0
498.0,502.0,499.0,520.0
497.0,500.0,496.0,518.0
503.0,501.0,496.0,519.0
505.0,501.0,493.0,517.0
502.0,507.0,498.0,515.0
514.0,510.0,501.0,510.0
513.0,503.0,505.0,510.0
516.0,505.0,510.0,506.0
519.0,505.0,520.0,509.0
522.0,512.0,529.0,507.0
526.0,506.0,534.0,508.0
526.0,508.0,534.0,507.0
517.0,505.0,529.0,510.0
520.0,510.0,522.0,511.0
504.0,494.0,515.0,511.0
499.0,489.0,504.0,515.0
498.0,490.0,501.0,516.0
502.0,499.0,495.0,518.0
507.0,502.0,495.0,517.0
510.0,508.0,495.0,516.0
510.0,513.0,494.0,513.0
507.0,507.0,496.0,510.0
511.0,510.0,499.0,508.0
510.0,505.0,508.0,506.0
510.0,496.0,516.0,506.0
517.0,499.0,524.0,506.0
525.0,513.0,529.0,507.0
527.0,511.0,533.0,508.0
525.0,513.0,532.0,508.0
517.0,507.0,526.0,508.0
517.0,503.0,522.0,512.0
503.0,495.0,514.0,508.0
500.0,499.0,507.0,516.0
500.0,504.0,498.0,516.0
503.0,509.0,498.0,517.0
503.0,519.0,495.0,517.0
509.0,503.0,499.0,517.0
505.0,496.0,497.0,513.0
509.0,505.0,502.0,511.0
511.0,503.0,506.0,510.0
516.0,501.0,511.0,507.0
518.0,497.0,519.0,506.0
523.0,498.0,523.0,506.0
524.0,509.0,535.0,509.0
526.0,521.0,535.0,505.0
521.0,508.0,532.0,511.0
511.0,496.0,527.0,510.0
503.0,490.0,519.0,512.0
499.0,488.0,513.0,515.0
497.0,489.0,503.0,517.0
499.0,504.0,498.0,521.0
501.0,514.0,496.0,520.0
504.0,520.0,495.0,521.0
511.0,516.0,495.0,520.0
505.0,514.0,498.0,514.0
512.0,510.0,502.0,513.0
511.0,502.0,503.0,510.0
515.0,505.0,512.0,509.0
520.0,507.0,523.0,510.0
525.0,510.0,528.0,506.0
527.0,511.0,535.0,510.0
526.0,507.0,534.0,512.0
519.0,501.0,531.0,508.0
514.0,498.0,526.0,513.0
503.0,495.0,515.0,513.0
497.0,498.0,511.0,515.0
494.0,515.0,503.0,517.0
498.0,516.0,498.0,518.0
500.0,504.0,494.0,518.0
506.0,510.0,494.0,518.0
505.0,514.0,498.0,514.0
508.0,503.0,499.0,517.0
512.0,508.0,500.0,512.0
522.0,500.0,503.0,509.0
521.0,498.0,516.0,507.0
528.0,508.0,522.0,506.0
532.0,518.0,525.0,507.0
532.0,525.0,534.0,506.0
529.0,528.0,532.0,510.0
518.0,519.0,527.0,508.0
514.0,480.0,525.0,509.0
499.0,472.0,517.0,512.0
501.0,483.0,507.0,514.0
501.0,500.0,503.0,517.0
501.0,500.0,495.0,521.0
505.0,517.0,498.0,521.0
504.0,509.0,492.0,518.0
502.0,492.0,499.0,516.0
506.0,496.0,500.0,509.0
510.0,491.0,505.0,511.0
513.0,509.0,513.0,506.0
520.0,509.0,518.0,509.0
523.0,510.0,527.0,508.0
527.0,510.0,531.0,505.0
527.0,505.0,534.0,506.0
525.0,503.0,529.0,509.0
518.0,492.0,523.0,510.0
511.0,486.0,520.0,513.0
505.0,488.0,512.0,513.0
500.0,485.0,505.0,518.0
496.0,500.0,496.0,518.0
501.0,515.0,496.0,519.0
503.0,513.0,498.0,517.0
510.0,516.0,497.0,514.0
504.0,505.0,496.0,516.0
509.0,503.0,499.0,515.0
508.0,507.0,508.0,514.0
513.0,510.0,513.0,511.0
520.0,515.0,521.0,511.0
525.0,525.0,527.0,511.0
526.0,526.0,536.0,509.0
525.0,509.0,536.0,510.0
518.0,503.0,531.0,511.0
514.0,499.0,526.0,515.0
505.0,491.0,520.0,512.0
501.0,496.0,512.0,514.0
501.0,502.0,501.0,516.0
503.0,502.0,496.0,515.0
503.0,513.0,495.0,516.0
508.0,504.0,495.0,516.0
510.0,506.0,492.0,512.0
507.0,495.0,497.0,511.0
511.0,502.0,503.0,506.0
515.0,510.0,508.0,507.0
518.0,520.0,517.0,508.0
523.0,523.0,520.0,507.0
527.0,520.0,530.0,508.0
524.0,506.0,529.0,506.0
521.0,491.0,533.0,508.0
516.0,490.0,529.0,511.0
517.0,496.0,525.0,510.0
503.0,496.0,515.0,513.0
502.0,491.0,507.0,513.0
504.0,495.0,503.0,518.0
505.0,503.0,493.0,520.0
509.0,512.0,496.0,518.0
511.0,514.0,496.0,517.0
504.0,510.0,498.0,516.0
510.0,515.0,502.0,511.0
510.0,504.0,505.0,510.0
513.0,494.0,512.0,509.0
511.0,508.0,519.0,508.0
517.0,519.0,527.0,509.0
522.0,512.0,532.0,511.0
523.0,510.0,536.0,512.0
524.0,498.0,533.0,510.0
510.0,490.0,525.0,511.0
509.0,488.0,522.0,510.0
503.0,489.0,514.0,511.0
505.0,498.0,506.0,514.0
501.0,504.0,501.0,513.0
505.0,502.0,502.0,519.0
505.0,505.0,493.0,515.0
504.0,511.0,499.0,516.0
504.0,503.0,499.0,513.0
509.0,515.0,503.0,511.0
511.0,504.0,510.0,508.0
511.0,496.0,514.0,504.0
517.0,498.0,522.0,503.0
524.0,508.0,527.0,507.0
527.0,515.0,534.0,508.0
528.0,527.0,536.0,509.0
518.0,511.0,531.0,510.0
514.0,503.0,525.0,508.0
504.0,494.0,518.0,510.0
501.0,499.0,508.0,513.0
503.0,518.0,502.0,517.0
503.0,523.0,499.0,518.0
507.0,526.0,495.0,519.0
514.0,530.0,498.0,512.0
512.0,509.0,497.0,521.0
503.0,459.0,501.0,516.0
506.0,487.0,504.0,511.0
506.0,496.0,510.0,510.0
512.0,507.0,514.0,508.0
515.0,511.0,525.0,509.0
524.0,521.0,528.0,511.0
525.0,511.0,534.0,505.0
521.0,507.0,531.0,508.0
512.0,504.0,528.0,506.0
511.0,501.0,522.0,510.0
502.0,489.0,514.0,510.0
499.0,484.0,507.0,516.0
497.0,490.0,501.0,517.0
504.0,492.0,497.0,518.0
503.0,502.0,494.0,515.0
509.0,515.0,495.0,517.0
512.0,524.0,502.0,516.0
508.0,520.0,501.0,513.0
511.0,521.0,505.0,510.0
514.0,515.0,513.0,507.0
518.0,487.0,518.0,508.0
521.0,499.0,527.0,508.0
527.0,518.0,533.0,508.0
526.0,503.0,532.0,508.0
518.0,501.0,533.0,509.0
513.0,494.0,525.0,509.0
508.0,486.0,517.0,511.0
500.0,481.0,509.0,517.0
502.0,476.0,502.0,516.0
504.0,491.0,499.0,519.0
507.0,504.0,497.0,519.0
504.0,502.0,493.0,517.0
506.0,514.0,498.0,514.0
499.0,512.0,499.0,509.0
505.0,524.0,503.0,514.0
504.0,527.0,506.0,509.0
508.0,524.0,515.0,507.0
512.0,516.0,522.0,507.0
515.0,505.0,529.0,509.0
521.0,510.0,533.0,508.0
523.0,512.0,534.0,508.0
514.0,513.0,531.0,510.0
517.0,504.0,523.0,511.0
509.0,495.0,520.0,514.0
502.0,496.0,509.0,519.0
497.0,493.0,504.0,517.0
504.0,495.0,499.0,519.0
505.0,500.0,496.0,518.0
509.0,508.0,494.0,517.0
512.0,509.0,497.0,512.0
507.0,510.0,498.0,510.0
513.0,516.0,507.0,512.0
513.0,513.0,507.0,509.0
517.0,505.0,515.0,508.0
528.0,505.0,521.0,507.0
523.0,503.0,528.0,508.0
524.0,509.0,534.0,506.0
522.0,507.0,534.0,508.0
515.0,497.0,528.0,510.0
513.0,496.0,523.0,512.0
504.0,491.0,517.0,515.0
501.0,491.0,506.0,518.0
501.0,486.0,506.0,520.0
505.0,496.0,496.0,519.0
507.0,516.0,498.0,519.0
511.0,531.0,496.0,516.0
508.0,528.0,499.0,517.0
506.0,530.0,500.0,511.0
508.0,508.0,504.0,509.0
512.0,501.0,512.0,508.0
516.0,520.0,518.0,508.0
524.0,515.0,525.0,511.0
525.0,501.0,531.0,508.0
522.0,484.0,533.0,511.0
519.0,492.0,531.0,514.0
510.0,492.0,525.0,512.0
506.0,491.0,519.0,514.0
504.0,500.0,514.0,516.0
502.0,499.0,502.0,517.0
498.0,497.0,496.0,517.0
500.0,501.0,498.0,519.0
505.0,504.0,496.0,518.0
510.0,505.0,498.0,519.0
506.0,501.0,496.0,514.0
510.0,511.0,502.0,514.0
508.0,510.0,508.0,508.0
514.0,508.0,514.0,510.0
521.0,506.0,520.0,509.0
526.0,505.0,530.0,511.0
529.0,514.0,531.0,511.0
526.0,512.0,532.0,511.0
517.0,502.0,532.0,512.0
509.0,497.0,526.0,512.0
506.0,491.0,518.0,515.0
502.0,488.0,509.0,518.0
496.0,494.0,504.0,515.0
504.0,500.0,498.0,518.0
505.0,502.0,494.0,519.0
510.0,508.0,494.0,519.0
510.0,504.0,499.0,518.0
507.0,507.0,501.0,513.0
509.0,502.0,503.0,512.0
505.0,505.0,511.0,510.0
514.0,513.0,520.0,510.0
522.0,518.0,525.0,508.0
527.0,514.0,531.0,509.0
526.0,509.0,535.0,507.0
525.0,508.0,535.0,511.0
517.0,514.0,530.0,509.0
515.0,511.0,525.0,512.0
505.0,501.0,512.0,513.0
497.0,499.0,505.0,518.0
495.0,499.0,502.0,521.0
503.0,505.0,500.0,518.0
503.0,501.0,501.0,520.0
507.0,507.0,496.0,518.0
509.0,507.0,496.0,516.0
507.0,500.0,498.0,515.0
508.0,504.0,507.0,510.0
513.0,499.0,513.0,512.0
513.0,500.0,519.0,510.0
522.0,506.0,526.0,506.0
524.0,505.0,527.0,508.0
525.0,513.0,535.0,510.0
522.0,515.0,528.0,510.0
514.0,514.0,524.0,510.0
507.0,511.0,522.0,510.0
501.0,506.0,513.0,515.0
501.0,494.0,500.0,515.0
503.0,497.0,501.0,519.0
504.0,495.0,494.0,520.0
505.0,500.0,497.0,517.0
509.0,498.0,498.0,517.0
509.0,489.0,499.0,517.0
516.0,490.0,503.0,516.0
509.0,485.0,508.0,509.0
516.0,507.0,515.0,511.0
523.0,518.0,521.0,510.0
527.0,536.0,529.0,508.0
526.0,542.0,534.0,507.0
523.0,535.0,533.0,512.0
517.0,514.0,530.0,509.0
508.0,488.0,524.0,510.0
501.0,494.0,519.0,514.0
501.0,503.0,511.0,515.0
498.0,508.0,501.0,519.0
501.0,509.0,500.0,521.0
505.0,511.0,500.0,521.0
504.0,504.0,499.0,518.0
510.0,504.0,499.0,518.0
508.0,503.0,501.0,516.0
511.0,500.0,504.0,511.0
513.0,495.0,512.0,511.0
515.0,494.0,519.0,509.0
520.0,504.0,524.0,512.0
523.0,515.0,532.0,507.0
524.0,517.0,531.0,506.0
526.0,525.0,526.0,506.0
518.0,511.0,525.0,507.0
511.0,508.0,524.0,510.0
499.0,498.0,511.0,512.0
497.0,460.0,504.0,517.0
500.0,471.0,499.0,518.0
505.0,494.0,497.0,517.0
506.0,497.0,496.0,519.0
509.0,514.0,494.0,516.0
509.0,518.0,497.0,514.0
507.0,514.0,498.0,513.0
509.0,509.0,503.0,512.0
508.0,508.0,512.0,510.0
506.0,511.0,519.0,509.0
523.0,512.0,524.0,504.0
525.0,510.0,532.0,509.0
526.0,509.0,535.0,508.0
524.0,506.0,531.0,509.0
514.0,499.0,525.0,512.0
507.0,496.0,520.0,511.0
500.0,489.0,514.0,515.0
496.0,485.0,503.0,519.0
495.0,483.0,499.0,517.0
500.0,496.0,497.0,518.0
503.0,502.0,497.0,518.0
508.0,511.0,497.0,520.0
503.0,519.0,497.0,520.0
510.0,518.0,504.0,513.0
509.0,511.0,507.0,512.0
516.0,507.0,515.0,509.0
520.0,505.0,521.0,509.0
523.0,507.0,525.0,507.0
524.0,505.0,533.0,510.0
525.0,509.0,535.0,510.0
519.0,516.0,530.0,515.0
511.0,506.0,523.0,512.0
505.0,487.0,516.0,517.0
503.0,490.0,510.0,517.0
500.0,489.0,502.0,520.0
501.0,487.0,498.0,522.0
504.0,502.0,497.0,516.0
508.0,507.0,498.0,520.0
513.0,503.0,502.0,518.0
509.0,504.0,499.0,512.0
513.0,530.0,500.0,509.0
512.0,540.0,506.0,511.0
518.0,526.0,513.0,508.0
524.0,521.0,522.0,508.0
523.0,501.0,532.0,510.0
518.0,502.0,534.0,508.0
519.0,505.0,536.0,510.0
512.0,492.0,528.0,510.0
513.0,491.0,524.0,510.0
502.0,481.0,513.0,516.0
500.0,478.0,507.0,516.0
500.0,488.0,498.0,520.0
500.0,494.0,497.0,519.0
500.0,498.0,495.0,519.0
504.0,522.0,497.0,519.0
504.0,536.0,499.0,516.0
507.0,531.0,500.0,513.0
511.0,517.0,505.0,512.0
519.0,515.0,510.0,511.0
522.0,503.0,519.0,511.0
527.0,510.0,525.0,506.0
529.0,514.0,532.0,510.0
528.0,508.0,534.0,510.0
523.0,500.0,534.0,509.0
510.0,497.0,530.0,512.0
504.0,491.0,519.0,514.0
504.0,504.0,515.0,517.0
500.0,514.0,507.0,517.0
497.0,509.0,498.0,516.0
498.0,496.0,495.0,514.0
504.0,500.0,493.0,516.0
508.0,518.0,496.0,516.0
507.0,513.0,497.0,512.0
509.0,508.0,499.0,512.0
516.0,521.0,508.0,510.0
519.0,523.0,514.0,509.0
524.0,521.0,521.0,510.0
528.0,526.0,528.0,512.0
529.0,488.0,534.0,507.0
522.0,464.0,535.0,511.0
519.0,487.0,529.0,512.0
516.0,503.0,522.0,511.0
499.0,494.0,513.0,510.0
496.0,491.0,504.0,515.0
498.0,498.0,499.0,518.0
498.0,494.0,499.0,518.0
499.0,490.0,497.0,515.0
510.0,505.0,495.0,520.0
514.0,507.0,494.0,516.0
507.0,501.0,500.0,513.0
513.0,520.0,503.0,512.0
508.0,514.0,510.0,511.0
514.0,511.0,515.0,511.0
521.0,505.0,523.0,510.0
525.0,496.0,531.0,512.0
526.0,498.0,536.0,512.0
530.0,519.0,534.0,510.0
528.0,511.0,529.0,514.0
510.0,507.0,527.0,515.0
497.0,501.0,514.0,519.0
498.0,496.0,508.0,520.0
498.0,489.0,498.0,520.0
494.0,508.0,495.0,516.0
502.0,507.0,492.0,515.0
507.0,505.0,494.0,514.0
508.0,500.0,495.0,510.0
505.0,490.0,498.0,506.0
509.0,504.0,503.0,505.0
511.0,515.0,510.0,505.0
517.0,510.0,519.0,507.0
518.0,520.0,523.0,507.0
525.0,527.0,530.0,512.0
531.0,522.0,530.0,513.0
523.0,519.0,528.0,513.0
516.0,501.0,525.0,513.0
507.0,485.0,520.0,516.0
499.0,478.0,513.0,515.0
497.0,483.0,505.0,519.0
500.0,499.0,502.0,517.0
503.0,514.0,502.0,520.0
506.0,526.0,500.0,518.0
512.0,522.0,497.0,516.0
506.0,502.0,499.0,515.0
514.0,502.0,502.0,513.0
510.0,507.0,504.0,510.0
509.0,517.0,513.0,508.0
520.0,516.0,521.0,509.0
527.0,510.0,528.0,506.0
528.0,503.0,532.0,509.0
528.0,499.0,534.0,508.0
521.0,501.0,529.0,509.0
515.0,494.0,522.0,509.0
504.0,488.0,513.0,514.0
496.0,491.0,510.0,514.0
494.0,497.0,501.0,519.0
498.0,503.0,497.0,520.0
502.0,508.0,498.0,517.0
506.0,519.0,497.0,518.0
509.0,521.0,496.0,515.0
504.0,509.0,500.0,516.0
505.0,509.0,503.0,513.0
509.0,510.0,509.0,512.0
511.0,507.0,518.0,511.0
521.0,512.0,524.0,507.0
525.0,509.0,531.0,507.0
528.0,500.0,535.0,509.0
525.0,486.0,533.0,513.0
521.0,483.0,531.0,514.0
514.0,497.0,526.0,515.0
506.0,489.0,515.0,514.0
504.0,492.0,506.0,513.0
499.0,510.0,500.0,517.0
497.0,510.0,495.0,516.0
502.0,506.0,495.0,516.0
505.0,520.0,497.0,515.0
502.0,521.0,497.0,515.0
505.0,512.0,498.0,511.0
506.0,509.0,503.0,508.0
513.0,523.0,511.0,506.0
518.0,521.0,517.0,509.0
525.0,519.0,526.0,506.0
526.0,512.0,530.0,510.0
524.0,478.0,533.0,508.0
520.0,475.0,532.0,510.0
517.0,487.0,526.0,511.0
503.0,478.0,519.0,513.0
500.0,496.0,511.0,516.0
500.0,500.0,503.0,519.0
501.0,510.0,497.0,524.0
503.0,516.0,495.0,520.0
503.0,511.0,493.0,520.0
507.0,515.0,496.0,520.0
506.0,511.0,497.0,517.0
507.0,503.0,500.0,511.0
510.0,491.0,505.0,510.0
514.0,491.0,517.0,512.0
522.0,502.0,524.0,513.0
525.0,500.0,529.0,510.0
521.0,508.0,533.0,512.0
518.0,517.0,535.0,511.0
518.0,516.0,529.0,505.0
510.0,511.0,525.0,509.0
507.0,509.0,510.0,510.0
505.0,512.0,507.0,513.0
503.0,515.0,498.0,516.0
503.0,496.0,499.0,519.0
501.0,476.0,496.0,518.0
502.0,481.0,495.0,519.0
509.0,495.0,498.0,515.0
506.0,505.0,497.0,512.0
517.0,518.0,503.0,511.0
521.0,514.0,508.0,509.0
525.0,513.0,517.0,506.0
529.0,508.0,525.0,508.0
531.0,504.0,530.0,508.0
532.0,504.0,533.0,511.0
524.0,507.0,532.0,511.0
513.0,503.0,524.0,511.0
503.0,492.0,523.0,511.0
500.0,486.0,515.0,516.0
497.0,496.0,508.0,517.0
493.0,503.0,503.0,520.0
500.0,502.0,498.0,520.0
501.0,498.0,496.0,518.0
507.0,514.0,496.0,521.0
509.0,509.0,500.0,519.0
505.0,511.0,502.0,517.0
508.0,519.0,508.0,513.0
508.0,508.0,517.0,510.0
515.0,511.0,524.0,513.0
522.0,522.0,529.0,514.0
526.0,517.0,536.0,512.0
526.0,510.0,537.0,513.0
523.0,510.0,533.0,509.0
514.0,507.0,527.0,510.0
509.0,498.0,516.0,511.0
504.0,495.0,510.0,513.0
497.0,497.0,501.0,511.0
498.0,504.0,494.0,516.0
505.0,509.0,496.0,515.0
507.0,512.0,493.0,518.0
514.0,514.0,494.0,516.0
512.0,506.0,498.0,514.0
511.0,502.0,498.0,511.0
513.0,505.0,505.0,510.0
513.0,505.0,513.0,508.0
519.0,511.0,520.0,508.0
521.0,510.0,527.0,509.0
523.0,503.0,532.0,506.0
526.0,502.0,529.0,510.0
521.0,499.0,528.0,509.0
511.0,487.0,524.0,512.0
504.0,487.0,516.0,510.0
499.0,490.0,506.0,515.0
502.0,501.0,501.0,516.0
500.0,504.0,497.0,516.0
505.0,503.0,495.0,517.0
511.0,513.0,500.0,516.0
514.0,520.0,500.0,515.0
506.0,519.0,499.0,516.0
507.0,513.0,504.0,510.0
508.0,507.0,506.0,508.0
515.0,504.0,517.0,509.0
517.0,505.0,527.0,507.0
522.0,512.0,528.0,506.0
526.0,508.0,533.0,506.0
525.0,503.0,532.0,511.0
520.0,492.0,526.0,510.0
505.0,479.0,522.0,511.0
503.0,487.0,512.0,514.0
501.0,499.0,506.0,516.0
499.0,520.0,502.0,519.0
500.0,523.0,494.0,519.0
503.0,488.0,495.0,519.0
510.0,507.0,497.0,514.0
510.0,511.0,500.0,515.0
506.0,505.0,498.0,511.0
508.0,501.0,506.0,505.0
515.0,505.0,513.0,505.0
518.0,505.0,518.0,509.0
523.0,513.0,525.0,508.0
526.0,507.0,532.0,508.0
527.0,520.0,536.0,507.0
524.0,516.0,532.0,510.0
520.0,496.0,525.0,516.0
509.0,482.0,518.0,514.0
503.0,485.0,511.0,513.0
496.0,494.0,506.0,518.0
495.0,500.0,498.0,518.0
501.0,511.0,497.0,518.0
505.0,514.0,497.0,517.0
511.0,517.0,499.0,514.0
509.0,512.0,499.0,516.0
505.0,505.0,506.0,513.0
505.0,506.0,509.0,508.0
511.0,502.0,516.0,507.0
518.0,509.0,523.0,506.0
523.0,518.0,530.0,508.0
526.0,511.0,534.0,505.0
528.0,504.0,535.0,507.0
523.0,503.0,528.0,508.0
510.0,495.0,526.0,510.0
502.0,483.0,518.0,516.0
497.0,486.0,509.0,518.0
499.0,494.0,503.0,520.0
502.0,513.0,497.0,521.0
499.0,490.0,495.0,520.0
501.0,487.0,497.0,518.0
504.0,501.0,501.0,518.0
507.0,498.0,504.0,511.0
510.0,505.0,509.0,514.0
513.0,517.0,516.0,513.0
512.0,510.0,521.0,507.0
521.0,517.0,520.0,506.0
526.0,523.0,528.0,506.0
523.0,517.0,529.0,507.0
522.0,514.0,530.0,507.0
515.0,507.0,525.0,508.0
510.0,497.0,520.0,507.0
503.0,486.0,511.0,512.0
503.0,481.0,505.0,515.0
500.0,486.0,497.0,522.0
501.0,496.0,499.0,518.0
498.0,500.0,498.0,520.0
510.0,515.0,502.0,521.0
511.0,512.0,499.0,518.0
511.0,505.0,501.0,512.0
510.0,512.0,505.0,506.0
515.0,520.0,511.0,509.0
520.0,525.0,515.0,512.0
525.0,534.0,525.0,510.0
523.0,514.0,530.0,509.0
524.0,503.0,534.0,512.0
518.0,497.0,533.0,511.0
515.0,503.0,526.0,510.0
505.0,497.0,516.0,512.0
502.0,488.0,510.0,516.0
502.0,495.0,504.0,515.0
503.0,499.0,498.0,520.0
507.0,498.0,496.0,521.0
505.0,501.0,491.0,518.0
505.0,507.0,495.0,517.0
510.0,509.0,495.0,510.0
507.0,500.0,500.0,511.0
511.0,503.0,506.0,508.0
519.0,517.0,512.0,505.0
518.0,529.0,519.0,506.0
519.0,529.0,526.0,508.0
522.0,529.0,534.0,510.0
524.0,499.0,534.0,511.0
519.0,476.0,529.0,510.0
513.0,497.0,524.0,508.0
506.0,489.0,513.0,510.0
503.0,491.0,506.0,515.0
502.0,499.0,502.0,514.0
503.0,509.0,496.0,520.0
498.0,512.0,497.0,520.0
502.0,513.0,499.0,519.0
507.0,520.0,500.0,516.0
505.0,517.0,502.0,516.0
507.0,515.0,504.0,512.0
509.0,515.0,511.0,509.0
510.0,502.0,515.0,509.0
521.0,501.0,519.0,507.0
527.0,506.0,532.0,507.0
526.0,495.0,530.0,508.0
523.0,488.0,529.0,509.0
518.0,487.0,525.0,513.0
508.0,487.0,517.0,513.0
499.0,488.0,511.0,516.0
495.0,501.0,503.0,515.0
504.0,521.0,499.0,519.0
501.0,502.0,496.0,517.0
499.0,499.0,497.0,520.0
508.0,506.0,501.0,520.0
507.0,507.0,501.0,513.0
504.0,499.0,500.0,514.0
509.0,515.0,503.0,511.0
513.0,507.0,509.0,507.0
520.0,501.0,517.0,507.0
524.0,499.0,526.0,508.0
525.0,508.0,533.0,509.0
527.0,513.0,534.0,509.0
522.0,512.0,531.0,511.0
515.0,518.0,526.0,511.0
508.0,506.0,517.0,516.0
502.0,502.0,511.0,514.0
501.0,501.0,501.0,519.0
499.0,501.0,500.0,523.0
502.0,494.0,503.0,522.0
505.0,500.0,498.0,522.0
507.0,518.0,501.0,519.0
510.0,515.0,509.0,512.0
508.0,530.0,500.0,509.0
507.0,505.0,508.0,506.0
517.0,511.0,513.0,503.0
521.0,506.0,517.0,505.0
522.0,499.0,525.0,504.0
522.0,497.0,529.0,504.0
525.0,497.0,531.0,506.0
522.0,494.0,527.0,507.0
512.0,493.0,520.0,510.0
502.0,492.0,513.0,513.0
500.0,503.0,508.0,512.0
497.0,497.0,502.0,515.0
500.0,494.0,496.0,517.0
502.0,502.0,495.0,516.0
511.0,518.0,497.0,518.0
512.0,519.0,494.0,517.0
516.0,540.0,498.0,518.0
514.0,533.0,501.0,517.0
514.0,519.0,517.0,518.0
519.0,532.0,522.0,514.0
523.0,517.0,529.0,517.0
526.0,504.0,535.0,513.0
521.0,489.0,534.0,512.0
518.0,489.0,529.0,507.0
517.0,489.0,524.0,503.0
508.0,492.0,519.0,505.0
502.0,499.0,509.0,513.0
502.0,509.0,505.0,515.0
501.0,502.0,496.0,521.0
504.0,495.0,494.0,519.0
503.0,489.0,493.0,519.0
506.0,486.0,495.0,515.0
504.0,492.0,498.0,517.0
505.0,506.0,502.0,516.0
511.0,529.0,508.0,512.0
512.0,520.0,516.0,513.0
520.0,511.0,520.0,513.0
528.0,527.0,526.0,511.0
531.0,511.0,533.0,511.0
529.0,482.0,534.0,510.0
525.0,500.0,530.0,509.0
519.0,494.0,523.0,507.0
507.0,481.0,518.0,511.0
502.0,491.0,507.0,512.0
497.0,498.0,502.0,515.0
501.0,501.0,494.0,516.0
500.0,504.0,491.0,516.0
500.0,535.0,490.0,518.0
505.0,519.0,491.0,514.0
506.0,489.0,502.0,517.0
504.0,502.0,501.0,515.0
505.0,510.0,506.0,514.0
516.0,513.0,517.0,511.0
527.0,525.0,525.0,512.0
526.0,512.0,528.0,511.0
524.0,501.0,532.0,510.0
524.0,492.0,531.0,505.0
516.0,490.0,530.0,507.0
516.0,489.0,524.0,512.0
502.0,491.0,521.0,514.0
498.0,513.0,506.0,515.0
494.0,506.0,499.0,517.0
500.0,506.0,494.0,514.0
498.0,503.0,495.0,514.0
506.0,506.0,492.0,510.0
504.0,507.0,497.0,511.0
505.0,510.0,498.0,510.0
512.0,514.0,500.0,509.0
514.0,501.0,504.0,504.0
520.0,503.0,513.0,505.0
532.0,514.0,521.0,506.0
540.0,523.0,527.0,503.0
538.0,517.0,530.0,508.0
532.0,515.0,527.0,512.0
522.0,493.0,524.0,510.0
511.0,495.0,518.0,511.0
497.0,492.0,512.0,515.0
495.0,499.0,500.0,516.0
492.0,503.0,500.0,520.0
496.0,499.0,498.0,520.0
498.0,491.0,493.0,518.0
502.0,494.0,495.0,514.0
502.0,503.0,496.0,513.0
502.0,511.0,500.0,509.0
507.0,525.0,504.0,511.0
514.0,516.0,511.0,510.0
516.0,511.0,515.0,510.0
518.0,506.0,528.0,508.0
526.0,502.0,531.0,505.0
523.0,505.0,533.0,509.0
520.0,504.0,530.0,509.0
516.0,495.0,525.0,508.0
501.0,493.0,518.0,514.0
499.0,505.0,513.0,517.0
498.0,517.0,512.0,517.0
498.0,519.0,494.0,520.0
503.0,516.0,494.0,523.0
506.0,512.0,497.0,517.0
507.0,509.0,500.0,521.0
510.0,513.0,499.0,519.0
507.0,513.0,507.0,513.0
513.0,513.0,509.0,511.0
515.0,513.0,517.0,508.0
522.0,520.0,522.0,509.0
527.0,521.0,524.0,508.0
527.0,511.0,529.0,507.0
526.0,510.0,531.0,510.0
516.0,496.0,528.0,508.0
515.0,494.0,521.0,509.0
504.0,499.0,515.0,512.0
500.0,492.0,507.0,518.0
502.0,490.0,503.0,515.0
502.0,494.0,497.0,521.0
496.0,480.0,496.0,520.0
500.0,511.0,496.0,520.0
508.0,518.0,497.0,520.0
506.0,516.0,502.0,517.0
509.0,486.0,504.0,519.0
513.0,468.0,513.0,515.0
518.0,493.0,519.0,518.0
525.0,492.0,530.0,515.0
523.0,486.0,537.0,514.0
523.0,490.0,538.0,516.0
519.0,507.0,538.0,517.0
519.0,503.0,533.0,515.0
514.0,509.0,524.0,508.0
501.0,498.0,510.0,509.0
502.0,496.0,505.0,515.0
506.0,506.0,495.0,515.0
503.0,506.0,495.0,517.0
507.0,506.0,495.0,515.0
511.0,513.0,499.0,518.0
510.0,514.0,502.0,511.0
509.0,505.0,487.0,513.0
513.0,514.0,496.0,508.0
511.0,519.0,508.0,503.0
516.0,520.0,513.0,504.0
521.0,522.0,518.0,503.0
524.0,516.0,526.0,503.0
527.0,509.0,528.0,506.0
525.0,508.0,523.0,507.0
518.0,502.0,520.0,509.0
512.0,493.0,516.0,513.0
501.0,493.0,505.0,513.0
500.0,501.0,500.0,517.0
498.0,517.0,493.0,521.0
496.0,514.0,492.0,521.0
500.0,513.0,499.0,522.0
507.0,508.0,502.0,522.0
509.0,514.0,502.0,520.0
509.0,517.0,505.0,516.0
513.0,514.0,508.0,511.0
516.0,524.0,517.0,513.0
523.0,520.0,522.0,509.0
530.0,516.0,529.0,511.0
529.0,505.0,532.0,510.0
531.0,506.0,532.0,510.0
527.0,509.0,527.0,511.0
520.0,475.0,521.0,514.0
510.0,468.0,511.0,509.0
504.0,485.0,499.0,513.0
507.0,469.0,497.0,514.0
504.0,496.0,496.0,517.0
508.0,522.0,494.0,518.0
510.0,523.0,499.0,515.0
504.0,524.0,502.0,516.0
502.0,516.0,502.0,514.0
499.0,495.0,500.0,506.0
500.0,487.0,507.0,510.0
508.0,495.0,514.0,511.0
511.0,514.0,523.0,510.0
522.0,520.0,530.0,508.0
519.0,515.0,530.0,509.0
520.0,515.0,530.0,507.0
521.0,510.0,523.0,509.0
507.0,483.0,522.0,511.0
499.0,492.0,514.0,516.0
495.0,493.0,504.0,519.0
495.0,490.0,501.0,522.0
500.0,497.0,494.0,524.0
506.0,511.0,496.0,517.0
514.0,523.0,494.0,519.0
515.0,521.0,500.0,519.0
513.0,508.0,507.0,513.0
514.0,498.0,510.0,513.0
519.0,499.0,518.0,513.0
521.0,513.0,521.0,514.0
525.0,521.0,525.0,511.0
523.0,522.0,527.0,508.0
523.0,515.0,528.0,508.0
517.0,474.0,528.0,508.0
516.0,507.0,518.0,510.0
509.0,489.0,512.0,511.0
504.0,490.0,506.0,513.0
498.0,484.0,495.0,514.0
497.0,487.0,495.0,518.0
496.0,506.0,494.0,521.0
502.0,506.0,495.0,518.0
509.0,506.0,501.0,522.0
512.0,515.0,505.0,518.0
506.0,503.0,508.0,515.0
508.0,501.0,512.0,515.0
510.0,507.0,522.0,512.0
519.0,520.0,518.0,509.0
522.0,509.0,523.0,507.0
520.0,505.0,526.0,505.0
524.0,502.0,523.0,505.0
519.0,488.0,521.0,502.0
521.0,505.0,517.0,503.0
506.0,513.0,510.0,505.0
498.0,523.0,504.0,510.0
501.0,522.0,502.0,512.0
504.0,508.0,495.0,512.0
505.0,494.0,491.0,511.0
507.0,505.0,497.0,511.0
511.0,505.0,494.0,505.0
509.0,503.0,485.0,508.0
504.0,499.0,493.0,509.0
512.0,498.0,506.0,510.0
515.0,512.0,514.0,507.0
521.0,525.0,520.0,510.0
529.0,523.0,526.0,515.0
525.0,512.0,535.0,524.0
526.0,502.0,534.0,521.0
523.0,496.0,533.0,523.0
517.0,496.0,527.0,525.0
510.0,479.0,519.0,525.0
501.0,502.0,511.0,524.0
506.0,511.0,509.0,523.0
503.0,496.0,505.0,524.0
495.0,475.0,502.0,516.0
506.0,499.0,492.0,507.0
504.0,500.0,484.0,503.0
504.0,510.0,482.0,499.0
505.0,514.0,492.0,501.0
516.0,520.0,501.0,500.0
515.0,525.0,508.0,500.0
520.0,514.0,523.0,501.0
530.0,521.0,528.0,505.0
527.0,509.0,530.0,507.0
524.0,509.0,526.0,505.0
519.0,495.0,527.0,513.0
509.0,474.0,522.0,512.0
506.0,498.0,505.0,514.0
500.0,438.0,495.0,521.0
499.0,474.0,493.0,522.0
502.0,537.0,494.0,523.0
508.0,548.0,494.0,522.0
509.0,541.0,500.0,520.0
505.0,536.0,500.0,517.0
502.0,525.0,501.0,512.0
505.0,527.0,507.0,514.0
515.0,516.0,517.0,515.0
517.0,487.0,525.0,520.0
526.0,497.0,534.0,514.0
525.0,504.0,532.0,515.0
529.0,499.0,526.0,507.0
518.0,499.0,521.0,505.0
511.0,490.0,518.0,501.0
501.0,472.0,509.0,500.0
496.0,473.0,504.0,502.0
503.0,481.0,490.0,505.0
505.0,495.0,481.0,506.0
499.0,489.0,480.0,503.0
508.0,496.0,482.0,506.0
511.0,498.0,486.0,509.0
509.0,499.0,494.0,507.0
506.0,490.0,501.0,508.0
504.0,494.0,511.0,508.0
513.0,512.0,520.0,514.0
528.0,519.0,527.0,520.0
532.0,535.0,530.0,512.0
531.0,512.0,529.0,517.0
530.0,504.0,528.0,511.0
525.0,523.0,519.0,507.0
518.0,522.0,513.0,503.0
506.0,502.0,507.0,504.0
491.0,491.0,499.0,510.0
488.0,513.0,497.0,513.0
495.0,508.0,490.0,510.0
504.0,508.0,492.0,515.0
501.0,505.0,494.0,516.0
502.0,507.0,492.0,516.0
505.0,507.0,494.0,509.0
509.0,517.0,497.0,506.0
504.0,528.0,503.0,505.0
511.0,519.0,510.0,501.0
522.0,517.0,515.0,504.0
526.0,512.0,526.0,502.0
522.0,504.0,532.0,508.0
516.0,490.0,527.0,511.0
513.0,484.0,530.0,515.0
506.0,475.0,530.0,519.0
501.0,481.0,512.0,524.0
496.0,517.0,503.0,526.0
499.0,516.0,495.0,527.0
504.0,510.0,496.0,526.0
510.0,513.0,501.0,528.0
514.0,516.0,511.0,529.0
512.0,519.0,516.0,527.0
509.0,520.0,516.0,525.0
512.0,522.0,516.0,519.0
513.0,505.0,514.0,511.0
518.0,516.0,509.0,503.0
516.0,497.0,510.0,500.0
515.0,495.0,517.0,504.0
522.0,490.0,521.0,507.0
516.0,488.0,521.0,510.0
511.0,480.0,518.0,511.0
502.0,467.0,519.0,517.0
498.0,492.0,522.0,518.0
497.0,503.0,512.0,516.0
502.0,519.0,498.0,516.0
507.0,552.0,487.0,513.0
514.0,572.0,477.0,509.0
521.0,571.0,481.0,503.0
520.0,544.0,482.0,500.0
506.0,491.0,488.0,500.0
505.0,481.0,496.0,511.0
507.0,485.0,507.0,519.0
518.0,485.0,517.0,524.0
525.0,484.0,533.0,530.0
530.0,465.0,545.0,532.0
525.0,474.0,553.0,534.0
517.0,478.0,554.0,533.0
513.0,481.0,545.0,525.0
489.0,488.0,532.0,517.0
493.0,518.0,513.0,508.0
501.0,533.0,485.0,500.0
504.0,541.0,468.0,492.0
501.0,510.0,465.0,493.0
505.0,509.0,469.0,495.0
509.0,499.0,476.0,497.0
502.0,496.0,472.0,500.0
503.0,495.0,485.0,503.0
512.0,526.0,503.0,498.0
518.0,512.0,500.0,497.0
530.0,523.0,513.0,505.0
529.0,528.0,521.0,507.0
528.0,527.0,530.0,509.0
524.0,525.0,532.0,513.0
519.0,518.0,525.0,506.0
503.0,485.0,515.0,510.0
504.0,497.0,508.0,513.0
498.0,501.0,502.0,516.0
504.0,493.0,499.0,522.0
503.0,482.0,491.0,523.0
496.0,479.0,496.0,525.0
496.0,476.0,503.0,525.0
503.0,517.0,505.0,522.0
508.0,538.0,506.0,512.0
513.0,525.0,506.0,503.0
519.0,516.0,504.0,494.0
524.0,532.0,503.0,499.0
532.0,521.0,512.0,500.0
529.0,521.0,521.0,507.0
534.0,533.0,522.0,506.0
526.0,533.0,520.0,505.0
521.0,523.0,517.0,504.0
506.0,498.0,512.0,514.0
493.0,461.0,501.0,518.0
487.0,446.0,494.0,515.0
486.0,490.0,490.0,518.0
496.0,514.0,496.0,519.0
505.0,515.0,499.0,518.0
510.0,517.0,496.0,512.0
514.0,512.0,502.0,509.0
514.0,527.0,512.0,513.0
518.0,525.0,505.0,505.0
512.0,504.0,497.0,497.0
518.0,477.0,503.0,499.0
520.0,500.0,513.0,499.0
527.0,484.0,522.0,503.0
531.0,467.0,522.0,502.0
523.0,445.0,519.0,507.0
507.0,433.0,517.0,507.0
495.0,448.0,503.0,504.0
505.0,508.0,494.0,510.0
504.0,508.0,494.0,516.0
494.0,519.0,492.0,524.0
496.0,524.0,494.0,532.0
513.0,516.0,494.0,532.0
522.0,545.0,500.0,534.0
519.0,527.0,510.0,535.0
515.0,504.0,522.0,527.0
510.0,491.0,542.0,530.0
509.0,518.0,544.0,524.0
518.0,528.0,534.0,515.0
517.0,544.0,524.0,497.0
520.0,551.0,521.0,495.0
516.0,546.0,496.0,491.0
517.0,521.0,501.0,502.0
500.0,457.0,504.0,518.0
490.0,448.0,502.0,520.0
500.0,472.0,502.0,522.0
504.0,497.0,500.0,523.0
509.0,508.0,498.0,522.0
511.0,522.0,497.0,523.0
519.0,535.0,499.0,517.0
512.0,527.0,491.0,507.0
504.0,496.0,482.0,499.0
491.0,493.0,488.0,494.0
498.0,455.0,501.0,499.0
504.0,451.0,503.0,500.0
520.0,515.0,507.0,495.0
523.0,541.0,509.0,497.0
537.0,561.0,515.0,506.0
530.0,539.0,525.0,508.0
513.0,524.0,532.0,513.0
503.0,489.0,503.0,514.0
503.0,525.0,489.0,511.0
501.0,474.0,488.0,512.0
509.0,492.0,493.0,520.0
504.0,520.0,499.0,524.0
510.0,597.0,509.0,529.0
505.0,536.0,514.0,526.0
499.0,480.0,499.0,519.0
498.0,476.0,493.0,510.0
507.0,468.0,488.0,500.0
518.0,499.0,493.0,494.0
541.0,565.0,501.0,501.0
539.0,562.0,521.0,502.0
531.0,494.0,533.0,514.0
527.0,461.0,530.0,519.0
520.0,506.0,519.0,521.0
507.0,515.0,510.0,521.0
503.0,490.0,513.0,528.0
505.0,492.0,518.0,538.0
507.0,547.0,533.0,550.0
513.0,506.0,540.0,542.0
499.0,465.0,523.0,533.0
485.0,415.0,504.0,518.0
489.0,453.0,502.0,514.0
498.0,482.0,481.0,505.0
514.0,572.0,467.0,488.0
534.0,532.0,467.0,474.0
533.0,492.0,476.0,473.0
537.0,485.0,491.0,479.0
537.0,495.0,509.0,487.0
540.0,572.0,519.0,496.0
518.0,540.0,521.0,500.0
482.0,503.0,515.0,504.0
488.0,514.0,510.0,509.0
498.0,527.0,503.0,513.0
493.0,537.0,499.0,518.0
500.0,535.0,495.0,519.0
512.0,512.0,485.0,518.0
506.0,421.0,484.0,509.0
510.0,388.0,477.0,498.0
512.0,475.0,474.0,490.0
524.0,570.0,480.0,498.0
527.0,588.0,490.0,497.0
500.0,609.0,503.0,510.0
502.0,534.0,511.0,515.0
519.0,464.0,524.0,519.0
508.0,452.0,536.0,526.0
511.0,553.0,554.0,534.0
525.0,496.0,571.0,535.0
520.0,481.0,546.0,526.0
513.0,538.0,507.0,522.0
501.0,464.0,499.0,516.0
502.0,464.0,530.0,526.0
487.0,467.0,534.0,534.0
490.0,511.0,494.0,512.0
499.0,523.0,446.0,489.0
492.0,552.0,457.0,491.0
494.0,528.0,472.0,493.0
493.0,482.0,484.0,497.0
511.0,531.0,513.0,501.0
518.0,532.0,526.0,511.0
531.0,503.0,528.0,510.0
530.0,497.0,522.0,506.0
527.0,484.0,523.0,506.0
517.0,469.0,529.0,505.0
528.0,443.0,518.0,505.0
537.0,458.0,513.0,505.0
512.0,475.0,496.0,503.0
504.0,504.0,475.0,507.0
511.0,489.0,496.0,507.0
503.0,468.0,485.0,512.0
506.0,526.0,475.0,515.0
519.0,565.0,491.0,519.0
516.0,564.0,506.0,522.0
509.0,483.0,511.0,523.0
528.0,500.0,512.0,524.0
525.0,506.0,529.0,528.0
524.0,625.0,545.0,527.0
524.0,590.0,539.0,518.0
511.0,516.0,512.0,499.0
506.0,484.0,507.0,496.0
520.0,506.0,510.0,490.0
514.0,536.0,493.0,491.0
486.0,499.0,481.0,490.0
461.0,508.0,481.0,491.0
481.0,530.0,488.0,503.0
505.0,545.0,492.0,511.0
524.0,552.0,496.0,514.0
523.0,494.0,484.0,511.0
499.0,343.0,485.0,511.0
496.0,357.0,491.0,512.0
503.0,404.0,503.0,510.0
518.0,455.0,509.0,510.0
547.0,479.0,506.0,507.0
578.0,607.0,508.0,507.0
546.0,601.0,513.0,504.0
528.0,656.0,516.0,500.0
516.0,640.0,521.0,497.0
527.0,494.0,516.0,497.0
495.0,413.0,514.0,504.0
483.0,449.0,510.0,511.0
453.0,375.0,498.0,514.0
443.0,434.0,507.0,513.0
475.0,586.0,489.0,513.0
510.0,600.0,489.0,515.0
528.0,582.0,495.0,521.0
529.0,560.0,499.0,516.0
512.0,459.0,505.0,522.0
498.0,464.0,522.0,522.0
505.0,490.0,534.0,522.0
499.0,493.0,520.0,504.0
506.0,483.0,507.0,493.0
513.0,548.0,503.0,485.0
555.0,547.0,500.0,485.0
566.0,562.0,489.0,486.0
559.0,661.0,493.0,491.0
564.0,554.0,500.0,496.0
507.0,435.0,492.0,500.0
467.0,453.0,491.0,502.0
451.0,489.0,485.0,506.0
461.0,510.0,487.0,508.0
487.0,476.0,491.0,509.0
489.0,507.0,495.0,513.0
496.0,544.0,500.0,512.0
497.0,533.0,505.0,514.0
492.0,492.0,510.0,509.0
509.0,486.0,511.0,500.0
515.0,508.0,509.0,502.0
506.0,471.0,516.0,502.0
526.0,379.0,538.0,505.0
562.0,449.0,552.0,506.0
612.0,576.0,529.0,504.0
631.0,588.0,522.0,503.0
605.0,627.0,522.0,506.0
503.0,361.0,509.0,504.0
429.0,413.0,482.0,500.0
398.0,492.0,477.0,504.0
417.0,549.0,476.0,506.0
442.0,547.0,476.0,501.0
481.0,525.0,476.0,497.0
507.0,559.0,483.0,495.0
521.0,563.0,489.0,490.0
523.0,537.0,498.0,493.0
537.0,618.0,507.0,499.0
526.0,510.0,520.0,502.0
530.0,351.0,525.0,507.0
522.0,414.0,528.0,507.0
514.0,438.0,521.0,503.0
543.0,432.0,520.0,495.0
575.0,464.0,518.0,501.0
571.0,507.0,513.0,504.0
541.0,421.0,501.0,510.0
467.0,439.0,492.0,511.0
434.0,466.0,487.0,506.0
456.0,487.0,488.0,499.0
486.0,549.0,488.0,506.0
520.0,653.0,494.0,510.0
531.0,597.0,502.0,519.0
502.0,443.0,515.0,516.0
498.0,437.0,521.0,508.0
506.0,519.0,508.0,498.0
496.0,588.0,494.0,490.0
490.0,545.0,500.0,488.0
508.0,523.0,508.0,486.0
503.0,542.0,520.0,494.0
502.0,542.0,515.0,500.0
496.0,500.0,517.0,504.0
488.0,431.0,512.0,509.0
496.0,446.0,511.0,513.0
483.0,483.0,520.0,527.0
492.0,525.0,511.0,529.0
499.0,491.0,501.0,515.0
484.0,454.0,493.0,503.0
511.0,500.0,481.0,492.0
485.0,587.0,478.0,492.0
477.0,561.0,489.0,491.0
504.0,537.0,497.0,490.0
525.0,537.0,505.0,489.0
546.0,555.0,514.0,488.0
555.0,608.0,517.0,496.0
538.0,533.0,531.0,503.0
527.0,484.0,527.0,509.0
496.0,408.0,530.0,508.0
485.0,461.0,523.0,511.0
499.0,421.0,508.0,513.0
519.0,431.0,518.0,514.0
525.0,588.0,514.0,519.0
514.0,598.0,512.0,520.0
484.0,476.0,489.0,503.0
467.0,342.0,471.0,490.0
476.0,448.0,471.0,490.0
483.0,468.0,478.0,492.0
488.0,542.0,492.0,496.0
509.0,617.0,500.0,493.0
518.0,591.0,506.0,490.0
511.0,489.0,510.0,489.0
525.0,484.0,516.0,491.0
543.0,472.0,523.0,498.0
542.0,464.0,529.0,507.0
538.0,491.0,533.0,517.0
514.0,403.0,528.0,518.0
528.0,461.0,518.0,515.0
570.0,585.0,503.0,512.0
583.0,718.0,495.0,516.0
505.0,536.0,488.0,509.0
457.0,412.0,484.0,504.0
473.0,443.0,484.0,498.0
484.0,481.0,496.0,501.0
478.0,433.0,498.0,495.0
508.0,549.0,505.0,495.0
517.0,497.0,514.0,496.0
534.0,303.0,518.0,497.0
522.0,353.0,519.0,491.0
498.0,492.0,513.0,492.0
510.0,502.0,510.0,491.0
493.0,594.0,514.0,497.0
479.0,606.0,508.0,497.0
479.0,601.0,505.0,501.0
484.0,527.0,502.0,506.0
483.0,561.0,499.0,506.0
494.0,543.0,500.0,509.0
499.0,448.0,502.0,512.0
498.0,448.0,507.0,518.0
506.0,430.0,505.0,517.0
513.0,534.0,499.0,508.0
523.0,550.0,496.0,495.0
560.0,533.0,500.0,493.0
573.0,516.0,514.0,500.0
588.0,528.0,518.0,503.0
543.0,547.0,534.0,503.0
483.0,611.0,531.0,507.0
497.0,564.0,528.0,504.0
539.0,587.0,525.0,506.0
540.0,516.0,525.0,504.0
518.0,446.0,524.0,514.0
480.0,487.0,518.0,522.0
470.0,527.0,515.0,515.0
494.0,531.0,503.0,515.0
471.0,451.0,501.0,513.0
485.0,479.0,504.0,507.0
488.0,495.0,502.0,506.0
500.0,497.0,488.0,502.0
486.0,466.0,487.0,494.0
513.0,496.0,496.0,496.0
504.0,470.0,509.0,498.0
495.0,451.0,518.0,496.0
503.0,423.0,524.0,498.0
515.0,482.0,531.0,501.0
500.0,534.0,536.0,511.0
530.0,581.0,533.0,514.0
509.0,539.0,518.0,515.0
478.0,447.0,502.0,513.0
478.0,471.0,497.0,514.0
492.0,494.0,489.0,511.0
503.0,485.0,485.0,511.0
521.0,510.0,495.0,515.0
523.0,477.0,504.0,514.0
523.0,457.0,509.0,511.0
557.0,430.0,500.0,505.0
561.0,529.0,506.0,503.0
581.0,566.0,513.0,506.0
569.0,600.0,522.0,509.0
506.0,527.0,529.0,501.0
499.0,397.0,530.0,502.0
544.0,542.0,526.0,501.0
527.0,558.0,520.0,498.0
502.0,587.0,510.0,492.0
437.0,499.0,504.0,496.0
464.0,457.0,494.0,492.0
507.0,536.0,488.0,495.0
522.0,512.0,491.0,501.0
522.0,517.0,493.0,508.0
483.0,520.0,501.0,515.0
451.0,552.0,499.0,516.0
485.0,548.0,500.0,511.0
503.0,506.0,501.0,512.0
504.0,512.0,520.0,511.0
496.0,411.0,524.0,511.0
523.0,427.0,530.0,519.0
558.0,503.0,538.0,519.0
560.0,507.0,533.0,516.0
533.0,461.0,521.0,513.0
464.0,508.0,510.0,511.0
457.0,481.0,504.0,513.0
492.0,466.0,504.0,512.0
516.0,484.0,499.0,512.0
539.0,522.0,494.0,514.0
547.0,485.0,495.0,517.0
503.0,451.0,499.0,514.0
526.0,400.0,501.0,515.0
515.0,535.0,503.0,511.0
509.0,604.0,501.0,504.0
510.0,578.0,503.0,510.0
489.0,528.0,515.0,509.0
498.0,500.0,522.0,501.0
533.0,526.0,507.0,489.0
523.0,531.0,505.0,488.0
515.0,549.0,520.0,497.0
496.0,576.0,524.0,507.0
489.0,581.0,522.0,509.0
486.0,475.0,513.0,514.0
481.0,393.0,509.0,524.0
499.0,511.0,508.0,525.0
526.0,628.0,510.0,527.0
539.0,669.0,512.0,528.0
530.0,631.0,520.0,528.0
537.0,412.0,521.0,526.0
523.0,352.0,512.0,517.0
505.0,450.0,493.0,506.0
526.0,499.0,490.0,497.0
524.0,480.0,507.0,502.0
510.0,461.0,519.0,501.0
523.0,424.0,523.0,502.0
520.0,519.0,524.0,504.0
481.0,488.0,519.0,508.0
476.0,526.0,515.0,513.0
482.0,494.0,517.0,513.0
482.0,449.0,507.0,513.0
480.0,384.0,500.0,509.0
481.0,374.0,494.0,509.0
497.0,324.0,494.0,510.0
514.0,527.0,490.0,515.0
529.0,647.0,497.0,518.0
548.0,554.0,495.0,513.0
551.0,599.0,499.0,509.0
528.0,558.0,504.0,506.0
523.0,531.0,514.0,512.0
495.0,589.0,528.0,518.0
506.0,570.0,539.0,518.0
530.0,511.0,542.0,514.0
536.0,527.0,541.0,516.0
502.0,586.0,538.0,523.0
499.0,567.0,528.0,516.0
481.0,451.0,511.0,507.0
464.0,414.0,500.0,507.0
473.0,461.0,498.0,512.0
494.0,485.0,497.0,520.0
517.0,482.0,499.0,519.0
516.0,483.0,501.0,519.0
516.0,509.0,506.0,521.0
518.0,495.0,504.0,521.0
524.0,481.0,504.0,512.0
523.0,469.0,510.0,509.0
519.0,451.0,513.0,502.0
490.0,499.0,522.0,508.0
497.0,512.0,524.0,507.0
523.0,452.0,520.0,509.0
543.0,461.0,527.0,506.0
552.0,448.0,527.0,513.0
540.0,537.0,514.0,507.0
486.0,589.0,498.0,504.0
457.0,483.0,488.0,506.0
481.0,469.0,491.0,512.0
502.0,527.0,493.0,516.0
513.0,566.0,497.0,518.0
497.0,559.0,499.0,519.0
493.0,555.0,493.0,516.0
504.0,468.0,499.0,511.0
521.0,476.0,504.0,514.0
517.0,505.0,511.0,512.0
520.0,585.0,517.0,513.0
532.0,643.0,524.0,512.0
527.0,489.0,533.0,509.0
530.0,582.0,535.0,513.0
524.0,574.0,534.0,513.0
537.0,493.0,526.0,510.0
530.0,351.0,523.0,514.0
516.0,342.0,516.0,519.0
504.0,424.0,502.0,518.0
493.0,529.0,495.0,516.0
512.0,561.0,494.0,519.0
518.0,513.0,494.0,518.0
517.0,552.0,500.0,518.0
489.0,474.0,502.0,518.0
492.0,488.0,504.0,516.0
508.0,502.0,513.0,512.0
515.0,462.0,517.0,513.0
521.0,477.0,523.0,512.0
521.0,486.0,527.0,507.0
555.0,575.0,521.0,505.0
565.0,566.0,524.0,504.0
520.0,483.0,520.0,502.0
474.0,543.0,519.0,510.0
473.0,581.0,516.0,513.0
483.0,593.0,508.0,514.0
496.0,497.0,503.0,518.0
474.0,374.0,498.0,517.0
515.0,504.0,495.0,519.0
534.0,492.0,499.0,517.0
536.0,493.0,502.0,523.0
525.0,447.0,512.0,525.0
491.0,523.0,511.0,521.0
523.0,398.0,510.0,513.0
533.0,417.0,513.0,510.0
534.0,566.0,521.0,513.0
544.0,652.0,527.0,519.0
496.0,680.0,528.0,517.0
456.0,397.0,527.0,509.0
484.0,471.0,519.0,503.0
484.0,464.0,513.0,503.0
485.0,474.0,505.0,509.0
489.0,527.0,504.0,515.0
515.0,501.0,504.0,518.0
532.0,459.0,497.0,525.0
529.0,487.0,496.0,520.0
524.0,525.0,499.0,519.0
488.0,538.0,498.0,519.0
473.0,576.0,513.0,521.0
493.0,548.0,519.0,518.0
510.0,523.0,517.0,515.0
516.0,491.0,515.0,510.0
535.0,532.0,523.0,511.0
558.0,578.0,528.0,515.0
565.0,594.0,532.0,513.0
525.0,433.0,527.0,508.0
481.0,479.0,519.0,507.0
474.0,529.0,515.0,509.0
495.0,486.0,511.0,516.0
502.0,462.0,507.0,520.0
493.0,502.0,501.0,521.0
489.0,502.0,500.0,519.0
491.0,531.0,507.0,520.0
497.0,500.0,511.0,524.0
515.0,482.0,510.0,521.0
509.0,418.0,500.0,520.0
510.0,456.0,497.0,507.0
501.0,431.0,504.0,509.0
514.0,514.0,515.0,508.0
521.0,588.0,522.0,508.0
528.0,528.0,527.0,508.0
541.0,520.0,527.0,507.0
539.0,456.0,528.0,506.0
527.0,474.0,530.0,510.0
506.0,482.0,524.0,523.0
492.0,527.0,518.0,527.0
502.0,505.0,509.0,524.0
508.0,477.0,505.0,525.0
525.0,492.0,498.0,522.0
522.0,482.0,501.0,523.0
500.0,514.0,495.0,521.0
494.0,563.0,495.0,519.0
507.0,530.0,499.0,518.0
509.0,574.0,511.0,514.0
521.0,574.0,517.0,510.0
504.0,504.0,527.0,509.0
517.0,457.0,530.0,512.0
515.0,459.0,535.0,515.0
507.0,494.0,533.0,510.0
514.0,505.0,522.0,507.0
506.0,489.0,511.0,509.0
506.0,506.0,505.0,513.0
516.0,530.0,494.0,516.0
511.0,508.0,498.0,520.0
503.0,494.0,499.0,524.0
499.0,449.0,507.0,522.0
503.0,444.0,505.0,521.0
494.0,463.0,499.0,519.0
507.0,493.0,495.0,511.0
512.0,541.0,490.0,505.0
520.0,551.0,494.0,507.0
513.0,552.0,507.0,504.0
516.0,467.0,515.0,504.0
522.0,432.0,522.0,506.0
569.0,490.0,530.0,510.0
592.0,413.0,530.0,512.0
605.0,499.0,527.0,511.0
544.0,579.0,532.0,518.0
506.0,646.0,521.0,522.0
477.0,559.0,506.0,525.0
440.0,401.0,498.0,526.0
459.0,439.0,496.0,528.0
470.0,555.0,506.0,526.0
482.0,569.0,507.0,523.0
514.0,579.0,501.0,525.0
523.0,565.0,511.0,524.0
532.0,563.0,507.0,514.0
525.0,467.0,505.0,506.0
542.0,490.0,506.0,505.0
547.0,489.0,514.0,503.0
542.0,466.0,523.0,502.0
511.0,368.0,524.0,501.0
492.0,418.0,523.0,508.0
478.0,566.0,519.0,512.0
477.0,594.0,512.0,511.0
482.0,550.0,507.0,511.0
501.0,486.0,503.0,515.0
519.0,516.0,500.0,520.0
506.0,504.0,499.0,520.0
490.0,522.0,495.0,520.0
485.0,512.0,499.0,518.0
487.0,465.0,504.0,517.0
491.0,519.0,509.0,517.0
498.0,502.0,521.0,518.0
515.0,467.0,527.0,519.0
528.0,500.0,531.0,518.0
557.0,520.0,541.0,522.0
552.0,582.0,544.0,523.0
521.0,513.0,539.0,521.0
507.0,481.0,532.0,521.0
496.0,470.0,528.0,518.0
467.0,463.0,514.0,517.0
508.0,495.0,499.0,510.0
509.0,468.0,492.0,504.0
520.0,501.0,489.0,513.0
501.0,505.0,488.0,510.0
487.0,529.0,490.0,504.0
511.0,488.0,494.0,508.0
529.0,495.0,498.0,511.0
529.0,517.0,504.0,514.0
522.0,592.0,513.0,518.0
512.0,557.0,522.0,517.0
516.0,501.0,525.0,513.0
521.0,501.0,532.0,514.0
517.0,508.0,532.0,518.0
516.0,505.0,526.0,516.0
503.0,482.0,526.0,515.0
492.0,492.0,516.0,511.0
488.0,492.0,512.0,517.0
499.0,503.0,508.0,518.0
499.0,525.0,505.0,523.0
505.0,510.0,502.0,522.0
504.0,521.0,496.0,521.0
511.0,545.0,500.0,516.0
508.0,496.0,499.0,513.0
502.0,456.0,509.0,515.0
509.0,446.0,518.0,516.0
507.0,438.0,519.0,512.0
495.0,551.0,517.0,509.0
529.0,530.0,519.0,508.0
542.0,494.0,518.0,503.0
550.0,496.0,515.0,501.0
544.0,485.0,517.0,506.0
516.0,468.0,520.0,509.0
484.0,502.0,513.0,514.0
476.0,493.0,507.0,513.0
498.0,523.0,504.0,515.0
508.0,529.0,499.0,521.0
510.0,504.0,499.0,519.0
506.0,451.0,492.0,515.0
528.0,473.0,491.0,516.0
535.0,503.0,494.0,512.0
539.0,526.0,498.0,510.0
519.0,526.0,506.0,514.0
530.0,534.0,521.0,515.0
491.0,330.0,529.0,519.0
511.0,485.0,539.0,521.0
525.0,571.0,533.0,518.0
509.0,572.0,538.0,514.0
492.0,575.0,531.0,513.0
511.0,566.0,525.0,516.0
533.0,528.0,513.0,512.0
539.0,581.0,503.0,516.0
536.0,520.0,495.0,516.0
510.0,442.0,493.0,517.0
470.0,471.0,491.0,517.0
466.0,474.0,490.0,517.0
500.0,464.0,495.0,517.0
516.0,514.0,499.0,515.0
515.0,550.0,503.0,511.0
516.0,472.0,509.0,509.0
493.0,485.0,513.0,512.0
490.0,490.0,525.0,513.0
521.0,497.0,527.0,509.0
538.0,550.0,529.0,504.0
536.0,585.0,527.0,512.0
530.0,600.0,525.0,513.0
518.0,515.0,527.0,517.0
505.0,426.0,515.0,509.0
495.0,467.0,503.0,507.0
500.0,467.0,494.0,506.0
510.0,519.0,492.0,510.0
530.0,569.0,496.0,516.0
536.0,569.0,496.0,518.0
520.0,486.0,499.0,512.0
516.0,468.0,504.0,519.0
550.0,436.0,507.0,515.0
550.0,488.0,515.0,513.0
547.0,509.0,518.0,513.0
505.0,511.0,527.0,518.0
458.0,582.0,535.0,517.0
495.0,586.0,536.0,519.0
520.0,543.0,531.0,524.0
509.0,509.0,526.0,521.0
494.0,482.0,521.0,525.0
491.0,516.0,514.0,530.0
485.0,560.0,507.0,525.0
490.0,568.0,500.0,525.0
509.0,528.0,498.0,524.0
493.0,496.0,501.0,519.0
512.0,535.0,506.0,521.0
494.0,412.0,506.0,521.0
502.0,496.0,511.0,517.0
508.0,505.0,519.0,520.0
520.0,506.0,528.0,520.0
521.0,505.0,534.0,516.0
515.0,516.0,534.0,513.0
520.0,501.0,533.0,508.0
527.0,499.0,527.0,505.0
518.0,493.0,520.0,504.0
512.0,517.0,516.0,505.0
487.0,506.0,510.0,507.0
490.0,488.0,500.0,513.0
492.0,495.0,494.0,516.0
498.0,494.0,494.0,516.0
505.0,504.0,493.0,514.0
508.0,497.0,496.0,516.0
502.0,489.0,502.0,514.0
507.0,486.0,503.0,509.0
513.0,492.0,502.0,511.0
509.0,510.0,511.0,515.0
518.0,504.0,518.0,514.0
520.0,515.0,522.0,514.0
529.0,513.0,525.0,508.0
529.0,502.0,527.0,506.0
523.0,492.0,533.0,505.0
507.0,479.0,521.0,506.0
491.0,473.0,514.0,510.0
492.0,464.0,508.0,513.0
504.0,485.0,502.0,514.0
509.0,479.0,498.0,520.0
507.0,450.0,503.0,524.0
504.0,516.0,496.0,514.0
507.0,554.0,491.0,516.0
499.0,482.0,492.0,513.0
519.0,466.0,495.0,512.0
523.0,473.0,505.0,508.0
542.0,461.0,509.0,509.0
547.0,482.0,519.0,506.0
573.0,583.0,526.0,512.0
529.0,660.0,532.0,512.0
493.0,592.0,533.0,511.0
500.0,493.0,529.0,510.0
515.0,457.0,523.0,513.0
520.0,475.0,514.0,513.0
505.0,462.0,507.0,517.0
477.0,485.0,499.0,517.0
484.0,512.0,498.0,521.0
493.0,504.0,496.0,521.0
488.0,482.0,496.0,519.0
497.0,509.0,499.0,516.0
508.0,518.0,500.0,516.0
515.0,560.0,498.0,513.0
505.0,488.0,510.0,512.0
518.0,480.0,515.0,513.0
547.0,472.0,522.0,510.0
557.0,461.0,529.0,514.0
539.0,437.0,535.0,514.0
519.0,441.0,533.0,514.0
499.0,520.0,530.0,514.0
498.0,577.0,525.0,519.0
499.0,522.0,518.0,521.0
497.0,446.0,508.0,522.0
493.0,467.0,502.0,520.0
516.0,507.0,496.0,522.0
525.0,577.0,498.0,524.0
536.0,640.0,499.0,520.0
508.0,617.0,498.0,518.0
473.0,588.0,499.0,516.0
496.0,463.0,504.0,511.0
496.0,476.0,508.0,509.0
523.0,549.0,515.0,510.0
508.0,474.0,524.0,512.0
519.0,525.0,530.0,512.0
530.0,539.0,532.0,512.0
526.0,527.0,532.0,513.0
525.0,494.0,527.0,515.0
525.0,486.0,521.0,517.0
514.0,490.0,513.0,518.0
503.0,531.0,505.0,520.0
481.0,537.0,502.0,519.0
510.0,516.0,499.0,522.0
505.0,424.0,498.0,521.0
523.0,452.0,498.0,520.0
523.0,494.0,502.0,515.0
506.0,525.0,503.0,516.0
503.0,528.0,510.0,514.0
491.0,523.0,511.0,514.0
497.0,540.0,522.0,512.0
509.0,492.0,527.0,511.0
525.0,469.0,531.0,510.0
529.0,450.0,532.0,514.0
521.0,497.0,530.0,513.0
511.0,517.0,526.0,518.0
500.0,536.0,519.0,515.0
496.0,557.0,511.0,517.0
490.0,513.0,511.0,525.0
500.0,478.0,501.0,527.0
520.0,518.0,493.0,525.0
521.0,519.0,497.0,516.0
510.0,511.0,501.0,515.0
505.0,501.0,503.0,513.0
499.0,496.0,504.0,512.0
497.0,498.0,508.0,514.0
504.0,499.0,520.0,512.0
521.0,516.0,525.0,509.0
519.0,519.0,530.0,512.0
516.0,511.0,531.0,514.0
513.0,490.0,533.0,515.0
512.0,477.0,527.0,516.0
519.0,488.0,525.0,514.0
502.0,483.0,521.0,519.0
497.0,489.0,509.0,521.0
493.0,497.0,507.0,521.0
498.0,496.0,507.0,526.0
511.0,506.0,503.0,526.0
511.0,497.0,504.0,523.0
515.0,489.0,504.0,522.0
515.0,506.0,506.0,520.0
511.0,518.0,512.0,519.0
515.0,516.0,513.0,516.0
517.0,499.0,521.0,517.0
524.0,487.0,536.0,515.0
525.0,475.0,541.0,518.0
525.0,484.0,539.0,518.0
533.0,505.0,531.0,515.0
517.0,516.0,525.0,509.0
500.0,521.0,517.0,514.0
490.0,450.0,507.0,516.0
494.0,489.0,501.0,510.0
501.0,535.0,495.0,515.0
505.0,509.0,495.0,519.0
509.0,524.0,496.0,520.0
516.0,565.0,496.0,520.0
507.0,518.0,496.0,512.0
496.0,470.0,495.0,507.0
510.0,504.0,499.0,507.0
517.0,536.0,511.0,509.0
525.0,522.0,523.0,503.0
530.0,515.0,516.0,506.0
535.0,498.0,522.0,510.0
533.0,484.0,530.0,512.0
526.0,465.0,531.0,511.0
522.0,437.0,526.0,512.0
516.0,408.0,514.0,514.0
512.0,451.0,506.0,517.0
514.0,543.0,503.0,521.0
503.0,521.0,501.0,522.0
506.0,509.0,498.0,521.0
502.0,514.0,498.0,517.0
473.0,506.0,498.0,517.0
494.0,513.0,502.0,514.0
514.0,534.0,505.0,514.0
511.0,537.0,511.0,513.0
512.0,574.0,517.0,514.0
510.0,514.0,525.0,512.0
516.0,488.0,531.0,515.0
525.0,537.0,534.0,514.0
510.0,497.0,528.0,516.0
492.0,490.0,527.0,512.0
490.0,530.0,524.0,513.0
474.0,516.0,517.0,517.0
466.0,481.0,509.0,520.0
462.0,394.0,502.0,523.0
477.0,419.0,500.0,522.0
512.0,493.0,501.0,519.0
530.0,525.0,496.0,518.0
522.0,555.0,503.0,522.0
512.0,557.0,513.0,515.0
514.0,541.0,504.0,509.0
506.0,514.0,509.0,513.0
506.0,509.0,518.0,510.0
517.0,509.0,527.0,512.0
524.0,510.0,531.0,514.0
528.0,511.0,534.0,514.0
532.0,507.0,530.0,516.0
528.0,514.0,529.0,515.0
506.0,499.0,520.0,516.0
508.0,506.0,513.0,518.0
499.0,491.0,506.0,520.0
500.0,502.0,498.0,522.0
512.0,517.0,498.0,516.0
506.0,495.0,499.0,519.0
508.0,500.0,501.0,518.0
502.0,507.0,498.0,517.0
511.0,519.0,505.0,515.0
526.0,526.0,509.0,512.0
531.0,514.0,514.0,513.0
524.0,504.0,521.0,513.0
534.0,501.0,528.0,520.0
545.0,509.0,531.0,512.0
538.0,506.0,532.0,512.0
545.0,512.0,528.0,515.0
541.0,518.0,527.0,516.0
523.0,494.0,519.0,515.0
510.0,491.0,512.0,519.0
506.0,500.0,506.0,521.0
508.0,497.0,500.0,524.0
513.0,510.0,499.0,520.0
520.0,540.0,497.0,521.0
525.0,550.0,502.0,515.0
520.0,508.0,503.0,517.0
510.0,473.0,506.0,515.0
519.0,492.0,510.0,511.0
524.0,492.0,516.0,515.0
530.0,506.0,525.0,512.0
534.0,503.0,527.0,511.0
526.0,516.0,535.0,513.0
530.0,518.0,531.0,516.0
525.0,506.0,530.0,516.0
518.0,497.0,526.0,517.0
504.0,484.0,517.0,521.0
501.0,490.0,511.0,520.0
498.0,500.0,506.0,521.0
504.0,507.0,502.0,523.0
510.0,513.0,503.0,522.0
510.0,516.0,503.0,520.0
511.0,512.0,502.0,518.0
508.0,513.0,505.0,521.0
512.0,506.0,509.0,513.0
514.0,495.0,513.0,515.0
516.0,504.0,521.0,512.0
524.0,508.0,526.0,515.0
528.0,508.0,532.0,515.0
526.0,500.0,535.0,515.0
522.0,504.0,534.0,517.0
520.0,496.0,528.0,518.0
513.0,492.0,525.0,517.0
504.0,495.0,518.0,519.0
502.0,487.0,511.0,524.0
500.0,494.0,506.0,522.0
502.0,507.0,502.0,524.0
504.0,503.0,502.0,525.0
506.0,506.0,503.0,522.0
507.0,513.0,506.0,523.0
511.0,508.0,509.0,517.0
504.0,503.0,512.0,516.0
495.0,495.0,519.0,515.0
511.0,499.0,525.0,516.0
522.0,514.0,534.0,516.0
523.0,514.0,531.0,515.0
522.0,526.0,537.0,519.0
521.0,537.0,536.0,517.0
510.0,525.0,531.0,518.0
495.0,464.0,524.0,519.0
488.0,452.0,518.0,524.0
488.0,480.0,511.0,524.0
482.0,491.0,507.0,526.0
487.0,497.0,504.0,525.0
486.0,504.0,504.0,522.0
497.0,504.0,502.0,522.0
521.0,515.0,504.0,520.0
531.0,513.0,508.0,516.0
516.0,498.0,516.0,516.0
522.0,494.0,520.0,515.0
543.0,503.0,530.0,514.0
533.0,508.0,533.0,517.0
524.0,518.0,537.0,516.0
528.0,502.0,536.0,517.0
523.0,490.0,531.0,517.0
516.0,481.0,532.0,520.0
499.0,465.0,518.0,521.0
486.0,468.0,514.0,523.0
489.0,458.0,506.0,526.0
487.0,458.0,505.0,526.0
500.0,480.0,505.0,525.0
516.0,513.0,507.0,524.0
519.0,536.0,505.0,522.0
515.0,515.0,508.0,518.0
491.0,522.0,510.0,516.0
482.0,551.0,517.0,517.0
480.0,542.0,523.0,514.0
484.0,534.0,531.0,516.0
493.0,520.0,536.0,514.0
514.0,518.0,535.0,517.0
513.0,503.0,534.0,517.0
528.0,503.0,533.0,518.0
548.0,501.0,526.0,518.0
538.0,504.0,519.0,519.0
545.0,512.0,507.0,523.0
541.0,511.0,507.0,524.0
532.0,500.0,505.0,523.0
528.0,505.0,502.0,523.0
529.0,515.0,505.0,520.0
533.0,521.0,504.0,521.0
536.0,521.0,509.0,520.0
533.0,517.0,512.0,516.0
535.0,512.0,521.0,515.0
538.0,517.0,522.0,516.0
538.0,528.0,533.0,516.0
536.0,528.0,536.0,514.0
534.0,525.0,536.0,515.0
533.0,519.0,536.0,518.0
528.0,505.0,533.0,516.0
511.0,495.0,526.0,519.0
506.0,493.0,518.0,520.0
507.0,499.0,510.0,523.0
503.0,507.0,507.0,524.0
510.0,510.0,506.0,524.0
512.0,510.0,505.0,524.0
515.0,510.0,507.0,522.0
514.0,507.0,508.0,517.0
514.0,515.0,509.0,514.0
511.0,510.0,513.0,513.0
516.0,510.0,522.0,514.0
520.0,511.0,530.0,514.0
528.0,513.0,537.0,514.0
528.0,510.0,539.0,515.0
522.0,509.0,539.0,517.0
521.0,505.0,537.0,516.0
518.0,503.0,532.0,515.0
505.0,495.0,523.0,521.0
501.0,496.0,516.0,524.0
500.0,498.0,511.0,524.0
502.0,501.0,510.0,524.0
504.0,502.0,508.0,521.0
504.0,507.0,507.0,522.0
507.0,513.0,511.0,521.0
508.0,512.0,513.0,519.0
508.0,507.0,516.0,517.0
511.0,509.0,520.0,516.0
518.0,508.0,527.0,515.0
523.0,505.0,533.0,515.0
525.0,502.0,541.0,512.0
522.0,503.0,541.0,514.0
519.0,504.0,542.0,515.0
517.0,498.0,537.0,514.0
507.0,490.0,535.0,520.0
502.0,492.0,524.0,521.0
497.0,493.0,518.0,524.0
500.0,499.0,511.0,524.0
502.0,503.0,510.0,523.0
503.0,504.0,510.0,525.0
506.0,511.0,511.0,525.0
508.0,510.0,511.0,521.0
512.0,507.0,515.0,516.0
509.0,503.0,519.0,516.0
514.0,505.0,526.0,511.0
520.0,504.0,536.0,514.0
524.0,506.0,539.0,515.0
524.0,500.0,541.0,514.0
523.0,494.0,544.0,514.0
519.0,495.0,542.0,517.0
517.0,492.0,537.0,517.0
509.0,497.0,529.0,519.0
501.0,496.0,523.0,521.0
501.0,501.0,516.0,523.0
507.0,511.0,513.0,524.0
507.0,508.0,509.0,525.0
507.0,508.0,509.0,524.0
513.0,513.0,511.0,520.0
512.0,506.0,512.0,521.0
516.0,506.0,515.0,517.0
512.0,509.0,521.0,512.0
517.0,520.0,526.0,513.0
526.0,534.0,537.0,509.0
530.0,536.0,540.0,513.0
526.0,543.0,542.0,515.0
522.0,492.0,544.0,515.0
516.0,475.0,540.0,515.0
514.0,486.0,535.0,513.0
502.0,483.0,526.0,520.0
497.0,483.0,518.0,520.0
497.0,489.0,510.0,523.0
503.0,481.0,508.0,521.0
508.0,479.0,507.0,521.0
504.0,503.0,505.0,519.0
508.0,496.0,508.0,516.0
509.0,508.0,508.0,520.0
511.0,501.0,513.0,509.0
515.0,514.0,519.0,513.0
520.0,536.0,529.0,510.0
527.0,543.0,534.0,510.0
535.0,539.0,540.0,510.0
527.0,474.0,542.0,514.0
525.0,488.0,541.0,511.0
521.0,440.0,535.0,516.0
511.0,455.0,533.0,518.0
513.0,477.0,522.0,518.0
502.0,478.0,514.0,520.0
501.0,539.0,509.0,525.0
497.0,532.0,504.0,524.0
496.0,530.0,505.0,520.0
501.0,526.0,506.0,525.0
505.0,528.0,509.0,522.0
503.0,531.0,514.0,522.0
508.0,521.0,519.0,517.0
515.0,518.0,529.0,516.0
520.0,516.0,535.0,516.0
522.0,514.0,545.0,512.0
521.0,509.0,557.0,518.0
522.0,513.0,544.0,513.0
519.0,516.0,534.0,503.0
516.0,511.0,521.0,497.0
504.0,486.0,509.0,503.0
501.0,489.0,504.0,502.0
500.0,485.0,499.0,508.0
503.0,496.0,499.0,511.0
506.0,504.0,493.0,516.0
504.0,520.0,493.0,512.0
506.0,518.0,498.0,509.0
508.0,508.0,504.0,511.0
509.0,502.0,503.0,511.0
507.0,497.0,515.0,516.0
517.0,501.0,517.0,508.0
527.0,504.0,524.0,504.0
528.0,505.0,535.0,505.0
527.0,500.0,538.0,505.0
523.0,502.0,535.0,506.0
523.0,509.0,533.0,512.0
519.0,521.0,526.0,515.0
505.0,501.0,516.0,517.0
500.0,499.0,513.0,514.0
502.0,501.0,506.0,518.0
503.0,503.0,500.0,517.0
506.0,502.0,499.0,519.0
505.0,502.0,502.0,517.0
508.0,502.0,504.0,515.0
512.0,499.0,503.0,513.0
510.0,496.0,512.0,512.0
513.0,499.0,515.0,504.0
519.0,508.0,523.0,506.0
524.0,520.0,530.0,506.0
525.0,520.0,540.0,509.0
526.0,505.0,539.0,508.0
527.0,504.0,539.0,512.0
525.0,504.0,533.0,511.0
509.0,500.0,527.0,515.0
499.0,496.0,518.0,516.0
493.0,493.0,511.0,519.0
495.0,499.0,509.0,521.0
497.0,506.0,503.0,523.0
499.0,509.0,501.0,521.0
502.0,511.0,502.0,519.0
502.0,514.0,505.0,516.0
511.0,511.0,509.0,514.0
518.0,506.0,510.0,510.0
522.0,500.0,518.0,510.0
522.0,494.0,526.0,509.0
522.0,493.0,531.0,509.0
527.0,489.0,536.0,509.0
527.0,509.0,538.0,508.0
524.0,524.0,535.0,512.0
521.0,529.0,530.0,513.0
508.0,521.0,520.0,515.0
498.0,487.0,515.0,517.0
502.0,466.0,504.0,519.0
505.0,479.0,502.0,521.0
517.0,485.0,500.0,520.0
515.0,494.0,500.0,514.0
513.0,501.0,500.0,517.0
515.0,510.0,504.0,512.0
514.0,507.0,509.0,512.0
517.0,519.0,513.0,510.0
522.0,532.0,520.0,509.0
526.0,536.0,526.0,509.0
525.0,534.0,534.0,509.0
517.0,465.0,537.0,511.0
519.0,476.0,532.0,510.0
518.0,485.0,531.0,513.0
517.0,502.0,526.0,515.0
505.0,498.0,517.0,516.0
498.0,495.0,508.0,517.0
494.0,495.0,502.0,516.0
499.0,488.0,503.0,519.0
503.0,491.0,503.0,519.0
502.0,526.0,497.0,518.0
513.0,527.0,502.0,519.0
513.0,519.0,511.0,515.0
512.0,512.0,512.0,510.0
515.0,512.0,509.0,508.0
518.0,538.0,522.0,508.0
527.0,523.0,528.0,508.0
528.0,519.0,536.0,510.0
527.0,512.0,538.0,509.0
520.0,489.0,535.0,512.0
516.0,466.0,532.0,512.0
504.0,468.0,523.0,514.0
496.0,509.0,515.0,515.0
499.0,500.0,502.0,516.0
499.0,498.0,503.0,517.0
500.0,518.0,499.0,522.0
506.0,514.0,498.0,519.0
506.0,516.0,500.0,514.0
509.0,517.0,503.0,514.0
510.0,512.0,503.0,510.0
507.0,509.0,510.0,510.0
511.0,512.0,516.0,508.0
515.0,517.0,524.0,508.0
525.0,515.0,529.0,510.0
525.0,506.0,534.0,508.0
524.0,495.0,533.0,510.0
522.0,497.0,533.0,512.0
518.0,494.0,528.0,505.0
506.0,497.0,521.0,513.0
503.0,504.0,514.0,517.0
498.0,499.0,508.0,518.0
500.0,501.0,502.0,519.0
503.0,502.0,500.0,519.0
505.0,508.0,499.0,517.0
510.0,513.0,499.0,516.0
511.0,516.0,504.0,512.0
509.0,513.0,506.0,509.0
513.0,507.0,512.0,509.0
517.0,505.0,519.0,506.0
523.0,511.0,526.0,508.0
525.0,507.0,532.0,509.0
526.0,505.0,537.0,506.0
521.0,500.0,531.0,509.0
519.0,499.0,527.0,511.0
515.0,494.0,525.0,510.0
504.0,486.0,517.0,512.0
498.0,489.0,510.0,514.0
496.0,491.0,501.0,517.0
499.0,499.0,500.0,522.0
501.0,502.0,500.0,520.0
502.0,505.0,499.0,518.0
506.0,506.0,502.0,517.0
506.0,512.0,502.0,514.0
510.0,517.0,504.0,511.0
514.0,515.0,513.0,509.0
516.0,508.0,521.0,507.0
523.0,504.0,526.0,508.0
524.0,495.0,534.0,505.0
529.0,490.0,535.0,507.0
521.0,488.0,535.0,512.0
519.0,488.0,530.0,511.0
516.0,496.0,521.0,510.0
505.0,490.0,515.0,514.0
507.0,509.0,506.0,517.0
505.0,500.0,503.0,520.0
509.0,507.0,501.0,518.0
510.0,513.0,499.0,519.0
506.0,518.0,501.0,518.0
506.0,530.0,500.0,512.0
505.0,513.0,505.0,511.0
502.0,482.0,509.0,510.0
506.0,502.0,516.0,508.0
514.0,511.0,523.0,508.0
524.0,518.0,531.0,509.0
525.0,513.0,535.0,509.0
522.0,508.0,533.0,509.0
520.0,501.0,532.0,510.0
515.0,495.0,527.0,511.0
503.0,485.0,522.0,510.0
500.0,487.0,514.0,513.0
502.0,500.0,509.0,518.0
502.0,501.0,501.0,519.0
505.0,501.0,498.0,519.0
507.0,503.0,498.0,517.0
504.0,509.0,498.0,515.0
511.0,508.0,504.0,513.0
509.0,515.0,508.0,510.0
512.0,527.0,511.0,509.0
516.0,517.0,520.0,505.0
515.0,493.0,527.0,506.0
521.0,481.0,529.0,507.0
523.0,510.0,535.0,511.0
519.0,512.0,535.0,505.0
516.0,537.0,533.0,509.0
515.0,533.0,527.0,509.0
495.0,474.0,519.0,512.0
495.0,500.0,511.0,516.0
497.0,507.0,505.0,518.0
503.0,507.0,503.0,518.0
506.0,497.0,500.0,519.0
505.0,488.0,501.0,517.0
508.0,508.0,500.0,514.0
512.0,515.0,502.0,513.0
511.0,500.0,510.0,508.0
518.0,514.0,515.0,508.0
518.0,512.0,522.0,506.0
524.0,510.0,527.0,508.0
527.0,511.0,532.0,508.0
524.0,503.0,535.0,509.0
522.0,505.0,532.0,510.0
516.0,501.0,530.0,509.0
503.0,489.0,524.0,511.0
499.0,482.0,512.0,513.0
499.0,484.0,507.0,516.0
498.0,489.0,500.0,517.0
501.0,507.0,500.0,516.0
500.0,521.0,500.0,518.0
503.0,508.0,500.0,514.0
516.0,505.0,500.0,513.0
517.0,510.0,504.0,512.0
517.0,505.0,510.0,507.0
514.0,505.0,519.0,508.0
519.0,501.0,522.0,506.0
526.0,499.0,532.0,507.0
527.0,497.0,535.0,509.0
524.0,496.0,536.0,510.0
519.0,502.0,534.0,508.0
522.0,516.0,527.0,511.0
506.0,499.0,518.0,512.0
503.0,492.0,511.0,514.0
502.0,494.0,503.0,518.0
505.0,499.0,502.0,515.0
507.0,501.0,501.0,519.0
503.0,507.0,500.0,515.0
506.0,508.0,502.0,516.0
505.0,501.0,503.0,515.0
506.0,501.0,505.0,510.0
511.0,502.0,512.0,510.0
516.0,495.0,519.0,508.0
518.0,489.0,525.0,508.0
525.0,497.0,531.0,508.0
531.0,499.0,537.0,509.0
528.0,512.0,534.0,509.0
521.0,511.0,531.0,514.0
520.0,513.0,525.0,511.0
507.0,500.0,518.0,512.0
499.0,495.0,510.0,515.0
497.0,501.0,502.0,519.0
503.0,502.0,501.0,517.0
509.0,501.0,500.0,516.0
509.0,515.0,498.0,521.0
512.0,523.0,502.0,516.0
513.0,506.0,504.0,513.0
513.0,497.0,507.0,511.0
517.0,500.0,515.0,509.0
515.0,501.0,521.0,510.0
522.0,506.0,529.0,510.0
518.0,526.0,535.0,509.0
522.0,524.0,539.0,510.0
520.0,505.0,537.0,512.0
515.0,503.0,531.0,507.0
507.0,493.0,524.0,513.0
500.0,493.0,512.0,515.0
500.0,498.0,507.0,517.0
499.0,501.0,505.0,519.0
503.0,504.0,500.0,519.0
504.0,501.0,499.0,520.0
509.0,497.0,499.0,516.0
511.0,512.0,500.0,515.0
512.0,511.0,506.0,513.0
511.0,512.0,507.0,509.0
518.0,522.0,518.0,509.0
519.0,493.0,526.0,509.0
523.0,504.0,531.0,506.0
522.0,494.0,536.0,508.0
520.0,489.0,534.0,512.0
516.0,504.0,530.0,511.0
519.0,504.0,530.0,512.0
502.0,489.0,519.0,514.0
502.0,486.0,510.0,516.0
502.0,482.0,505.0,513.0
498.0,488.0,500.0,520.0
500.0,489.0,500.0,520.0
501.0,506.0,503.0,519.0
513.0,526.0,502.0,516.0
516.0,554.0,502.0,515.0
520.0,540.0,502.0,513.0
512.0,517.0,513.0,509.0
510.0,503.0,517.0,509.0
515.0,470.0,526.0,506.0
518.0,497.0,533.0,508.0
518.0,508.0,538.0,511.0
519.0,499.0,533.0,512.0
519.0,507.0,532.0,515.0
513.0,499.0,529.0,514.0
506.0,496.0,519.0,516.0
502.0,494.0,514.0,517.0
502.0,495.0,508.0,517.0
499.0,501.0,501.0,518.0
505.0,503.0,501.0,516.0
505.0,511.0,500.0,516.0
511.0,509.0,502.0,511.0
511.0,510.0,505.0,512.0
510.0,502.0,506.0,508.0
512.0,501.0,512.0,508.0
519.0,500.0,519.0,504.0
525.0,493.0,532.0,508.0
528.0,501.0,539.0,507.0
531.0,496.0,533.0,505.0
522.0,496.0,534.0,506.0
515.0,494.0,528.0,511.0
509.0,505.0,523.0,510.0
505.0,506.0,514.0,516.0
500.0,500.0,504.0,517.0
505.0,503.0,502.0,518.0
498.0,507.0,496.0,517.0
504.0,505.0,499.0,518.0
502.0,515.0,499.0,517.0
510.0,516.0,501.0,516.0
511.0,504.0,500.0,514.0
510.0,499.0,507.0,512.0
514.0,506.0,518.0,510.0
522.0,509.0,524.0,512.0
527.0,519.0,532.0,511.0
528.0,503.0,544.0,514.0
522.0,498.0,546.0,513.0
518.0,501.0,542.0,515.0
515.0,500.0,535.0,520.0
502.0,491.0,525.0,517.0
497.0,493.0,512.0,515.0
499.0,493.0,506.0,517.0
504.0,494.0,495.0,516.0
510.0,506.0,492.0,515.0
510.0,509.0,493.0,510.0
510.0,510.0,497.0,512.0
508.0,512.0,501.0,510.0
510.0,509.0,505.0,509.0
511.0,509.0,511.0,507.0
511.0,499.0,511.0,505.0
520.0,506.0,524.0,509.0
529.0,508.0,528.0,507.0
527.0,503.0,536.0,507.0
525.0,509.0,534.0,510.0
519.0,504.0,531.0,510.0
510.0,490.0,528.0,513.0
497.0,501.0,517.0,511.0
495.0,498.0,510.0,517.0
496.0,498.0,505.0,519.0
498.0,505.0,501.0,520.0
502.0,510.0,501.0,516.0
503.0,511.0,500.0,518.0
507.0,512.0,501.0,516.0
509.0,513.0,503.0,513.0
510.0,505.0,508.0,508.0
510.0,506.0,515.0,507.0
517.0,506.0,519.0,507.0
525.0,506.0,528.0,506.0
525.0,507.0,531.0,505.0
525.0,506.0,530.0,505.0
521.0,503.0,534.0,508.0
518.0,503.0,527.0,512.0
508.0,488.0,522.0,512.0
502.0,490.0,513.0,516.0
500.0,489.0,503.0,517.0
498.0,497.0,499.0,518.0
497.0,502.0,498.0,518.0
500.0,504.0,499.0,515.0
498.0,505.0,501.0,520.0
502.0,502.0,498.0,515.0
507.0,501.0,509.0,515.0
505.0,500.0,510.0,508.0
515.0,500.0,517.0,509.0
527.0,508.0,522.0,506.0
534.0,506.0,530.0,504.0
531.0,500.0,535.0,507.0
527.0,497.0,535.0,506.0
521.0,508.0,533.0,511.0
515.0,504.0,529.0,511.0
504.0,498.0,520.0,513.0
499.0,499.0,511.0,517.0
499.0,492.0,506.0,517.0
503.0,497.0,503.0,517.0
507.0,502.0,499.0,519.0
505.0,506.0,501.0,517.0
507.0,510.0,502.0,515.0
513.0,514.0,501.0,514.0
514.0,513.0,505.0,512.0
514.0,509.0,513.0,511.0
515.0,509.0,519.0,511.0
521.0,508.0,526.0,505.0
526.0,506.0,534.0,507.0
526.0,508.0,537.0,509.0
524.0,509.0,534.0,510.0
517.0,487.0,535.0,512.0
515.0,494.0,528.0,512.0
506.0,483.0,517.0,516.0
503.0,489.0,514.0,518.0
503.0,494.0,505.0,521.0
497.0,497.0,503.0,519.0
500.0,495.0,499.0,521.0
505.0,492.0,502.0,515.0
504.0,491.0,506.0,515.0
504.0,490.0,506.0,515.0
503.0,492.0,506.0,509.0
506.0,514.0,514.0,506.0
516.0,514.0,521.0,507.0
522.0,514.0,529.0,506.0
521.0,508.0,535.0,507.0
523.0,505.0,537.0,508.0
521.0,485.0,532.0,508.0
531.0,518.0,531.0,513.0
524.0,527.0,523.0,515.0
524.0,526.0,514.0,517.0
518.0,539.0,506.0,520.0
507.0,465.0,500.0,520.0
495.0,449.0,498.0,520.0
496.0,506.0,497.0,518.0
499.0,528.0,498.0,519.0
503.0,518.0,504.0,517.0
501.0,511.0,508.0,516.0
500.0,499.0,513.0,510.0
504.0,497.0,520.0,509.0
501.0,500.0,526.0,508.0
505.0,515.0,529.0,507.0
505.0,515.0,537.0,506.0
513.0,508.0,535.0,505.0
517.0,507.0,528.0,509.0
525.0,505.0,526.0,508.0
506.0,490.0,514.0,512.0
513.0,482.0,508.0,516.0
518.0,490.0,504.0,518.0
518.0,498.0,501.0,517.0
515.0,495.0,499.0,520.0
512.0,501.0,500.0,517.0
517.0,510.0,500.0,515.0
520.0,500.0,500.0,514.0
519.0,489.0,505.0,513.0
519.0,498.0,511.0,516.0
524.0,502.0,518.0,511.0
529.0,493.0,528.0,512.0
527.0,527.0,535.0,510.0
530.0,533.0,539.0,509.0
524.0,518.0,537.0,513.0
520.0,510.0,538.0,512.0
514.0,499.0,528.0,514.0
502.0,491.0,518.0,516.0
497.0,491.0,511.0,514.0
500.0,496.0,503.0,517.0
500.0,505.0,495.0,513.0
507.0,515.0,494.0,512.0
509.0,524.0,493.0,514.0
509.0,517.0,495.0,513.0
509.0,498.0,502.0,510.0
507.0,485.0,508.0,509.0
513.0,479.0,514.0,507.0
519.0,496.0,518.0,506.0
525.0,509.0,531.0,507.0
527.0,508.0,538.0,509.0
526.0,513.0,537.0,508.0
520.0,493.0,530.0,508.0
519.0,489.0,526.0,508.0
507.0,508.0,519.0,509.0
500.0,492.0,511.0,512.0
501.0,495.0,503.0,513.0
501.0,511.0,501.0,517.0
503.0,511.0,499.0,523.0
500.0,501.0,501.0,523.0
498.0,505.0,503.0,521.0
505.0,508.0,507.0,521.0
507.0,515.0,513.0,518.0
504.0,505.0,518.0,515.0
509.0,508.0,520.0,511.0
516.0,516.0,528.0,508.0
530.0,518.0,526.0,505.0
535.0,512.0,526.0,502.0
529.0,507.0,530.0,502.0
521.0,503.0,523.0,503.0
521.0,501.0,523.0,503.0
508.0,489.0,516.0,510.0
502.0,489.0,507.0,516.0
502.0,492.0,504.0,516.0
507.0,500.0,499.0,518.0
500.0,504.0,498.0,516.0
502.0,507.0,499.0,513.0
504.0,505.0,498.0,514.0
511.0,514.0,502.0,511.0
513.0,509.0,504.0,508.0
512.0,507.0,509.0,510.0
516.0,507.0,518.0,506.0
524.0,504.0,525.0,507.0
530.0,505.0,532.0,507.0
528.0,505.0,537.0,507.0
525.0,504.0,532.0,508.0
522.0,501.0,530.0,511.0
516.0,496.0,524.0,511.0
501.0,484.0,517.0,515.0
490.0,491.0,511.0,517.0
490.0,499.0,505.0,520.0
499.0,519.0,502.0,517.0
501.0,524.0,499.0,520.0
508.0,526.0,499.0,517.0
508.0,522.0,502.0,518.0
506.0,487.0,505.0,514.0
506.0,494.0,507.0,510.0
513.0,498.0,514.0,510.0
515.0,493.0,523.0,509.0
520.0,494.0,526.0,509.0
525.0,489.0,534.0,507.0
523.0,486.0,537.0,512.0
518.0,479.0,535.0,511.0
513.0,496.0,531.0,509.0
507.0,495.0,523.0,513.0
500.0,498.0,514.0,511.0
501.0,509.0,509.0,517.0
499.0,515.0,503.0,518.0
502.0,511.0,500.0,518.0
506.0,506.0,498.0,519.0
509.0,505.0,498.0,516.0
510.0,504.0,500.0,513.0
513.0,507.0,503.0,513.0
510.0,511.0,512.0,511.0
514.0,506.0,515.0,508.0
518.0,503.0,524.0,508.0
520.0,516.0,532.0,509.0
524.0,519.0,538.0,509.0
522.0,508.0,536.0,508.0
524.0,497.0,534.0,510.0
520.0,498.0,529.0,512.0
508.0,484.0,520.0,514.0
504.0,473.0,512.0,516.0
500.0,480.0,504.0,518.0
497.0,490.0,501.0,518.0
500.0,505.0,499.0,519.0
507.0,524.0,500.0,517.0
500.0,534.0,501.0,516.0
505.0,548.0,503.0,515.0
510.0,539.0,506.0,509.0
515.0,514.0,509.0,507.0
509.0,484.0,520.0,509.0
516.0,490.0,524.0,508.0
520.0,495.0,532.0,508.0
521.0,503.0,534.0,509.0
521.0,506.0,534.0,510.0
521.0,502.0,532.0,511.0
516.0,494.0,524.0,512.0
509.0,481.0,517.0,512.0
501.0,485.0,507.0,519.0
499.0,494.0,503.0,519.0
505.0,496.0,498.0,520.0
502.0,520.0,497.0,520.0
508.0,523.0,502.0,518.0
509.0,514.0,499.0,516.0
511.0,517.0,503.0,510.0
511.0,513.0,508.0,509.0
520.0,511.0,514.0,512.0
521.0,516.0,519.0,509.0
521.0,513.0,529.0,506.0
526.0,513.0,534.0,506.0
529.0,507.0,535.0,509.0
518.0,491.0,534.0,511.0
516.0,494.0,529.0,509.0
506.0,489.0,522.0,513.0
500.0,483.0,513.0,515.0
495.0,496.0,506.0,518.0
499.0,504.0,500.0,521.0
504.0,506.0,500.0,522.0
505.0,508.0,498.0,520.0
507.0,513.0,502.0,516.0
510.0,517.0,502.0,517.0
509.0,513.0,505.0,514.0
511.0,508.0,513.0,510.0
514.0,508.0,520.0,509.0
522.0,512.0,521.0,508.0
526.0,524.0,528.0,506.0
529.0,528.0,532.0,505.0
526.0,527.0,531.0,510.0
523.0,541.0,528.0,509.0
518.0,522.0,525.0,512.0
503.0,484.0,519.0,513.0
497.0,503.0,510.0,517.0
489.0,444.0,502.0,516.0
489.0,442.0,499.0,520.0
499.0,482.0,498.0,515.0
505.0,499.0,497.0,516.0
510.0,511.0,496.0,515.0
516.0,527.0,503.0,514.0
515.0,510.0,506.0,512.0
514.0,505.0,510.0,509.0
519.0,499.0,520.0,510.0
517.0,494.0,528.0,511.0
525.0,502.0,530.0,510.0
524.0,504.0,533.0,512.0
522.0,498.0,531.0,515.0
520.0,498.0,529.0,515.0
516.0,493.0,530.0,516.0
505.0,488.0,519.0,519.0
500.0,486.0,513.0,521.0
499.0,489.0,515.0,523.0
502.0,495.0,508.0,520.0
501.0,503.0,501.0,513.0
506.0,513.0,496.0,512.0
508.0,518.0,494.0,509.0
509.0,517.0,499.0,508.0
507.0,504.0,500.0,506.0
510.0,506.0,510.0,503.0
513.0,500.0,518.0,504.0
519.0,503.0,526.0,507.0
524.0,509.0,532.0,505.0
529.0,510.0,533.0,509.0
514.0,500.0,531.0,507.0
514.0,497.0,528.0,511.0
507.0,483.0,523.0,512.0
503.0,484.0,514.0,514.0
503.0,489.0,503.0,519.0
503.0,503.0,502.0,521.0
504.0,507.0,498.0,521.0
504.0,510.0,503.0,523.0
508.0,514.0,504.0,522.0
512.0,515.0,505.0,517.0
507.0,514.0,502.0,515.0
511.0,495.0,510.0,510.0
516.0,502.0,514.0,503.0
521.0,498.0,516.0,503.0
524.0,500.0,527.0,505.0
526.0,504.0,528.0,504.0
522.0,512.0,530.0,508.0
519.0,499.0,527.0,512.0
514.0,505.0,523.0,507.0
503.0,496.0,517.0,509.0
501.0,494.0,508.0,514.0
502.0,485.0,502.0,513.0
505.0,486.0,499.0,515.0
511.0,491.0,497.0,517.0
517.0,490.0,500.0,516.0
512.0,506.0,494.0,512.0
517.0,535.0,502.0,513.0
512.0,548.0,504.0,508.0
500.0,538.0,505.0,506.0
504.0,539.0,515.0,506.0
515.0,497.0,522.0,504.0
519.0,484.0,528.0,503.0
519.0,490.0,534.0,504.0
517.0,497.0,532.0,508.0
517.0,496.0,527.0,511.0
516.0,502.0,519.0,511.0
504.0,508.0,515.0,511.0
499.0,502.0,506.0,515.0
500.0,496.0,503.0,518.0
503.0,494.0,496.0,517.0
496.0,474.0,496.0,518.0
501.0,497.0,501.0,518.0
502.0,512.0,497.0,518.0
507.0,524.0,498.0,514.0
507.0,522.0,505.0,508.0
508.0,498.0,514.0,510.0
518.0,493.0,520.0,509.0
518.0,501.0,528.0,505.0
524.0,513.0,534.0,509.0
527.0,517.0,535.0,509.0
525.0,508.0,528.0,510.0
524.0,508.0,532.0,512.0
509.0,496.0,520.0,513.0
502.0,486.0,511.0,514.0
499.0,486.0,501.0,517.0
500.0,495.0,500.0,517.0
504.0,508.0,498.0,517.0
504.0,504.0,497.0,519.0
505.0,508.0,499.0,518.0
510.0,512.0,500.0,516.0
507.0,505.0,504.0,515.0
516.0,505.0,508.0,510.0
528.0,510.0,515.0,508.0
521.0,506.0,521.0,510.0
520.0,514.0,531.0,508.0
512.0,521.0,532.0,507.0
520.0,504.0,533.0,510.0
517.0,496.0,528.0,512.0
514.0,485.0,526.0,512.0
500.0,481.0,519.0,516.0
494.0,506.0,509.0,518.0
501.0,517.0,504.0,524.0
507.0,506.0,501.0,521.0
512.0,509.0,500.0,519.0
510.0,518.0,500.0,518.0
510.0,514.0,500.0,516.0
512.0,515.0,499.0,511.0
512.0,511.0,505.0,510.0
512.0,509.0,509.0,509.0
518.0,508.0,517.0,506.0
520.0,509.0,525.0,508.0
524.0,509.0,530.0,505.0
528.0,507.0,531.0,507.0
525.0,502.0,534.0,507.0
520.0,499.0,524.0,508.0
515.0,500.0,522.0,509.0
502.0,489.0,514.0,514.0
501.0,488.0,505.0,519.0
500.0,491.0,499.0,518.0
503.0,501.0,497.0,521.0
505.0,503.0,497.0,518.0
505.0,510.0,497.0,515.0
503.0,508.0,498.0,514.0
510.0,511.0,500.0,514.0
510.0,507.0,505.0,508.0
510.0,506.0,516.0,509.0
517.0,507.0,518.0,507.0
524.0,506.0,525.0,507.0
530.0,505.0,535.0,508.0
525.0,503.0,537.0,510.0
517.0,494.0,529.0,506.0
516.0,505.0,527.0,507.0
504.0,490.0,519.0,509.0
496.0,483.0,511.0,512.0
498.0,484.0,504.0,514.0
501.0,488.0,496.0,518.0
508.0,511.0,496.0,515.0
509.0,515.0,496.0,518.0
510.0,522.0,498.0,515.0
511.0,534.0,500.0,515.0
510.0,525.0,500.0,514.0
508.0,494.0,510.0,508.0
511.0,492.0,518.0,510.0
521.0,504.0,525.0,507.0
520.0,505.0,532.0,506.0
522.0,503.0,532.0,506.0
519.0,510.0,534.0,508.0
516.0,510.0,526.0,507.0
517.0,506.0,525.0,510.0
505.0,503.0,516.0,509.0
501.0,505.0,508.0,513.0
500.0,514.0,503.0,517.0
504.0,525.0,497.0,515.0
504.0,502.0,495.0,520.0
503.0,473.0,500.0,518.0
501.0,470.0,496.0,514.0
506.0,484.0,499.0,510.0
511.0,487.0,503.0,511.0
514.0,496.0,510.0,503.0
518.0,500.0,518.0,505.0
525.0,501.0,526.0,506.0
532.0,504.0,529.0,506.0
534.0,510.0,534.0,507.0
522.0,510.0,533.0,509.0
519.0,508.0,526.0,508.0
516.0,496.0,525.0,510.0
504.0,483.0,515.0,513.0
499.0,499.0,508.0,515.0
496.0,498.0,500.0,519.0
492.0,498.0,499.0,517.0
499.0,505.0,497.0,517.0
506.0,517.0,496.0,514.0
503.0,510.0,497.0,513.0
508.0,519.0,502.0,510.0
505.0,521.0,506.0,509.0
513.0,518.0,513.0,509.0
517.0,511.0,520.0,505.0
519.0,506.0,529.0,505.0
519.0,501.0,531.0,505.0
521.0,494.0,536.0,508.0
517.0,482.0,530.0,511.0
519.0,484.0,530.0,511.0
508.0,481.0,523.0,512.0
504.0,504.0,511.0,516.0
503.0,532.0,506.0,515.0
504.0,509.0,499.0,515.0
505.0,517.0,497.0,518.0
502.0,517.0,496.0,515.0
507.0,519.0,496.0,514.0
512.0,514.0,498.0,511.0
513.0,501.0,500.0,510.0
516.0,511.0,508.0,508.0
521.0,520.0,516.0,508.0
528.0,531.0,521.0,506.0
527.0,530.0,528.0,508.0
525.0,498.0,533.0,509.0
518.0,458.0,531.0,512.0
517.0,476.0,530.0,509.0
515.0,495.0,526.0,509.0
505.0,502.0,517.0,511.0
499.0,496.0,509.0,515.0
498.0,491.0,499.0,519.0
499.0,497.0,501.0,520.0
505.0,498.0,497.0,519.0
507.0,504.0,498.0,519.0
506.0,501.0,496.0,515.0
509.0,518.0,499.0,513.0
510.0,518.0,502.0,508.0
511.0,511.0,510.0,508.0
516.0,506.0,517.0,507.0
523.0,504.0,526.0,507.0
525.0,504.0,531.0,508.0
524.0,497.0,533.0,509.0
520.0,495.0,533.0,509.0
518.0,504.0,529.0,509.0
513.0,500.0,524.0,511.0
503.0,506.0,514.0,508.0
498.0,502.0,507.0,517.0
495.0,500.0,501.0,519.0
500.0,504.0,500.0,521.0
501.0,507.0,497.0,520.0
503.0,509.0,500.0,516.0
502.0,507.0,500.0,515.0
512.0,513.0,505.0,512.0
518.0,509.0,507.0,510.0
522.0,501.0,510.0,509.0
520.0,503.0,521.0,506.0
529.0,512.0,526.0,508.0
530.0,507.0,530.0,506.0
529.0,502.0,531.0,508.0
523.0,492.0,530.0,511.0
519.0,490.0,525.0,508.0
507.0,495.0,520.0,514.0
506.0,496.0,508.0,512.0
505.0,498.0,503.0,513.0
501.0,498.0,499.0,516.0
501.0,500.0,499.0,518.0
505.0,507.0,495.0,517.0
508.0,505.0,497.0,516.0
510.0,510.0,498.0,512.0
516.0,509.0,501.0,512.0
515.0,508.0,506.0,512.0
520.0,506.0,515.0,509.0
522.0,501.0,523.0,510.0
529.0,507.0,530.0,508.0
526.0,490.0,536.0,510.0
521.0,477.0,535.0,512.0
516.0,499.0,530.0,513.0
519.0,504.0,527.0,514.0
507.0,494.0,518.0,513.0
500.0,504.0,509.0,512.0
491.0,504.0,499.0,512.0
493.0,504.0,499.0,516.0
500.0,501.0,497.0,517.0
507.0,509.0,498.0,516.0
506.0,499.0,496.0,514.0
506.0,509.0,498.0,510.0
507.0,513.0,501.0,509.0
511.0,508.0,509.0,508.0
514.0,517.0,514.0,507.0
522.0,516.0,519.0,506.0
525.0,513.0,531.0,507.0
525.0,504.0,534.0,509.0
520.0,498.0,532.0,511.0
518.0,497.0,529.0,512.0
513.0,495.0,526.0,512.0
504.0,507.0,513.0,516.0
503.0,507.0,506.0,517.0
500.0,485.0,499.0,521.0
497.0,489.0,497.0,516.0
500.0,469.0,495.0,514.0
504.0,473.0,493.0,514.0
499.0,494.0,493.0,512.0
503.0,513.0,497.0,514.0
510.0,528.0,504.0,508.0
521.0,541.0,510.0,508.0
523.0,536.0,515.0,506.0
527.0,503.0,525.0,509.0
525.0,495.0,533.0,506.0
526.0,493.0,534.0,508.0
512.0,487.0,533.0,508.0
515.0,500.0,525.0,513.0
500.0,513.0,522.0,512.0
499.0,497.0,511.0,516.0
496.0,491.0,501.0,516.0
497.0,488.0,497.0,521.0
503.0,493.0,493.0,516.0
506.0,506.0,496.0,514.0
507.0,515.0,493.0,514.0
510.0,518.0,501.0,510.0
511.0,513.0,499.0,510.0
508.0,509.0,505.0,507.0
515.0,509.0,510.0,506.0
519.0,522.0,523.0,507.0
525.0,519.0,529.0,507.0
526.0,513.0,533.0,509.0
524.0,511.0,534.0,508.0
517.0,508.0,528.0,509.0
515.0,506.0,525.0,511.0
496.0,492.0,519.0,514.0
502.0,493.0,506.0,516.0
504.0,494.0,502.0,514.0
505.0,506.0,496.0,517.0
506.0,504.0,497.0,516.0
510.0,512.0,493.0,517.0
508.0,510.0,496.0,512.0
507.0,504.0,500.0,511.0
509.0,508.0,500.0,510.0
509.0,511.0,511.0,506.0
515.0,509.0,516.0,506.0
521.0,511.0,526.0,507.0
526.0,515.0,531.0,507.0
526.0,514.0,532.0,512.0
523.0,509.0,532.0,507.0
518.0,506.0,528.0,508.0
513.0,490.0,523.0,514.0
501.0,488.0,513.0,511.0
499.0,493.0,503.0,517.0
500.0,496.0,500.0,516.0
504.0,500.0,497.0,519.0
503.0,504.0,496.0,517.0
512.0,509.0,498.0,517.0
503.0,506.0,499.0,514.0
511.0,505.0,502.0,514.0
509.0,505.0,508.0,509.0
513.0,505.0,511.0,507.0
517.0,507.0,517.0,507.0
524.0,505.0,527.0,507.0
527.0,515.0,532.0,508.0
529.0,514.0,534.0,505.0
524.0,499.0,529.0,509.0
519.0,502.0,527.0,506.0
504.0,476.0,521.0,514.0
491.0,475.0,510.0,516.0
492.0,498.0,505.0,519.0
494.0,507.0,500.0,520.0
498.0,503.0,498.0,521.0
503.0,482.0,496.0,517.0
512.0,477.0,499.0,518.0
510.0,479.0,499.0,517.0
522.0,512.0,506.0,514.0
515.0,519.0,515.0,512.0
518.0,515.0,518.0,514.0
524.0,515.0,527.0,512.0
527.0,519.0,534.0,512.0
529.0,503.0,535.0,509.0
530.0,509.0,533.0,506.0
523.0,504.0,529.0,506.0
519.0,509.0,522.0,507.0
503.0,493.0,512.0,512.0
498.0,502.0,507.0,509.0
497.0,507.0,498.0,513.0
501.0,509.0,495.0,510.0
511.0,517.0,494.0,513.0
513.0,510.0,495.0,511.0
509.0,501.0,498.0,510.0
514.0,508.0,499.0,508.0
509.0,506.0,504.0,507.0
513.0,505.0,509.0,505.0
512.0,502.0,517.0,505.0
521.0,506.0,523.0,504.0
525.0,508.0,529.0,504.0
524.0,506.0,533.0,508.0
520.0,509.0,532.0,509.0
517.0,502.0,528.0,507.0
508.0,496.0,522.0,508.0
504.0,492.0,511.0,513.0
499.0,494.0,506.0,517.0
500.0,498.0,496.0,519.0
505.0,508.0,496.0,518.0
506.0,508.0,495.0,515.0
511.0,511.0,497.0,512.0
506.0,490.0,497.0,512.0
510.0,494.0,502.0,511.0
509.0,490.0,505.0,508.0
516.0,498.0,513.0,506.0
518.0,501.0,518.0,507.0
523.0,506.0,527.0,508.0
527.0,511.0,532.0,506.0
528.0,514.0,534.0,509.0
518.0,509.0,528.0,510.0
513.0,515.0,526.0,511.0
504.0,505.0,519.0,513.0
501.0,500.0,512.0,515.0
495.0,488.0,504.0,517.0
495.0,486.0,499.0,520.0
503.0,493.0,498.0,517.0
505.0,495.0,497.0,517.0
510.0,496.0,497.0,516.0
506.0,491.0,497.0,512.0
508.0,504.0,503.0,509.0
511.0,511.0,511.0,509.0
513.0,513.0,515.0,512.0
521.0,532.0,523.0,515.0
527.0,524.0,532.0,508.0
529.0,521.0,532.0,510.0
527.0,521.0,534.0,510.0
518.0,509.0,527.0,512.0
517.0,512.0,523.0,511.0
503.0,495.0,516.0,509.0
499.0,497.0,507.0,511.0
501.0,498.0,497.0,515.0
501.0,504.0,499.0,517.0
505.0,502.0,496.0,517.0
507.0,509.0,494.0,516.0
507.0,506.0,496.0,512.0
509.0,507.0,498.0,511.0
511.0,512.0,498.0,508.0
508.0,508.0,506.0,508.0
513.0,502.0,515.0,509.0
520.0,520.0,525.0,508.0
525.0,522.0,530.0,509.0
524.0,522.0,535.0,509.0
523.0,512.0,530.0,509.0
513.0,474.0,530.0,507.0
509.0,460.0,521.0,511.0
507.0,469.0,515.0,513.0
505.0,466.0,507.0,514.0
505.0,474.0,501.0,518.0
510.0,495.0,496.0,517.0
511.0,500.0,495.0,515.0
519.0,515.0,495.0,519.0
511.0,511.0,495.0,513.0
516.0,515.0,501.0,510.0
507.0,524.0,506.0,508.0
509.0,526.0,512.0,507.0
509.0,525.0,520.0,504.0
513.0,512.0,525.0,510.0
519.0,508.0,531.0,505.0
519.0,512.0,536.0,507.0
512.0,502.0,531.0,504.0
512.0,503.0,526.0,506.0
503.0,497.0,517.0,512.0
498.0,501.0,512.0,515.0
493.0,502.0,505.0,517.0
499.0,510.0,497.0,520.0
503.0,507.0,498.0,516.0
503.0,504.0,497.0,514.0
510.0,506.0,496.0,515.0
507.0,496.0,500.0,513.0
512.0,497.0,503.0,510.0
513.0,493.0,509.0,509.0
515.0,494.0,514.0,506.0
517.0,483.0,519.0,508.0
520.0,492.0,525.0,505.0
519.0,492.0,531.0,502.0
522.0,508.0,530.0,506.0
512.0,522.0,528.0,506.0
515.0,515.0,523.0,511.0
500.0,496.0,515.0,509.0
501.0,497.0,507.0,511.0
503.0,497.0,500.0,517.0
508.0,494.0,498.0,518.0
507.0,496.0,494.0,519.0
511.0,507.0,498.0,516.0
508.0,506.0,495.0,515.0
508.0,505.0,502.0,512.0
512.0,513.0,506.0,510.0
515.0,507.0,509.0,505.0
517.0,513.0,515.0,508.0
528.0,516.0,524.0,509.0
527.0,513.0,528.0,508.0
527.0,511.0,532.0,510.0
523.0,506.0,527.0,509.0
514.0,500.0,525.0,512.0
509.0,500.0,522.0,515.0
504.0,502.0,513.0,514.0
502.0,502.0,505.0,517.0
501.0,498.0,498.0,519.0
508.0,501.0,493.0,518.0
509.0,499.0,497.0,521.0
513.0,506.0,498.0,517.0
508.0,499.0,498.0,512.0
514.0,503.0,501.0,513.0
512.0,500.0,502.0,510.0
513.0,510.0,514.0,508.0
514.0,517.0,520.0,509.0
514.0,520.0,525.0,506.0
520.0,514.0,533.0,506.0
526.0,513.0,534.0,511.0
521.0,503.0,530.0,508.0
513.0,506.0,528.0,512.0
504.0,495.0,519.0,513.0
506.0,497.0,514.0,516.0
499.0,493.0,502.0,518.0
502.0,500.0,495.0,519.0
503.0,505.0,495.0,518.0
507.0,507.0,496.0,523.0
509.0,507.0,499.0,512.0
504.0,502.0,498.0,511.0
510.0,511.0,504.0,510.0
508.0,507.0,508.0,505.0
516.0,507.0,516.0,506.0
519.0,508.0,520.0,507.0
522.0,511.0,529.0,508.0
525.0,514.0,533.0,508.0
526.0,507.0,534.0,508.0
517.0,501.0,526.0,509.0
520.0,503.0,522.0,510.0
505.0,493.0,515.0,513.0
499.0,489.0,508.0,516.0
500.0,486.0,499.0,515.0
503.0,486.0,498.0,515.0
502.0,493.0,497.0,515.0
508.0,493.0,493.0,517.0
504.0,510.0,497.0,514.0
509.0,507.0,500.0,514.0
509.0,503.0,502.0,509.0
513.0,508.0,514.0,510.0
523.0,508.0,519.0,508.0
525.0,528.0,523.0,507.0
529.0,527.0,531.0,505.0
523.0,518.0,531.0,508.0
524.0,530.0,529.0,507.0
512.0,493.0,527.0,508.0
513.0,491.0,521.0,510.0
500.0,481.0,513.0,515.0
497.0,493.0,504.0,519.0
499.0,496.0,502.0,519.0
500.0,506.0,501.0,520.0
499.0,499.0,498.0,516.0
505.0,502.0,499.0,517.0
501.0,489.0,498.0,511.0
504.0,491.0,501.0,513.0
507.0,497.0,507.0,509.0
510.0,509.0,513.0,509.0
515.0,513.0,520.0,508.0
524.0,511.0,526.0,503.0
528.0,509.0,529.0,507.0
525.0,515.0,535.0,506.0
519.0,506.0,530.0,508.0
521.0,502.0,524.0,510.0
508.0,503.0,517.0,510.0
507.0,506.0,507.0,514.0
503.0,509.0,503.0,516.0
504.0,493.0,496.0,521.0
501.0,490.0,495.0,517.0
505.0,487.0,496.0,518.0
508.0,489.0,498.0,514.0
505.0,484.0,497.0,512.0
509.0,500.0,500.0,511.0
513.0,522.0,507.0,509.0
511.0,527.0,512.0,506.0
517.0,518.0,522.0,505.0
522.0,511.0,527.0,507.0
525.0,514.0,530.0,507.0
526.0,523.0,534.0,509.0
518.0,507.0,526.0,509.0
518.0,504.0,525.0,509.0
503.0,494.0,518.0,514.0
503.0,494.0,507.0,516.0
495.0,492.0,502.0,518.0
495.0,502.0,494.0,516.0
499.0,508.0,496.0,515.0
504.0,511.0,498.0,516.0
507.0,509.0,496.0,514.0
509.0,514.0,499.0,511.0
506.0,509.0,503.0,511.0
510.0,510.0,511.0,508.0
522.0,512.0,517.0,506.0
523.0,514.0,524.0,512.0
527.0,519.0,531.0,506.0
529.0,514.0,533.0,510.0
532.0,513.0,531.0,510.0
518.0,500.0,524.0,508.0
509.0,494.0,522.0,513.0
502.0,494.0,509.0,515.0
497.0,496.0,504.0,518.0
501.0,500.0,498.0,519.0
504.0,503.0,499.0,519.0
506.0,501.0,493.0,518.0
512.0,508.0,494.0,514.0
507.0,504.0,498.0,512.0
513.0,514.0,500.0,513.0
515.0,537.0,504.0,507.0
520.0,532.0,509.0,506.0
524.0,526.0,518.0,504.0
534.0,514.0,525.0,506.0
527.0,458.0,530.0,507.0
529.0,486.0,532.0,509.0
519.0,512.0,528.0,505.0
516.0,504.0,526.0,509.0
505.0,481.0,520.0,513.0
498.0,483.0,511.0,514.0
496.0,504.0,505.0,515.0
498.0,498.0,499.0,518.0
503.0,503.0,496.0,517.0
504.0,509.0,497.0,517.0
508.0,506.0,497.0,515.0
503.0,503.0,500.0,513.0
511.0,505.0,502.0,510.0
508.0,504.0,508.0,509.0
516.0,504.0,512.0,507.0
520.0,506.0,526.0,509.0
524.0,509.0,528.0,510.0
523.0,504.0,532.0,508.0
524.0,500.0,531.0,510.0
513.0,496.0,528.0,511.0
516.0,501.0,523.0,511.0
502.0,491.0,516.0,515.0
501.0,493.0,509.0,516.0
501.0,503.0,502.0,512.0
499.0,505.0,498.0,515.0
499.0,493.0,497.0,517.0
507.0,504.0,492.0,514.0
515.0,512.0,499.0,515.0
509.0,498.0,501.0,516.0
508.0,494.0,503.0,506.0
511.0,499.0,509.0,507.0
518.0,507.0,517.0,506.0
521.0,509.0,521.0,506.0
523.0,523.0,531.0,507.0
527.0,513.0,532.0,507.0
525.0,508.0,529.0,508.0
519.0,499.0,522.0,505.0
510.0,495.0,520.0,507.0
500.0,489.0,509.0,512.0
500.0,494.0,503.0,514.0
503.0,502.0,496.0,516.0
507.0,509.0,496.0,516.0
510.0,512.0,496.0,517.0
507.0,509.0,492.0,515.0
501.0,504.0,497.0,513.0
513.0,518.0,500.0,513.0
508.0,514.0,502.0,507.0
511.0,507.0,509.0,506.0
517.0,503.0,517.0,506.0
523.0,509.0,525.0,505.0
527.0,517.0,531.0,501.0
527.0,525.0,532.0,503.0
515.0,523.0,527.0,508.0
518.0,512.0,524.0,505.0
504.0,486.0,519.0,512.0
498.0,480.0,513.0,514.0
499.0,488.0,500.0,514.0
501.0,500.0,499.0,518.0
504.0,519.0,496.0,517.0
508.0,513.0,497.0,518.0
509.0,510.0,499.0,516.0
505.0,497.0,500.0,511.0
509.0,496.0,502.0,511.0
510.0,498.0,507.0,509.0
517.0,507.0,515.0,508.0
526.0,504.0,521.0,509.0
528.0,500.0,529.0,509.0
527.0,509.0,532.0,506.0
526.0,526.0,531.0,509.0
512.0,516.0,526.0,509.0
510.0,521.0,521.0,511.0
502.0,490.0,514.0,510.0
494.0,476.0,507.0,512.0
495.0,499.0,499.0,516.0
500.0,506.0,497.0,517.0
502.0,508.0,494.0,519.0
506.0,513.0,498.0,517.0
508.0,515.0,499.0,514.0
508.0,515.0,496.0,511.0
509.0,507.0,504.0,509.0
513.0,502.0,512.0,505.0
523.0,506.0,514.0,507.0
526.0,507.0,522.0,506.0
528.0,522.0,529.0,506.0
531.0,537.0,532.0,506.0
527.0,526.0,531.0,506.0
520.0,517.0,527.0,509.0
506.0,478.0,522.0,511.0
496.0,469.0,515.0,515.0
496.0,474.0,505.0,517.0
499.0,497.0,499.0,513.0
500.0,504.0,498.0,518.0
506.0,501.0,496.0,518.0
511.0,506.0,499.0,514.0
505.0,498.0,499.0,514.0
509.0,506.0,505.0,513.0
511.0,506.0,508.0,508.0
512.0,516.0,514.0,509.0
517.0,512.0,518.0,508.0
519.0,509.0,526.0,505.0
524.0,512.0,529.0,507.0
523.0,511.0,534.0,507.0
519.0,504.0,531.0,509.0
516.0,505.0,529.0,512.0
504.0,492.0,514.0,513.0
500.0,494.0,511.0,515.0
499.0,497.0,503.0,517.0
500.0,505.0,500.0,519.0
502.0,509.0,495.0,519.0
506.0,512.0,494.0,518.0
510.0,514.0,497.0,515.0
509.0,509.0,498.0,513.0
509.0,506.0,502.0,511.0
509.0,501.0,508.0,510.0
513.0,500.0,516.0,507.0
519.0,501.0,524.0,506.0
524.0,504.0,528.0,504.0
526.0,505.0,534.0,508.0
528.0,510.0,534.0,510.0
517.0,511.0,530.0,508.0
515.0,506.0,525.0,509.0
505.0,497.0,513.0,513.0
498.0,492.0,508.0,515.0
501.0,491.0,503.0,517.0
500.0,492.0,499.0,519.0
503.0,494.0,496.0,518.0
510.0,498.0,498.0,518.0
508.0,510.0,499.0,514.0
509.0,501.0,500.0,513.0
511.0,509.0,503.0,511.0
512.0,522.0,516.0,511.0
516.0,527.0,520.0,509.0
521.0,523.0,528.0,510.0
523.0,518.0,533.0,509.0
525.0,513.0,534.0,507.0
523.0,520.0,531.0,508.0
514.0,508.0,524.0,512.0
509.0,497.0,520.0,508.0
501.0,490.0,515.0,508.0
497.0,489.0,503.0,514.0
499.0,497.0,500.0,517.0
502.0,498.0,498.0,516.0
506.0,490.0,498.0,518.0
513.0,501.0,499.0,516.0
508.0,500.0,499.0,511.0
510.0,513.0,503.0,512.0
509.0,514.0,504.0,509.0
515.0,512.0,510.0,508.0
518.0,513.0,519.0,509.0
525.0,507.0,525.0,507.0
529.0,506.0,531.0,507.0
527.0,497.0,534.0,508.0
520.0,486.0,528.0,509.0
512.0,498.0,524.0,511.0
503.0,483.0,518.0,513.0
500.0,479.0,512.0,511.0
494.0,496.0,504.0,519.0
487.0,489.0,498.0,519.0
495.0,528.0,496.0,518.0
507.0,533.0,498.0,517.0
511.0,513.0,502.0,513.0
511.0,505.0,500.0,512.0
515.0,513.0,504.0,508.0
515.0,512.0,508.0,506.0
517.0,515.0,515.0,508.0
525.0,518.0,517.0,504.0
527.0,504.0,525.0,506.0
524.0,502.0,531.0,505.0
527.0,509.0,531.0,507.0
515.0,504.0,525.0,509.0
510.0,507.0,526.0,511.0
499.0,497.0,520.0,514.0
499.0,497.0,508.0,516.0
497.0,506.0,500.0,517.0
499.0,512.0,497.0,517.0
499.0,512.0,495.0,517.0
508.0,511.0,494.0,513.0
510.0,507.0,493.0,511.0
509.0,506.0,497.0,510.0
512.0,506.0,503.0,505.0
514.0,508.0,508.0,505.0
524.0,514.0,516.0,506.0
520.0,509.0,522.0,506.0
527.0,498.0,530.0,507.0
526.0,504.0,534.0,505.0
523.0,499.0,529.0,509.0
512.0,484.0,524.0,509.0
505.0,500.0,518.0,511.0
497.0,492.0,514.0,514.0
494.0,498.0,503.0,514.0
502.0,509.0,500.0,513.0
506.0,514.0,496.0,515.0
507.0,512.0,495.0,515.0
510.0,517.0,497.0,514.0
506.0,510.0,497.0,512.0
508.0,513.0,503.0,512.0
511.0,507.0,505.0,508.0
514.0,505.0,515.0,506.0
520.0,499.0,521.0,507.0
525.0,497.0,527.0,510.0
531.0,484.0,532.0,507.0
526.0,490.0,532.0,513.0
521.0,487.0,531.0,512.0
512.0,485.0,526.0,513.0
503.0,494.0,521.0,515.0
498.0,502.0,511.0,517.0
500.0,517.0,504.0,516.0
497.0,521.0,502.0,520.0
503.0,525.0,499.0,517.0
505.0,518.0,499.0,515.0
507.0,510.0,498.0,514.0
501.0,505.0,501.0,512.0
511.0,507.0,501.0,507.0
511.0,503.0,506.0,505.0
514.0,507.0,513.0,505.0
520.0,514.0,523.0,506.0
526.0,512.0,526.0,506.0
520.0,508.0,531.0,508.0
525.0,510.0,530.0,506.0
517.0,498.0,527.0,508.0
513.0,499.0,525.0,510.0
504.0,486.0,515.0,513.0
501.0,491.0,506.0,513.0
500.0,496.0,495.0,515.0
502.0,504.0,490.0,515.0
505.0,505.0,494.0,513.0
511.0,516.0,495.0,513.0
509.0,513.0,496.0,511.0
507.0,506.0,496.0,510.0
510.0,505.0,505.0,509.0
510.0,504.0,508.0,508.0
517.0,501.0,517.0,507.0
524.0,502.0,521.0,507.0
526.0,500.0,529.0,506.0
526.0,495.0,532.0,504.0
523.0,491.0,529.0,509.0
518.0,490.0,524.0,508.0
512.0,508.0,516.0,510.0
502.0,510.0,509.0,513.0
496.0,495.0,507.0,517.0
498.0,489.0,499.0,521.0
503.0,499.0,497.0,520.0
503.0,510.0,498.0,518.0
512.0,519.0,498.0,515.0
509.0,518.0,498.0,517.0
515.0,506.0,500.0,511.0
512.0,500.0,507.0,506.0
513.0,516.0,513.0,508.0
518.0,524.0,520.0,508.0
524.0,529.0,525.0,508.0
528.0,556.0,531.0,507.0
526.0,534.0,530.0,509.0
520.0,474.0,528.0,509.0
518.0,477.0,524.0,507.0
509.0,454.0,517.0,514.0
498.0,464.0,505.0,516.0
499.0,489.0,501.0,517.0
498.0,503.0,497.0,521.0
499.0,505.0,499.0,517.0
503.0,508.0,497.0,518.0
506.0,514.0,501.0,513.0
507.0,513.0,503.0,513.0
509.0,507.0,507.0,512.0
510.0,499.0,512.0,510.0
513.0,492.0,515.0,508.0
518.0,494.0,521.0,506.0
523.0,496.0,527.0,503.0
518.0,502.0,529.0,505.0
522.0,505.0,531.0,508.0
517.0,507.0,525.0,505.0
514.0,505.0,520.0,510.0
509.0,496.0,510.0,512.0
501.0,494.0,506.0,516.0
501.0,508.0,500.0,515.0
502.0,523.0,497.0,519.0
506.0,520.0,496.0,517.0
507.0,524.0,497.0,516.0
512.0,519.0,497.0,510.0
513.0,511.0,498.0,508.0
510.0,509.0,504.0,509.0
515.0,510.0,509.0,505.0
518.0,510.0,520.0,508.0
525.0,507.0,522.0,508.0
526.0,499.0,529.0,508.0
527.0,505.0,534.0,507.0
520.0,507.0,531.0,511.0
509.0,503.0,525.0,510.0
507.0,497.0,520.0,510.0
505.0,495.0,509.0,513.0
497.0,492.0,503.0,513.0
499.0,489.0,498.0,517.0
503.0,503.0,496.0,516.0
504.0,524.0,496.0,517.0
506.0,533.0,496.0,512.0
506.0,511.0,496.0,512.0
512.0,516.0,499.0,511.0
506.0,511.0,510.0,509.0
515.0,516.0,510.0,508.0
521.0,518.0,519.0,508.0
528.0,511.0,528.0,508.0
527.0,510.0,532.0,508.0
525.0,514.0,535.0,510.0
522.0,506.0,529.0,511.0
512.0,502.0,526.0,510.0
508.0,495.0,520.0,514.0
499.0,495.0,508.0,515.0
496.0,496.0,502.0,516.0
501.0,500.0,496.0,516.0
499.0,506.0,495.0,517.0
503.0,508.0,494.0,519.0
506.0,511.0,495.0,514.0
501.0,500.0,497.0,513.0
505.0,508.0,502.0,509.0
509.0,503.0,508.0,508.0
515.0,506.0,516.0,509.0
530.0,504.0,521.0,505.0
532.0,507.0,524.0,506.0
529.0,506.0,533.0,506.0
528.0,525.0,530.0,506.0
521.0,516.0,527.0,507.0
514.0,506.0,524.0,508.0
506.0,498.0,514.0,511.0
503.0,494.0,505.0,515.0
500.0,504.0,501.0,514.0
499.0,509.0,495.0,517.0
501.0,511.0,494.0,516.0
505.0,496.0,498.0,516.0
509.0,492.0,495.0,514.0
504.0,509.0,499.0,512.0
510.0,506.0,504.0,502.0
512.0,504.0,510.0,507.0
516.0,508.0,517.0,510.0
522.0,507.0,523.0,508.0
526.0,508.0,532.0,505.0
527.0,506.0,530.0,508.0
523.0,502.0,531.0,509.0
515.0,494.0,526.0,508.0
510.0,488.0,521.0,510.0
502.0,484.0,513.0,513.0
500.0,487.0,503.0,516.0
501.0,490.0,499.0,518.0
505.0,496.0,494.0,522.0
508.0,500.0,493.0,518.0
515.0,511.0,498.0,518.0
510.0,522.0,499.0,516.0
513.0,520.0,502.0,514.0
511.0,521.0,506.0,507.0
509.0,484.0,511.0,508.0
516.0,492.0,518.0,506.0
519.0,509.0,526.0,507.0
520.0,524.0,531.0,508.0
521.0,516.0,530.0,509.0
519.0,504.0,529.0,510.0
511.0,504.0,524.0,510.0
504.0,495.0,514.0,509.0
499.0,494.0,509.0,516.0
502.0,496.0,502.0,516.0
499.0,503.0,497.0,518.0
503.0,507.0,497.0,521.0
505.0,516.0,493.0,523.0
507.0,521.0,496.0,522.0
501.0,516.0,498.0,514.0
507.0,518.0,506.0,516.0
509.0,512.0,512.0,515.0
518.0,504.0,523.0,515.0
523.0,507.0,534.0,513.0
526.0,507.0,534.0,511.0
528.0,504.0,534.0,506.0
524.0,512.0,527.0,505.0
518.0,502.0,521.0,507.0
514.0,500.0,518.0,504.0
504.0,493.0,509.0,505.0
500.0,494.0,501.0,507.0
499.0,495.0,496.0,514.0
501.0,501.0,493.0,516.0
502.0,497.0,492.0,514.0
506.0,506.0,492.0,513.0
510.0,521.0,494.0,512.0
504.0,516.0,497.0,510.0
510.0,508.0,500.0,506.0
514.0,504.0,508.0,503.0
517.0,506.0,514.0,504.0
523.0,508.0,520.0,505.0
526.0,504.0,526.0,507.0
526.0,509.0,531.0,507.0
524.0,496.0,530.0,508.0
512.0,480.0,525.0,512.0
507.0,479.0,518.0,513.0
500.0,484.0,510.0,515.0
497.0,497.0,505.0,515.0
499.0,502.0,500.0,520.0
504.0,516.0,496.0,520.0
504.0,529.0,497.0,518.0
510.0,509.0,500.0,518.0
504.0,481.0,495.0,513.0
512.0,498.0,498.0,512.0
514.0,508.0,506.0,508.0
519.0,516.0,513.0,510.0
520.0,508.0,517.0,505.0
520.0,523.0,526.0,508.0
524.0,516.0,531.0,507.0
524.0,509.0,527.0,508.0
519.0,497.0,530.0,511.0
511.0,491.0,525.0,510.0
506.0,497.0,519.0,513.0
495.0,500.0,510.0,516.0
501.0,502.0,502.0,515.0
501.0,504.0,497.0,517.0
504.0,519.0,491.0,516.0
504.0,524.0,492.0,515.0
510.0,556.0,493.0,513.0
515.0,542.0,494.0,511.0
513.0,494.0,497.0,511.0
511.0,486.0,505.0,509.0
516.0,494.0,510.0,507.0
522.0,500.0,519.0,507.0
527.0,508.0,524.0,506.0
525.0,509.0,531.0,508.0
519.0,512.0,532.0,511.0
511.0,507.0,525.0,509.0
509.0,507.0,520.0,507.0
498.0,497.0,509.0,514.0
498.0,500.0,507.0,513.0
497.0,506.0,500.0,514.0
498.0,506.0,498.0,520.0
500.0,503.0,494.0,518.0
508.0,511.0,496.0,516.0
504.0,505.0,498.0,517.0
505.0,502.0,495.0,511.0
509.0,504.0,498.0,508.0
512.0,501.0,508.0,509.0
514.0,497.0,512.0,508.0
520.0,494.0,522.0,509.0
527.0,506.0,531.0,509.0
528.0,522.0,536.0,511.0
523.0,512.0,531.0,513.0
516.0,501.0,525.0,510.0
507.0,491.0,522.0,513.0
505.0,495.0,510.0,513.0
500.0,496.0,504.0,520.0
500.0,501.0,499.0,521.0
496.0,503.0,496.0,520.0
505.0,501.0,492.0,516.0
512.0,508.0,496.0,514.0
508.0,504.0,493.0,511.0
509.0,500.0,497.0,509.0
513.0,509.0,503.0,507.0
514.0,523.0,513.0,509.0
520.0,511.0,521.0,507.0
529.0,504.0,524.0,507.0
520.0,502.0,531.0,505.0
523.0,506.0,528.0,508.0
519.0,501.0,521.0,506.0
512.0,501.0,520.0,508.0
506.0,499.0,513.0,513.0
504.0,499.0,508.0,515.0
500.0,502.0,503.0,519.0
505.0,506.0,496.0,519.0
506.0,503.0,498.0,520.0
505.0,506.0,495.0,519.0
506.0,505.0,496.0,516.0
499.0,503.0,498.0,514.0
506.0,508.0,501.0,506.0
510.0,506.0,507.0,505.0
514.0,502.0,514.0,506.0
521.0,514.0,520.0,508.0
526.0,517.0,527.0,506.0
525.0,507.0,531.0,510.0
528.0,507.0,531.0,509.0
518.0,491.0,526.0,510.0
512.0,489.0,524.0,511.0
500.0,482.0,514.0,512.0
496.0,479.0,504.0,517.0
493.0,491.0,499.0,520.0
498.0,518.0,496.0,522.0
504.0,523.0,499.0,520.0
511.0,534.0,498.0,517.0
513.0,520.0,500.0,512.0
508.0,500.0,501.0,513.0
510.0,492.0,506.0,512.0
513.0,496.0,513.0,508.0
513.0,502.0,519.0,511.0
518.0,506.0,524.0,509.0
523.0,517.0,530.0,507.0
530.0,514.0,534.0,511.0
525.0,516.0,531.0,512.0
516.0,508.0,524.0,513.0
510.0,495.0,516.0,513.0
502.0,486.0,511.0,516.0
499.0,489.0,505.0,515.0
497.0,489.0,499.0,518.0
502.0,506.0,496.0,517.0
510.0,534.0,495.0,518.0
509.0,539.0,497.0,515.0
509.0,533.0,500.0,513.0
507.0,516.0,499.0,510.0
507.0,488.0,503.0,507.0
512.0,492.0,513.0,505.0
519.0,495.0,521.0,504.0
526.0,498.0,526.0,505.0
528.0,496.0,530.0,502.0
533.0,505.0,531.0,505.0
527.0,509.0,526.0,510.0
517.0,492.0,522.0,508.0
510.0,488.0,514.0,510.0
505.0,487.0,507.0,513.0
501.0,491.0,498.0,514.0
497.0,492.0,498.0,517.0
506.0,499.0,494.0,514.0
507.0,506.0,495.0,518.0
504.0,512.0,497.0,513.0
494.0,518.0,499.0,514.0
502.0,516.0,502.0,511.0
506.0,506.0,508.0,510.0
511.0,510.0,516.0,509.0
518.0,518.0,521.0,508.0
532.0,521.0,529.0,509.0
526.0,517.0,533.0,511.0
524.0,529.0,534.0,512.0
519.0,512.0,528.0,513.0
514.0,491.0,521.0,512.0
502.0,474.0,512.0,513.0
498.0,482.0,505.0,512.0
498.0,490.0,501.0,514.0
501.0,498.0,497.0,518.0
508.0,511.0,492.0,517.0
509.0,528.0,496.0,516.0
513.0,517.0,498.0,514.0
510.0,513.0,499.0,512.0
508.0,514.0,499.0,509.0
512.0,519.0,508.0,507.0
515.0,513.0,517.0,508.0
517.0,514.0,524.0,507.0
522.0,518.0,527.0,507.0
525.0,519.0,531.0,510.0
524.0,512.0,527.0,510.0
516.0,505.0,526.0,510.0
510.0,495.0,519.0,511.0
505.0,493.0,512.0,516.0
501.0,492.0,505.0,519.0
500.0,498.0,499.0,518.0
503.0,505.0,497.0,521.0
504.0,510.0,499.0,519.0
513.0,516.0,499.0,514.0
506.0,506.0,498.0,516.0
507.0,506.0,500.0,511.0
508.0,505.0,504.0,510.0
511.0,508.0,514.0,506.0
516.0,510.0,519.0,509.0
523.0,513.0,526.0,507.0
526.0,513.0,530.0,506.0
527.0,505.0,532.0,509.0
522.0,499.0,529.0,510.0
513.0,498.0,522.0,509.0
506.0,500.0,516.0,511.0
497.0,497.0,508.0,515.0
500.0,500.0,501.0,517.0
505.0,500.0,499.0,517.0
502.0,489.0,497.0,519.0
505.0,501.0,499.0,520.0
511.0,501.0,498.0,518.0
508.0,494.0,499.0,513.0
510.0,490.0,500.0,513.0
514.0,489.0,515.0,509.0
517.0,493.0,516.0,506.0
525.0,504.0,523.0,509.0
527.0,513.0,528.0,509.0
525.0,519.0,535.0,510.0
519.0,510.0,534.0,508.0
515.0,503.0,526.0,511.0
507.0,501.0,519.0,510.0
497.0,495.0,511.0,512.0
498.0,485.0,503.0,516.0
498.0,484.0,501.0,519.0
495.0,506.0,497.0,519.0
501.0,522.0,494.0,518.0
509.0,520.0,497.0,515.0
507.0,516.0,500.0,516.0
506.0,512.0,498.0,513.0
508.0,518.0,504.0,510.0
511.0,507.0,511.0,506.0
513.0,507.0,515.0,506.0
521.0,503.0,524.0,508.0
523.0,502.0,529.0,508.0
525.0,503.0,535.0,509.0
524.0,506.0,531.0,506.0
514.0,498.0,526.0,511.0
508.0,499.0,516.0,512.0
503.0,505.0,510.0,510.0
501.0,507.0,502.0,518.0
501.0,519.0,497.0,521.0
502.0,487.0,497.0,518.0
503.0,486.0,495.0,518.0
508.0,509.0,497.0,515.0
509.0,516.0,499.0,513.0
504.0,509.0,503.0,512.0
511.0,509.0,506.0,509.0
518.0,502.0,512.0,505.0
521.0,500.0,519.0,506.0
524.0,495.0,527.0,506.0
523.0,506.0,526.0,507.0
524.0,515.0,533.0,510.0
517.0,507.0,530.0,509.0
512.0,493.0,524.0,512.0
504.0,488.0,517.0,515.0
498.0,493.0,511.0,516.0
502.0,500.0,503.0,514.0
504.0,496.0,498.0,518.0
507.0,503.0,497.0,517.0
507.0,512.0,497.0,519.0
505.0,517.0,497.0,516.0
502.0,515.0,498.0,514.0
508.0,514.0,501.0,512.0
510.0,524.0,509.0,511.0
515.0,507.0,514.0,509.0
523.0,505.0,521.0,504.0
527.0,504.0,528.0,506.0
525.0,505.0,533.0,506.0
523.0,512.0,532.0,506.0
513.0,514.0,528.0,510.0
510.0,506.0,519.0,509.0
504.0,520.0,514.0,514.0
494.0,521.0,504.0,516.0
496.0,496.0,500.0,517.0
502.0,487.0,498.0,517.0
501.0,493.0,498.0,518.0
513.0,499.0,495.0,516.0
515.0,502.0,498.0,515.0
510.0,495.0,497.0,511.0
513.0,491.0,503.0,507.0
516.0,494.0,510.0,512.0
521.0,495.0,519.0,510.0
521.0,506.0,525.0,509.0
528.0,516.0,530.0,510.0
531.0,518.0,534.0,509.0
523.0,504.0,529.0,511.0
512.0,499.0,528.0,512.0
504.0,495.0,520.0,513.0
496.0,490.0,513.0,512.0
500.0,506.0,502.0,517.0
498.0,505.0,498.0,517.0
500.0,510.0,494.0,521.0
502.0,513.0,492.0,518.0
507.0,520.0,498.0,517.0
508.0,513.0,500.0,514.0
508.0,510.0,499.0,509.0
510.0,510.0,506.0,508.0
513.0,508.0,511.0,508.0
518.0,512.0,519.0,507.0
524.0,515.0,523.0,507.0
528.0,513.0,530.0,506.0
528.0,513.0,529.0,508.0
521.0,509.0,527.0,509.0
514.0,502.0,521.0,508.0
507.0,497.0,515.0,510.0
503.0,493.0,508.0,512.0
501.0,495.0,500.0,517.0
502.0,492.0,495.0,518.0
503.0,497.0,493.0,519.0
505.0,500.0,500.0,519.0
506.0,504.0,498.0,512.0
505.0,497.0,497.0,516.0
504.0,499.0,501.0,511.0
509.0,504.0,507.0,509.0
518.0,502.0,516.0,507.0
525.0,509.0,521.0,507.0
526.0,497.0,523.0,507.0
525.0,494.0,531.0,510.0
521.0,497.0,531.0,508.0
517.0,511.0,524.0,511.0
512.0,511.0,520.0,511.0
500.0,508.0,512.0,514.0
501.0,505.0,506.0,517.0
498.0,509.0,498.0,520.0
498.0,511.0,499.0,519.0
503.0,511.0,492.0,520.0
508.0,514.0,499.0,520.0
510.0,511.0,500.0,517.0
502.0,505.0,499.0,514.0
511.0,501.0,502.0,510.0
514.0,495.0,510.0,506.0
518.0,496.0,516.0,508.0
522.0,498.0,523.0,505.0
525.0,528.0,529.0,506.0
525.0,545.0,528.0,508.0
525.0,527.0,530.0,507.0
517.0,511.0,525.0,508.0
508.0,491.0,514.0,511.0
506.0,476.0,512.0,515.0
497.0,483.0,505.0,514.0
502.0,493.0,499.0,517.0
501.0,509.0,499.0,519.0
499.0,501.0,499.0,522.0
506.0,509.0,497.0,519.0
505.0,517.0,496.0,517.0
507.0,510.0,502.0,514.0
510.0,506.0,506.0,509.0
514.0,510.0,510.0,506.0
518.0,519.0,514.0,506.0
521.0,523.0,527.0,507.0
526.0,522.0,529.0,505.0
527.0,516.0,531.0,508.0
523.0,490.0,528.0,508.0
518.0,482.0,526.0,511.0
508.0,479.0,517.0,514.0
505.0,484.0,510.0,516.0
498.0,477.0,499.0,512.0
501.0,500.0,494.0,515.0
505.0,513.0,493.0,512.0
505.0,518.0,494.0,513.0
508.0,520.0,494.0,511.0
506.0,510.0,495.0,509.0
508.0,504.0,497.0,509.0
512.0,515.0,505.0,509.0
515.0,501.0,514.0,506.0
525.0,504.0,519.0,507.0
529.0,519.0,528.0,510.0
527.0,508.0,532.0,508.0
520.0,506.0,533.0,511.0
515.0,496.0,529.0,509.0
510.0,491.0,519.0,506.0
503.0,498.0,512.0,511.0
498.0,505.0,503.0,509.0
498.0,509.0,499.0,514.0
502.0,508.0,497.0,518.0
498.0,511.0,490.0,517.0
504.0,516.0,496.0,514.0
503.0,514.0,498.0,511.0
504.0,504.0,500.0,508.0
508.0,502.0,504.0,505.0
508.0,509.0,509.0,509.0
515.0,513.0,517.0,507.0
521.0,509.0,523.0,511.0
524.0,501.0,530.0,509.0
525.0,501.0,532.0,509.0
523.0,505.0,531.0,511.0
514.0,514.0,528.0,512.0
505.0,500.0,517.0,514.0
499.0,493.0,513.0,516.0
499.0,492.0,504.0,517.0
501.0,490.0,495.0,518.0
503.0,503.0,492.0,517.0
501.0,520.0,495.0,517.0
509.0,529.0,495.0,514.0
509.0,522.0,499.0,514.0
508.0,504.0,502.0,515.0
509.0,504.0,507.0,511.0
519.0,504.0,517.0,510.0
518.0,508.0,519.0,508.0
525.0,525.0,527.0,509.0
528.0,518.0,529.0,509.0
529.0,517.0,533.0,510.0
524.0,517.0,526.0,512.0
512.0,501.0,522.0,507.0
505.0,499.0,514.0,510.0
493.0,481.0,505.0,512.0
497.0,495.0,503.0,516.0
502.0,519.0,492.0,518.0
502.0,507.0,495.0,516.0
508.0,507.0,491.0,518.0
510.0,509.0,496.0,516.0
506.0,508.0,496.0,513.0
508.0,501.0,501.0,510.0
513.0,502.0,506.0,510.0
517.0,501.0,517.0,508.0
522.0,506.0,525.0,507.0
525.0,505.0,532.0,510.0
525.0,513.0,538.0,511.0
525.0,509.0,533.0,509.0
519.0,502.0,525.0,511.0
511.0,494.0,520.0,510.0
500.0,487.0,513.0,511.0
495.0,490.0,502.0,516.0
499.0,492.0,498.0,514.0
499.0,505.0,496.0,513.0
503.0,514.0,490.0,516.0
507.0,526.0,494.0,522.0
510.0,532.0,498.0,511.0
509.0,539.0,498.0,507.0
512.0,535.0,503.0,513.0
509.0,480.0,511.0,510.0
515.0,486.0,518.0,508.0
525.0,504.0,523.0,508.0
529.0,509.0,530.0,505.0
531.0,509.0,530.0,509.0
525.0,501.0,530.0,510.0
521.0,490.0,527.0,509.0
505.0,484.0,518.0,512.0
496.0,474.0,510.0,513.0
488.0,477.0,500.0,517.0
496.0,485.0,499.0,520.0
499.0,500.0,496.0,520.0
506.0,498.0,496.0,516.0
511.0,530.0,497.0,517.0
502.0,523.0,502.0,517.0
504.0,512.0,499.0,514.0
504.0,507.0,509.0,510.0
511.0,513.0,513.0,507.0
516.0,513.0,521.0,509.0
523.0,514.0,527.0,505.0
525.0,508.0,529.0,506.0
526.0,501.0,531.0,509.0
521.0,501.0,526.0,509.0
515.0,501.0,520.0,507.0
504.0,487.0,513.0,508.0
500.0,498.0,507.0,518.0
496.0,491.0,502.0,520.0
497.0,497.0,502.0,523.0
501.0,509.0,500.0,525.0
504.0,500.0,506.0,525.0
509.0,501.0,507.0,520.0
505.0,495.0,505.0,512.0
504.0,492.0,503.0,503.0
509.0,510.0,502.0,501.0
516.0,529.0,507.0,497.0
519.0,523.0,515.0,499.0
524.0,521.0,521.0,497.0
527.0,503.0,523.0,501.0
527.0,497.0,527.0,503.0
521.0,504.0,521.0,501.0
519.0,510.0,515.0,508.0
507.0,498.0,508.0,510.0
500.0,499.0,503.0,515.0
498.0,504.0,500.0,517.0
500.0,511.0,499.0,520.0
496.0,516.0,501.0,518.0
509.0,518.0,502.0,520.0
509.0,518.0,504.0,518.0
508.0,524.0,503.0,512.0
509.0,512.0,504.0,508.0
514.0,504.0,509.0,505.0
517.0,503.0,512.0,506.0
520.0,507.0,519.0,502.0
519.0,526.0,528.0,504.0
523.0,523.0,528.0,508.0
523.0,520.0,528.0,507.0
520.0,510.0,525.0,508.0
515.0,491.0,516.0,510.0
509.0,478.0,507.0,516.0
507.0,491.0,504.0,515.0
511.0,515.0,497.0,517.0
510.0,519.0,497.0,518.0
506.0,517.0,497.0,515.0
499.0,517.0,497.0,514.0
490.0,491.0,499.0,513.0
494.0,481.0,499.0,507.0
503.0,495.0,505.0,506.0
515.0,510.0,513.0,509.0
521.0,520.0,520.0,506.0
525.0,526.0,527.0,510.0
524.0,524.0,533.0,510.0
523.0,515.0,530.0,507.0
519.0,492.0,533.0,509.0
509.0,481.0,521.0,508.0
500.0,483.0,512.0,511.0
498.0,488.0,506.0,513.0
498.0,494.0,496.0,514.0
500.0,499.0,497.0,515.0
503.0,506.0,494.0,519.0
508.0,518.0,493.0,516.0
510.0,515.0,500.0,514.0
507.0,516.0,498.0,514.0
508.0,512.0,503.0,509.0
510.0,507.0,509.0,509.0
515.0,505.0,516.0,506.0
520.0,508.0,523.0,509.0
524.0,508.0,529.0,509.0
529.0,505.0,531.0,511.0
524.0,505.0,528.0,511.0
521.0,500.0,530.0,512.0
511.0,494.0,520.0,513.0
502.0,488.0,515.0,514.0
501.0,488.0,508.0,519.0
501.0,494.0,503.0,517.0
504.0,499.0,500.0,518.0
506.0,500.0,494.0,520.0
512.0,502.0,498.0,519.0
513.0,505.0,499.0,514.0
512.0,512.0,497.0,511.0
514.0,518.0,506.0,509.0
515.0,510.0,509.0,505.0
513.0,511.0,515.0,512.0
519.0,518.0,526.0,506.0
525.0,514.0,529.0,513.0
525.0,516.0,532.0,510.0
520.0,509.0,527.0,511.0
513.0,498.0,528.0,510.0
505.0,487.0,520.0,509.0
502.0,490.0,509.0,514.0
503.0,495.0,499.0,516.0
501.0,495.0,498.0,516.0
503.0,508.0,498.0,519.0
500.0,502.0,497.0,516.0
504.0,505.0,496.0,517.0
503.0,517.0,500.0,515.0
506.0,517.0,501.0,513.0
510.0,515.0,506.0,515.0
517.0,512.0,516.0,509.0
518.0,506.0,521.0,509.0
521.0,498.0,526.0,508.0
523.0,502.0,532.0,506.0
521.0,507.0,531.0,510.0
517.0,514.0,528.0,512.0
509.0,506.0,530.0,515.0
503.0,498.0,524.0,520.0
500.0,477.0,519.0,513.0
490.0,463.0,496.0,514.0
499.0,492.0,489.0,519.0
498.0,504.0,500.0,525.0
504.0,520.0,495.0,518.0
509.0,517.0,491.0,514.0
509.0,502.0,497.0,510.0
516.0,510.0,496.0,505.0
520.0,507.0,503.0,505.0
526.0,502.0,510.0,503.0
535.0,543.0,520.0,504.0
526.0,523.0,525.0,506.0
520.0,513.0,529.0,507.0
522.0,518.0,527.0,510.0
519.0,509.0,523.0,506.0
512.0,502.0,516.0,511.0
501.0,489.0,510.0,516.0
497.0,508.0,507.0,517.0
499.0,505.0,502.0,521.0
497.0,492.0,500.0,521.0
498.0,518.0,500.0,523.0
505.0,525.0,498.0,516.0
515.0,525.0,500.0,518.0
509.0,519.0,498.0,513.0
516.0,505.0,498.0,507.0
525.0,495.0,509.0,509.0
529.0,462.0,517.0,505.0
529.0,433.0,526.0,507.0
527.0,442.0,529.0,508.0
510.0,480.0,532.0,515.0
509.0,499.0,528.0,513.0
508.0,499.0,527.0,516.0
501.0,535.0,518.0,517.0
496.0,557.0,510.0,516.0
499.0,526.0,501.0,514.0
500.0,504.0,498.0,517.0
502.0,509.0,494.0,515.0
504.0,500.0,493.0,516.0
516.0,530.0,495.0,515.0
505.0,539.0,497.0,511.0
501.0,536.0,499.0,511.0
505.0,531.0,507.0,516.0
516.0,520.0,515.0,516.0
523.0,500.0,524.0,509.0
524.0,478.0,528.0,510.0
525.0,485.0,531.0,508.0
527.0,494.0,527.0,506.0
523.0,520.0,520.0,500.0
513.0,527.0,514.0,499.0
498.0,530.0,507.0,507.0
494.0,501.0,512.0,516.0
497.0,497.0,512.0,516.0
505.0,500.0,488.0,513.0
506.0,501.0,488.0,517.0
507.0,508.0,492.0,513.0
507.0,518.0,495.0,515.0
503.0,523.0,498.0,512.0
506.0,519.0,499.0,509.0
508.0,504.0,504.0,506.0
514.0,502.0,514.0,509.0
521.0,502.0,521.0,506.0
521.0,491.0,524.0,505.0
522.0,489.0,523.0,505.0
525.0,527.0,523.0,509.0
523.0,515.0,521.0,512.0
512.0,494.0,517.0,511.0
506.0,495.0,512.0,513.0
503.0,499.0,508.0,522.0
497.0,510.0,506.0,519.0
499.0,511.0,507.0,525.0
499.0,505.0,509.0,526.0
502.0,508.0,499.0,516.0
499.0,504.0,495.0,510.0
503.0,504.0,488.0,503.0
509.0,503.0,489.0,498.0
514.0,505.0,502.0,500.0
517.0,502.0,510.0,501.0
519.0,494.0,528.0,505.0
527.0,479.0,523.0,500.0
528.0,495.0,523.0,506.0
518.0,489.0,524.0,505.0
517.0,508.0,518.0,507.0
507.0,506.0,513.0,510.0
485.0,497.0,507.0,514.0
491.0,511.0,498.0,516.0
499.0,500.0,494.0,516.0
505.0,501.0,496.0,518.0
506.0,504.0,488.0,516.0
508.0,525.0,494.0,519.0
509.0,522.0,497.0,516.0
513.0,516.0,500.0,517.0
512.0,530.0,509.0,515.0
515.0,518.0,516.0,523.0
520.0,506.0,527.0,522.0
530.0,490.0,533.0,521.0
532.0,478.0,538.0,519.0
525.0,502.0,531.0,515.0
519.0,521.0,523.0,510.0
505.0,515.0,519.0,506.0
494.0,496.0,512.0,512.0
494.0,497.0,506.0,515.0
495.0,501.0,504.0,515.0
502.0,503.0,498.0,516.0
500.0,504.0,496.0,515.0
506.0,516.0,496.0,512.0
510.0,528.0,492.0,506.0
508.0,525.0,484.0,505.0
507.0,507.0,490.0,502.0
511.0,478.0,508.0,506.0
508.0,442.0,509.0,505.0
520.0,492.0,509.0,499.0
530.0,534.0,514.0,498.0
527.0,545.0,521.0,501.0
524.0,524.0,519.0,504.0
519.0,510.0,521.0,505.0
514.0,512.0,516.0,507.0
503.0,517.0,511.0,516.0
507.0,533.0,505.0,518.0
512.0,541.0,495.0,527.0
513.0,561.0,499.0,523.0
518.0,568.0,499.0,522.0
513.0,554.0,503.0,523.0
498.0,454.0,507.0,526.0
500.0,456.0,512.0,526.0
501.0,454.0,515.0,521.0
510.0,482.0,518.0,518.0
520.0,480.0,520.0,514.0
521.0,474.0,520.0,508.0
519.0,475.0,527.0,505.0
524.0,494.0,528.0,512.0
517.0,523.0,526.0,510.0
506.0,499.0,515.0,507.0
499.0,488.0,503.0,505.0
491.0,504.0,503.0,502.0
492.0,508.0,488.0,504.0
496.0,503.0,484.0,507.0
502.0,501.0,488.0,507.0
504.0,503.0,488.0,508.0
516.0,514.0,487.0,504.0
506.0,523.0,486.0,505.0
504.0,527.0,488.0,505.0
505.0,525.0,496.0,499.0
512.0,512.0,502.0,503.0
522.0,512.0,509.0,507.0
528.0,513.0,530.0,509.0
525.0,520.0,534.0,508.0
527.0,523.0,517.0,504.0
527.0,520.0,519.0,510.0
521.0,514.0,517.0,507.0
503.0,492.0,506.0,512.0
492.0,498.0,504.0,513.0
479.0,488.0,498.0,514.0
489.0,484.0,494.0,519.0
497.0,467.0,493.0,522.0
499.0,461.0,498.0,523.0
503.0,467.0,503.0,523.0
510.0,513.0,501.0,521.0
513.0,520.0,502.0,514.0
513.0,526.0,507.0,513.0
523.0,518.0,513.0,510.0
526.0,518.0,518.0,507.0
527.0,515.0,527.0,507.0
525.0,514.0,528.0,509.0
523.0,520.0,530.0,510.0
515.0,509.0,537.0,512.0
506.0,490.0,514.0,510.0
500.0,486.0,500.0,507.0
497.0,490.0,488.0,509.0
496.0,489.0,488.0,509.0
506.0,499.0,485.0,510.0
508.0,501.0,487.0,514.0
511.0,504.0,493.0,514.0
510.0,528.0,496.0,510.0
509.0,521.0,500.0,510.0
511.0,510.0,489.0,508.0
511.0,515.0,498.0,508.0
514.0,509.0,511.0,507.0
520.0,515.0,521.0,511.0
529.0,522.0,541.0,516.0
530.0,515.0,536.0,517.0
529.0,494.0,522.0,513.0
521.0,463.0,521.0,519.0
505.0,457.0,516.0,519.0
508.0,485.0,506.0,520.0
494.0,469.0,499.0,520.0
497.0,515.0,499.0,521.0
502.0,516.0,500.0,520.0
497.0,489.0,502.0,525.0
500.0,487.0,503.0,528.0
503.0,514.0,507.0,526.0
500.0,507.0,505.0,523.0
504.0,531.0,507.0,513.0
516.0,564.0,511.0,509.0
521.0,536.0,512.0,502.0
524.0,528.0,519.0,506.0
523.0,541.0,521.0,511.0
521.0,534.0,521.0,507.0
513.0,534.0,524.0,513.0
503.0,521.0,556.0,520.0
497.0,498.0,527.0,521.0
492.0,443.0,497.0,513.0
502.0,479.0,487.0,508.0
512.0,500.0,484.0,510.0
513.0,482.0,474.0,509.0
519.0,467.0,474.0,515.0
510.0,463.0,504.0,512.0
512.0,491.0,503.0,510.0
501.0,515.0,480.0,506.0
510.0,527.0,500.0,508.0
520.0,524.0,511.0,506.0
517.0,530.0,511.0,505.0
518.0,514.0,518.0,500.0
519.0,530.0,532.0,507.0
518.0,503.0,539.0,516.0
524.0,521.0,526.0,516.0
519.0,518.0,497.0,500.0
503.0,490.0,492.0,507.0
491.0,490.0,491.0,509.0
495.0,499.0,491.0,511.0
501.0,523.0,496.0,514.0
501.0,530.0,484.0,514.0
508.0,533.0,494.0,524.0
506.0,519.0,497.0,521.0
507.0,511.0,488.0,517.0
513.0,455.0,495.0,518.0
515.0,452.0,506.0,520.0
526.0,448.0,518.0,523.0
538.0,486.0,526.0,514.0
534.0,484.0,530.0,515.0
519.0,485.0,531.0,516.0
508.0,526.0,519.0,505.0
499.0,539.0,516.0,501.0
497.0,503.0,504.0,503.0
505.0,500.0,491.0,512.0
504.0,545.0,489.0,518.0
500.0,506.0,493.0,520.0
500.0,480.0,491.0,515.0
499.0,481.0,489.0,507.0
507.0,451.0,482.0,502.0
512.0,509.0,481.0,498.0
514.0,575.0,483.0,498.0
512.0,534.0,484.0,498.0
523.0,524.0,486.0,498.0
518.0,545.0,491.0,495.0
521.0,559.0,500.0,494.0
524.0,517.0,507.0,498.0
525.0,529.0,520.0,507.0
529.0,493.0,530.0,513.0
523.0,478.0,534.0,518.0
514.0,486.0,526.0,521.0
509.0,498.0,511.0,521.0
501.0,506.0,494.0,516.0
492.0,490.0,479.0,517.0
499.0,481.0,477.0,514.0
502.0,476.0,478.0,506.0
498.0,460.0,491.0,513.0
504.0,489.0,504.0,513.0
528.0,531.0,510.0,508.0
537.0,575.0,507.0,503.0
553.0,615.0,497.0,494.0
541.0,593.0,500.0,494.0
506.0,520.0,502.0,493.0
500.0,478.0,507.0,497.0
474.0,421.0,509.0,498.0
489.0,495.0,512.0,500.0
509.0,531.0,503.0,503.0
497.0,501.0,513.0,505.0
488.0,475.0,504.0,510.0
500.0,492.0,485.0,505.0
518.0,502.0,489.0,510.0
536.0,520.0,482.0,510.0
539.0,524.0,479.0,512.0
540.0,507.0,485.0,508.0
530.0,499.0,498.0,513.0
502.0,446.0,515.0,520.0
490.0,426.0,520.0,519.0
507.0,413.0,514.0,513.0
532.0,446.0,516.0,508.0
535.0,441.0,514.0,501.0
539.0,571.0,517.0,504.0
521.0,562.0,525.0,510.0
500.0,503.0,520.0,507.0
497.0,555.0,509.0,508.0
472.0,430.0,501.0,508.0
488.0,492.0,493.0,515.0
513.0,523.0,496.0,517.0
526.0,526.0,495.0,523.0
522.0,581.0,496.0,527.0
510.0,582.0,502.0,531.0
498.0,491.0,491.0,525.0
498.0,502.0,486.0,516.0
491.0,535.0,495.0,506.0
485.0,510.0,501.0,501.0
492.0,476.0,508.0,503.0
543.0,511.0,521.0,505.0
561.0,534.0,529.0,505.0
558.0,474.0,527.0,509.0
522.0,422.0,537.0,523.0
502.0,389.0,529.0,517.0
475.0,458.0,498.0,501.0
493.0,532.0,510.0,504.0
514.0,584.0,476.0,515.0
514.0,609.0,481.0,527.0
506.0,623.0,487.0,525.0
486.0,564.0,485.0,520.0
483.0,542.0,492.0,513.0
509.0,529.0,509.0,507.0
500.0,462.0,506.0,502.0
528.0,431.0,495.0,489.0
536.0,430.0,484.0,486.0
542.0,401.0,503.0,488.0
555.0,418.0,501.0,483.0
546.0,504.0,494.0,485.0
564.0,549.0,495.0,486.0
505.0,466.0,502.0,493.0
488.0,485.0,510.0,504.0
478.0,523.0,510.0,516.0
481.0,576.0,502.0,524.0
462.0,632.0,491.0,522.0
458.0,617.0,492.0,525.0
492.0,579.0,486.0,523.0
516.0,501.0,486.0,516.0
524.0,529.0,488.0,509.0
528.0,566.0,503.0,509.0
501.0,498.0,507.0,510.0
486.0,505.0,485.0,502.0
500.0,375.0,487.0,509.0
508.0,388.0,516.0,520.0
524.0,484.0,539.0,532.0
555.0,544.0,563.0,537.0
544.0,546.0,529.0,524.0
550.0,568.0,487.0,509.0
534.0,526.0,479.0,498.0
502.0,467.0,484.0,502.0
481.0,448.0,491.0,508.0
503.0,556.0,478.0,515.0
521.0,560.0,474.0,505.0
492.0,519.0,475.0,506.0
475.0,487.0,487.0,506.0
450.0,463.0,497.0,501.0
458.0,619.0,488.0,501.0
482.0,531.0,489.0,501.0
521.0,450.0,491.0,493.0
541.0,482.0,502.0,493.0
557.0,540.0,510.0,503.0
539.0,494.0,519.0,503.0
525.0,585.0,525.0,502.0
483.0,469.0,518.0,507.0
475.0,569.0,516.0,514.0
457.0,506.0,523.0,526.0
466.0,483.0,518.0,533.0
483.0,471.0,510.0,532.0
499.0,525.0,502.0,521.0
506.0,536.0,483.0,508.0
501.0,485.0,473.0,505.0
499.0,466.0,494.0,506.0
511.0,499.0,481.0,503.0
519.0,526.0,485.0,502.0
565.0,529.0,497.0,497.0
550.0,505.0,491.0,492.0
563.0,559.0,499.0,493.0
536.0,456.0,513.0,503.0
511.0,268.0,522.0,505.0
506.0,549.0,525.0,505.0
491.0,770.0,527.0,511.0
499.0,634.0,516.0,509.0
461.0,403.0,498.0,508.0
464.0,419.0,499.0,511.0
500.0,375.0,488.0,513.0
518.0,370.0,492.0,511.0
522.0,406.0,501.0,516.0
