CH1,CH2,CH3,CH4,CH5
502.0,504.0,498.0,502.0,524.0
504.0,502.0,500.0,503.0,522.0
512.0,504.0,514.0,514.0,517.0
511.0,504.0,517.0,518.0,517.0
513.0,505.0,523.0,523.0,511.0
518.0,506.0,526.0,524.0,514.0
516.0,504.0,525.0,521.0,520.0
511.0,502.0,520.0,519.0,523.0
511.0,504.0,523.0,524.0,519.0
513.0,506.0,521.0,518.0,524.0
523.0,512.0,519.0,518.0,512.0
525.0,516.0,520.0,518.0,509.0
520.0,518.0,515.0,515.0,508.0
518.0,516.0,510.0,511.0,495.0
512.0,510.0,505.0,513.0,504.0
511.0,508.0,499.0,505.0,508.0
500.0,501.0,494.0,502.0,517.0
499.0,500.0,497.0,503.0,519.0
502.0,501.0,505.0,508.0,519.0
509.0,503.0,512.0,515.0,516.0
518.0,503.0,515.0,522.0,512.0
516.0,505.0,526.0,527.0,510.0
516.0,505.0,527.0,527.0,510.0
512.0,502.0,522.0,521.0,514.0
510.0,502.0,523.0,520.0,515.0
515.0,505.0,522.0,520.0,515.0
516.0,509.0,520.0,516.0,509.0
522.0,513.0,522.0,520.0,507.0
532.0,517.0,522.0,521.0,503.0
526.0,522.0,519.0,518.0,507.0
512.0,512.0,508.0,509.0,512.0
509.0,507.0,503.0,505.0,513.0
506.0,507.0,500.0,504.0,520.0
500.0,500.0,495.0,500.0,520.0
500.0,496.0,499.0,503.0,521.0
506.0,500.0,506.0,508.0,520.0
508.0,502.0,515.0,516.0,517.0
511.0,503.0,520.0,520.0,513.0
514.0,507.0,528.0,521.0,514.0
513.0,504.0,524.0,521.0,513.0
512.0,505.0,522.0,513.0,516.0
513.0,504.0,523.0,518.0,515.0
520.0,507.0,521.0,517.0,517.0
519.0,508.0,522.0,520.0,512.0
524.0,514.0,524.0,518.0,508.0
524.0,517.0,519.0,519.0,505.0
526.0,517.0,515.0,515.0,504.0
513.0,513.0,507.0,508.0,510.0
507.0,506.0,497.0,502.0,514.0
498.0,501.0,492.0,498.0,520.0
496.0,501.0,494.0,497.0,523.0
500.0,499.0,501.0,504.0,520.0
507.0,500.0,508.0,512.0,517.0
507.0,502.0,515.0,517.0,513.0
511.0,502.0,520.0,521.0,521.0
512.0,502.0,524.0,521.0,517.0
515.0,504.0,522.0,520.0,513.0
514.0,501.0,519.0,517.0,515.0
515.0,503.0,519.0,515.0,516.0
513.0,501.0,518.0,513.0,519.0
519.0,513.0,522.0,518.0,514.0
520.0,515.0,520.0,520.0,514.0
522.0,517.0,518.0,521.0,509.0
522.0,517.0,512.0,515.0,504.0
516.0,511.0,504.0,508.0,502.0
507.0,508.0,500.0,506.0,510.0
509.0,505.0,496.0,502.0,515.0
505.0,501.0,498.0,501.0,514.0
503.0,499.0,502.0,507.0,518.0
505.0,503.0,511.0,514.0,518.0
517.0,504.0,518.0,519.0,519.0
516.0,506.0,529.0,524.0,517.0
517.0,504.0,524.0,522.0,516.0
517.0,503.0,522.0,517.0,516.0
512.0,503.0,520.0,511.0,514.0
514.0,506.0,521.0,518.0,514.0
518.0,508.0,521.0,518.0,511.0
520.0,517.0,521.0,518.0,506.0
523.0,517.0,520.0,521.0,505.0
526.0,522.0,515.0,514.0,505.0
520.0,517.0,510.0,511.0,507.0
514.0,512.0,504.0,505.0,511.0
508.0,507.0,497.0,503.0,515.0
500.0,505.0,496.0,501.0,519.0
500.0,504.0,499.0,503.0,521.0
505.0,503.0,511.0,512.0,519.0
513.0,505.0,517.0,522.0,516.0
512.0,504.0,521.0,522.0,515.0
516.0,505.0,525.0,524.0,511.0
516.0,506.0,525.0,521.0,512.0
511.0,501.0,526.0,516.0,517.0
512.0,507.0,523.0,516.0,517.0
518.0,507.0,522.0,515.0,514.0
518.0,513.0,519.0,516.0,512.0
525.0,515.0,523.0,522.0,508.0
523.0,520.0,517.0,517.0,505.0
522.0,517.0,513.0,515.0,506.0
517.0,517.0,507.0,510.0,513.0
512.0,509.0,500.0,505.0,511.0
504.0,508.0,495.0,502.0,515.0
499.0,501.0,496.0,504.0,518.0
505.0,502.0,501.0,508.0,520.0
505.0,504.0,507.0,511.0,521.0
508.0,502.0,513.0,517.0,515.0
511.0,505.0,521.0,519.0,519.0
512.0,506.0,526.0,524.0,524.0
510.0,503.0,523.0,520.0,527.0
508.0,501.0,519.0,518.0,528.0
511.0,504.0,520.0,514.0,522.0
511.0,506.0,517.0,514.0,505.0
519.0,509.0,518.0,515.0,503.0
523.0,514.0,518.0,521.0,503.0
525.0,517.0,516.0,519.0,507.0
522.0,517.0,511.0,512.0,513.0
516.0,514.0,508.0,507.0,510.0
507.0,507.0,502.0,503.0,510.0
502.0,504.0,493.0,499.0,516.0
500.0,498.0,494.0,496.0,520.0
505.0,500.0,503.0,506.0,524.0
505.0,502.0,516.0,515.0,522.0
507.0,505.0,521.0,519.0,519.0
510.0,505.0,526.0,522.0,518.0
511.0,504.0,524.0,519.0,516.0
511.0,502.0,522.0,519.0,514.0
512.0,504.0,522.0,519.0,515.0
514.0,506.0,522.0,517.0,518.0
516.0,511.0,525.0,520.0,511.0
518.0,515.0,524.0,521.0,511.0
526.0,519.0,522.0,522.0,506.0
517.0,518.0,517.0,516.0,506.0
520.0,516.0,509.0,513.0,508.0
514.0,512.0,504.0,509.0,512.0
509.0,508.0,498.0,503.0,515.0
501.0,502.0,496.0,499.0,524.0
501.0,496.0,501.0,504.0,523.0
505.0,503.0,509.0,512.0,518.0
514.0,505.0,520.0,517.0,516.0
516.0,504.0,521.0,521.0,514.0
515.0,505.0,525.0,522.0,516.0
514.0,504.0,524.0,521.0,514.0
513.0,508.0,522.0,518.0,518.0
514.0,505.0,522.0,514.0,512.0
519.0,509.0,525.0,518.0,512.0
520.0,511.0,524.0,518.0,510.0
524.0,519.0,521.0,522.0,508.0
524.0,520.0,524.0,521.0,509.0
521.0,521.0,515.0,516.0,510.0
517.0,512.0,505.0,508.0,509.0
513.0,509.0,500.0,504.0,513.0
509.0,507.0,499.0,502.0,515.0
498.0,501.0,497.0,501.0,518.0
502.0,500.0,502.0,504.0,519.0
506.0,502.0,509.0,512.0,520.0
509.0,503.0,518.0,518.0,516.0
514.0,505.0,523.0,519.0,513.0
515.0,505.0,525.0,525.0,516.0
513.0,501.0,522.0,521.0,516.0
512.0,503.0,523.0,517.0,517.0
514.0,505.0,521.0,517.0,512.0
519.0,508.0,521.0,520.0,512.0
520.0,510.0,521.0,519.0,510.0
525.0,515.0,519.0,517.0,507.0
526.0,519.0,519.0,518.0,506.0
522.0,516.0,513.0,514.0,508.0
515.0,511.0,503.0,512.0,509.0
508.0,508.0,499.0,508.0,515.0
504.0,501.0,494.0,501.0,518.0
503.0,500.0,495.0,500.0,523.0
502.0,501.0,504.0,508.0,526.0
508.0,503.0,512.0,517.0,526.0
512.0,506.0,519.0,523.0,523.0
512.0,510.0,525.0,524.0,520.0
513.0,504.0,526.0,524.0,519.0
510.0,505.0,517.0,515.0,514.0
513.0,501.0,519.0,517.0,511.0
515.0,503.0,519.0,515.0,513.0
516.0,509.0,520.0,516.0,513.0
522.0,511.0,518.0,515.0,510.0
522.0,514.0,517.0,517.0,508.0
521.0,513.0,509.0,512.0,506.0
520.0,513.0,507.0,513.0,507.0
515.0,509.0,501.0,504.0,509.0
504.0,503.0,493.0,503.0,513.0
499.0,503.0,492.0,498.0,519.0
499.0,501.0,496.0,501.0,522.0
502.0,500.0,506.0,508.0,522.0
507.0,504.0,514.0,514.0,518.0
509.0,501.0,513.0,518.0,517.0
514.0,504.0,524.0,522.0,513.0
517.0,504.0,529.0,522.0,519.0
519.0,505.0,524.0,518.0,519.0
520.0,506.0,524.0,523.0,517.0
518.0,510.0,525.0,520.0,516.0
521.0,512.0,523.0,517.0,511.0
527.0,517.0,524.0,522.0,508.0
523.0,519.0,525.0,521.0,506.0
522.0,520.0,520.0,517.0,508.0
516.0,512.0,508.0,509.0,508.0
507.0,507.0,500.0,505.0,518.0
507.0,505.0,497.0,502.0,518.0
501.0,501.0,497.0,503.0,518.0
501.0,495.0,501.0,507.0,519.0
511.0,502.0,510.0,512.0,526.0
513.0,504.0,517.0,518.0,525.0
518.0,504.0,523.0,525.0,518.0
516.0,504.0,522.0,523.0,517.0
518.0,503.0,520.0,520.0,515.0
516.0,504.0,526.0,516.0,517.0
515.0,506.0,523.0,518.0,516.0
516.0,507.0,521.0,515.0,511.0
520.0,511.0,520.0,512.0,513.0
521.0,515.0,520.0,518.0,513.0
525.0,519.0,518.0,518.0,506.0
522.0,515.0,513.0,512.0,506.0
517.0,512.0,504.0,510.0,509.0
511.0,506.0,500.0,503.0,509.0
504.0,501.0,494.0,501.0,515.0
506.0,499.0,494.0,500.0,514.0
503.0,498.0,503.0,508.0,519.0
506.0,502.0,513.0,516.0,520.0
510.0,504.0,521.0,522.0,520.0
513.0,503.0,524.0,522.0,520.0
516.0,505.0,521.0,522.0,518.0
511.0,504.0,523.0,517.0,517.0
513.0,508.0,523.0,518.0,516.0
517.0,506.0,520.0,517.0,513.0
521.0,508.0,520.0,520.0,509.0
524.0,513.0,520.0,520.0,508.0
530.0,519.0,520.0,523.0,502.0
526.0,520.0,517.0,519.0,503.0
521.0,519.0,510.0,513.0,509.0
511.0,510.0,501.0,506.0,517.0
506.0,505.0,498.0,503.0,517.0
502.0,499.0,493.0,500.0,522.0
499.0,499.0,498.0,502.0,523.0
504.0,500.0,507.0,510.0,523.0
511.0,504.0,518.0,517.0,521.0
512.0,503.0,520.0,521.0,519.0
515.0,503.0,522.0,520.0,519.0
519.0,506.0,525.0,523.0,517.0
520.0,503.0,520.0,516.0,517.0
518.0,503.0,522.0,520.0,516.0
515.0,506.0,520.0,516.0,522.0
517.0,513.0,519.0,516.0,516.0
522.0,516.0,518.0,518.0,510.0
519.0,516.0,517.0,518.0,514.0
521.0,516.0,511.0,513.0,509.0
515.0,510.0,502.0,509.0,508.0
508.0,506.0,499.0,507.0,512.0
504.0,503.0,496.0,500.0,517.0
497.0,499.0,492.0,498.0,523.0
497.0,496.0,498.0,501.0,522.0
504.0,497.0,512.0,512.0,523.0
509.0,500.0,523.0,520.0,524.0
512.0,503.0,523.0,523.0,519.0
517.0,504.0,527.0,524.0,515.0
517.0,506.0,523.0,521.0,507.0
517.0,501.0,521.0,516.0,507.0
520.0,504.0,522.0,518.0,509.0
521.0,507.0,520.0,518.0,512.0
522.0,512.0,521.0,518.0,515.0
528.0,515.0,520.0,520.0,511.0
522.0,518.0,518.0,520.0,508.0
518.0,517.0,513.0,516.0,509.0
511.0,510.0,504.0,513.0,505.0
508.0,507.0,500.0,507.0,509.0
501.0,504.0,494.0,498.0,520.0
498.0,498.0,496.0,504.0,524.0
505.0,499.0,504.0,511.0,519.0
513.0,502.0,513.0,520.0,518.0
516.0,505.0,521.0,526.0,516.0
520.0,506.0,521.0,526.0,512.0
518.0,506.0,527.0,528.0,508.0
513.0,503.0,523.0,521.0,519.0
514.0,504.0,523.0,520.0,516.0
516.0,507.0,520.0,519.0,514.0
516.0,506.0,521.0,516.0,511.0
522.0,512.0,521.0,521.0,506.0
527.0,515.0,519.0,516.0,502.0
527.0,517.0,519.0,520.0,501.0
517.0,517.0,508.0,513.0,502.0
510.0,509.0,501.0,507.0,511.0
509.0,505.0,497.0,501.0,514.0
502.0,501.0,494.0,500.0,518.0
502.0,501.0,499.0,504.0,517.0
503.0,501.0,505.0,511.0,517.0
512.0,502.0,516.0,520.0,521.0
513.0,504.0,520.0,521.0,521.0
520.0,505.0,526.0,524.0,513.0
518.0,503.0,524.0,522.0,512.0
514.0,503.0,521.0,519.0,515.0
513.0,505.0,521.0,518.0,519.0
515.0,506.0,521.0,520.0,515.0
519.0,510.0,520.0,519.0,513.0
522.0,515.0,520.0,524.0,510.0
523.0,519.0,514.0,520.0,509.0
519.0,516.0,512.0,515.0,510.0
516.0,513.0,506.0,509.0,516.0
509.0,508.0,501.0,503.0,521.0
504.0,508.0,495.0,500.0,526.0
500.0,500.0,497.0,502.0,513.0
500.0,494.0,496.0,502.0,505.0
506.0,500.0,509.0,515.0,511.0
511.0,502.0,518.0,516.0,517.0
514.0,504.0,522.0,520.0,521.0
514.0,508.0,526.0,522.0,519.0
513.0,503.0,527.0,521.0,519.0
514.0,503.0,521.0,516.0,515.0
517.0,502.0,523.0,515.0,521.0
518.0,509.0,518.0,514.0,517.0
518.0,508.0,518.0,517.0,518.0
523.0,515.0,526.0,521.0,509.0
523.0,520.0,520.0,521.0,505.0
523.0,516.0,511.0,513.0,509.0
514.0,509.0,501.0,505.0,512.0
503.0,505.0,497.0,506.0,517.0
502.0,500.0,495.0,499.0,519.0
500.0,499.0,497.0,503.0,521.0
500.0,501.0,507.0,506.0,521.0
506.0,501.0,512.0,515.0,514.0
517.0,502.0,521.0,520.0,516.0
517.0,506.0,526.0,526.0,515.0
518.0,506.0,531.0,526.0,516.0
517.0,502.0,523.0,520.0,517.0
514.0,503.0,519.0,518.0,516.0
511.0,505.0,520.0,514.0,520.0
515.0,508.0,519.0,517.0,518.0
520.0,512.0,522.0,519.0,513.0
525.0,519.0,523.0,521.0,509.0
524.0,517.0,515.0,518.0,509.0
517.0,511.0,509.0,512.0,511.0
509.0,511.0,503.0,507.0,516.0
505.0,506.0,498.0,503.0,517.0
504.0,501.0,496.0,500.0,522.0
497.0,500.0,501.0,503.0,523.0
505.0,501.0,507.0,508.0,520.0
512.0,503.0,517.0,518.0,515.0
513.0,504.0,523.0,524.0,515.0
513.0,505.0,526.0,523.0,515.0
517.0,504.0,526.0,522.0,514.0
518.0,503.0,523.0,518.0,514.0
516.0,504.0,521.0,517.0,516.0
517.0,508.0,522.0,517.0,520.0
519.0,515.0,520.0,517.0,517.0
523.0,514.0,524.0,519.0,508.0
523.0,515.0,520.0,517.0,505.0
519.0,518.0,513.0,516.0,504.0
512.0,513.0,507.0,509.0,505.0
507.0,509.0,502.0,502.0,508.0
502.0,505.0,497.0,500.0,513.0
499.0,499.0,493.0,500.0,514.0
499.0,504.0,505.0,507.0,519.0
485.0,489.0,495.0,499.0,526.0
497.0,492.0,502.0,501.0,521.0
496.0,492.0,507.0,504.0,525.0
496.0,492.0,509.0,505.0,529.0
541.0,528.0,531.0,534.0,496.0
544.0,532.0,531.0,534.0,495.0
539.0,530.0,526.0,527.0,499.0
530.0,522.0,513.0,520.0,508.0
524.0,517.0,510.0,518.0,516.0
519.0,513.0,513.0,519.0,522.0
519.0,510.0,517.0,523.0,515.0
522.0,512.0,525.0,530.0,514.0
527.0,511.0,532.0,533.0,505.0
534.0,511.0,535.0,532.0,503.0
536.0,511.0,538.0,542.0,499.0
530.0,512.0,535.0,535.0,505.0
521.0,508.0,532.0,531.0,509.0
525.0,513.0,533.0,528.0,508.0
526.0,516.0,530.0,529.0,503.0
532.0,524.0,533.0,533.0,501.0
538.0,527.0,529.0,534.0,497.0
535.0,532.0,529.0,532.0,493.0
532.0,529.0,522.0,526.0,501.0
520.0,523.0,512.0,517.0,509.0
513.0,515.0,511.0,512.0,514.0
509.0,509.0,504.0,509.0,513.0
511.0,506.0,507.0,509.0,513.0
508.0,507.0,511.0,515.0,522.0
510.0,503.0,517.0,521.0,519.0
520.0,510.0,530.0,531.0,517.0
519.0,511.0,533.0,535.0,517.0
523.0,511.0,534.0,532.0,515.0
521.0,507.0,530.0,527.0,514.0
523.0,508.0,530.0,526.0,516.0
523.0,509.0,528.0,524.0,512.0
526.0,512.0,530.0,526.0,507.0
529.0,521.0,531.0,528.0,504.0
534.0,525.0,528.0,533.0,505.0
535.0,524.0,521.0,524.0,501.0
532.0,523.0,514.0,519.0,501.0
525.0,518.0,511.0,511.0,513.0
516.0,513.0,505.0,514.0,515.0
508.0,505.0,500.0,511.0,521.0
507.0,502.0,504.0,514.0,520.0
516.0,502.0,510.0,516.0,516.0
515.0,506.0,521.0,524.0,517.0
515.0,506.0,527.0,527.0,515.0
516.0,506.0,530.0,529.0,512.0
512.0,504.0,529.0,527.0,512.0
512.0,503.0,526.0,524.0,510.0
513.0,507.0,527.0,523.0,513.0
516.0,509.0,524.0,523.0,509.0
525.0,516.0,523.0,516.0,510.0
530.0,518.0,524.0,525.0,504.0
531.0,526.0,522.0,523.0,502.0
527.0,523.0,519.0,521.0,507.0
523.0,517.0,510.0,513.0,508.0
511.0,512.0,503.0,507.0,513.0
505.0,506.0,499.0,505.0,514.0
505.0,502.0,499.0,504.0,513.0
502.0,499.0,504.0,509.0,517.0
508.0,502.0,513.0,514.0,517.0
513.0,506.0,521.0,522.0,522.0
516.0,506.0,525.0,525.0,517.0
522.0,506.0,528.0,526.0,514.0
518.0,504.0,530.0,524.0,514.0
515.0,504.0,524.0,517.0,511.0
514.0,508.0,526.0,526.0,514.0
522.0,513.0,524.0,522.0,514.0
525.0,516.0,523.0,524.0,505.0
525.0,525.0,525.0,524.0,506.0
530.0,524.0,517.0,519.0,505.0
523.0,521.0,515.0,516.0,505.0
513.0,516.0,505.0,504.0,514.0
507.0,510.0,501.0,509.0,515.0
505.0,503.0,497.0,503.0,515.0
503.0,500.0,499.0,505.0,516.0
504.0,496.0,505.0,509.0,522.0
510.0,502.0,511.0,516.0,517.0
513.0,507.0,519.0,521.0,507.0
513.0,501.0,524.0,524.0,511.0
515.0,503.0,523.0,520.0,513.0
514.0,500.0,519.0,521.0,515.0
520.0,498.0,519.0,515.0,514.0
521.0,505.0,525.0,519.0,515.0
519.0,508.0,520.0,518.0,511.0
522.0,516.0,519.0,519.0,505.0
524.0,519.0,518.0,518.0,498.0
522.0,521.0,521.0,518.0,501.0
515.0,515.0,507.0,513.0,497.0
510.0,512.0,502.0,512.0,504.0
507.0,511.0,499.0,504.0,510.0
500.0,501.0,494.0,499.0,518.0
497.0,501.0,498.0,500.0,527.0
502.0,500.0,510.0,510.0,531.0
511.0,500.0,516.0,518.0,523.0
515.0,507.0,525.0,524.0,523.0
521.0,505.0,528.0,529.0,514.0
519.0,503.0,527.0,524.0,509.0
514.0,502.0,522.0,520.0,516.0
513.0,503.0,521.0,518.0,513.0
517.0,510.0,525.0,520.0,514.0
517.0,512.0,521.0,519.0,511.0
525.0,516.0,524.0,522.0,508.0
526.0,522.0,519.0,522.0,500.0
526.0,520.0,519.0,516.0,504.0
517.0,520.0,507.0,514.0,506.0
508.0,510.0,500.0,505.0,510.0
504.0,505.0,496.0,500.0,514.0
500.0,501.0,495.0,506.0,514.0
503.0,501.0,507.0,506.0,513.0
509.0,500.0,511.0,511.0,518.0
513.0,503.0,521.0,521.0,518.0
516.0,504.0,523.0,524.0,519.0
518.0,504.0,526.0,526.0,515.0
516.0,506.0,525.0,522.0,518.0
514.0,502.0,520.0,518.0,519.0
514.0,506.0,522.0,517.0,515.0
519.0,507.0,521.0,517.0,512.0
521.0,515.0,524.0,519.0,512.0
526.0,518.0,520.0,520.0,506.0
526.0,521.0,518.0,518.0,505.0
519.0,518.0,514.0,518.0,509.0
518.0,515.0,504.0,507.0,507.0
512.0,509.0,500.0,504.0,511.0
505.0,504.0,496.0,501.0,517.0
502.0,500.0,498.0,503.0,525.0
506.0,500.0,507.0,507.0,518.0
510.0,500.0,515.0,515.0,516.0
517.0,502.0,521.0,522.0,514.0
520.0,503.0,526.0,524.0,512.0
510.0,503.0,526.0,520.0,511.0
511.0,501.0,523.0,520.0,523.0
514.0,504.0,524.0,517.0,520.0
515.0,505.0,522.0,519.0,517.0
519.0,513.0,522.0,517.0,516.0
524.0,514.0,522.0,520.0,509.0
526.0,518.0,521.0,519.0,503.0
524.0,522.0,518.0,518.0,503.0
516.0,514.0,509.0,511.0,506.0
503.0,511.0,504.0,507.0,509.0
506.0,508.0,499.0,503.0,510.0
502.0,501.0,495.0,495.0,516.0
502.0,498.0,503.0,505.0,520.0
503.0,493.0,505.0,508.0,521.0
511.0,502.0,516.0,515.0,519.0
510.0,501.0,519.0,519.0,521.0
513.0,501.0,524.0,521.0,517.0
514.0,502.0,526.0,521.0,520.0
517.0,503.0,524.0,519.0,522.0
511.0,501.0,520.0,513.0,518.0
514.0,505.0,522.0,515.0,514.0
517.0,508.0,519.0,514.0,509.0
524.0,517.0,523.0,517.0,507.0
525.0,522.0,519.0,517.0,504.0
521.0,518.0,513.0,518.0,505.0
515.0,521.0,509.0,510.0,509.0
505.0,509.0,501.0,505.0,514.0
504.0,505.0,497.0,500.0,514.0
504.0,501.0,500.0,499.0,515.0
502.0,498.0,498.0,505.0,515.0
509.0,502.0,515.0,514.0,518.0
514.0,503.0,520.0,520.0,512.0
517.0,503.0,526.0,526.0,509.0
515.0,504.0,527.0,519.0,511.0
511.0,502.0,525.0,521.0,517.0
515.0,503.0,523.0,516.0,517.0
512.0,505.0,523.0,516.0,513.0
518.0,511.0,524.0,517.0,514.0
522.0,513.0,522.0,517.0,511.0
524.0,518.0,523.0,520.0,508.0
527.0,520.0,519.0,518.0,502.0
524.0,517.0,512.0,513.0,505.0
517.0,511.0,506.0,507.0,507.0
509.0,512.0,500.0,504.0,507.0
506.0,502.0,495.0,499.0,509.0
503.0,498.0,498.0,498.0,514.0
500.0,499.0,504.0,510.0,517.0
506.0,502.0,516.0,516.0,528.0
513.0,502.0,522.0,520.0,519.0
515.0,506.0,528.0,527.0,520.0
523.0,506.0,530.0,525.0,512.0
514.0,504.0,524.0,520.0,513.0
515.0,507.0,522.0,517.0,516.0
516.0,505.0,523.0,515.0,516.0
516.0,509.0,521.0,514.0,516.0
523.0,517.0,525.0,520.0,513.0
521.0,519.0,521.0,519.0,510.0
521.0,520.0,518.0,516.0,513.0
513.0,517.0,511.0,515.0,516.0
506.0,511.0,503.0,506.0,515.0
502.0,510.0,505.0,503.0,517.0
496.0,502.0,498.0,503.0,524.0
498.0,498.0,501.0,502.0,527.0
504.0,499.0,508.0,510.0,523.0
513.0,504.0,517.0,517.0,520.0
516.0,497.0,521.0,521.0,507.0
517.0,503.0,526.0,518.0,512.0
517.0,503.0,525.0,518.0,513.0
513.0,501.0,523.0,517.0,510.0
518.0,505.0,526.0,517.0,505.0
519.0,506.0,528.0,518.0,505.0
521.0,510.0,521.0,515.0,500.0
523.0,515.0,522.0,523.0,503.0
526.0,518.0,519.0,516.0,507.0
526.0,520.0,515.0,514.0,513.0
516.0,514.0,507.0,510.0,519.0
511.0,508.0,499.0,503.0,515.0
503.0,504.0,496.0,500.0,517.0
501.0,500.0,497.0,501.0,519.0
503.0,498.0,501.0,505.0,521.0
502.0,498.0,510.0,511.0,523.0
505.0,502.0,516.0,514.0,525.0
512.0,502.0,524.0,520.0,519.0
515.0,506.0,528.0,525.0,521.0
515.0,501.0,525.0,519.0,518.0
510.0,502.0,525.0,516.0,523.0
510.0,502.0,520.0,518.0,519.0
519.0,510.0,524.0,521.0,515.0
521.0,508.0,522.0,518.0,515.0
521.0,516.0,520.0,518.0,506.0
523.0,518.0,519.0,518.0,503.0
523.0,515.0,510.0,514.0,506.0
517.0,509.0,506.0,508.0,511.0
512.0,508.0,501.0,505.0,515.0
504.0,505.0,496.0,496.0,518.0
501.0,498.0,499.0,503.0,509.0
502.0,497.0,505.0,509.0,511.0
508.0,499.0,513.0,514.0,513.0
515.0,506.0,521.0,520.0,510.0
518.0,505.0,526.0,522.0,515.0
516.0,503.0,528.0,524.0,518.0
514.0,500.0,524.0,519.0,513.0
514.0,502.0,525.0,518.0,513.0
518.0,503.0,521.0,514.0,516.0
516.0,510.0,523.0,519.0,514.0
519.0,515.0,525.0,518.0,505.0
522.0,517.0,522.0,520.0,499.0
525.0,520.0,518.0,521.0,499.0
520.0,517.0,510.0,513.0,502.0
515.0,512.0,504.0,508.0,508.0
508.0,507.0,505.0,503.0,513.0
503.0,502.0,497.0,497.0,521.0
500.0,498.0,499.0,502.0,526.0
503.0,499.0,508.0,510.0,528.0
508.0,502.0,514.0,512.0,516.0
514.0,501.0,521.0,521.0,511.0
514.0,503.0,526.0,529.0,506.0
516.0,503.0,525.0,523.0,512.0
517.0,502.0,526.0,517.0,516.0
515.0,507.0,524.0,517.0,513.0
521.0,508.0,524.0,517.0,513.0
526.0,511.0,522.0,516.0,514.0
529.0,516.0,520.0,518.0,509.0
526.0,520.0,520.0,517.0,506.0
521.0,518.0,512.0,509.0,505.0
517.0,513.0,507.0,509.0,507.0
507.0,507.0,501.0,504.0,515.0
506.0,504.0,497.0,506.0,514.0
499.0,501.0,500.0,503.0,515.0
501.0,499.0,501.0,512.0,515.0
509.0,498.0,509.0,513.0,515.0
512.0,501.0,517.0,518.0,515.0
508.0,501.0,519.0,522.0,515.0
517.0,504.0,526.0,523.0,515.0
516.0,501.0,518.0,519.0,516.0
512.0,502.0,520.0,517.0,521.0
513.0,504.0,520.0,516.0,523.0
519.0,508.0,520.0,516.0,516.0
519.0,512.0,520.0,517.0,517.0
523.0,520.0,520.0,518.0,510.0
525.0,520.0,518.0,523.0,512.0
520.0,516.0,511.0,512.0,509.0
512.0,512.0,502.0,504.0,510.0
504.0,508.0,495.0,499.0,510.0
499.0,502.0,494.0,500.0,515.0
500.0,500.0,498.0,500.0,522.0
503.0,498.0,502.0,505.0,523.0
504.0,497.0,513.0,510.0,522.0
512.0,501.0,518.0,518.0,519.0
518.0,507.0,523.0,523.0,516.0
518.0,501.0,520.0,523.0,514.0
518.0,502.0,525.0,519.0,518.0
508.0,503.0,522.0,520.0,519.0
510.0,508.0,520.0,518.0,517.0
520.0,511.0,520.0,518.0,510.0
522.0,515.0,524.0,519.0,504.0
524.0,520.0,520.0,518.0,504.0
523.0,520.0,516.0,513.0,501.0
522.0,518.0,510.0,511.0,509.0
520.0,513.0,502.0,506.0,515.0
509.0,508.0,500.0,503.0,519.0
501.0,502.0,498.0,502.0,522.0
500.0,501.0,501.0,507.0,525.0
503.0,502.0,508.0,512.0,517.0
508.0,500.0,520.0,519.0,514.0
509.0,501.0,519.0,520.0,517.0
512.0,502.0,526.0,525.0,517.0
517.0,503.0,525.0,523.0,512.0
511.0,502.0,523.0,521.0,520.0
511.0,504.0,525.0,522.0,517.0
515.0,508.0,522.0,520.0,513.0
522.0,511.0,525.0,519.0,511.0
522.0,518.0,523.0,523.0,511.0
525.0,521.0,523.0,521.0,507.0
518.0,521.0,516.0,519.0,507.0
515.0,517.0,507.0,512.0,509.0
512.0,510.0,501.0,507.0,517.0
505.0,507.0,498.0,501.0,519.0
505.0,502.0,494.0,501.0,517.0
501.0,499.0,500.0,506.0,519.0
507.0,502.0,511.0,514.0,513.0
513.0,501.0,520.0,523.0,508.0
514.0,503.0,522.0,524.0,507.0
512.0,502.0,526.0,529.0,518.0
516.0,501.0,525.0,521.0,517.0
515.0,501.0,522.0,518.0,521.0
518.0,506.0,524.0,521.0,516.0
520.0,508.0,521.0,518.0,514.0
519.0,513.0,522.0,524.0,511.0
524.0,516.0,520.0,520.0,507.0
526.0,517.0,521.0,519.0,504.0
522.0,521.0,514.0,518.0,506.0
516.0,513.0,506.0,511.0,506.0
511.0,509.0,501.0,506.0,509.0
503.0,505.0,495.0,500.0,516.0
500.0,501.0,498.0,502.0,519.0
500.0,499.0,504.0,508.0,526.0
507.0,501.0,515.0,514.0,522.0
509.0,505.0,522.0,524.0,523.0
512.0,503.0,526.0,525.0,517.0
515.0,503.0,525.0,525.0,516.0
512.0,501.0,523.0,521.0,517.0
511.0,501.0,521.0,517.0,516.0
517.0,506.0,525.0,519.0,517.0
519.0,511.0,521.0,524.0,514.0
520.0,517.0,520.0,518.0,511.0
522.0,517.0,520.0,520.0,511.0
523.0,518.0,515.0,516.0,507.0
524.0,516.0,512.0,510.0,515.0
510.0,510.0,495.0,506.0,515.0
508.0,508.0,498.0,502.0,518.0
504.0,502.0,496.0,499.0,515.0
503.0,498.0,496.0,501.0,520.0
501.0,499.0,504.0,507.0,521.0
505.0,499.0,513.0,517.0,515.0
511.0,502.0,519.0,526.0,503.0
514.0,503.0,525.0,527.0,509.0
518.0,501.0,527.0,522.0,516.0
515.0,498.0,521.0,514.0,523.0
510.0,504.0,521.0,517.0,522.0
516.0,505.0,521.0,518.0,517.0
521.0,508.0,519.0,518.0,518.0
527.0,517.0,522.0,521.0,507.0
530.0,521.0,520.0,523.0,507.0
523.0,520.0,514.0,516.0,505.0
518.0,515.0,506.0,511.0,506.0
511.0,508.0,501.0,506.0,510.0
504.0,504.0,494.0,503.0,511.0
498.0,502.0,495.0,504.0,515.0
503.0,500.0,503.0,505.0,519.0
508.0,500.0,509.0,510.0,516.0
510.0,501.0,518.0,519.0,513.0
514.0,504.0,523.0,522.0,512.0
516.0,504.0,526.0,525.0,510.0
516.0,507.0,524.0,520.0,515.0
510.0,502.0,521.0,517.0,519.0
515.0,504.0,519.0,516.0,510.0
517.0,511.0,521.0,520.0,510.0
518.0,508.0,521.0,519.0,509.0
519.0,515.0,520.0,517.0,505.0
523.0,521.0,519.0,519.0,506.0
525.0,520.0,512.0,514.0,509.0
513.0,514.0,505.0,509.0,507.0
509.0,506.0,499.0,504.0,512.0
499.0,504.0,494.0,497.0,519.0
498.0,504.0,497.0,505.0,522.0
498.0,500.0,504.0,508.0,524.0
503.0,505.0,510.0,513.0,520.0
513.0,505.0,521.0,520.0,517.0
519.0,504.0,525.0,524.0,515.0
516.0,504.0,525.0,525.0,517.0
516.0,505.0,524.0,521.0,519.0
511.0,503.0,520.0,516.0,515.0
516.0,507.0,520.0,516.0,516.0
518.0,510.0,519.0,515.0,515.0
520.0,517.0,522.0,519.0,508.0
524.0,521.0,520.0,522.0,499.0
521.0,521.0,516.0,518.0,504.0
520.0,519.0,509.0,511.0,498.0
513.0,513.0,502.0,509.0,504.0
508.0,507.0,497.0,503.0,512.0
501.0,503.0,495.0,498.0,526.0
497.0,502.0,496.0,501.0,530.0
505.0,501.0,505.0,507.0,532.0
512.0,500.0,512.0,515.0,522.0
515.0,503.0,522.0,522.0,519.0
515.0,503.0,524.0,525.0,516.0
512.0,503.0,527.0,526.0,509.0
515.0,503.0,522.0,519.0,512.0
513.0,503.0,519.0,515.0,516.0
513.0,505.0,516.0,516.0,516.0
512.0,508.0,516.0,513.0,519.0
520.0,516.0,522.0,517.0,518.0
529.0,521.0,520.0,520.0,508.0
525.0,522.0,515.0,514.0,506.0
519.0,517.0,507.0,511.0,509.0
513.0,510.0,497.0,502.0,514.0
508.0,508.0,498.0,503.0,511.0
495.0,499.0,494.0,496.0,518.0
499.0,495.0,499.0,506.0,522.0
507.0,502.0,512.0,513.0,519.0
507.0,504.0,515.0,518.0,523.0
513.0,502.0,522.0,522.0,518.0
515.0,503.0,525.0,525.0,521.0
516.0,506.0,524.0,524.0,520.0
513.0,501.0,521.0,518.0,523.0
517.0,506.0,524.0,521.0,521.0
516.0,509.0,522.0,517.0,517.0
525.0,514.0,521.0,518.0,510.0
528.0,518.0,521.0,522.0,500.0
529.0,527.0,521.0,523.0,493.0
523.0,519.0,513.0,517.0,494.0
512.0,514.0,507.0,513.0,500.0
504.0,510.0,501.0,505.0,506.0
501.0,502.0,495.0,501.0,515.0
499.0,501.0,496.0,500.0,514.0
503.0,501.0,507.0,506.0,521.0
506.0,503.0,515.0,515.0,517.0
511.0,504.0,518.0,517.0,516.0
517.0,504.0,525.0,524.0,517.0
515.0,503.0,524.0,523.0,515.0
513.0,503.0,527.0,521.0,519.0
512.0,502.0,524.0,516.0,518.0
516.0,508.0,522.0,517.0,514.0
519.0,508.0,522.0,518.0,512.0
521.0,513.0,522.0,522.0,511.0
525.0,519.0,521.0,523.0,506.0
525.0,522.0,519.0,521.0,506.0
521.0,518.0,510.0,514.0,507.0
514.0,513.0,503.0,507.0,511.0
505.0,507.0,499.0,504.0,514.0
501.0,502.0,496.0,500.0,519.0
500.0,499.0,497.0,506.0,520.0
505.0,500.0,505.0,509.0,522.0
512.0,503.0,514.0,516.0,521.0
512.0,505.0,522.0,522.0,519.0
517.0,504.0,525.0,526.0,513.0
517.0,506.0,527.0,524.0,513.0
516.0,501.0,521.0,521.0,514.0
517.0,503.0,525.0,519.0,512.0
516.0,508.0,521.0,517.0,515.0
521.0,508.0,519.0,515.0,510.0
522.0,513.0,519.0,518.0,511.0
524.0,519.0,521.0,522.0,507.0
522.0,519.0,515.0,518.0,506.0
517.0,516.0,504.0,512.0,506.0
510.0,510.0,500.0,505.0,510.0
505.0,507.0,497.0,506.0,513.0
501.0,501.0,495.0,502.0,515.0
503.0,498.0,500.0,507.0,518.0
507.0,499.0,506.0,514.0,517.0
512.0,503.0,516.0,519.0,518.0
514.0,501.0,522.0,523.0,516.0
518.0,504.0,527.0,527.0,516.0
513.0,502.0,522.0,520.0,517.0
515.0,501.0,519.0,516.0,518.0
513.0,502.0,518.0,515.0,516.0
516.0,508.0,520.0,520.0,511.0
521.0,511.0,521.0,522.0,509.0
525.0,515.0,518.0,519.0,510.0
528.0,521.0,519.0,519.0,506.0
524.0,519.0,510.0,515.0,508.0
516.0,517.0,507.0,511.0,510.0
513.0,511.0,500.0,505.0,509.0
505.0,503.0,495.0,499.0,517.0
502.0,500.0,496.0,503.0,516.0
504.0,501.0,503.0,508.0,519.0
507.0,501.0,513.0,515.0,523.0
512.0,501.0,520.0,522.0,518.0
513.0,505.0,524.0,525.0,518.0
514.0,505.0,527.0,525.0,513.0
513.0,504.0,526.0,522.0,514.0
513.0,501.0,521.0,519.0,517.0
515.0,505.0,523.0,517.0,513.0
521.0,514.0,524.0,521.0,516.0
526.0,511.0,527.0,522.0,506.0
525.0,521.0,524.0,525.0,503.0
525.0,521.0,517.0,522.0,502.0
522.0,522.0,511.0,519.0,505.0
515.0,513.0,503.0,510.0,504.0
509.0,507.0,498.0,505.0,510.0
502.0,504.0,494.0,501.0,519.0
503.0,498.0,494.0,502.0,521.0
502.0,501.0,504.0,508.0,519.0
507.0,501.0,514.0,512.0,517.0
514.0,505.0,523.0,526.0,520.0
520.0,504.0,524.0,522.0,517.0
514.0,509.0,526.0,522.0,523.0
515.0,501.0,522.0,518.0,517.0
517.0,505.0,523.0,521.0,517.0
516.0,508.0,523.0,518.0,517.0
519.0,510.0,520.0,517.0,514.0
527.0,518.0,524.0,522.0,508.0
525.0,521.0,520.0,522.0,503.0
521.0,521.0,516.0,521.0,505.0
514.0,516.0,508.0,511.0,506.0
510.0,512.0,500.0,504.0,510.0
506.0,507.0,497.0,500.0,513.0
502.0,501.0,491.0,500.0,514.0
502.0,499.0,501.0,505.0,519.0
504.0,500.0,508.0,516.0,516.0
509.0,503.0,515.0,517.0,516.0
514.0,508.0,523.0,523.0,519.0
517.0,502.0,525.0,525.0,514.0
515.0,505.0,527.0,522.0,520.0
516.0,504.0,524.0,517.0,518.0
515.0,507.0,523.0,519.0,515.0
514.0,509.0,521.0,521.0,509.0
521.0,516.0,522.0,520.0,512.0
525.0,517.0,524.0,523.0,505.0
526.0,521.0,520.0,520.0,508.0
523.0,519.0,513.0,514.0,504.0
515.0,514.0,506.0,512.0,510.0
507.0,509.0,500.0,503.0,514.0
507.0,503.0,495.0,500.0,514.0
502.0,498.0,496.0,500.0,517.0
501.0,496.0,503.0,506.0,517.0
505.0,500.0,511.0,517.0,516.0
510.0,501.0,518.0,516.0,519.0
513.0,500.0,522.0,520.0,520.0
515.0,507.0,527.0,522.0,522.0
513.0,503.0,524.0,521.0,521.0
513.0,501.0,523.0,516.0,520.0
517.0,503.0,520.0,513.0,517.0
517.0,507.0,519.0,515.0,516.0
523.0,513.0,523.0,520.0,500.0
524.0,519.0,526.0,521.0,497.0
525.0,521.0,517.0,523.0,500.0
519.0,520.0,511.0,512.0,500.0
510.0,510.0,502.0,505.0,508.0
506.0,506.0,499.0,499.0,514.0
500.0,507.0,498.0,500.0,522.0
499.0,500.0,500.0,504.0,522.0
506.0,502.0,506.0,507.0,520.0
509.0,504.0,516.0,518.0,518.0
514.0,502.0,522.0,520.0,519.0
516.0,505.0,531.0,527.0,517.0
517.0,506.0,530.0,522.0,515.0
517.0,502.0,527.0,518.0,518.0
514.0,505.0,526.0,520.0,521.0
517.0,505.0,525.0,516.0,510.0
521.0,510.0,522.0,516.0,507.0
525.0,514.0,524.0,517.0,502.0
529.0,519.0,521.0,519.0,502.0
523.0,523.0,517.0,516.0,505.0
523.0,517.0,509.0,511.0,505.0
512.0,511.0,504.0,505.0,519.0
504.0,508.0,502.0,502.0,527.0
500.0,501.0,497.0,499.0,531.0
503.0,499.0,500.0,505.0,525.0
507.0,498.0,512.0,510.0,522.0
511.0,503.0,521.0,518.0,520.0
514.0,501.0,524.0,521.0,515.0
521.0,503.0,528.0,523.0,513.0
518.0,501.0,527.0,521.0,509.0
515.0,504.0,523.0,517.0,509.0
516.0,502.0,525.0,519.0,512.0
520.0,507.0,524.0,516.0,516.0
524.0,509.0,520.0,516.0,513.0
527.0,516.0,522.0,518.0,512.0
533.0,522.0,521.0,518.0,508.0
526.0,518.0,513.0,513.0,507.0
520.0,514.0,507.0,509.0,504.0
513.0,508.0,501.0,503.0,512.0
502.0,503.0,496.0,500.0,512.0
498.0,500.0,498.0,503.0,517.0
500.0,501.0,505.0,506.0,519.0
505.0,498.0,510.0,511.0,520.0
512.0,504.0,521.0,518.0,517.0
513.0,505.0,528.0,524.0,515.0
517.0,504.0,528.0,525.0,516.0
514.0,500.0,526.0,520.0,513.0
511.0,500.0,523.0,517.0,518.0
513.0,503.0,522.0,521.0,517.0
520.0,510.0,524.0,521.0,515.0
523.0,515.0,527.0,521.0,506.0
526.0,517.0,525.0,525.0,504.0
525.0,522.0,520.0,519.0,505.0
526.0,520.0,516.0,514.0,504.0
513.0,514.0,506.0,506.0,505.0
505.0,507.0,500.0,502.0,511.0
500.0,501.0,498.0,499.0,516.0
500.0,498.0,498.0,502.0,520.0
499.0,498.0,504.0,506.0,521.0
506.0,501.0,514.0,514.0,520.0
513.0,501.0,522.0,521.0,516.0
514.0,501.0,524.0,522.0,516.0
513.0,502.0,527.0,521.0,518.0
508.0,500.0,522.0,515.0,520.0
513.0,502.0,524.0,518.0,515.0
516.0,504.0,520.0,516.0,511.0
511.0,508.0,517.0,515.0,510.0
517.0,510.0,517.0,515.0,507.0
519.0,516.0,519.0,517.0,510.0
524.0,518.0,513.0,516.0,502.0
521.0,516.0,510.0,512.0,505.0
511.0,507.0,503.0,504.0,508.0
504.0,509.0,499.0,500.0,518.0
502.0,498.0,498.0,500.0,519.0
505.0,502.0,500.0,504.0,518.0
506.0,502.0,511.0,511.0,522.0
510.0,504.0,519.0,521.0,521.0
512.0,504.0,521.0,517.0,520.0
514.0,510.0,528.0,524.0,518.0
515.0,502.0,526.0,522.0,515.0
514.0,506.0,524.0,520.0,516.0
515.0,503.0,524.0,520.0,512.0
514.0,511.0,523.0,518.0,507.0
519.0,514.0,525.0,518.0,515.0
520.0,516.0,520.0,519.0,512.0
527.0,519.0,517.0,514.0,511.0
524.0,517.0,512.0,511.0,510.0
518.0,514.0,508.0,507.0,510.0
509.0,508.0,499.0,502.0,517.0
502.0,505.0,496.0,499.0,521.0
500.0,504.0,497.0,500.0,519.0
504.0,500.0,506.0,505.0,521.0
509.0,501.0,510.0,510.0,520.0
510.0,506.0,520.0,520.0,520.0
514.0,503.0,525.0,523.0,516.0
518.0,505.0,528.0,524.0,515.0
516.0,504.0,525.0,522.0,512.0
511.0,502.0,524.0,518.0,517.0
515.0,510.0,526.0,517.0,516.0
515.0,509.0,525.0,516.0,513.0
522.0,516.0,526.0,518.0,513.0
524.0,515.0,521.0,516.0,508.0
524.0,521.0,515.0,518.0,509.0
519.0,518.0,506.0,516.0,512.0
514.0,514.0,504.0,509.0,510.0
509.0,512.0,505.0,506.0,510.0
500.0,504.0,496.0,502.0,513.0
505.0,500.0,497.0,504.0,517.0
505.0,501.0,504.0,508.0,515.0
510.0,502.0,513.0,515.0,517.0
507.0,504.0,523.0,520.0,524.0
515.0,502.0,526.0,519.0,526.0
517.0,507.0,529.0,521.0,522.0
514.0,503.0,527.0,516.0,520.0
508.0,504.0,524.0,520.0,523.0
514.0,508.0,517.0,516.0,518.0
517.0,511.0,517.0,514.0,516.0
523.0,512.0,519.0,518.0,511.0
526.0,518.0,514.0,517.0,509.0
523.0,524.0,514.0,514.0,511.0
514.0,517.0,505.0,512.0,513.0
511.0,513.0,502.0,509.0,514.0
503.0,506.0,494.0,498.0,520.0
497.0,498.0,489.0,497.0,521.0
503.0,498.0,496.0,502.0,522.0
505.0,499.0,503.0,509.0,522.0
508.0,503.0,515.0,515.0,515.0
508.0,500.0,519.0,518.0,520.0
513.0,500.0,521.0,522.0,517.0
518.0,503.0,526.0,522.0,514.0
513.0,500.0,519.0,516.0,524.0
512.0,501.0,520.0,514.0,521.0
513.0,504.0,518.0,513.0,517.0
517.0,510.0,515.0,515.0,513.0
525.0,514.0,519.0,517.0,508.0
527.0,518.0,519.0,519.0,507.0
526.0,519.0,513.0,517.0,507.0
517.0,518.0,506.0,511.0,511.0
506.0,508.0,499.0,503.0,515.0
505.0,502.0,496.0,500.0,519.0
502.0,500.0,497.0,501.0,522.0
503.0,495.0,501.0,506.0,525.0
508.0,499.0,510.0,510.0,522.0
515.0,501.0,520.0,519.0,520.0
515.0,504.0,524.0,523.0,520.0
516.0,505.0,528.0,524.0,519.0
514.0,504.0,523.0,519.0,518.0
516.0,501.0,522.0,515.0,520.0
513.0,503.0,520.0,517.0,518.0
516.0,507.0,520.0,514.0,513.0
522.0,513.0,521.0,518.0,509.0
529.0,524.0,523.0,522.0,506.0
530.0,522.0,521.0,519.0,505.0
520.0,521.0,512.0,515.0,507.0
520.0,514.0,507.0,509.0,510.0
510.0,508.0,499.0,502.0,517.0
499.0,502.0,496.0,498.0,521.0
500.0,497.0,497.0,502.0,527.0
501.0,498.0,506.0,510.0,520.0
501.0,499.0,516.0,517.0,521.0
512.0,499.0,519.0,520.0,518.0
520.0,504.0,527.0,528.0,516.0
516.0,503.0,524.0,525.0,514.0
514.0,503.0,524.0,518.0,517.0
513.0,501.0,522.0,519.0,516.0
516.0,507.0,521.0,517.0,511.0
523.0,510.0,526.0,518.0,515.0
521.0,514.0,521.0,520.0,513.0
524.0,517.0,516.0,520.0,500.0
523.0,518.0,516.0,517.0,501.0
515.0,514.0,509.0,511.0,510.0
509.0,510.0,504.0,506.0,511.0
505.0,510.0,499.0,500.0,518.0
502.0,499.0,491.0,497.0,524.0
500.0,498.0,500.0,498.0,526.0
506.0,499.0,508.0,510.0,519.0
512.0,502.0,517.0,520.0,514.0
512.0,504.0,527.0,522.0,517.0
515.0,505.0,522.0,521.0,515.0
512.0,501.0,525.0,518.0,523.0
509.0,501.0,517.0,515.0,523.0
513.0,504.0,518.0,512.0,523.0
518.0,508.0,518.0,513.0,519.0
521.0,510.0,516.0,515.0,513.0
524.0,513.0,514.0,514.0,510.0
524.0,521.0,513.0,515.0,506.0
519.0,516.0,507.0,510.0,507.0
519.0,515.0,503.0,508.0,508.0
521.0,510.0,499.0,499.0,507.0
509.0,502.0,497.0,497.0,516.0
497.0,502.0,500.0,501.0,520.0
495.0,502.0,506.0,507.0,520.0
503.0,500.0,506.0,512.0,520.0
506.0,499.0,516.0,513.0,525.0
510.0,505.0,516.0,515.0,525.0
515.0,502.0,523.0,521.0,516.0
511.0,498.0,524.0,520.0,518.0
510.0,500.0,521.0,516.0,516.0
518.0,504.0,523.0,518.0,509.0
515.0,508.0,526.0,522.0,512.0
517.0,514.0,525.0,517.0,510.0
521.0,519.0,529.0,521.0,508.0
526.0,524.0,523.0,519.0,505.0
520.0,518.0,521.0,514.0,511.0
512.0,510.0,506.0,501.0,510.0
508.0,507.0,497.0,499.0,513.0
500.0,502.0,502.0,497.0,515.0
498.0,499.0,503.0,498.0,521.0
502.0,498.0,504.0,505.0,521.0
507.0,501.0,520.0,514.0,516.0
511.0,499.0,518.0,515.0,522.0
516.0,502.0,520.0,524.0,516.0
514.0,504.0,525.0,523.0,512.0
509.0,502.0,527.0,522.0,522.0
513.0,504.0,528.0,521.0,516.0
513.0,506.0,523.0,519.0,515.0
517.0,514.0,521.0,516.0,514.0
521.0,516.0,520.0,522.0,509.0
525.0,520.0,518.0,525.0,501.0
524.0,519.0,514.0,523.0,500.0
521.0,514.0,504.0,518.0,502.0
515.0,506.0,499.0,517.0,506.0
508.0,499.0,500.0,511.0,513.0
500.0,501.0,498.0,497.0,519.0
496.0,493.0,505.0,497.0,523.0
502.0,493.0,516.0,501.0,520.0
510.0,497.0,521.0,504.0,518.0
512.0,503.0,523.0,508.0,514.0
519.0,505.0,521.0,510.0,513.0
514.0,500.0,519.0,508.0,516.0
509.0,503.0,522.0,506.0,515.0
515.0,506.0,528.0,507.0,514.0
525.0,512.0,528.0,507.0,508.0
520.0,513.0,525.0,529.0,511.0
521.0,516.0,516.0,533.0,502.0
523.0,522.0,525.0,530.0,506.0
525.0,518.0,516.0,521.0,506.0
517.0,518.0,504.0,512.0,508.0
511.0,507.0,498.0,499.0,514.0
506.0,502.0,492.0,492.0,518.0
503.0,492.0,492.0,498.0,517.0
506.0,494.0,495.0,507.0,518.0
510.0,495.0,507.0,519.0,516.0
508.0,500.0,519.0,532.0,516.0
513.0,500.0,532.0,542.0,517.0
519.0,496.0,538.0,540.0,510.0
512.0,498.0,536.0,537.0,509.0
511.0,502.0,533.0,526.0,517.0
514.0,502.0,533.0,511.0,516.0
518.0,495.0,510.0,500.0,510.0
522.0,508.0,503.0,505.0,506.0
527.0,514.0,516.0,512.0,499.0
520.0,523.0,515.0,512.0,503.0
517.0,521.0,512.0,508.0,506.0
512.0,511.0,503.0,496.0,516.0
503.0,493.0,490.0,493.0,519.0
496.0,485.0,487.0,498.0,519.0
496.0,487.0,483.0,502.0,524.0
503.0,490.0,489.0,508.0,520.0
508.0,489.0,494.0,514.0,518.0
502.0,484.0,497.0,513.0,520.0
505.0,491.0,502.0,516.0,520.0
509.0,499.0,500.0,518.0,521.0
510.0,509.0,505.0,517.0,521.0
512.0,512.0,509.0,512.0,522.0
516.0,506.0,515.0,515.0,511.0
521.0,496.0,509.0,515.0,508.0
524.0,494.0,520.0,521.0,504.0
523.0,490.0,516.0,520.0,507.0
519.0,490.0,516.0,510.0,509.0
514.0,486.0,512.0,513.0,510.0
515.0,487.0,509.0,509.0,511.0
509.0,490.0,503.0,505.0,507.0
506.0,500.0,505.0,504.0,517.0
508.0,523.0,508.0,509.0,515.0
511.0,528.0,517.0,518.0,513.0
510.0,509.0,519.0,518.0,520.0
509.0,493.0,522.0,511.0,520.0
508.0,502.0,528.0,515.0,516.0
509.0,510.0,540.0,518.0,516.0
515.0,513.0,541.0,513.0,517.0
517.0,509.0,543.0,512.0,514.0
515.0,502.0,535.0,512.0,514.0
513.0,499.0,526.0,521.0,517.0
524.0,493.0,505.0,521.0,509.0
525.0,487.0,513.0,528.0,508.0
515.0,496.0,532.0,528.0,509.0
509.0,514.0,526.0,511.0,511.0
511.0,527.0,506.0,497.0,512.0
507.0,533.0,492.0,496.0,514.0
494.0,504.0,470.0,500.0,525.0
501.0,500.0,471.0,501.0,523.0
509.0,507.0,489.0,504.0,516.0
509.0,509.0,507.0,510.0,512.0
517.0,511.0,502.0,513.0,514.0
514.0,509.0,485.0,523.0,512.0
507.0,509.0,507.0,526.0,512.0
512.0,524.0,521.0,532.0,514.0
517.0,525.0,518.0,532.0,510.0
533.0,524.0,528.0,539.0,507.0
540.0,528.0,530.0,541.0,494.0
527.0,527.0,526.0,527.0,503.0
517.0,519.0,513.0,500.0,512.0
517.0,512.0,510.0,487.0,511.0
511.0,511.0,512.0,498.0,512.0
509.0,516.0,526.0,508.0,515.0
503.0,522.0,532.0,516.0,518.0
500.0,501.0,523.0,519.0,519.0
501.0,498.0,486.0,503.0,522.0
507.0,512.0,492.0,500.0,521.0
514.0,519.0,506.0,506.0,514.0
513.0,508.0,515.0,506.0,509.0
513.0,502.0,522.0,502.0,515.0
505.0,497.0,525.0,502.0,523.0
501.0,497.0,528.0,494.0,521.0
510.0,503.0,534.0,503.0,519.0
518.0,508.0,535.0,525.0,506.0
521.0,506.0,532.0,543.0,503.0
517.0,502.0,535.0,528.0,503.0
514.0,492.0,528.0,514.0,505.0
513.0,492.0,518.0,510.0,507.0
514.0,487.0,504.0,498.0,511.0
507.0,474.0,505.0,489.0,515.0
504.0,470.0,506.0,489.0,516.0
494.0,468.0,510.0,494.0,515.0
493.0,484.0,529.0,503.0,519.0
501.0,498.0,543.0,512.0,518.0
508.0,510.0,552.0,519.0,512.0
507.0,509.0,531.0,520.0,520.0
512.0,496.0,544.0,507.0,518.0
515.0,494.0,549.0,516.0,514.0
514.0,482.0,513.0,526.0,511.0
514.0,485.0,483.0,514.0,510.0
512.0,479.0,471.0,511.0,511.0
513.0,502.0,483.0,512.0,513.0
527.0,529.0,508.0,492.0,505.0
530.0,511.0,516.0,498.0,502.0
517.0,494.0,512.0,515.0,502.0
509.0,493.0,523.0,503.0,517.0
505.0,507.0,514.0,507.0,514.0
514.0,517.0,513.0,519.0,508.0
524.0,505.0,522.0,539.0,504.0
522.0,503.0,550.0,545.0,501.0
512.0,524.0,563.0,541.0,503.0
509.0,518.0,570.0,544.0,509.0
513.0,494.0,547.0,545.0,514.0
512.0,471.0,526.0,519.0,517.0
515.0,477.0,494.0,510.0,512.0
510.0,481.0,507.0,517.0,513.0
509.0,485.0,526.0,517.0,512.0
500.0,488.0,539.0,493.0,519.0
508.0,511.0,496.0,464.0,520.0
524.0,561.0,484.0,482.0,500.0
531.0,532.0,463.0,508.0,496.0
527.0,527.0,484.0,510.0,499.0
523.0,499.0,469.0,499.0,509.0
507.0,472.0,442.0,477.0,518.0
495.0,471.0,470.0,481.0,518.0
495.0,490.0,511.0,499.0,523.0
504.0,506.0,529.0,523.0,528.0
523.0,483.0,537.0,520.0,508.0
521.0,445.0,534.0,528.0,496.0
508.0,458.0,516.0,529.0,503.0
499.0,448.0,553.0,526.0,510.0
494.0,414.0,626.0,512.0,529.0
502.0,460.0,625.0,511.0,528.0
505.0,496.0,596.0,549.0,518.0
528.0,527.0,590.0,533.0,504.0
547.0,556.0,524.0,511.0,491.0
547.0,603.0,512.0,521.0,489.0
532.0,574.0,489.0,522.0,500.0
516.0,549.0,399.0,479.0,513.0
514.0,528.0,418.0,476.0,517.0
492.0,461.0,413.0,471.0,528.0
488.0,411.0,387.0,490.0,526.0
496.0,431.0,464.0,511.0,521.0
495.0,438.0,494.0,552.0,528.0
500.0,447.0,482.0,545.0,545.0
498.0,508.0,506.0,522.0,532.0
520.0,571.0,566.0,486.0,516.0
517.0,525.0,588.0,443.0,512.0
524.0,464.0,590.0,480.0,504.0
525.0,487.0,559.0,509.0,501.0
522.0,501.0,551.0,541.0,506.0
523.0,494.0,592.0,554.0,505.0
523.0,527.0,641.0,564.0,492.0
532.0,591.0,668.0,543.0,492.0
530.0,592.0,598.0,502.0,489.0
512.0,504.0,452.0,474.0,501.0
502.0,500.0,463.0,514.0,521.0
498.0,507.0,512.0,529.0,521.0
500.0,516.0,540.0,511.0,511.0
495.0,506.0,547.0,482.0,526.0
498.0,470.0,522.0,485.0,533.0
503.0,391.0,561.0,525.0,530.0
525.0,380.0,518.0,554.0,508.0
525.0,433.0,448.0,541.0,512.0
527.0,473.0,523.0,536.0,503.0
506.0,400.0,539.0,485.0,521.0
517.0,440.0,638.0,469.0,504.0
527.0,479.0,744.0,479.0,488.0
504.0,438.0,707.0,491.0,502.0
513.0,467.0,508.0,488.0,505.0
522.0,589.0,510.0,572.0,500.0
537.0,733.0,488.0,579.0,502.0
528.0,651.0,541.0,558.0,505.0
503.0,578.0,568.0,581.0,523.0
497.0,516.0,545.0,569.0,536.0
500.0,452.0,513.0,496.0,544.0
509.0,455.0,452.0,457.0,526.0
500.0,455.0,436.0,483.0,517.0
504.0,482.0,495.0,501.0,516.0
520.0,575.0,519.0,512.0,504.0
512.0,508.0,422.0,470.0,504.0
501.0,513.0,423.0,487.0,522.0
522.0,550.0,494.0,565.0,505.0
529.0,565.0,492.0,579.0,508.0
514.0,560.0,548.0,504.0,519.0
538.0,548.0,573.0,522.0,495.0
537.0,516.0,471.0,511.0,476.0
524.0,491.0,471.0,492.0,490.0
508.0,492.0,541.0,495.0,503.0
518.0,495.0,621.0,506.0,498.0
507.0,455.0,652.0,543.0,515.0
490.0,395.0,569.0,515.0,534.0
499.0,410.0,579.0,521.0,526.0
502.0,458.0,676.0,537.0,500.0
521.0,510.0,554.0,562.0,477.0
512.0,493.0,523.0,519.0,500.0
501.0,477.0,449.0,504.0,517.0
505.0,458.0,417.0,509.0,509.0
515.0,496.0,493.0,534.0,503.0
526.0,575.0,497.0,563.0,494.0
536.0,510.0,404.0,557.0,487.0
529.0,433.0,431.0,521.0,492.0
511.0,440.0,505.0,520.0,516.0
507.0,472.0,560.0,430.0,518.0
501.0,486.0,509.0,417.0,533.0
495.0,479.0,430.0,479.0,538.0
499.0,458.0,387.0,473.0,531.0
506.0,485.0,466.0,506.0,524.0
488.0,431.0,506.0,497.0,543.0
504.0,444.0,603.0,560.0,535.0
522.0,463.0,535.0,585.0,520.0
509.0,455.0,440.0,479.0,526.0
521.0,498.0,457.0,517.0,512.0
519.0,545.0,541.0,496.0,519.0
538.0,526.0,639.0,581.0,507.0
549.0,624.0,675.0,601.0,468.0
509.0,510.0,572.0,520.0,481.0
490.0,301.0,453.0,417.0,497.0
507.0,270.0,433.0,498.0,470.0
489.0,228.0,473.0,502.0,493.0
484.0,332.0,478.0,487.0,492.0
537.0,586.0,675.0,561.0,473.0
538.0,651.0,784.0,631.0,462.0
537.0,666.0,622.0,565.0,499.0
503.0,589.0,375.0,460.0,557.0
487.0,630.0,335.0,462.0,549.0
526.0,584.0,468.0,517.0,514.0
542.0,528.0,520.0,533.0,515.0
525.0,525.0,590.0,528.0,523.0
509.0,464.0,551.0,484.0,525.0
500.0,413.0,398.0,459.0,520.0
508.0,435.0,441.0,451.0,516.0
520.0,421.0,541.0,551.0,518.0
511.0,567.0,581.0,545.0,533.0
525.0,622.0,536.0,502.0,529.0
544.0,575.0,595.0,474.0,515.0
546.0,522.0,573.0,604.0,499.0
532.0,417.0,445.0,547.0,480.0
524.0,443.0,467.0,514.0,473.0
536.0,593.0,454.0,514.0,464.0
514.0,683.0,585.0,535.0,507.0
523.0,654.0,514.0,547.0,510.0
506.0,634.0,415.0,542.0,516.0
512.0,623.0,429.0,505.0,528.0
519.0,517.0,492.0,493.0,537.0
522.0,445.0,665.0,491.0,505.0
491.0,420.0,603.0,481.0,529.0
479.0,522.0,695.0,492.0,553.0
490.0,554.0,671.0,499.0,560.0
494.0,517.0,590.0,468.0,583.0
511.0,514.0,518.0,557.0,554.0
537.0,468.0,390.0,524.0,528.0
536.0,460.0,373.0,560.0,517.0
517.0,498.0,378.0,520.0,513.0
502.0,533.0,400.0,503.0,526.0
512.0,566.0,443.0,513.0,522.0
498.0,564.0,423.0,491.0,541.0
497.0,554.0,441.0,478.0,535.0
507.0,552.0,526.0,508.0,532.0
516.0,539.0,538.0,503.0,521.0
512.0,502.0,508.0,483.0,523.0
503.0,500.0,453.0,478.0,547.0
504.0,518.0,473.0,511.0,537.0
524.0,505.0,534.0,544.0,520.0
528.0,527.0,565.0,502.0,519.0
518.0,538.0,573.0,509.0,527.0
515.0,523.0,554.0,537.0,520.0
524.0,524.0,548.0,543.0,505.0
532.0,501.0,495.0,520.0,505.0
528.0,478.0,462.0,506.0,510.0
523.0,472.0,482.0,493.0,500.0
517.0,411.0,464.0,491.0,506.0
509.0,463.0,524.0,517.0,504.0
507.0,523.0,537.0,554.0,522.0
497.0,453.0,469.0,564.0,528.0
481.0,405.0,477.0,465.0,543.0
497.0,524.0,618.0,452.0,552.0
499.0,566.0,795.0,499.0,559.0
517.0,564.0,818.0,513.0,561.0
530.0,548.0,652.0,520.0,547.0
520.0,519.0,596.0,521.0,546.0
501.0,501.0,567.0,505.0,534.0
505.0,468.0,361.0,499.0,500.0
516.0,446.0,286.0,473.0,490.0
521.0,437.0,228.0,494.0,473.0
526.0,548.0,371.0,548.0,461.0
540.0,605.0,499.0,545.0,466.0
516.0,595.0,486.0,527.0,490.0
513.0,560.0,499.0,510.0,505.0
509.0,520.0,541.0,502.0,520.0
487.0,531.0,601.0,529.0,542.0
493.0,519.0,561.0,504.0,546.0
509.0,552.0,416.0,516.0,536.0
516.0,551.0,526.0,524.0,522.0
529.0,585.0,589.0,527.0,524.0
509.0,535.0,513.0,552.0,546.0
496.0,467.0,441.0,484.0,543.0
509.0,446.0,475.0,458.0,519.0
515.0,403.0,488.0,495.0,498.0
517.0,339.0,469.0,549.0,485.0
497.0,304.0,487.0,517.0,513.0
506.0,387.0,543.0,472.0,521.0
496.0,442.0,532.0,469.0,532.0
513.0,576.0,444.0,474.0,521.0
535.0,589.0,481.0,504.0,499.0
538.0,568.0,532.0,598.0,485.0
518.0,496.0,559.0,589.0,508.0
496.0,435.0,583.0,560.0,514.0
490.0,380.0,495.0,533.0,518.0
534.0,494.0,464.0,526.0,490.0
540.0,534.0,529.0,540.0,475.0
505.0,533.0,623.0,515.0,510.0
509.0,493.0,617.0,516.0,509.0
516.0,522.0,657.0,525.0,500.0
517.0,568.0,638.0,466.0,500.0
514.0,639.0,642.0,457.0,523.0
520.0,617.0,539.0,506.0,523.0
533.0,565.0,455.0,514.0,524.0
520.0,520.0,407.0,475.0,527.0
532.0,519.0,337.0,469.0,497.0
541.0,590.0,437.0,536.0,480.0
534.0,580.0,532.0,592.0,488.0
523.0,533.0,493.0,574.0,480.0
522.0,495.0,417.0,496.0,494.0
517.0,491.0,446.0,421.0,513.0
515.0,443.0,427.0,518.0,514.0
511.0,529.0,515.0,594.0,510.0
498.0,532.0,543.0,532.0,544.0
506.0,551.0,636.0,453.0,553.0
521.0,534.0,567.0,489.0,521.0
504.0,528.0,491.0,507.0,512.0
487.0,515.0,560.0,513.0,525.0
515.0,493.0,536.0,509.0,505.0
524.0,485.0,483.0,538.0,509.0
519.0,510.0,575.0,570.0,484.0
534.0,526.0,566.0,553.0,469.0
535.0,475.0,471.0,537.0,467.0
516.0,487.0,457.0,515.0,497.0
499.0,456.0,456.0,478.0,518.0
509.0,459.0,517.0,493.0,508.0
506.0,423.0,496.0,498.0,519.0
512.0,464.0,534.0,515.0,538.0
525.0,549.0,672.0,557.0,525.0
513.0,568.0,660.0,535.0,559.0
498.0,548.0,418.0,411.0,568.0
517.0,535.0,427.0,459.0,533.0
510.0,487.0,500.0,490.0,540.0
499.0,458.0,543.0,570.0,533.0
511.0,522.0,516.0,573.0,492.0
523.0,491.0,468.0,504.0,476.0
522.0,461.0,511.0,536.0,470.0
545.0,532.0,558.0,535.0,458.0
548.0,510.0,587.0,482.0,462.0
530.0,590.0,662.0,496.0,462.0
517.0,569.0,614.0,532.0,487.0
494.0,496.0,551.0,520.0,549.0
484.0,436.0,468.0,516.0,580.0
486.0,406.0,305.0,463.0,572.0
494.0,432.0,374.0,460.0,545.0
505.0,495.0,481.0,534.0,532.0
520.0,581.0,623.0,536.0,516.0
510.0,548.0,675.0,452.0,525.0
511.0,492.0,587.0,485.0,501.0
517.0,535.0,472.0,532.0,493.0
514.0,534.0,527.0,546.0,511.0
511.0,536.0,416.0,557.0,502.0
520.0,539.0,405.0,516.0,511.0
527.0,519.0,479.0,553.0,521.0
511.0,457.0,477.0,556.0,583.0
508.0,441.0,484.0,525.0,577.0
519.0,505.0,518.0,507.0,541.0
509.0,479.0,453.0,487.0,526.0
503.0,538.0,472.0,465.0,518.0
508.0,546.0,518.0,469.0,496.0
514.0,546.0,551.0,522.0,495.0
516.0,526.0,487.0,503.0,501.0
530.0,536.0,440.0,489.0,502.0
539.0,517.0,565.0,509.0,514.0
527.0,489.0,583.0,483.0,534.0
513.0,564.0,540.0,516.0,543.0
505.0,540.0,462.0,532.0,536.0
510.0,505.0,494.0,515.0,533.0
505.0,524.0,582.0,510.0,514.0
503.0,518.0,616.0,522.0,497.0
517.0,525.0,540.0,506.0,503.0
530.0,522.0,544.0,515.0,510.0
527.0,531.0,487.0,517.0,517.0
514.0,522.0,716.0,534.0,538.0
508.0,461.0,658.0,456.0,540.0
504.0,422.0,498.0,458.0,529.0
495.0,458.0,448.0,468.0,542.0
490.0,422.0,384.0,537.0,527.0
505.0,476.0,426.0,535.0,504.0
514.0,500.0,498.0,499.0,511.0
505.0,516.0,516.0,477.0,520.0
505.0,499.0,463.0,467.0,526.0
512.0,479.0,475.0,511.0,515.0
504.0,508.0,547.0,536.0,529.0
513.0,501.0,544.0,535.0,530.0
524.0,467.0,487.0,550.0,530.0
525.0,560.0,463.0,575.0,519.0
536.0,537.0,480.0,528.0,503.0
527.0,454.0,409.0,527.0,494.0
522.0,429.0,465.0,519.0,492.0
518.0,442.0,692.0,565.0,493.0
520.0,444.0,647.0,526.0,497.0
502.0,522.0,430.0,481.0,511.0
491.0,554.0,427.0,487.0,507.0
514.0,553.0,474.0,515.0,496.0
522.0,569.0,524.0,541.0,490.0
505.0,497.0,435.0,524.0,524.0
510.0,490.0,472.0,508.0,541.0
522.0,532.0,523.0,523.0,519.0
519.0,563.0,514.0,473.0,520.0
520.0,545.0,462.0,504.0,482.0
506.0,540.0,539.0,487.0,505.0
512.0,513.0,577.0,515.0,500.0
523.0,478.0,585.0,528.0,485.0
515.0,453.0,486.0,481.0,496.0
525.0,522.0,450.0,439.0,509.0
526.0,577.0,536.0,474.0,514.0
529.0,538.0,588.0,563.0,501.0
513.0,465.0,672.0,611.0,502.0
488.0,436.0,663.0,488.0,509.0
482.0,439.0,555.0,417.0,517.0
512.0,438.0,480.0,451.0,510.0
517.0,454.0,360.0,518.0,513.0
523.0,519.0,338.0,600.0,486.0
525.0,590.0,443.0,554.0,482.0
527.0,583.0,468.0,530.0,498.0
519.0,552.0,510.0,516.0,518.0
503.0,503.0,487.0,504.0,528.0
503.0,513.0,496.0,516.0,526.0
521.0,567.0,514.0,524.0,508.0
530.0,541.0,511.0,517.0,507.0
537.0,526.0,547.0,547.0,472.0
551.0,505.0,542.0,577.0,482.0
543.0,540.0,490.0,522.0,494.0
518.0,543.0,515.0,478.0,474.0
499.0,519.0,516.0,472.0,468.0
489.0,483.0,481.0,496.0,517.0
497.0,485.0,504.0,516.0,513.0
501.0,490.0,480.0,499.0,522.0
488.0,453.0,497.0,511.0,571.0
495.0,443.0,511.0,496.0,575.0
502.0,445.0,496.0,492.0,557.0
510.0,567.0,574.0,520.0,529.0
504.0,542.0,640.0,545.0,533.0
502.0,529.0,613.0,518.0,539.0
508.0,500.0,524.0,524.0,538.0
529.0,464.0,514.0,573.0,518.0
532.0,472.0,539.0,570.0,508.0
519.0,425.0,530.0,499.0,510.0
501.0,422.0,481.0,424.0,521.0
508.0,531.0,540.0,474.0,503.0
523.0,583.0,445.0,493.0,483.0
515.0,533.0,489.0,504.0,470.0
523.0,503.0,484.0,520.0,465.0
522.0,566.0,527.0,541.0,457.0
509.0,575.0,572.0,550.0,482.0
512.0,561.0,590.0,551.0,503.0
516.0,530.0,482.0,528.0,525.0
516.0,494.0,555.0,530.0,544.0
519.0,495.0,438.0,475.0,523.0
502.0,492.0,461.0,477.0,539.0
503.0,478.0,462.0,477.0,535.0
510.0,502.0,480.0,477.0,535.0
530.0,522.0,515.0,539.0,518.0
536.0,456.0,674.0,597.0,497.0
514.0,392.0,645.0,492.0,510.0
506.0,477.0,555.0,445.0,532.0
511.0,590.0,521.0,445.0,549.0
500.0,585.0,439.0,536.0,524.0
518.0,556.0,468.0,537.0,504.0
523.0,559.0,490.0,511.0,501.0
497.0,483.0,502.0,485.0,514.0
489.0,423.0,465.0,466.0,514.0
507.0,453.0,485.0,513.0,491.0
531.0,540.0,481.0,532.0,490.0
513.0,476.0,478.0,511.0,501.0
514.0,496.0,438.0,505.0,505.0
515.0,520.0,482.0,500.0,514.0
514.0,482.0,518.0,518.0,535.0
521.0,437.0,523.0,506.0,535.0
532.0,431.0,483.0,497.0,528.0
537.0,514.0,511.0,563.0,502.0
522.0,476.0,532.0,570.0,501.0
519.0,516.0,568.0,518.0,492.0
501.0,525.0,604.0,446.0,511.0
506.0,556.0,551.0,454.0,500.0
496.0,506.0,425.0,497.0,519.0
499.0,554.0,436.0,495.0,522.0
516.0,527.0,501.0,521.0,509.0
509.0,497.0,539.0,514.0,519.0
507.0,517.0,517.0,507.0,504.0
518.0,540.0,494.0,556.0,512.0
532.0,504.0,555.0,575.0,511.0
520.0,460.0,639.0,553.0,531.0
495.0,419.0,635.0,522.0,530.0
523.0,565.0,488.0,504.0,505.0
540.0,562.0,386.0,492.0,487.0
540.0,516.0,501.0,555.0,480.0
535.0,475.0,647.0,592.0,490.0
522.0,455.0,538.0,520.0,493.0
513.0,518.0,378.0,519.0,495.0
519.0,573.0,444.0,532.0,476.0
520.0,599.0,456.0,492.0,473.0
501.0,592.0,465.0,461.0,498.0
502.0,554.0,486.0,487.0,510.0
517.0,549.0,532.0,514.0,518.0
522.0,532.0,519.0,514.0,493.0
515.0,510.0,512.0,511.0,474.0
509.0,481.0,508.0,509.0,484.0
504.0,444.0,507.0,502.0,514.0
501.0,466.0,502.0,515.0,552.0
509.0,466.0,529.0,525.0,554.0
519.0,512.0,571.0,518.0,509.0
534.0,517.0,527.0,481.0,497.0
533.0,474.0,527.0,507.0,474.0
526.0,511.0,521.0,536.0,506.0
520.0,554.0,512.0,533.0,507.0
516.0,539.0,505.0,513.0,525.0
505.0,517.0,484.0,500.0,549.0
519.0,547.0,525.0,505.0,531.0
504.0,501.0,616.0,512.0,536.0
497.0,435.0,576.0,508.0,521.0
506.0,462.0,478.0,529.0,520.0
501.0,493.0,433.0,520.0,526.0
517.0,477.0,450.0,519.0,519.0
509.0,467.0,491.0,491.0,519.0
512.0,449.0,488.0,497.0,498.0
514.0,425.0,523.0,523.0,496.0
510.0,469.0,549.0,502.0,504.0
526.0,548.0,594.0,497.0,490.0
535.0,558.0,543.0,530.0,466.0
531.0,601.0,521.0,571.0,500.0
530.0,571.0,534.0,561.0,520.0
517.0,523.0,548.0,501.0,519.0
517.0,493.0,532.0,484.0,513.0
499.0,463.0,480.0,482.0,538.0
499.0,433.0,546.0,493.0,542.0
504.0,434.0,539.0,507.0,510.0
485.0,379.0,358.0,459.0,526.0
490.0,462.0,460.0,476.0,529.0
507.0,523.0,497.0,491.0,542.0
508.0,494.0,499.0,486.0,538.0
524.0,583.0,477.0,504.0,520.0
539.0,558.0,546.0,531.0,502.0
534.0,508.0,579.0,576.0,509.0
511.0,501.0,508.0,509.0,525.0
519.0,490.0,518.0,428.0,513.0
515.0,496.0,576.0,442.0,507.0
506.0,476.0,448.0,479.0,521.0
513.0,494.0,462.0,519.0,495.0
533.0,588.0,457.0,545.0,487.0
522.0,582.0,500.0,528.0,491.0
516.0,589.0,498.0,504.0,501.0
515.0,561.0,511.0,507.0,525.0
512.0,534.0,515.0,535.0,524.0
502.0,491.0,467.0,513.0,519.0
508.0,454.0,510.0,548.0,514.0
522.0,410.0,577.0,572.0,487.0
514.0,336.0,519.0,507.0,490.0
488.0,333.0,399.0,458.0,494.0
522.0,547.0,474.0,567.0,471.0
538.0,595.0,561.0,638.0,452.0
533.0,598.0,509.0,556.0,464.0
539.0,577.0,552.0,527.0,469.0
525.0,590.0,611.0,500.0,533.0
508.0,564.0,648.0,492.0,552.0
526.0,542.0,586.0,471.0,537.0
504.0,446.0,426.0,496.0,521.0
502.0,445.0,396.0,495.0,519.0
479.0,398.0,426.0,482.0,539.0
492.0,534.0,521.0,508.0,506.0
500.0,593.0,563.0,518.0,521.0
506.0,558.0,516.0,513.0,514.0
521.0,515.0,511.0,522.0,510.0
521.0,471.0,543.0,539.0,502.0
525.0,536.0,588.0,509.0,490.0
516.0,525.0,618.0,538.0,503.0
526.0,557.0,568.0,530.0,525.0
528.0,556.0,540.0,539.0,536.0
518.0,476.0,463.0,532.0,538.0
513.0,484.0,454.0,491.0,523.0
526.0,487.0,467.0,507.0,495.0
534.0,495.0,482.0,509.0,486.0
522.0,462.0,548.0,521.0,496.0
509.0,435.0,666.0,521.0,503.0
501.0,441.0,622.0,472.0,515.0
495.0,512.0,408.0,419.0,534.0
495.0,554.0,462.0,455.0,540.0
509.0,595.0,508.0,546.0,500.0
522.0,569.0,499.0,541.0,508.0
517.0,534.0,434.0,536.0,513.0
522.0,485.0,518.0,533.0,521.0
521.0,454.0,486.0,524.0,507.0
503.0,412.0,528.0,519.0,522.0
502.0,457.0,488.0,499.0,533.0
509.0,459.0,539.0,499.0,516.0
530.0,529.0,621.0,530.0,485.0
514.0,573.0,670.0,519.0,492.0
517.0,531.0,575.0,471.0,498.0
516.0,532.0,486.0,503.0,501.0
516.0,552.0,360.0,547.0,501.0
527.0,559.0,390.0,554.0,496.0
519.0,526.0,453.0,530.0,512.0
503.0,473.0,454.0,491.0,525.0
503.0,513.0,495.0,495.0,501.0
514.0,517.0,540.0,513.0,488.0
517.0,533.0,540.0,544.0,464.0
520.0,524.0,455.0,528.0,477.0
525.0,537.0,515.0,543.0,470.0
518.0,510.0,558.0,563.0,490.0
510.0,470.0,458.0,495.0,529.0
504.0,496.0,499.0,476.0,544.0
512.0,529.0,533.0,477.0,543.0
519.0,533.0,520.0,520.0,537.0
525.0,541.0,500.0,564.0,522.0
513.0,521.0,459.0,515.0,529.0
520.0,508.0,506.0,502.0,535.0
522.0,501.0,493.0,500.0,525.0
501.0,497.0,507.0,493.0,529.0
493.0,481.0,512.0,491.0,535.0
506.0,496.0,492.0,480.0,518.0
508.0,485.0,501.0,493.0,509.0
508.0,495.0,559.0,515.0,498.0
522.0,492.0,542.0,529.0,501.0
517.0,459.0,447.0,476.0,516.0
508.0,445.0,522.0,501.0,509.0
513.0,443.0,532.0,557.0,506.0
507.0,411.0,466.0,485.0,523.0
507.0,468.0,493.0,489.0,527.0
528.0,560.0,532.0,533.0,495.0
535.0,560.0,537.0,554.0,493.0
521.0,583.0,549.0,534.0,507.0
534.0,559.0,505.0,500.0,493.0
537.0,527.0,523.0,510.0,486.0
517.0,474.0,565.0,509.0,500.0
502.0,415.0,487.0,489.0,523.0
492.0,386.0,471.0,472.0,535.0
506.0,466.0,571.0,520.0,520.0
509.0,475.0,574.0,509.0,515.0
498.0,469.0,533.0,475.0,535.0
517.0,559.0,481.0,487.0,513.0
520.0,542.0,482.0,520.0,508.0
519.0,545.0,456.0,545.0,511.0
514.0,528.0,462.0,530.0,521.0
518.0,503.0,540.0,565.0,507.0
525.0,500.0,683.0,577.0,494.0
523.0,495.0,690.0,515.0,486.0
511.0,477.0,540.0,471.0,493.0
522.0,464.0,316.0,497.0,474.0
516.0,548.0,417.0,544.0,474.0
532.0,640.0,503.0,524.0,487.0
517.0,546.0,491.0,475.0,500.0
499.0,485.0,499.0,506.0,517.0
489.0,453.0,503.0,502.0,541.0
494.0,445.0,455.0,493.0,537.0
515.0,557.0,456.0,490.0,533.0
517.0,540.0,509.0,500.0,513.0
516.0,518.0,528.0,513.0,518.0
498.0,497.0,502.0,508.0,539.0
509.0,496.0,483.0,507.0,510.0
523.0,549.0,576.0,538.0,484.0
516.0,501.0,569.0,548.0,480.0
518.0,554.0,503.0,541.0,477.0
517.0,530.0,464.0,476.0,474.0
529.0,533.0,518.0,512.0,462.0
540.0,531.0,500.0,534.0,470.0
527.0,526.0,529.0,547.0,491.0
507.0,520.0,584.0,512.0,513.0
499.0,508.0,520.0,482.0,580.0
505.0,479.0,447.0,482.0,572.0
506.0,427.0,472.0,498.0,527.0
509.0,426.0,486.0,491.0,511.0
511.0,478.0,536.0,492.0,532.0
505.0,488.0,562.0,530.0,540.0
515.0,523.0,516.0,495.0,524.0
514.0,509.0,492.0,530.0,507.0
510.0,529.0,495.0,530.0,536.0
507.0,538.0,500.0,511.0,522.0
506.0,518.0,502.0,505.0,528.0
517.0,547.0,522.0,538.0,497.0
528.0,533.0,584.0,553.0,487.0
522.0,477.0,549.0,526.0,493.0
521.0,488.0,513.0,502.0,500.0
518.0,477.0,477.0,499.0,490.0
510.0,406.0,494.0,500.0,489.0
519.0,462.0,526.0,495.0,491.0
499.0,448.0,474.0,487.0,527.0
495.0,537.0,477.0,514.0,535.0
508.0,563.0,483.0,499.0,519.0
525.0,548.0,501.0,496.0,513.0
519.0,526.0,493.0,516.0,509.0
519.0,518.0,567.0,537.0,513.0
517.0,515.0,683.0,540.0,520.0
510.0,485.0,620.0,526.0,516.0
510.0,483.0,408.0,507.0,511.0
507.0,455.0,418.0,521.0,509.0
530.0,503.0,494.0,543.0,493.0
529.0,527.0,520.0,531.0,503.0
533.0,527.0,493.0,477.0,512.0
528.0,522.0,503.0,495.0,521.0
528.0,549.0,566.0,537.0,503.0
529.0,542.0,532.0,524.0,482.0
514.0,501.0,446.0,503.0,504.0
499.0,465.0,457.0,497.0,503.0
509.0,456.0,443.0,493.0,497.0
497.0,493.0,467.0,501.0,515.0
504.0,499.0,518.0,504.0,519.0
520.0,531.0,557.0,519.0,509.0
517.0,505.0,549.0,554.0,519.0
509.0,519.0,528.0,546.0,541.0
508.0,503.0,538.0,531.0,548.0
511.0,496.0,543.0,504.0,528.0
508.0,477.0,551.0,515.0,521.0
524.0,520.0,536.0,521.0,506.0
544.0,578.0,540.0,523.0,476.0
522.0,567.0,501.0,506.0,484.0
526.0,527.0,544.0,508.0,486.0
505.0,475.0,527.0,503.0,519.0
493.0,442.0,509.0,491.0,546.0
489.0,385.0,459.0,464.0,525.0
503.0,458.0,420.0,449.0,515.0
500.0,411.0,452.0,484.0,508.0
495.0,392.0,473.0,510.0,511.0
499.0,406.0,473.0,515.0,508.0
502.0,507.0,542.0,538.0,515.0
494.0,515.0,506.0,498.0,526.0
526.0,609.0,441.0,495.0,510.0
536.0,599.0,538.0,529.0,508.0
532.0,543.0,604.0,528.0,512.0
536.0,504.0,537.0,465.0,496.0
518.0,493.0,461.0,507.0,484.0
527.0,481.0,405.0,526.0,487.0
525.0,490.0,452.0,517.0,493.0
518.0,492.0,497.0,511.0,503.0
499.0,510.0,530.0,492.0,519.0
510.0,560.0,568.0,495.0,524.0
502.0,531.0,547.0,519.0,528.0
514.0,575.0,501.0,532.0,512.0
512.0,560.0,487.0,514.0,509.0
513.0,548.0,522.0,513.0,505.0
514.0,530.0,597.0,549.0,498.0
508.0,498.0,558.0,534.0,508.0
513.0,497.0,405.0,482.0,533.0
505.0,475.0,433.0,496.0,542.0
521.0,459.0,488.0,525.0,507.0
518.0,487.0,542.0,534.0,505.0
505.0,477.0,507.0,526.0,519.0
527.0,517.0,482.0,506.0,514.0
542.0,504.0,489.0,500.0,506.0
531.0,501.0,556.0,554.0,489.0
505.0,465.0,536.0,489.0,508.0
498.0,484.0,487.0,473.0,523.0
509.0,609.0,531.0,508.0,519.0
503.0,582.0,524.0,528.0,508.0
504.0,522.0,522.0,518.0,509.0
518.0,510.0,522.0,507.0,496.0
514.0,504.0,499.0,514.0,494.0
514.0,515.0,498.0,516.0,500.0
520.0,508.0,534.0,537.0,488.0
523.0,522.0,521.0,544.0,493.0
522.0,488.0,504.0,552.0,482.0
509.0,470.0,526.0,548.0,495.0
516.0,524.0,543.0,516.0,480.0
524.0,479.0,515.0,501.0,474.0
517.0,462.0,490.0,492.0,511.0
522.0,493.0,536.0,516.0,511.0
526.0,548.0,547.0,522.0,506.0
522.0,551.0,527.0,505.0,489.0
507.0,517.0,475.0,489.0,518.0
508.0,529.0,498.0,504.0,521.0
505.0,522.0,505.0,511.0,530.0
498.0,475.0,534.0,515.0,531.0
507.0,489.0,545.0,497.0,525.0
515.0,493.0,582.0,536.0,516.0
511.0,468.0,515.0,542.0,538.0
505.0,514.0,437.0,501.0,564.0
519.0,514.0,508.0,480.0,557.0
516.0,506.0,508.0,518.0,545.0
520.0,482.0,505.0,526.0,527.0
523.0,467.0,506.0,520.0,506.0
516.0,456.0,496.0,504.0,512.0
519.0,503.0,507.0,500.0,515.0
544.0,569.0,519.0,520.0,481.0
537.0,565.0,524.0,509.0,472.0
519.0,535.0,504.0,478.0,486.0
510.0,522.0,488.0,468.0,502.0
499.0,521.0,534.0,533.0,521.0
493.0,500.0,528.0,549.0,540.0
502.0,488.0,506.0,491.0,527.0
506.0,473.0,507.0,499.0,505.0
505.0,490.0,484.0,529.0,501.0
505.0,485.0,471.0,519.0,518.0
520.0,493.0,502.0,507.0,510.0
519.0,536.0,522.0,520.0,508.0
517.0,516.0,509.0,524.0,503.0
514.0,499.0,512.0,522.0,507.0
521.0,452.0,508.0,514.0,507.0
539.0,460.0,503.0,500.0,517.0
525.0,495.0,504.0,504.0,504.0
519.0,535.0,520.0,529.0,499.0
512.0,527.0,511.0,527.0,521.0
513.0,542.0,501.0,513.0,506.0
513.0,548.0,512.0,504.0,510.0
504.0,511.0,524.0,502.0,518.0
495.0,488.0,519.0,493.0,518.0
496.0,463.0,514.0,502.0,528.0
499.0,413.0,467.0,520.0,524.0
516.0,439.0,452.0,490.0,513.0
511.0,395.0,470.0,480.0,508.0
506.0,487.0,548.0,528.0,507.0
502.0,496.0,530.0,525.0,515.0
530.0,518.0,511.0,536.0,507.0
524.0,518.0,516.0,545.0,502.0
514.0,485.0,492.0,505.0,507.0
517.0,523.0,507.0,522.0,507.0
522.0,547.0,518.0,525.0,506.0
532.0,574.0,510.0,517.0,497.0
531.0,549.0,530.0,511.0,509.0
504.0,476.0,495.0,490.0,518.0
499.0,437.0,477.0,475.0,511.0
497.0,516.0,483.0,478.0,506.0
503.0,539.0,496.0,486.0,497.0
504.0,497.0,494.0,508.0,515.0
507.0,454.0,502.0,521.0,508.0
505.0,448.0,507.0,519.0,529.0
509.0,485.0,527.0,518.0,538.0
510.0,472.0,558.0,523.0,529.0
511.0,453.0,515.0,513.0,511.0
511.0,470.0,495.0,515.0,497.0
514.0,508.0,518.0,524.0,500.0
528.0,608.0,521.0,518.0,498.0
538.0,577.0,535.0,536.0,501.0
539.0,580.0,526.0,535.0,492.0
532.0,551.0,502.0,510.0,501.0
519.0,535.0,509.0,490.0,514.0
516.0,548.0,500.0,499.0,518.0
507.0,536.0,511.0,499.0,534.0
499.0,473.0,511.0,489.0,535.0
495.0,435.0,476.0,487.0,533.0
504.0,469.0,485.0,510.0,526.0
518.0,533.0,535.0,570.0,517.0
515.0,497.0,554.0,526.0,516.0
508.0,486.0,518.0,501.0,524.0
508.0,502.0,501.0,491.0,527.0
513.0,549.0,529.0,504.0,513.0
518.0,552.0,532.0,517.0,502.0
524.0,529.0,518.0,519.0,486.0
527.0,526.0,525.0,531.0,471.0
531.0,526.0,515.0,529.0,473.0
526.0,513.0,500.0,519.0,478.0
520.0,510.0,493.0,514.0,500.0
515.0,517.0,501.0,511.0,504.0
508.0,512.0,499.0,509.0,504.0
501.0,525.0,503.0,504.0,522.0
492.0,528.0,488.0,502.0,549.0
504.0,517.0,504.0,507.0,544.0
513.0,506.0,503.0,519.0,525.0
509.0,512.0,513.0,517.0,536.0
518.0,509.0,519.0,512.0,524.0
522.0,498.0,519.0,514.0,520.0
518.0,487.0,514.0,520.0,527.0
514.0,492.0,515.0,529.0,524.0
510.0,517.0,526.0,520.0,522.0
517.0,498.0,520.0,505.0,521.0
534.0,506.0,522.0,518.0,504.0
531.0,499.0,518.0,521.0,514.0
519.0,492.0,498.0,507.0,512.0
521.0,514.0,505.0,504.0,501.0
521.0,548.0,509.0,503.0,508.0
515.0,519.0,551.0,505.0,502.0
513.0,502.0,567.0,505.0,512.0
501.0,474.0,466.0,498.0,520.0
502.0,476.0,447.0,505.0,517.0
515.0,447.0,492.0,513.0,514.0
512.0,452.0,496.0,508.0,513.0
510.0,505.0,508.0,519.0,522.0
507.0,548.0,520.0,523.0,523.0
509.0,539.0,523.0,520.0,513.0
509.0,495.0,519.0,521.0,518.0
510.0,473.0,505.0,516.0,526.0
512.0,461.0,505.0,508.0,516.0
525.0,528.0,519.0,520.0,509.0
529.0,526.0,520.0,517.0,503.0
526.0,492.0,513.0,526.0,505.0
525.0,517.0,507.0,533.0,505.0
504.0,521.0,480.0,497.0,518.0
503.0,558.0,500.0,490.0,517.0
504.0,531.0,503.0,490.0,513.0
498.0,497.0,493.0,491.0,524.0
506.0,480.0,498.0,505.0,516.0
503.0,460.0,513.0,519.0,518.0
510.0,499.0,517.0,523.0,521.0
510.0,489.0,514.0,519.0,521.0
510.0,535.0,526.0,518.0,517.0
520.0,538.0,530.0,520.0,515.0
532.0,526.0,529.0,524.0,508.0
536.0,517.0,522.0,523.0,508.0
531.0,507.0,523.0,527.0,493.0
525.0,507.0,514.0,531.0,497.0
524.0,495.0,502.0,519.0,505.0
517.0,509.0,493.0,512.0,506.0
515.0,539.0,501.0,486.0,509.0
506.0,526.0,505.0,497.0,515.0
507.0,512.0,499.0,499.0,524.0
510.0,502.0,504.0,496.0,516.0
508.0,500.0,513.0,508.0,514.0
507.0,500.0,506.0,518.0,514.0
502.0,497.0,504.0,518.0,524.0
501.0,496.0,512.0,514.0,518.0
501.0,486.0,508.0,510.0,516.0
506.0,485.0,511.0,511.0,518.0
509.0,512.0,518.0,515.0,513.0
511.0,501.0,514.0,516.0,504.0
508.0,499.0,510.0,518.0,504.0
522.0,511.0,514.0,520.0,508.0
533.0,512.0,518.0,523.0,500.0
512.0,522.0,512.0,510.0,512.0
502.0,513.0,506.0,509.0,510.0
512.0,508.0,496.0,506.0,506.0
503.0,499.0,488.0,494.0,514.0
492.0,497.0,489.0,496.0,522.0
492.0,497.0,496.0,499.0,525.0
496.0,490.0,502.0,508.0,524.0
501.0,500.0,509.0,513.0,520.0
507.0,504.0,516.0,522.0,514.0
526.0,508.0,527.0,530.0,511.0
518.0,493.0,518.0,519.0,520.0
514.0,495.0,515.0,512.0,522.0
517.0,496.0,514.0,511.0,518.0
534.0,493.0,510.0,510.0,514.0
555.0,482.0,509.0,513.0,504.0
547.0,476.0,507.0,514.0,507.0
542.0,517.0,519.0,520.0,503.0
541.0,542.0,518.0,518.0,508.0
534.0,530.0,507.0,508.0,501.0
524.0,513.0,500.0,501.0,505.0
514.0,506.0,492.0,500.0,517.0
516.0,506.0,495.0,502.0,519.0
515.0,504.0,501.0,507.0,516.0
519.0,502.0,507.0,516.0,514.0
516.0,501.0,514.0,513.0,514.0
514.0,493.0,522.0,529.0,514.0
511.0,490.0,518.0,520.0,518.0
510.0,501.0,518.0,517.0,517.0
518.0,501.0,519.0,519.0,513.0
519.0,505.0,518.0,517.0,510.0
519.0,506.0,517.0,515.0,508.0
532.0,520.0,519.0,518.0,505.0
541.0,525.0,522.0,519.0,503.0
538.0,523.0,514.0,519.0,499.0
530.0,514.0,509.0,510.0,504.0
527.0,498.0,499.0,507.0,506.0
518.0,478.0,491.0,500.0,510.0
504.0,465.0,487.0,507.0,520.0
501.0,457.0,487.0,496.0,522.0
510.0,477.0,500.0,505.0,517.0
521.0,513.0,515.0,516.0,509.0
515.0,507.0,518.0,520.0,510.0
522.0,500.0,521.0,522.0,508.0
522.0,511.0,513.0,519.0,508.0
521.0,510.0,520.0,518.0,511.0
522.0,502.0,518.0,520.0,509.0
521.0,484.0,519.0,522.0,506.0
521.0,470.0,517.0,515.0,504.0
526.0,498.0,521.0,518.0,504.0
525.0,491.0,508.0,514.0,500.0
519.0,486.0,506.0,507.0,504.0
521.0,524.0,508.0,511.0,506.0
515.0,519.0,501.0,506.0,511.0
513.0,557.0,502.0,494.0,512.0
505.0,536.0,498.0,498.0,520.0
501.0,517.0,500.0,500.0,527.0
510.0,518.0,508.0,504.0,521.0
514.0,516.0,515.0,508.0,522.0
508.0,512.0,517.0,515.0,523.0
513.0,513.0,523.0,519.0,517.0
513.0,514.0,523.0,524.0,516.0
511.0,509.0,519.0,520.0,516.0
514.0,510.0,515.0,506.0,512.0
512.0,510.0,517.0,514.0,507.0
521.0,515.0,521.0,513.0,505.0
525.0,522.0,517.0,510.0,496.0
525.0,522.0,514.0,515.0,496.0
523.0,519.0,508.0,512.0,499.0
512.0,514.0,503.0,507.0,498.0
505.0,507.0,495.0,501.0,508.0
503.0,500.0,490.0,495.0,511.0
494.0,495.0,492.0,497.0,514.0
495.0,498.0,500.0,503.0,520.0
500.0,495.0,506.0,512.0,508.0
509.0,501.0,518.0,524.0,509.0
510.0,497.0,522.0,529.0,511.0
518.0,505.0,526.0,524.0,514.0
511.0,496.0,516.0,513.0,518.0
508.0,497.0,516.0,515.0,513.0
512.0,506.0,521.0,522.0,511.0
519.0,510.0,518.0,517.0,507.0
515.0,511.0,518.0,513.0,505.0
524.0,516.0,519.0,522.0,498.0
516.0,516.0,514.0,517.0,504.0
521.0,512.0,507.0,509.0,497.0
508.0,504.0,497.0,502.0,503.0
502.0,505.0,497.0,503.0,507.0
497.0,498.0,492.0,503.0,515.0
508.0,501.0,494.0,497.0,513.0
506.0,497.0,503.0,502.0,521.0
506.0,496.0,503.0,510.0,516.0
516.0,502.0,515.0,515.0,516.0
512.0,499.0,520.0,519.0,514.0
509.0,499.0,523.0,521.0,513.0
521.0,501.0,516.0,515.0,511.0
526.0,505.0,522.0,518.0,509.0
521.0,504.0,519.0,518.0,508.0
527.0,505.0,517.0,516.0,502.0
528.0,510.0,517.0,521.0,497.0
512.0,510.0,516.0,517.0,496.0
503.0,507.0,510.0,517.0,492.0
497.0,515.0,507.0,517.0,494.0
484.0,505.0,500.0,504.0,506.0
471.0,502.0,490.0,492.0,518.0
476.0,496.0,491.0,496.0,516.0
498.0,495.0,496.0,500.0,510.0
504.0,495.0,503.0,505.0,512.0
529.0,502.0,513.0,514.0,507.0
556.0,504.0,520.0,519.0,508.0
547.0,502.0,524.0,524.0,510.0
539.0,501.0,523.0,520.0,512.0
536.0,504.0,521.0,516.0,517.0
530.0,503.0,521.0,516.0,516.0
521.0,506.0,520.0,518.0,513.0
521.0,513.0,518.0,517.0,512.0
538.0,515.0,521.0,525.0,503.0
542.0,522.0,520.0,521.0,494.0
532.0,517.0,510.0,512.0,492.0
523.0,512.0,502.0,508.0,489.0
511.0,507.0,497.0,502.0,498.0
506.0,500.0,492.0,499.0,506.0
513.0,498.0,496.0,501.0,501.0
511.0,494.0,497.0,502.0,510.0
513.0,499.0,505.0,509.0,513.0
519.0,499.0,519.0,517.0,517.0
523.0,499.0,521.0,524.0,515.0
525.0,503.0,524.0,525.0,507.0
516.0,500.0,521.0,521.0,510.0
507.0,496.0,518.0,512.0,515.0
516.0,498.0,516.0,506.0,502.0
523.0,505.0,517.0,512.0,498.0
530.0,511.0,517.0,514.0,507.0
522.0,513.0,513.0,508.0,500.0
525.0,515.0,510.0,510.0,488.0
522.0,514.0,507.0,511.0,488.0
516.0,510.0,499.0,506.0,496.0
508.0,506.0,496.0,501.0,507.0
508.0,501.0,494.0,502.0,508.0
504.0,498.0,497.0,502.0,506.0
507.0,495.0,504.0,510.0,510.0
514.0,497.0,510.0,510.0,508.0
517.0,503.0,521.0,520.0,505.0
513.0,499.0,525.0,525.0,504.0
519.0,504.0,522.0,521.0,503.0
519.0,505.0,518.0,511.0,503.0
517.0,505.0,519.0,517.0,502.0
517.0,504.0,518.0,515.0,496.0
521.0,507.0,517.0,520.0,493.0
522.0,512.0,520.0,522.0,490.0
525.0,523.0,520.0,524.0,490.0
521.0,516.0,517.0,515.0,495.0
516.0,513.0,506.0,507.0,510.0
505.0,507.0,500.0,504.0,526.0
502.0,503.0,496.0,504.0,525.0
502.0,500.0,490.0,496.0,517.0
502.0,499.0,498.0,504.0,515.0
507.0,497.0,505.0,509.0,512.0
512.0,498.0,512.0,517.0,514.0
516.0,500.0,521.0,518.0,514.0
516.0,499.0,523.0,520.0,510.0
518.0,501.0,520.0,516.0,510.0
509.0,497.0,519.0,515.0,512.0
516.0,503.0,521.0,516.0,515.0
521.0,509.0,523.0,518.0,510.0
525.0,516.0,520.0,518.0,507.0
522.0,517.0,520.0,523.0,510.0
523.0,517.0,518.0,517.0,501.0
529.0,517.0,511.0,513.0,486.0
514.0,512.0,505.0,509.0,492.0
506.0,506.0,497.0,502.0,495.0
501.0,498.0,494.0,497.0,499.0
502.0,489.0,494.0,500.0,502.0
502.0,492.0,499.0,508.0,512.0
512.0,501.0,511.0,521.0,511.0
509.0,504.0,520.0,528.0,502.0
513.0,501.0,520.0,521.0,496.0
513.0,501.0,518.0,516.0,507.0
510.0,503.0,517.0,516.0,515.0
515.0,500.0,518.0,514.0,517.0
519.0,506.0,519.0,514.0,519.0
519.0,508.0,519.0,516.0,523.0
519.0,511.0,520.0,522.0,522.0
528.0,519.0,523.0,523.0,507.0
530.0,521.0,519.0,519.0,506.0
522.0,521.0,508.0,509.0,506.0
512.0,508.0,498.0,501.0,501.0
502.0,505.0,493.0,501.0,511.0
495.0,497.0,489.0,495.0,521.0
497.0,498.0,490.0,495.0,524.0
502.0,496.0,499.0,504.0,521.0
508.0,496.0,508.0,515.0,510.0
517.0,499.0,516.0,521.0,510.0
517.0,497.0,519.0,523.0,508.0
520.0,494.0,521.0,523.0,506.0
516.0,500.0,520.0,520.0,508.0
512.0,503.0,520.0,523.0,501.0
510.0,501.0,514.0,513.0,503.0
510.0,500.0,513.0,509.0,514.0
520.0,514.0,519.0,520.0,502.0
527.0,521.0,519.0,520.0,488.0
527.0,516.0,510.0,516.0,485.0
523.0,512.0,505.0,511.0,489.0
523.0,508.0,502.0,505.0,498.0
507.0,501.0,494.0,501.0,508.0
503.0,497.0,495.0,502.0,520.0
500.0,495.0,495.0,504.0,538.0
500.0,494.0,503.0,506.0,531.0
501.0,496.0,513.0,515.0,519.0
508.0,497.0,520.0,522.0,512.0
501.0,492.0,520.0,520.0,508.0
499.0,495.0,518.0,519.0,511.0
498.0,498.0,519.0,520.0,510.0
495.0,497.0,518.0,518.0,516.0
508.0,502.0,518.0,515.0,513.0
519.0,511.0,515.0,515.0,507.0
523.0,516.0,518.0,517.0,503.0
519.0,520.0,520.0,520.0,501.0
525.0,521.0,513.0,515.0,491.0
521.0,516.0,506.0,509.0,491.0
514.0,507.0,494.0,501.0,498.0
505.0,501.0,491.0,499.0,500.0
517.0,502.0,496.0,503.0,509.0
520.0,498.0,504.0,508.0,502.0
513.0,494.0,506.0,513.0,505.0
516.0,500.0,513.0,517.0,520.0
530.0,509.0,519.0,520.0,513.0
539.0,506.0,526.0,528.0,507.0
536.0,503.0,524.0,518.0,505.0
529.0,503.0,518.0,516.0,509.0
532.0,506.0,519.0,520.0,513.0
531.0,511.0,520.0,518.0,503.0
533.0,514.0,519.0,519.0,510.0
528.0,518.0,520.0,521.0,526.0
524.0,520.0,515.0,516.0,523.0
524.0,518.0,509.0,514.0,512.0
511.0,515.0,503.0,510.0,507.0
501.0,508.0,497.0,503.0,516.0
495.0,499.0,493.0,504.0,523.0
497.0,498.0,495.0,501.0,523.0
501.0,500.0,501.0,503.0,513.0
503.0,499.0,508.0,510.0,521.0
511.0,501.0,516.0,518.0,529.0
509.0,498.0,522.0,522.0,525.0
512.0,500.0,522.0,521.0,519.0
504.0,498.0,524.0,521.0,516.0
506.0,494.0,518.0,520.0,510.0
507.0,505.0,516.0,513.0,500.0
506.0,505.0,514.0,517.0,496.0
511.0,509.0,517.0,521.0,500.0
516.0,513.0,514.0,517.0,498.0
532.0,516.0,506.0,513.0,488.0
535.0,520.0,505.0,512.0,498.0
523.0,510.0,500.0,505.0,511.0
508.0,503.0,489.0,498.0,524.0
503.0,497.0,488.0,494.0,534.0
515.0,494.0,490.0,503.0,523.0
518.0,497.0,505.0,518.0,517.0
522.0,505.0,515.0,521.0,514.0
522.0,505.0,521.0,522.0,513.0
517.0,502.0,520.0,521.0,519.0
506.0,495.0,518.0,516.0,508.0
503.0,498.0,517.0,513.0,505.0
512.0,497.0,517.0,517.0,509.0
514.0,507.0,521.0,518.0,502.0
516.0,514.0,517.0,518.0,493.0
518.0,514.0,515.0,517.0,494.0
523.0,519.0,516.0,520.0,494.0
520.0,517.0,510.0,513.0,500.0
522.0,514.0,504.0,511.0,494.0
527.0,511.0,497.0,502.0,500.0
514.0,504.0,492.0,495.0,504.0
513.0,497.0,493.0,502.0,513.0
516.0,495.0,499.0,506.0,508.0
519.0,500.0,509.0,515.0,507.0
519.0,508.0,518.0,523.0,504.0
519.0,505.0,523.0,526.0,507.0
519.0,505.0,525.0,525.0,522.0
517.0,503.0,524.0,518.0,517.0
509.0,500.0,511.0,514.0,514.0
514.0,504.0,518.0,515.0,513.0
516.0,511.0,519.0,518.0,510.0
521.0,512.0,521.0,522.0,509.0
525.0,517.0,518.0,518.0,509.0
523.0,515.0,515.0,513.0,498.0
521.0,513.0,510.0,512.0,501.0
518.0,513.0,503.0,508.0,504.0
514.0,510.0,501.0,504.0,509.0
502.0,501.0,492.0,498.0,517.0
507.0,499.0,496.0,503.0,512.0
514.0,500.0,506.0,508.0,516.0
508.0,498.0,508.0,509.0,522.0
514.0,501.0,516.0,515.0,515.0
522.0,502.0,521.0,524.0,502.0
512.0,500.0,520.0,518.0,513.0
509.0,503.0,518.0,515.0,513.0
513.0,499.0,517.0,515.0,506.0
513.0,502.0,515.0,516.0,502.0
515.0,510.0,518.0,516.0,503.0
516.0,513.0,519.0,517.0,503.0
521.0,516.0,520.0,517.0,505.0
528.0,518.0,514.0,516.0,500.0
521.0,515.0,506.0,510.0,512.0
514.0,511.0,500.0,504.0,525.0
514.0,510.0,496.0,498.0,537.0
505.0,504.0,494.0,496.0,534.0
507.0,500.0,495.0,498.0,518.0
509.0,503.0,501.0,507.0,514.0
506.0,498.0,511.0,517.0,491.0
507.0,498.0,515.0,521.0,482.0
514.0,501.0,521.0,522.0,497.0
512.0,501.0,521.0,522.0,513.0
508.0,500.0,523.0,519.0,516.0
510.0,501.0,518.0,517.0,522.0
503.0,501.0,511.0,513.0,543.0
506.0,504.0,515.0,512.0,517.0
518.0,514.0,517.0,518.0,500.0
517.0,515.0,514.0,515.0,505.0
515.0,513.0,511.0,511.0,506.0
508.0,511.0,501.0,505.0,516.0
509.0,510.0,499.0,505.0,515.0
503.0,506.0,493.0,497.0,525.0
499.0,499.0,497.0,504.0,521.0
496.0,496.0,498.0,504.0,522.0
500.0,495.0,504.0,507.0,521.0
505.0,499.0,513.0,515.0,520.0
514.0,501.0,520.0,518.0,517.0
521.0,501.0,526.0,523.0,509.0
519.0,500.0,522.0,525.0,513.0
512.0,499.0,521.0,519.0,515.0
509.0,505.0,519.0,522.0,519.0
512.0,509.0,519.0,515.0,506.0
525.0,510.0,524.0,520.0,501.0
535.0,519.0,521.0,519.0,497.0
528.0,521.0,516.0,521.0,501.0
516.0,513.0,507.0,510.0,503.0
518.0,512.0,503.0,508.0,509.0
517.0,513.0,499.0,501.0,508.0
508.0,501.0,493.0,494.0,513.0
504.0,499.0,498.0,506.0,510.0
505.0,499.0,504.0,512.0,499.0
513.0,501.0,512.0,515.0,518.0
511.0,501.0,516.0,516.0,535.0
514.0,502.0,521.0,520.0,514.0
516.0,501.0,521.0,522.0,502.0
514.0,501.0,517.0,516.0,499.0
513.0,501.0,517.0,515.0,501.0
522.0,502.0,520.0,513.0,493.0
525.0,508.0,520.0,515.0,488.0
522.0,513.0,519.0,517.0,494.0
526.0,516.0,516.0,510.0,506.0
522.0,516.0,511.0,513.0,510.0
514.0,516.0,505.0,507.0,510.0
509.0,511.0,504.0,506.0,512.0
504.0,504.0,497.0,500.0,522.0
496.0,496.0,494.0,495.0,525.0
496.0,495.0,493.0,497.0,527.0
512.0,493.0,503.0,507.0,508.0
522.0,497.0,510.0,515.0,518.0
518.0,499.0,518.0,518.0,518.0
514.0,502.0,522.0,520.0,523.0
518.0,500.0,522.0,518.0,519.0
520.0,501.0,519.0,522.0,513.0
518.0,504.0,522.0,518.0,510.0
518.0,510.0,521.0,517.0,508.0
524.0,514.0,524.0,520.0,505.0
530.0,518.0,519.0,517.0,501.0
531.0,518.0,523.0,524.0,493.0
528.0,514.0,511.0,516.0,486.0
517.0,512.0,507.0,511.0,497.0
503.0,512.0,499.0,505.0,506.0
512.0,505.0,495.0,495.0,500.0
504.0,503.0,492.0,499.0,511.0
499.0,499.0,501.0,505.0,516.0
501.0,498.0,507.0,509.0,515.0
511.0,501.0,516.0,516.0,517.0
508.0,498.0,518.0,521.0,526.0
508.0,501.0,520.0,516.0,516.0
505.0,500.0,519.0,511.0,522.0
499.0,497.0,517.0,510.0,529.0
512.0,500.0,518.0,510.0,520.0
526.0,508.0,516.0,512.0,509.0
529.0,510.0,517.0,516.0,500.0
525.0,515.0,515.0,516.0,500.0
523.0,517.0,516.0,516.0,499.0
521.0,516.0,512.0,513.0,501.0
513.0,511.0,501.0,503.0,503.0
507.0,503.0,494.0,497.0,510.0
500.0,500.0,493.0,500.0,516.0
495.0,496.0,495.0,503.0,524.0
502.0,501.0,508.0,517.0,519.0
512.0,504.0,513.0,514.0,521.0
510.0,501.0,520.0,518.0,519.0
503.0,502.0,524.0,525.0,523.0
515.0,498.0,520.0,518.0,508.0
515.0,499.0,519.0,514.0,502.0
512.0,502.0,515.0,510.0,513.0
526.0,506.0,521.0,513.0,511.0
528.0,509.0,518.0,515.0,510.0
531.0,517.0,522.0,519.0,510.0
535.0,518.0,518.0,517.0,509.0
531.0,521.0,515.0,514.0,511.0
522.0,516.0,507.0,509.0,519.0
515.0,510.0,500.0,503.0,506.0
515.0,505.0,495.0,502.0,487.0
509.0,495.0,494.0,495.0,489.0
502.0,495.0,499.0,499.0,501.0
510.0,499.0,505.0,506.0,515.0
510.0,502.0,516.0,514.0,528.0
512.0,503.0,522.0,524.0,525.0
512.0,502.0,522.0,519.0,524.0
511.0,503.0,524.0,521.0,532.0
505.0,500.0,521.0,516.0,525.0
514.0,507.0,521.0,515.0,515.0
520.0,507.0,522.0,512.0,507.0
526.0,510.0,519.0,514.0,508.0
529.0,515.0,517.0,517.0,497.0
535.0,518.0,520.0,518.0,496.0
526.0,516.0,510.0,513.0,497.0
519.0,512.0,503.0,508.0,502.0
506.0,506.0,496.0,507.0,512.0
502.0,502.0,492.0,498.0,518.0
500.0,498.0,493.0,498.0,519.0
497.0,499.0,500.0,505.0,526.0
504.0,498.0,509.0,511.0,523.0
507.0,498.0,519.0,517.0,521.0
511.0,503.0,521.0,520.0,525.0
514.0,505.0,525.0,522.0,526.0
516.0,501.0,521.0,518.0,515.0
517.0,498.0,519.0,513.0,509.0
520.0,503.0,519.0,516.0,507.0
521.0,508.0,517.0,516.0,503.0
524.0,513.0,519.0,518.0,498.0
527.0,516.0,519.0,518.0,497.0
527.0,518.0,515.0,516.0,488.0
519.0,517.0,510.0,513.0,486.0
511.0,514.0,502.0,507.0,496.0
511.0,506.0,497.0,503.0,498.0
508.0,497.0,492.0,498.0,518.0
500.0,495.0,493.0,502.0,526.0
501.0,495.0,500.0,507.0,527.0
501.0,495.0,507.0,515.0,521.0
505.0,498.0,513.0,517.0,518.0
510.0,501.0,522.0,519.0,516.0
509.0,499.0,519.0,514.0,513.0
508.0,501.0,523.0,513.0,523.0
506.0,498.0,516.0,516.0,517.0
509.0,504.0,518.0,512.0,517.0
509.0,507.0,517.0,513.0,512.0
512.0,511.0,517.0,515.0,506.0
519.0,519.0,519.0,518.0,504.0
526.0,523.0,515.0,515.0,503.0
523.0,520.0,510.0,513.0,512.0
513.0,509.0,499.0,502.0,521.0
505.0,505.0,493.0,497.0,515.0
502.0,499.0,492.0,498.0,518.0
501.0,497.0,497.0,500.0,527.0
504.0,503.0,503.0,508.0,525.0
510.0,500.0,513.0,514.0,525.0
519.0,502.0,519.0,523.0,521.0
521.0,502.0,527.0,525.0,516.0
519.0,498.0,525.0,526.0,514.0
513.0,503.0,523.0,520.0,518.0
511.0,504.0,521.0,519.0,515.0
515.0,506.0,521.0,513.0,513.0
522.0,511.0,519.0,514.0,516.0
523.0,514.0,523.0,517.0,507.0
528.0,521.0,518.0,511.0,505.0
524.0,520.0,512.0,514.0,504.0
516.0,519.0,508.0,510.0,513.0
509.0,514.0,499.0,505.0,515.0
500.0,503.0,496.0,506.0,518.0
496.0,497.0,491.0,502.0,524.0
507.0,498.0,499.0,502.0,526.0
512.0,498.0,508.0,509.0,526.0
509.0,501.0,514.0,518.0,517.0
519.0,501.0,518.0,522.0,514.0
514.0,497.0,521.0,519.0,513.0
514.0,502.0,523.0,522.0,517.0
512.0,500.0,521.0,520.0,520.0
514.0,502.0,523.0,519.0,519.0
519.0,506.0,520.0,513.0,512.0
522.0,514.0,518.0,516.0,505.0
522.0,515.0,519.0,520.0,494.0
527.0,520.0,521.0,523.0,492.0
521.0,516.0,510.0,514.0,497.0
518.0,512.0,505.0,509.0,506.0
509.0,508.0,499.0,506.0,505.0
502.0,502.0,495.0,502.0,509.0
504.0,499.0,499.0,501.0,513.0
503.0,497.0,502.0,511.0,511.0
509.0,502.0,510.0,513.0,513.0
511.0,506.0,519.0,520.0,516.0
517.0,501.0,518.0,522.0,508.0
516.0,504.0,526.0,522.0,516.0
512.0,500.0,521.0,521.0,514.0
513.0,500.0,523.0,516.0,513.0
512.0,503.0,521.0,517.0,513.0
513.0,508.0,524.0,525.0,506.0
521.0,513.0,520.0,522.0,506.0
526.0,518.0,522.0,517.0,505.0
521.0,518.0,514.0,517.0,501.0
517.0,514.0,508.0,510.0,503.0
508.0,512.0,502.0,506.0,508.0
505.0,504.0,500.0,501.0,514.0
492.0,499.0,497.0,498.0,529.0
497.0,497.0,498.0,502.0,527.0
508.0,499.0,506.0,510.0,528.0
517.0,500.0,514.0,519.0,518.0
522.0,500.0,518.0,519.0,506.0
522.0,504.0,524.0,520.0,497.0
518.0,500.0,523.0,519.0,514.0
509.0,495.0,514.0,507.0,521.0
514.0,499.0,517.0,513.0,516.0
517.0,506.0,518.0,519.0,518.0
518.0,511.0,523.0,514.0,534.0
520.0,516.0,521.0,517.0,523.0
524.0,520.0,516.0,515.0,508.0
522.0,520.0,509.0,513.0,509.0
518.0,513.0,507.0,507.0,515.0
518.0,505.0,497.0,503.0,509.0
508.0,502.0,493.0,500.0,510.0
504.0,499.0,494.0,500.0,514.0
499.0,495.0,495.0,500.0,516.0
505.0,494.0,501.0,506.0,513.0
497.0,500.0,511.0,514.0,510.0
506.0,500.0,515.0,521.0,514.0
516.0,502.0,524.0,523.0,515.0
515.0,502.0,522.0,519.0,518.0
511.0,502.0,520.0,519.0,517.0
517.0,504.0,523.0,517.0,515.0
518.0,507.0,520.0,517.0,510.0
519.0,510.0,512.0,515.0,509.0
532.0,517.0,521.0,518.0,504.0
530.0,520.0,516.0,518.0,501.0
524.0,520.0,508.0,512.0,503.0
516.0,509.0,502.0,508.0,508.0
508.0,506.0,498.0,503.0,514.0
496.0,496.0,493.0,499.0,521.0
492.0,497.0,496.0,500.0,524.0
498.0,497.0,502.0,506.0,525.0
505.0,500.0,511.0,515.0,519.0
504.0,501.0,516.0,518.0,521.0
514.0,504.0,523.0,525.0,520.0
515.0,502.0,524.0,521.0,520.0
514.0,501.0,522.0,518.0,519.0
516.0,502.0,521.0,520.0,514.0
516.0,504.0,520.0,513.0,513.0
521.0,510.0,521.0,516.0,517.0
523.0,516.0,521.0,522.0,512.0
524.0,517.0,520.0,519.0,514.0
527.0,519.0,516.0,516.0,513.0
524.0,518.0,509.0,512.0,512.0
516.0,513.0,506.0,507.0,513.0
504.0,507.0,498.0,504.0,511.0
495.0,502.0,496.0,498.0,513.0
495.0,497.0,496.0,499.0,518.0
500.0,501.0,504.0,507.0,518.0
512.0,501.0,513.0,514.0,518.0
518.0,503.0,520.0,520.0,516.0
518.0,503.0,522.0,521.0,516.0
517.0,502.0,523.0,521.0,514.0
513.0,503.0,523.0,519.0,515.0
513.0,503.0,526.0,521.0,511.0
512.0,506.0,519.0,515.0,507.0
512.0,509.0,519.0,516.0,511.0
523.0,517.0,520.0,518.0,510.0
524.0,520.0,520.0,520.0,512.0
521.0,521.0,515.0,514.0,514.0
514.0,516.0,507.0,509.0,508.0
507.0,507.0,500.0,503.0,513.0
503.0,503.0,497.0,498.0,505.0
497.0,495.0,491.0,497.0,514.0
499.0,495.0,497.0,502.0,519.0
504.0,496.0,506.0,511.0,523.0
509.0,500.0,516.0,519.0,520.0
511.0,499.0,519.0,518.0,520.0
509.0,499.0,520.0,517.0,515.0
506.0,498.0,516.0,517.0,519.0
508.0,498.0,515.0,515.0,518.0
512.0,502.0,519.0,514.0,513.0
518.0,507.0,521.0,512.0,514.0
523.0,508.0,519.0,512.0,511.0
527.0,515.0,517.0,516.0,507.0
525.0,519.0,521.0,518.0,507.0
519.0,515.0,511.0,516.0,506.0
514.0,514.0,506.0,510.0,508.0
511.0,509.0,500.0,505.0,512.0
504.0,507.0,496.0,503.0,517.0
502.0,502.0,501.0,500.0,523.0
499.0,498.0,504.0,506.0,525.0
506.0,500.0,515.0,513.0,523.0
514.0,501.0,518.0,517.0,518.0
518.0,502.0,522.0,520.0,518.0
514.0,501.0,523.0,520.0,520.0
513.0,499.0,520.0,517.0,520.0
515.0,502.0,522.0,519.0,519.0
515.0,505.0,520.0,516.0,520.0
519.0,510.0,518.0,516.0,515.0
526.0,515.0,523.0,519.0,508.0
531.0,518.0,520.0,520.0,502.0
531.0,520.0,520.0,518.0,501.0
523.0,518.0,511.0,513.0,504.0
517.0,513.0,503.0,512.0,508.0
510.0,506.0,500.0,508.0,510.0
503.0,500.0,496.0,501.0,516.0
498.0,497.0,495.0,504.0,517.0
502.0,498.0,505.0,508.0,518.0
503.0,499.0,514.0,514.0,519.0
510.0,500.0,519.0,517.0,515.0
521.0,503.0,524.0,523.0,513.0
518.0,503.0,523.0,521.0,514.0
517.0,502.0,521.0,517.0,510.0
520.0,503.0,523.0,516.0,509.0
515.0,505.0,519.0,515.0,513.0
516.0,509.0,519.0,514.0,512.0
521.0,515.0,521.0,523.0,502.0
523.0,517.0,519.0,520.0,506.0
524.0,516.0,513.0,517.0,503.0
519.0,514.0,510.0,513.0,505.0
511.0,510.0,501.0,507.0,515.0
508.0,506.0,500.0,505.0,520.0
502.0,499.0,497.0,501.0,522.0
498.0,497.0,498.0,504.0,525.0
500.0,498.0,508.0,509.0,534.0
504.0,506.0,518.0,518.0,527.0
507.0,500.0,521.0,521.0,523.0
511.0,506.0,525.0,523.0,523.0
507.0,501.0,522.0,522.0,525.0
511.0,500.0,519.0,516.0,521.0
516.0,504.0,515.0,514.0,519.0
519.0,505.0,519.0,516.0,513.0
520.0,506.0,515.0,510.0,507.0
525.0,511.0,517.0,518.0,501.0
523.0,516.0,514.0,514.0,500.0
523.0,518.0,509.0,516.0,504.0
511.0,510.0,504.0,509.0,507.0
507.0,507.0,500.0,501.0,508.0
502.0,501.0,490.0,502.0,514.0
498.0,496.0,495.0,499.0,517.0
498.0,496.0,499.0,503.0,514.0
506.0,499.0,509.0,513.0,512.0
508.0,501.0,518.0,517.0,508.0
510.0,503.0,522.0,522.0,503.0
509.0,502.0,524.0,521.0,509.0
503.0,499.0,520.0,516.0,514.0
497.0,500.0,516.0,506.0,527.0
503.0,503.0,520.0,516.0,529.0
508.0,507.0,518.0,515.0,516.0
523.0,512.0,521.0,523.0,512.0
523.0,515.0,519.0,522.0,512.0
523.0,517.0,514.0,516.0,506.0
525.0,515.0,509.0,511.0,506.0
516.0,508.0,501.0,508.0,509.0
505.0,504.0,499.0,505.0,512.0
500.0,500.0,497.0,502.0,509.0
494.0,498.0,497.0,502.0,516.0
508.0,498.0,499.0,508.0,520.0
536.0,501.0,513.0,514.0,514.0
529.0,502.0,519.0,520.0,520.0
515.0,502.0,524.0,527.0,515.0
504.0,499.0,525.0,525.0,521.0
508.0,502.0,524.0,517.0,515.0
511.0,507.0,521.0,517.0,515.0
508.0,510.0,522.0,518.0,519.0
508.0,509.0,522.0,522.0,517.0
524.0,518.0,523.0,518.0,511.0
548.0,523.0,523.0,521.0,504.0
535.0,524.0,516.0,519.0,504.0
524.0,516.0,507.0,509.0,506.0
519.0,508.0,500.0,506.0,507.0
513.0,506.0,498.0,504.0,507.0
511.0,502.0,496.0,501.0,510.0
510.0,500.0,503.0,505.0,506.0
506.0,500.0,509.0,510.0,521.0
511.0,502.0,518.0,521.0,519.0
512.0,500.0,522.0,521.0,516.0
519.0,505.0,527.0,525.0,516.0
508.0,499.0,525.0,523.0,518.0
516.0,501.0,520.0,514.0,523.0
513.0,507.0,521.0,515.0,518.0
516.0,509.0,520.0,519.0,516.0
511.0,510.0,521.0,516.0,516.0
514.0,515.0,525.0,518.0,510.0
512.0,518.0,519.0,518.0,507.0
517.0,517.0,515.0,515.0,508.0
511.0,513.0,507.0,509.0,513.0
512.0,509.0,501.0,504.0,518.0
509.0,502.0,496.0,500.0,524.0
510.0,500.0,501.0,502.0,525.0
507.0,503.0,504.0,508.0,523.0
515.0,501.0,513.0,513.0,513.0
514.0,499.0,518.0,520.0,506.0
520.0,501.0,524.0,520.0,503.0
519.0,503.0,529.0,522.0,506.0
516.0,500.0,522.0,519.0,508.0
513.0,500.0,521.0,514.0,512.0
517.0,504.0,519.0,515.0,518.0
515.0,505.0,518.0,510.0,521.0
520.0,508.0,518.0,514.0,515.0
523.0,516.0,520.0,516.0,509.0
528.0,520.0,522.0,519.0,502.0
515.0,512.0,510.0,511.0,506.0
513.0,512.0,500.0,504.0,509.0
505.0,505.0,498.0,497.0,515.0
499.0,501.0,495.0,501.0,522.0
501.0,496.0,497.0,500.0,526.0
501.0,497.0,506.0,506.0,525.0
506.0,499.0,512.0,515.0,526.0
513.0,501.0,523.0,517.0,517.0
517.0,503.0,525.0,524.0,509.0
514.0,502.0,525.0,521.0,517.0
513.0,500.0,521.0,518.0,519.0
513.0,502.0,525.0,515.0,513.0
513.0,504.0,520.0,509.0,514.0
515.0,513.0,521.0,516.0,514.0
522.0,518.0,522.0,523.0,506.0
530.0,516.0,521.0,519.0,503.0
525.0,513.0,515.0,515.0,504.0
519.0,514.0,510.0,511.0,509.0
516.0,510.0,507.0,506.0,513.0
508.0,505.0,499.0,502.0,515.0
504.0,501.0,500.0,499.0,519.0
504.0,495.0,500.0,502.0,518.0
506.0,499.0,508.0,509.0,526.0
511.0,501.0,520.0,518.0,520.0
516.0,501.0,522.0,521.0,517.0
514.0,504.0,527.0,523.0,513.0
512.0,502.0,525.0,523.0,516.0
508.0,499.0,521.0,515.0,516.0
510.0,501.0,522.0,516.0,519.0
513.0,506.0,523.0,524.0,511.0
520.0,512.0,524.0,519.0,509.0
519.0,517.0,524.0,520.0,509.0
521.0,518.0,520.0,521.0,507.0
521.0,514.0,514.0,518.0,504.0
515.0,513.0,508.0,511.0,505.0
507.0,508.0,501.0,505.0,510.0
504.0,503.0,496.0,501.0,510.0
500.0,495.0,496.0,498.0,517.0
497.0,498.0,503.0,504.0,517.0
505.0,500.0,510.0,514.0,514.0
509.0,503.0,519.0,519.0,518.0
514.0,500.0,522.0,521.0,520.0
519.0,502.0,526.0,521.0,516.0
519.0,503.0,523.0,519.0,516.0
518.0,504.0,523.0,523.0,518.0
518.0,509.0,524.0,522.0,515.0
522.0,505.0,521.0,517.0,522.0
519.0,514.0,517.0,512.0,519.0
521.0,516.0,519.0,516.0,515.0
525.0,519.0,520.0,518.0,515.0
520.0,523.0,514.0,515.0,512.0
513.0,515.0,502.0,508.0,509.0
505.0,505.0,499.0,503.0,509.0
496.0,499.0,493.0,502.0,507.0
498.0,498.0,500.0,504.0,516.0
502.0,500.0,507.0,509.0,521.0
508.0,500.0,517.0,513.0,522.0
515.0,501.0,520.0,516.0,519.0
519.0,501.0,520.0,518.0,517.0
508.0,500.0,522.0,514.0,521.0
502.0,497.0,518.0,511.0,521.0
508.0,499.0,520.0,512.0,515.0
512.0,503.0,519.0,514.0,516.0
512.0,506.0,517.0,512.0,517.0
516.0,510.0,516.0,512.0,511.0
522.0,518.0,520.0,517.0,507.0
523.0,519.0,515.0,517.0,505.0
519.0,512.0,506.0,509.0,512.0
509.0,508.0,503.0,502.0,514.0
503.0,502.0,495.0,500.0,516.0
497.0,499.0,497.0,500.0,521.0
496.0,497.0,500.0,506.0,523.0
501.0,500.0,510.0,514.0,518.0
507.0,500.0,519.0,516.0,512.0
511.0,503.0,521.0,520.0,515.0
515.0,502.0,526.0,521.0,520.0
514.0,502.0,524.0,522.0,517.0
517.0,502.0,522.0,517.0,515.0
512.0,503.0,521.0,520.0,516.0
515.0,506.0,522.0,518.0,516.0
518.0,511.0,518.0,517.0,515.0
520.0,519.0,521.0,519.0,507.0
524.0,517.0,519.0,513.0,505.0
515.0,519.0,513.0,515.0,513.0
507.0,512.0,506.0,513.0,513.0
507.0,511.0,501.0,506.0,511.0
500.0,502.0,498.0,501.0,516.0
493.0,497.0,498.0,500.0,521.0
490.0,497.0,503.0,507.0,519.0
514.0,501.0,510.0,512.0,516.0
520.0,503.0,516.0,512.0,509.0
522.0,501.0,523.0,520.0,513.0
515.0,502.0,524.0,524.0,516.0
512.0,500.0,522.0,518.0,517.0
517.0,501.0,520.0,515.0,516.0
525.0,506.0,521.0,514.0,513.0
526.0,509.0,525.0,516.0,513.0
529.0,513.0,524.0,517.0,514.0
526.0,519.0,522.0,520.0,507.0
524.0,517.0,517.0,518.0,506.0
519.0,516.0,514.0,515.0,508.0
511.0,509.0,504.0,506.0,506.0
504.0,505.0,505.0,505.0,513.0
498.0,501.0,496.0,497.0,517.0
496.0,497.0,498.0,503.0,519.0
505.0,498.0,503.0,507.0,519.0
505.0,499.0,513.0,515.0,518.0
507.0,501.0,520.0,521.0,516.0
522.0,504.0,528.0,522.0,514.0
520.0,503.0,524.0,519.0,518.0
521.0,504.0,526.0,517.0,519.0
520.0,504.0,523.0,519.0,516.0
520.0,506.0,522.0,520.0,514.0
518.0,507.0,520.0,515.0,511.0
523.0,513.0,523.0,520.0,509.0
531.0,518.0,521.0,520.0,505.0
525.0,517.0,520.0,518.0,506.0
521.0,515.0,510.0,515.0,511.0
513.0,508.0,502.0,506.0,513.0
506.0,503.0,494.0,503.0,519.0
497.0,499.0,496.0,502.0,527.0
494.0,496.0,498.0,502.0,529.0
496.0,496.0,504.0,506.0,526.0
501.0,499.0,513.0,516.0,520.0
508.0,501.0,518.0,521.0,519.0
516.0,502.0,525.0,524.0,514.0
519.0,499.0,522.0,519.0,511.0
516.0,502.0,518.0,514.0,518.0
517.0,502.0,518.0,515.0,516.0
520.0,509.0,523.0,515.0,515.0
519.0,510.0,521.0,518.0,514.0
520.0,510.0,518.0,516.0,511.0
520.0,515.0,518.0,517.0,504.0
520.0,514.0,512.0,515.0,497.0
515.0,514.0,507.0,513.0,499.0
507.0,508.0,501.0,507.0,508.0
502.0,502.0,497.0,506.0,511.0
504.0,499.0,498.0,501.0,519.0
500.0,497.0,502.0,503.0,527.0
508.0,499.0,515.0,511.0,523.0
514.0,503.0,518.0,518.0,522.0
513.0,501.0,524.0,520.0,520.0
516.0,500.0,526.0,522.0,517.0
518.0,502.0,524.0,518.0,515.0
518.0,500.0,524.0,517.0,515.0
517.0,503.0,520.0,514.0,516.0
516.0,512.0,522.0,521.0,515.0
520.0,515.0,524.0,522.0,514.0
523.0,518.0,523.0,522.0,515.0
521.0,520.0,520.0,525.0,510.0
518.0,517.0,518.0,516.0,509.0
512.0,511.0,506.0,508.0,503.0
510.0,504.0,500.0,502.0,503.0
506.0,496.0,498.0,504.0,510.0
500.0,495.0,497.0,503.0,517.0
504.0,494.0,504.0,510.0,508.0
514.0,500.0,514.0,514.0,508.0
514.0,503.0,520.0,518.0,510.0
511.0,501.0,523.0,522.0,518.0
510.0,500.0,523.0,520.0,521.0
511.0,500.0,521.0,520.0,522.0
513.0,503.0,521.0,516.0,517.0
512.0,508.0,522.0,517.0,509.0
518.0,509.0,522.0,519.0,506.0
520.0,515.0,526.0,520.0,505.0
522.0,518.0,518.0,520.0,499.0
523.0,516.0,516.0,515.0,495.0
515.0,514.0,510.0,510.0,514.0
510.0,509.0,501.0,508.0,514.0
506.0,508.0,500.0,505.0,511.0
497.0,503.0,496.0,500.0,519.0
495.0,496.0,499.0,503.0,521.0
501.0,497.0,506.0,508.0,522.0
507.0,500.0,515.0,516.0,520.0
510.0,501.0,520.0,521.0,518.0
513.0,503.0,526.0,523.0,517.0
511.0,501.0,524.0,519.0,521.0
514.0,502.0,525.0,517.0,512.0
511.0,507.0,521.0,518.0,511.0
513.0,508.0,520.0,514.0,514.0
518.0,510.0,524.0,515.0,508.0
523.0,516.0,522.0,521.0,504.0
525.0,517.0,515.0,519.0,501.0
522.0,517.0,515.0,518.0,502.0
515.0,514.0,507.0,513.0,510.0
510.0,508.0,501.0,505.0,520.0
503.0,504.0,495.0,500.0,519.0
499.0,498.0,495.0,504.0,521.0
503.0,497.0,499.0,502.0,522.0
504.0,499.0,508.0,510.0,515.0
508.0,501.0,515.0,514.0,520.0
514.0,501.0,520.0,522.0,519.0
511.0,500.0,519.0,518.0,520.0
508.0,497.0,515.0,514.0,521.0
513.0,501.0,520.0,514.0,518.0
515.0,504.0,520.0,515.0,514.0
513.0,507.0,518.0,513.0,514.0
518.0,510.0,518.0,518.0,511.0
523.0,516.0,522.0,520.0,506.0
523.0,518.0,518.0,521.0,499.0
519.0,516.0,512.0,517.0,504.0
515.0,512.0,508.0,511.0,506.0
512.0,506.0,500.0,506.0,513.0
504.0,502.0,498.0,502.0,516.0
503.0,498.0,498.0,505.0,517.0
507.0,499.0,509.0,509.0,515.0
510.0,500.0,512.0,515.0,508.0
515.0,502.0,524.0,522.0,509.0
513.0,503.0,524.0,525.0,502.0
515.0,502.0,522.0,524.0,502.0
513.0,501.0,522.0,519.0,511.0
513.0,503.0,522.0,521.0,513.0
517.0,505.0,525.0,518.0,515.0
518.0,507.0,519.0,518.0,506.0
523.0,515.0,521.0,516.0,505.0
524.0,520.0,522.0,523.0,504.0
523.0,518.0,516.0,516.0,501.0
513.0,514.0,514.0,515.0,504.0
514.0,511.0,503.0,507.0,510.0
503.0,504.0,498.0,504.0,514.0
496.0,501.0,495.0,501.0,518.0
493.0,495.0,497.0,499.0,521.0
503.0,495.0,500.0,509.0,522.0
508.0,498.0,515.0,517.0,519.0
510.0,499.0,521.0,521.0,519.0
511.0,504.0,525.0,524.0,516.0
521.0,503.0,525.0,524.0,512.0
520.0,503.0,523.0,520.0,511.0
524.0,503.0,520.0,516.0,508.0
523.0,505.0,521.0,514.0,509.0
517.0,509.0,519.0,516.0,512.0
524.0,522.0,522.0,520.0,510.0
531.0,522.0,519.0,519.0,505.0
524.0,522.0,514.0,519.0,506.0
516.0,513.0,507.0,510.0,510.0
512.0,504.0,500.0,505.0,517.0
504.0,509.0,498.0,502.0,520.0
500.0,501.0,498.0,502.0,519.0
500.0,499.0,508.0,508.0,521.0
506.0,498.0,509.0,512.0,518.0
514.0,502.0,518.0,519.0,514.0
512.0,504.0,523.0,527.0,514.0
512.0,503.0,526.0,526.0,517.0
516.0,502.0,522.0,520.0,518.0
514.0,500.0,520.0,516.0,521.0
515.0,506.0,520.0,512.0,519.0
516.0,509.0,519.0,515.0,515.0
520.0,511.0,524.0,516.0,518.0
521.0,517.0,520.0,519.0,510.0
522.0,518.0,517.0,518.0,504.0
514.0,515.0,511.0,514.0,506.0
508.0,509.0,501.0,503.0,509.0
504.0,504.0,498.0,501.0,514.0
501.0,500.0,494.0,499.0,517.0
503.0,496.0,497.0,500.0,519.0
501.0,495.0,501.0,503.0,518.0
506.0,496.0,508.0,508.0,520.0
510.0,502.0,519.0,517.0,518.0
512.0,502.0,526.0,523.0,518.0
513.0,503.0,525.0,523.0,518.0
505.0,498.0,522.0,514.0,522.0
509.0,499.0,517.0,512.0,521.0
513.0,504.0,519.0,516.0,518.0
519.0,510.0,519.0,516.0,509.0
524.0,517.0,522.0,520.0,506.0
534.0,517.0,521.0,519.0,505.0
530.0,520.0,520.0,518.0,509.0
521.0,515.0,510.0,513.0,510.0
512.0,513.0,504.0,503.0,514.0
507.0,505.0,499.0,500.0,513.0
502.0,501.0,500.0,500.0,525.0
505.0,499.0,499.0,502.0,527.0
507.0,499.0,506.0,508.0,522.0
516.0,502.0,515.0,516.0,519.0
515.0,501.0,519.0,515.0,509.0
519.0,503.0,524.0,522.0,509.0
523.0,503.0,527.0,520.0,518.0
516.0,502.0,521.0,516.0,516.0
514.0,502.0,517.0,517.0,518.0
513.0,505.0,520.0,515.0,518.0
516.0,510.0,519.0,518.0,511.0
524.0,514.0,520.0,520.0,504.0
529.0,520.0,522.0,521.0,500.0
523.0,516.0,514.0,518.0,501.0
519.0,508.0,506.0,510.0,505.0
509.0,508.0,502.0,506.0,511.0
508.0,503.0,497.0,505.0,511.0
504.0,501.0,499.0,501.0,527.0
499.0,497.0,501.0,510.0,525.0
504.0,498.0,508.0,510.0,521.0
514.0,501.0,521.0,517.0,515.0
514.0,505.0,521.0,519.0,516.0
516.0,504.0,526.0,523.0,515.0
513.0,501.0,522.0,520.0,518.0
511.0,501.0,520.0,516.0,514.0
513.0,502.0,520.0,516.0,519.0
515.0,511.0,521.0,515.0,518.0
521.0,511.0,520.0,516.0,518.0
522.0,514.0,521.0,519.0,509.0
526.0,518.0,521.0,519.0,504.0
525.0,515.0,508.0,514.0,504.0
515.0,510.0,504.0,507.0,509.0
510.0,505.0,499.0,505.0,515.0
504.0,500.0,493.0,500.0,521.0
502.0,498.0,496.0,501.0,523.0
504.0,497.0,502.0,507.0,522.0
507.0,498.0,510.0,514.0,520.0
510.0,502.0,519.0,521.0,515.0
516.0,504.0,524.0,520.0,514.0
513.0,504.0,524.0,520.0,515.0
508.0,500.0,521.0,517.0,518.0
510.0,504.0,519.0,516.0,516.0
514.0,508.0,519.0,518.0,511.0
519.0,512.0,518.0,518.0,506.0
526.0,514.0,522.0,520.0,504.0
527.0,517.0,520.0,520.0,505.0
523.0,517.0,514.0,515.0,509.0
519.0,517.0,506.0,513.0,511.0
510.0,512.0,499.0,505.0,514.0
508.0,505.0,500.0,503.0,512.0
502.0,499.0,494.0,501.0,517.0
495.0,498.0,496.0,500.0,524.0
502.0,500.0,509.0,509.0,519.0
505.0,500.0,511.0,519.0,518.0
514.0,500.0,518.0,521.0,513.0
514.0,501.0,523.0,527.0,510.0
511.0,499.0,523.0,519.0,514.0
507.0,499.0,523.0,515.0,518.0
511.0,501.0,519.0,513.0,514.0
518.0,508.0,521.0,516.0,510.0
517.0,511.0,521.0,518.0,512.0
524.0,514.0,521.0,521.0,505.0
528.0,519.0,521.0,521.0,501.0
521.0,518.0,514.0,512.0,505.0
519.0,511.0,508.0,510.0,509.0
510.0,509.0,503.0,506.0,510.0
502.0,504.0,497.0,505.0,517.0
499.0,499.0,496.0,501.0,521.0
496.0,495.0,499.0,504.0,521.0
496.0,500.0,506.0,511.0,519.0
496.0,498.0,515.0,516.0,518.0
506.0,500.0,521.0,525.0,516.0
510.0,506.0,525.0,524.0,521.0
507.0,502.0,522.0,520.0,519.0
513.0,501.0,521.0,517.0,516.0
521.0,507.0,523.0,517.0,511.0
548.0,510.0,523.0,522.0,506.0
537.0,514.0,522.0,515.0,513.0
528.0,515.0,520.0,516.0,512.0
525.0,519.0,518.0,519.0,509.0
521.0,517.0,513.0,515.0,513.0
513.0,513.0,507.0,511.0,512.0
508.0,509.0,504.0,503.0,515.0
502.0,505.0,497.0,499.0,517.0
504.0,498.0,497.0,501.0,521.0
505.0,499.0,504.0,506.0,518.0
510.0,501.0,511.0,513.0,518.0
513.0,506.0,518.0,519.0,514.0
522.0,503.0,523.0,522.0,511.0
516.0,505.0,529.0,523.0,512.0
515.0,503.0,522.0,519.0,519.0
515.0,501.0,520.0,515.0,517.0
514.0,507.0,519.0,514.0,515.0
518.0,508.0,522.0,516.0,510.0
522.0,514.0,520.0,520.0,504.0
526.0,517.0,521.0,522.0,503.0
526.0,518.0,517.0,514.0,508.0
525.0,516.0,511.0,516.0,507.0
512.0,511.0,503.0,507.0,508.0
501.0,511.0,501.0,503.0,511.0
499.0,498.0,494.0,498.0,514.0
501.0,497.0,497.0,501.0,518.0
500.0,497.0,505.0,508.0,521.0
506.0,500.0,517.0,517.0,518.0
512.0,501.0,521.0,522.0,518.0
515.0,501.0,527.0,521.0,515.0
516.0,501.0,524.0,519.0,518.0
514.0,501.0,521.0,515.0,519.0
512.0,502.0,520.0,514.0,520.0
514.0,505.0,521.0,512.0,519.0
518.0,508.0,519.0,515.0,514.0
525.0,518.0,524.0,524.0,508.0
524.0,520.0,523.0,521.0,505.0
519.0,517.0,515.0,517.0,500.0
513.0,517.0,508.0,509.0,501.0
504.0,507.0,496.0,504.0,506.0
503.0,506.0,499.0,503.0,512.0
498.0,498.0,496.0,499.0,527.0
499.0,493.0,499.0,498.0,532.0
498.0,497.0,506.0,509.0,528.0
508.0,501.0,517.0,516.0,523.0
512.0,504.0,524.0,521.0,518.0
515.0,503.0,526.0,522.0,514.0
514.0,502.0,526.0,520.0,510.0
510.0,504.0,521.0,516.0,512.0
513.0,504.0,518.0,515.0,511.0
516.0,507.0,522.0,516.0,508.0
520.0,512.0,520.0,517.0,507.0
524.0,517.0,523.0,519.0,504.0
527.0,519.0,519.0,522.0,504.0
522.0,521.0,514.0,515.0,505.0
515.0,513.0,506.0,509.0,508.0
506.0,505.0,502.0,505.0,520.0
500.0,504.0,497.0,501.0,521.0
497.0,500.0,499.0,503.0,519.0
500.0,499.0,503.0,508.0,521.0
506.0,503.0,510.0,511.0,519.0
510.0,501.0,519.0,518.0,518.0
511.0,502.0,527.0,523.0,516.0
512.0,505.0,528.0,523.0,518.0
509.0,502.0,523.0,518.0,519.0
511.0,501.0,521.0,516.0,516.0
518.0,506.0,522.0,517.0,515.0
517.0,504.0,521.0,516.0,516.0
521.0,515.0,523.0,519.0,515.0
523.0,519.0,522.0,522.0,513.0
526.0,520.0,517.0,518.0,507.0
520.0,517.0,510.0,515.0,505.0
513.0,509.0,503.0,508.0,510.0
506.0,506.0,497.0,501.0,511.0
501.0,504.0,499.0,501.0,514.0
500.0,497.0,500.0,504.0,510.0
505.0,502.0,505.0,510.0,514.0
509.0,500.0,513.0,516.0,514.0
513.0,502.0,519.0,522.0,513.0
518.0,506.0,525.0,523.0,514.0
515.0,504.0,525.0,519.0,514.0
511.0,502.0,522.0,518.0,516.0
513.0,506.0,524.0,517.0,515.0
518.0,507.0,523.0,517.0,509.0
519.0,510.0,522.0,519.0,509.0
521.0,513.0,520.0,519.0,508.0
522.0,517.0,519.0,519.0,507.0
525.0,519.0,518.0,516.0,507.0
517.0,515.0,508.0,512.0,510.0
509.0,512.0,500.0,504.0,514.0
504.0,504.0,499.0,504.0,516.0
497.0,500.0,497.0,507.0,519.0
498.0,497.0,500.0,507.0,520.0
505.0,499.0,509.0,513.0,522.0
513.0,501.0,520.0,515.0,517.0
513.0,506.0,523.0,521.0,516.0
516.0,502.0,526.0,525.0,516.0
521.0,501.0,524.0,520.0,515.0
520.0,503.0,520.0,521.0,511.0
517.0,505.0,522.0,519.0,512.0
511.0,510.0,522.0,516.0,514.0
513.0,513.0,518.0,516.0,509.0
517.0,516.0,518.0,514.0,506.0
520.0,523.0,519.0,517.0,509.0
519.0,518.0,514.0,514.0,508.0
513.0,512.0,507.0,508.0,509.0
502.0,508.0,502.0,502.0,512.0
496.0,497.0,494.0,498.0,518.0
493.0,499.0,497.0,502.0,524.0
493.0,499.0,505.0,505.0,528.0
504.0,501.0,512.0,513.0,526.0
510.0,504.0,520.0,520.0,524.0
516.0,503.0,525.0,522.0,523.0
515.0,505.0,526.0,523.0,510.0
516.0,503.0,524.0,520.0,506.0
519.0,503.0,525.0,518.0,507.0
522.0,505.0,522.0,519.0,509.0
520.0,508.0,527.0,521.0,509.0
530.0,513.0,524.0,526.0,502.0
530.0,515.0,527.0,526.0,503.0
530.0,523.0,524.0,522.0,504.0
517.0,521.0,517.0,513.0,512.0
510.0,516.0,505.0,508.0,507.0
504.0,508.0,499.0,505.0,511.0
499.0,501.0,497.0,502.0,511.0
500.0,499.0,496.0,505.0,516.0
500.0,500.0,507.0,510.0,514.0
506.0,500.0,514.0,519.0,516.0
513.0,505.0,523.0,523.0,520.0
521.0,506.0,526.0,521.0,519.0
516.0,505.0,529.0,523.0,520.0
512.0,501.0,520.0,517.0,520.0
516.0,505.0,523.0,517.0,516.0
523.0,508.0,526.0,517.0,514.0
521.0,511.0,519.0,518.0,507.0
525.0,520.0,524.0,522.0,504.0
524.0,517.0,521.0,521.0,506.0
522.0,520.0,516.0,513.0,504.0
517.0,516.0,510.0,515.0,506.0
509.0,510.0,503.0,509.0,514.0
504.0,507.0,501.0,509.0,515.0
502.0,502.0,500.0,507.0,518.0
502.0,499.0,501.0,506.0,519.0
506.0,499.0,510.0,513.0,518.0
512.0,502.0,518.0,519.0,520.0
513.0,503.0,523.0,522.0,516.0
515.0,504.0,526.0,523.0,514.0
516.0,504.0,529.0,522.0,515.0
512.0,504.0,527.0,519.0,515.0
511.0,503.0,522.0,518.0,514.0
516.0,508.0,521.0,513.0,510.0
520.0,512.0,521.0,522.0,507.0
523.0,518.0,524.0,523.0,506.0
524.0,518.0,517.0,520.0,501.0
523.0,517.0,513.0,516.0,501.0
514.0,513.0,507.0,512.0,507.0
510.0,509.0,502.0,507.0,509.0
502.0,502.0,496.0,502.0,515.0
499.0,503.0,497.0,502.0,523.0
503.0,499.0,506.0,506.0,525.0
504.0,499.0,509.0,514.0,520.0
511.0,502.0,521.0,518.0,519.0
512.0,503.0,521.0,523.0,518.0
513.0,503.0,526.0,524.0,518.0
512.0,501.0,522.0,519.0,521.0
508.0,503.0,518.0,515.0,527.0
514.0,504.0,519.0,516.0,521.0
517.0,510.0,521.0,520.0,518.0
520.0,515.0,522.0,520.0,513.0
524.0,518.0,521.0,526.0,509.0
522.0,516.0,513.0,517.0,506.0
515.0,514.0,509.0,513.0,508.0
510.0,509.0,502.0,504.0,514.0
510.0,508.0,500.0,505.0,509.0
500.0,501.0,496.0,504.0,513.0
499.0,499.0,501.0,506.0,518.0
505.0,501.0,508.0,515.0,515.0
509.0,501.0,515.0,521.0,510.0
512.0,502.0,521.0,522.0,507.0
512.0,505.0,526.0,525.0,508.0
513.0,504.0,524.0,524.0,508.0
516.0,503.0,523.0,520.0,505.0
516.0,506.0,525.0,518.0,515.0
518.0,507.0,521.0,518.0,508.0
525.0,512.0,524.0,519.0,509.0
523.0,513.0,524.0,523.0,514.0
528.0,519.0,520.0,519.0,512.0
526.0,520.0,514.0,518.0,506.0
517.0,521.0,509.0,513.0,508.0
506.0,509.0,501.0,506.0,513.0
505.0,508.0,501.0,505.0,513.0
502.0,505.0,497.0,503.0,517.0
505.0,500.0,502.0,504.0,516.0
504.0,500.0,508.0,511.0,517.0
513.0,504.0,518.0,519.0,516.0
515.0,507.0,523.0,518.0,516.0
515.0,505.0,526.0,524.0,518.0
517.0,506.0,526.0,523.0,515.0
514.0,505.0,526.0,518.0,521.0
514.0,506.0,523.0,521.0,515.0
519.0,510.0,523.0,521.0,511.0
520.0,514.0,521.0,520.0,505.0
527.0,518.0,524.0,525.0,503.0
531.0,517.0,520.0,522.0,500.0
520.0,522.0,514.0,518.0,506.0
513.0,516.0,505.0,510.0,507.0
508.0,512.0,503.0,510.0,510.0
498.0,504.0,497.0,501.0,514.0
496.0,500.0,499.0,500.0,519.0
500.0,500.0,505.0,504.0,525.0
505.0,504.0,511.0,512.0,523.0
511.0,503.0,520.0,518.0,520.0
514.0,510.0,526.0,523.0,518.0
516.0,505.0,527.0,525.0,515.0
516.0,503.0,524.0,519.0,521.0
509.0,503.0,523.0,517.0,523.0
514.0,508.0,523.0,519.0,514.0
517.0,512.0,523.0,521.0,507.0
521.0,514.0,524.0,523.0,505.0
518.0,517.0,523.0,526.0,504.0
525.0,523.0,517.0,521.0,501.0
526.0,518.0,511.0,516.0,503.0
521.0,514.0,505.0,511.0,509.0
509.0,514.0,503.0,505.0,514.0
501.0,502.0,495.0,503.0,521.0
504.0,501.0,502.0,503.0,523.0
499.0,501.0,503.0,506.0,518.0
501.0,499.0,511.0,515.0,516.0
510.0,503.0,520.0,524.0,513.0
517.0,506.0,529.0,525.0,517.0
514.0,504.0,527.0,524.0,516.0
515.0,502.0,522.0,520.0,514.0
518.0,508.0,524.0,518.0,514.0
513.0,509.0,524.0,519.0,520.0
515.0,512.0,521.0,520.0,513.0
519.0,514.0,523.0,518.0,505.0
521.0,519.0,520.0,518.0,502.0
523.0,519.0,517.0,516.0,505.0
526.0,516.0,509.0,511.0,508.0
517.0,511.0,505.0,507.0,514.0
507.0,507.0,499.0,503.0,515.0
501.0,501.0,498.0,502.0,518.0
499.0,502.0,503.0,507.0,518.0
503.0,502.0,512.0,514.0,517.0
509.0,503.0,519.0,519.0,515.0
507.0,503.0,523.0,522.0,511.0
513.0,507.0,530.0,527.0,510.0
514.0,503.0,525.0,523.0,508.0
510.0,503.0,519.0,518.0,509.0
515.0,506.0,521.0,517.0,515.0
512.0,506.0,523.0,519.0,521.0
519.0,513.0,523.0,518.0,516.0
532.0,524.0,525.0,523.0,507.0
539.0,524.0,523.0,523.0,503.0
528.0,520.0,515.0,517.0,511.0
518.0,517.0,509.0,511.0,512.0
509.0,510.0,504.0,507.0,513.0
505.0,510.0,499.0,502.0,518.0
504.0,504.0,500.0,506.0,520.0
506.0,501.0,504.0,509.0,519.0
504.0,501.0,510.0,512.0,516.0
514.0,504.0,520.0,520.0,511.0
518.0,507.0,526.0,523.0,512.0
516.0,507.0,526.0,524.0,512.0
513.0,507.0,524.0,521.0,516.0
512.0,507.0,524.0,518.0,516.0
513.0,507.0,521.0,515.0,515.0
519.0,511.0,525.0,519.0,511.0
523.0,516.0,524.0,523.0,511.0
530.0,523.0,529.0,523.0,506.0
530.0,526.0,520.0,520.0,500.0
525.0,521.0,515.0,516.0,506.0
518.0,517.0,505.0,508.0,510.0
513.0,509.0,500.0,505.0,514.0
508.0,506.0,496.0,505.0,520.0
507.0,507.0,502.0,503.0,527.0
504.0,500.0,505.0,510.0,525.0
511.0,502.0,516.0,522.0,521.0
513.0,504.0,522.0,524.0,522.0
511.0,503.0,525.0,522.0,516.0
512.0,506.0,528.0,524.0,513.0
511.0,504.0,529.0,521.0,511.0
511.0,504.0,523.0,521.0,515.0
514.0,506.0,521.0,513.0,515.0
520.0,509.0,519.0,517.0,507.0
526.0,518.0,524.0,521.0,505.0
526.0,520.0,522.0,524.0,504.0
525.0,524.0,517.0,522.0,503.0
518.0,518.0,508.0,515.0,505.0
507.0,509.0,500.0,504.0,507.0
504.0,508.0,497.0,503.0,514.0
499.0,500.0,493.0,500.0,523.0
501.0,500.0,501.0,504.0,523.0
506.0,504.0,509.0,511.0,523.0
507.0,504.0,521.0,518.0,523.0
513.0,503.0,521.0,517.0,521.0
513.0,505.0,527.0,524.0,516.0
515.0,501.0,523.0,519.0,518.0
510.0,500.0,519.0,513.0,517.0
514.0,505.0,525.0,514.0,515.0
516.0,508.0,521.0,516.0,513.0
517.0,512.0,521.0,513.0,512.0
523.0,517.0,521.0,522.0,508.0
526.0,523.0,522.0,521.0,506.0
521.0,519.0,516.0,517.0,508.0
518.0,517.0,509.0,510.0,511.0
515.0,511.0,506.0,505.0,518.0
506.0,505.0,498.0,498.0,520.0
502.0,507.0,501.0,503.0,521.0
503.0,502.0,506.0,507.0,519.0
509.0,507.0,515.0,516.0,519.0
510.0,503.0,519.0,519.0,517.0
518.0,504.0,525.0,525.0,515.0
519.0,506.0,530.0,525.0,513.0
513.0,504.0,525.0,523.0,516.0
512.0,506.0,522.0,515.0,514.0
514.0,508.0,523.0,518.0,517.0
517.0,511.0,522.0,522.0,515.0
522.0,514.0,524.0,519.0,507.0
524.0,518.0,523.0,520.0,506.0
525.0,522.0,523.0,521.0,509.0
522.0,522.0,519.0,518.0,509.0
516.0,515.0,507.0,510.0,516.0
508.0,509.0,505.0,506.0,514.0
501.0,508.0,498.0,502.0,518.0
503.0,502.0,500.0,505.0,521.0
507.0,502.0,508.0,511.0,521.0
512.0,503.0,515.0,514.0,518.0
515.0,505.0,522.0,524.0,513.0
513.0,505.0,528.0,525.0,517.0
514.0,507.0,530.0,526.0,518.0
509.0,503.0,522.0,515.0,517.0
510.0,504.0,522.0,517.0,521.0
513.0,507.0,527.0,517.0,517.0
521.0,510.0,521.0,520.0,512.0
525.0,517.0,524.0,520.0,506.0
522.0,520.0,525.0,520.0,503.0
523.0,520.0,518.0,522.0,503.0
519.0,518.0,510.0,512.0,502.0
513.0,511.0,504.0,505.0,514.0
507.0,510.0,501.0,505.0,516.0
503.0,503.0,499.0,502.0,523.0
502.0,498.0,501.0,504.0,521.0
508.0,497.0,509.0,512.0,523.0
508.0,508.0,518.0,517.0,524.0
508.0,506.0,524.0,522.0,522.0
509.0,503.0,526.0,526.0,519.0
510.0,507.0,527.0,522.0,520.0
509.0,500.0,522.0,517.0,520.0
514.0,507.0,523.0,517.0,517.0
517.0,510.0,524.0,517.0,515.0
522.0,511.0,521.0,518.0,511.0
525.0,515.0,522.0,519.0,505.0
526.0,520.0,523.0,525.0,507.0
525.0,520.0,514.0,514.0,508.0
517.0,516.0,504.0,508.0,513.0
508.0,507.0,497.0,500.0,518.0
503.0,502.0,496.0,498.0,524.0
504.0,495.0,497.0,500.0,522.0
504.0,501.0,501.0,504.0,522.0
507.0,501.0,511.0,510.0,522.0
506.0,500.0,513.0,512.0,521.0
507.0,505.0,521.0,521.0,520.0
509.0,505.0,527.0,526.0,521.0
509.0,508.0,526.0,519.0,524.0
510.0,508.0,525.0,517.0,522.0
511.0,505.0,521.0,517.0,519.0
511.0,508.0,519.0,519.0,516.0
519.0,514.0,524.0,519.0,508.0
526.0,517.0,523.0,520.0,507.0
528.0,521.0,519.0,519.0,505.0
525.0,521.0,516.0,516.0,505.0
518.0,514.0,503.0,510.0,505.0
511.0,510.0,504.0,505.0,512.0
501.0,502.0,496.0,500.0,520.0
498.0,500.0,500.0,502.0,523.0
502.0,500.0,507.0,508.0,523.0
508.0,503.0,516.0,517.0,522.0
509.0,502.0,525.0,521.0,520.0
514.0,502.0,525.0,523.0,517.0
515.0,503.0,527.0,521.0,514.0
512.0,503.0,523.0,521.0,514.0
512.0,506.0,524.0,521.0,521.0
511.0,508.0,525.0,518.0,511.0
515.0,511.0,521.0,518.0,504.0
523.0,517.0,524.0,521.0,503.0
527.0,520.0,524.0,525.0,504.0
523.0,524.0,518.0,522.0,505.0
511.0,515.0,511.0,509.0,511.0
507.0,509.0,504.0,509.0,518.0
515.0,507.0,500.0,502.0,519.0
505.0,502.0,498.0,501.0,517.0
506.0,500.0,501.0,500.0,517.0
507.0,502.0,509.0,513.0,516.0
512.0,504.0,517.0,516.0,508.0
516.0,504.0,523.0,520.0,503.0
520.0,506.0,528.0,523.0,504.0
516.0,504.0,526.0,521.0,509.0
511.0,503.0,522.0,516.0,515.0
514.0,505.0,522.0,517.0,519.0
516.0,510.0,525.0,516.0,519.0
517.0,512.0,522.0,516.0,517.0
527.0,518.0,523.0,519.0,512.0
525.0,524.0,519.0,515.0,504.0
526.0,521.0,517.0,516.0,505.0
517.0,515.0,512.0,511.0,511.0
511.0,511.0,505.0,504.0,513.0
500.0,505.0,497.0,501.0,520.0
501.0,501.0,497.0,500.0,521.0
502.0,500.0,503.0,505.0,523.0
507.0,501.0,508.0,511.0,520.0
509.0,503.0,519.0,518.0,517.0
513.0,506.0,525.0,521.0,516.0
515.0,504.0,526.0,522.0,517.0
513.0,504.0,523.0,518.0,518.0
514.0,504.0,523.0,516.0,517.0
513.0,506.0,519.0,514.0,516.0
512.0,508.0,520.0,513.0,516.0
515.0,512.0,517.0,513.0,514.0
524.0,520.0,520.0,518.0,506.0
528.0,523.0,523.0,518.0,509.0
523.0,519.0,511.0,512.0,507.0
514.0,516.0,502.0,505.0,510.0
502.0,508.0,500.0,501.0,514.0
503.0,505.0,494.0,499.0,517.0
497.0,499.0,495.0,502.0,520.0
497.0,496.0,503.0,504.0,523.0
505.0,503.0,509.0,516.0,521.0
513.0,505.0,520.0,519.0,519.0
513.0,505.0,523.0,521.0,516.0
516.0,506.0,525.0,520.0,511.0
513.0,508.0,522.0,513.0,514.0
513.0,506.0,523.0,517.0,514.0
515.0,509.0,522.0,517.0,512.0
518.0,511.0,519.0,515.0,513.0
520.0,516.0,522.0,517.0,506.0
524.0,523.0,520.0,518.0,505.0
522.0,521.0,515.0,513.0,505.0
520.0,519.0,511.0,514.0,507.0
513.0,513.0,504.0,506.0,506.0
512.0,509.0,499.0,504.0,508.0
506.0,500.0,493.0,501.0,515.0
500.0,500.0,499.0,503.0,522.0
504.0,508.0,508.0,512.0,519.0
514.0,506.0,516.0,517.0,521.0
514.0,506.0,526.0,522.0,520.0
518.0,506.0,524.0,523.0,514.0
515.0,508.0,524.0,520.0,514.0
515.0,505.0,519.0,517.0,517.0
513.0,508.0,521.0,516.0,517.0
514.0,510.0,520.0,516.0,515.0
513.0,516.0,524.0,516.0,514.0
520.0,518.0,520.0,518.0,507.0
530.0,523.0,520.0,522.0,503.0
525.0,520.0,513.0,511.0,508.0
518.0,516.0,501.0,510.0,512.0
507.0,509.0,498.0,504.0,517.0
502.0,505.0,495.0,497.0,523.0
498.0,501.0,496.0,502.0,523.0
500.0,501.0,502.0,505.0,520.0
502.0,504.0,509.0,513.0,520.0
507.0,504.0,518.0,521.0,519.0
513.0,507.0,528.0,522.0,521.0
515.0,507.0,526.0,523.0,514.0
511.0,506.0,523.0,518.0,506.0
513.0,506.0,523.0,516.0,513.0
515.0,508.0,521.0,516.0,510.0
515.0,511.0,522.0,516.0,512.0
518.0,516.0,522.0,517.0,509.0
523.0,522.0,522.0,519.0,504.0
524.0,524.0,519.0,520.0,503.0
521.0,519.0,516.0,516.0,506.0
515.0,515.0,506.0,511.0,509.0
512.0,510.0,500.0,504.0,511.0
504.0,503.0,497.0,499.0,516.0
503.0,504.0,497.0,503.0,520.0
505.0,500.0,503.0,508.0,519.0
507.0,502.0,512.0,515.0,521.0
511.0,503.0,519.0,519.0,521.0
511.0,505.0,524.0,527.0,513.0
515.0,509.0,525.0,521.0,516.0
510.0,503.0,522.0,518.0,523.0
510.0,507.0,518.0,513.0,518.0
514.0,506.0,518.0,513.0,512.0
516.0,514.0,519.0,518.0,510.0
523.0,519.0,521.0,520.0,508.0
523.0,519.0,520.0,518.0,505.0
521.0,519.0,514.0,520.0,508.0
520.0,516.0,511.0,513.0,509.0
515.0,513.0,499.0,508.0,509.0
507.0,510.0,498.0,504.0,514.0
502.0,502.0,494.0,499.0,519.0
497.0,496.0,497.0,501.0,516.0
501.0,499.0,506.0,509.0,521.0
509.0,502.0,516.0,518.0,517.0
511.0,504.0,522.0,521.0,518.0
515.0,506.0,526.0,524.0,516.0
514.0,505.0,528.0,524.0,520.0
514.0,504.0,523.0,518.0,519.0
517.0,508.0,526.0,517.0,514.0
518.0,511.0,527.0,519.0,510.0
517.0,517.0,523.0,521.0,514.0
519.0,516.0,522.0,523.0,508.0
529.0,522.0,515.0,519.0,500.0
521.0,519.0,515.0,517.0,505.0
518.0,516.0,509.0,514.0,508.0
518.0,511.0,503.0,509.0,512.0
505.0,505.0,498.0,500.0,518.0
500.0,502.0,500.0,504.0,523.0
502.0,501.0,504.0,509.0,524.0
506.0,502.0,512.0,514.0,524.0
511.0,503.0,520.0,519.0,522.0
515.0,503.0,523.0,522.0,520.0
512.0,511.0,528.0,525.0,519.0
517.0,505.0,525.0,524.0,514.0
515.0,503.0,520.0,518.0,515.0
515.0,504.0,521.0,521.0,513.0
524.0,511.0,523.0,519.0,513.0
519.0,514.0,523.0,520.0,513.0
528.0,519.0,523.0,523.0,507.0
528.0,523.0,520.0,520.0,507.0
522.0,519.0,514.0,514.0,507.0
515.0,516.0,508.0,515.0,507.0
507.0,508.0,500.0,504.0,506.0
500.0,501.0,496.0,500.0,515.0
502.0,502.0,499.0,504.0,519.0
505.0,500.0,508.0,508.0,520.0
507.0,502.0,513.0,514.0,515.0
515.0,500.0,521.0,521.0,514.0
515.0,504.0,525.0,529.0,518.0
516.0,506.0,526.0,524.0,515.0
515.0,506.0,523.0,524.0,517.0
511.0,506.0,524.0,519.0,522.0
514.0,505.0,522.0,519.0,515.0
518.0,509.0,521.0,519.0,509.0
524.0,514.0,523.0,522.0,505.0
526.0,520.0,522.0,521.0,505.0
529.0,522.0,520.0,521.0,503.0
521.0,520.0,513.0,517.0,508.0
513.0,514.0,503.0,509.0,506.0
507.0,509.0,502.0,506.0,509.0
506.0,505.0,497.0,502.0,515.0
500.0,499.0,499.0,502.0,520.0
502.0,501.0,508.0,512.0,521.0
509.0,503.0,518.0,518.0,516.0
511.0,503.0,521.0,521.0,517.0
513.0,504.0,526.0,524.0,515.0
510.0,500.0,523.0,519.0,515.0
510.0,499.0,519.0,516.0,516.0
512.0,504.0,521.0,516.0,515.0
515.0,511.0,524.0,518.0,513.0
519.0,513.0,523.0,518.0,510.0
522.0,518.0,524.0,519.0,507.0
523.0,523.0,520.0,519.0,505.0
525.0,520.0,516.0,518.0,507.0
514.0,515.0,510.0,510.0,508.0
510.0,512.0,502.0,505.0,511.0
503.0,505.0,502.0,502.0,516.0
498.0,501.0,497.0,505.0,518.0
499.0,500.0,503.0,509.0,519.0
504.0,504.0,510.0,512.0,520.0
511.0,507.0,520.0,521.0,518.0
512.0,503.0,523.0,523.0,517.0
515.0,505.0,527.0,526.0,513.0
517.0,506.0,530.0,526.0,511.0
515.0,504.0,524.0,521.0,510.0
519.0,508.0,526.0,520.0,511.0
520.0,512.0,526.0,521.0,511.0
522.0,513.0,521.0,518.0,511.0
523.0,519.0,523.0,528.0,506.0
528.0,521.0,520.0,523.0,502.0
522.0,516.0,514.0,517.0,503.0
513.0,515.0,507.0,513.0,511.0
511.0,511.0,506.0,507.0,518.0
501.0,504.0,496.0,502.0,522.0
503.0,503.0,500.0,507.0,519.0
505.0,502.0,504.0,510.0,518.0
510.0,503.0,512.0,517.0,517.0
512.0,503.0,520.0,521.0,513.0
515.0,507.0,525.0,525.0,515.0
517.0,506.0,525.0,522.0,517.0
511.0,502.0,523.0,521.0,521.0
510.0,506.0,523.0,522.0,511.0
512.0,507.0,522.0,518.0,510.0
517.0,510.0,521.0,519.0,507.0
520.0,516.0,524.0,524.0,501.0
524.0,520.0,523.0,528.0,498.0
522.0,524.0,517.0,520.0,501.0
515.0,517.0,511.0,516.0,509.0
511.0,512.0,504.0,509.0,508.0
506.0,507.0,500.0,504.0,513.0
504.0,504.0,498.0,502.0,513.0
499.0,499.0,500.0,504.0,520.0
503.0,500.0,507.0,512.0,519.0
506.0,504.0,520.0,520.0,518.0
510.0,503.0,522.0,523.0,516.0
512.0,505.0,525.0,525.0,513.0
511.0,504.0,526.0,524.0,514.0
511.0,505.0,522.0,519.0,516.0
517.0,507.0,524.0,522.0,509.0
519.0,509.0,522.0,519.0,508.0
520.0,512.0,524.0,519.0,506.0
522.0,516.0,522.0,520.0,504.0
529.0,521.0,520.0,520.0,501.0
529.0,522.0,514.0,522.0,503.0
522.0,521.0,510.0,515.0,508.0
510.0,513.0,504.0,510.0,510.0
510.0,507.0,499.0,501.0,519.0
502.0,502.0,496.0,500.0,521.0
500.0,499.0,499.0,503.0,521.0
502.0,499.0,508.0,511.0,518.0
511.0,502.0,517.0,517.0,516.0
513.0,503.0,523.0,522.0,514.0
513.0,504.0,527.0,523.0,515.0
508.0,502.0,523.0,522.0,514.0
507.0,502.0,519.0,516.0,517.0
513.0,505.0,522.0,519.0,515.0
521.0,511.0,523.0,518.0,512.0
524.0,514.0,521.0,516.0,515.0
529.0,518.0,521.0,519.0,507.0
530.0,524.0,519.0,521.0,503.0
522.0,518.0,512.0,512.0,503.0
517.0,517.0,509.0,509.0,505.0
514.0,510.0,502.0,504.0,507.0
506.0,503.0,497.0,502.0,511.0
503.0,506.0,502.0,504.0,519.0
505.0,503.0,506.0,511.0,521.0
510.0,504.0,516.0,515.0,516.0
515.0,505.0,520.0,521.0,515.0
521.0,508.0,530.0,524.0,517.0
519.0,506.0,528.0,524.0,516.0
512.0,504.0,524.0,519.0,517.0
515.0,506.0,519.0,517.0,513.0
515.0,511.0,523.0,517.0,514.0
520.0,513.0,522.0,516.0,510.0
524.0,516.0,524.0,521.0,511.0
526.0,521.0,521.0,515.0,515.0
528.0,521.0,519.0,518.0,508.0
523.0,519.0,513.0,513.0,510.0
510.0,512.0,506.0,507.0,512.0
509.0,509.0,503.0,507.0,505.0
503.0,503.0,498.0,502.0,513.0
499.0,500.0,499.0,504.0,519.0
506.0,501.0,509.0,510.0,513.0
509.0,502.0,515.0,518.0,514.0
514.0,504.0,524.0,520.0,519.0
516.0,506.0,528.0,527.0,519.0
513.0,505.0,527.0,522.0,517.0
515.0,501.0,523.0,517.0,518.0
517.0,505.0,525.0,516.0,514.0
519.0,507.0,523.0,518.0,511.0
523.0,513.0,524.0,519.0,507.0
523.0,520.0,526.0,522.0,507.0
525.0,518.0,524.0,523.0,504.0
522.0,520.0,516.0,522.0,507.0
518.0,520.0,511.0,512.0,507.0
512.0,513.0,502.0,506.0,508.0
507.0,506.0,500.0,501.0,513.0
503.0,502.0,501.0,502.0,515.0
497.0,500.0,502.0,507.0,518.0
501.0,501.0,514.0,511.0,518.0
507.0,502.0,521.0,519.0,513.0
509.0,505.0,525.0,523.0,520.0
508.0,503.0,527.0,523.0,518.0
506.0,501.0,525.0,518.0,520.0
506.0,506.0,523.0,515.0,525.0
522.0,507.0,524.0,517.0,518.0
529.0,508.0,524.0,518.0,511.0
526.0,513.0,527.0,518.0,509.0
531.0,518.0,523.0,521.0,502.0
531.0,522.0,521.0,520.0,502.0
526.0,519.0,514.0,517.0,507.0
518.0,514.0,507.0,509.0,509.0
510.0,511.0,499.0,503.0,506.0
502.0,504.0,492.0,496.0,514.0
503.0,500.0,498.0,501.0,516.0
507.0,497.0,505.0,507.0,518.0
507.0,501.0,512.0,513.0,522.0
511.0,502.0,517.0,514.0,521.0
511.0,505.0,522.0,520.0,518.0
516.0,506.0,526.0,526.0,514.0
514.0,502.0,526.0,521.0,517.0
510.0,505.0,522.0,520.0,517.0
514.0,509.0,525.0,518.0,512.0
515.0,510.0,523.0,518.0,511.0
520.0,515.0,524.0,519.0,508.0
525.0,519.0,522.0,522.0,504.0
525.0,522.0,520.0,519.0,504.0
524.0,521.0,513.0,515.0,508.0
516.0,518.0,506.0,512.0,511.0
508.0,510.0,502.0,506.0,514.0
498.0,504.0,503.0,503.0,517.0
500.0,499.0,501.0,503.0,520.0
506.0,501.0,508.0,510.0,519.0
508.0,502.0,517.0,518.0,515.0
513.0,505.0,524.0,522.0,513.0
523.0,507.0,528.0,526.0,510.0
513.0,505.0,528.0,524.0,513.0
510.0,501.0,524.0,519.0,516.0
514.0,508.0,525.0,517.0,518.0
518.0,509.0,523.0,518.0,516.0
516.0,515.0,524.0,519.0,520.0
524.0,516.0,523.0,521.0,513.0
525.0,519.0,523.0,526.0,507.0
527.0,521.0,522.0,523.0,502.0
522.0,517.0,511.0,518.0,504.0
509.0,512.0,505.0,507.0,515.0
506.0,507.0,500.0,501.0,516.0
500.0,500.0,499.0,499.0,520.0
497.0,497.0,504.0,506.0,520.0
504.0,502.0,511.0,512.0,519.0
509.0,505.0,520.0,519.0,522.0
513.0,503.0,524.0,519.0,517.0
516.0,504.0,526.0,523.0,510.0
518.0,503.0,528.0,520.0,512.0
513.0,504.0,525.0,518.0,517.0
513.0,511.0,525.0,519.0,513.0
515.0,510.0,525.0,519.0,511.0
519.0,514.0,527.0,521.0,508.0
522.0,517.0,523.0,521.0,505.0
525.0,520.0,520.0,519.0,508.0
521.0,518.0,514.0,515.0,509.0
517.0,514.0,507.0,510.0,513.0
511.0,511.0,502.0,505.0,513.0
504.0,504.0,497.0,500.0,514.0
499.0,502.0,501.0,505.0,517.0
501.0,501.0,504.0,509.0,519.0
505.0,502.0,513.0,510.0,517.0
515.0,505.0,522.0,520.0,516.0
518.0,505.0,526.0,523.0,518.0
520.0,504.0,526.0,522.0,514.0
516.0,505.0,529.0,519.0,521.0
510.0,504.0,523.0,515.0,521.0
510.0,506.0,522.0,518.0,518.0
515.0,506.0,521.0,517.0,514.0
523.0,516.0,525.0,522.0,505.0
523.0,518.0,522.0,521.0,504.0
523.0,519.0,517.0,518.0,504.0
522.0,516.0,511.0,519.0,507.0
515.0,511.0,503.0,505.0,514.0
508.0,514.0,502.0,504.0,515.0
502.0,504.0,500.0,503.0,516.0
497.0,499.0,501.0,503.0,520.0
502.0,495.0,508.0,506.0,519.0
506.0,503.0,515.0,513.0,516.0
511.0,504.0,523.0,521.0,517.0
508.0,502.0,523.0,519.0,514.0
510.0,499.0,521.0,516.0,514.0
510.0,506.0,521.0,516.0,515.0
514.0,505.0,525.0,517.0,512.0
515.0,508.0,523.0,519.0,512.0
519.0,513.0,525.0,520.0,514.0
520.0,516.0,523.0,519.0,510.0
528.0,522.0,523.0,523.0,510.0
520.0,519.0,516.0,518.0,514.0
517.0,518.0,511.0,513.0,512.0
511.0,511.0,504.0,512.0,506.0
508.0,508.0,501.0,503.0,507.0
500.0,503.0,498.0,502.0,513.0
504.0,502.0,503.0,505.0,516.0
509.0,502.0,508.0,511.0,514.0
515.0,505.0,523.0,520.0,516.0
513.0,504.0,525.0,522.0,514.0
518.0,505.0,528.0,525.0,518.0
512.0,504.0,525.0,521.0,520.0
510.0,504.0,525.0,517.0,510.0
515.0,506.0,524.0,517.0,507.0
517.0,513.0,523.0,518.0,508.0
519.0,512.0,522.0,518.0,509.0
524.0,518.0,521.0,520.0,504.0
526.0,522.0,520.0,522.0,509.0
523.0,524.0,515.0,520.0,506.0
512.0,514.0,506.0,510.0,509.0
509.0,512.0,501.0,506.0,516.0
500.0,504.0,497.0,501.0,522.0
505.0,503.0,501.0,503.0,520.0
504.0,501.0,504.0,510.0,517.0
507.0,502.0,513.0,510.0,518.0
513.0,505.0,517.0,521.0,515.0
519.0,504.0,525.0,524.0,513.0
516.0,501.0,526.0,522.0,513.0
515.0,504.0,524.0,519.0,517.0
519.0,505.0,523.0,517.0,519.0
517.0,509.0,524.0,518.0,515.0
520.0,512.0,525.0,519.0,511.0
528.0,516.0,526.0,519.0,508.0
531.0,522.0,524.0,522.0,507.0
525.0,525.0,518.0,517.0,506.0
519.0,525.0,513.0,515.0,506.0
513.0,517.0,506.0,510.0,511.0
506.0,509.0,502.0,506.0,512.0
499.0,504.0,498.0,506.0,521.0
499.0,505.0,501.0,504.0,521.0
504.0,501.0,506.0,508.0,518.0
509.0,505.0,515.0,518.0,515.0
513.0,507.0,522.0,520.0,510.0
515.0,507.0,527.0,522.0,516.0
514.0,507.0,524.0,520.0,513.0
511.0,503.0,522.0,516.0,515.0
520.0,507.0,527.0,517.0,519.0
518.0,510.0,523.0,515.0,519.0
517.0,511.0,520.0,514.0,515.0
522.0,513.0,518.0,516.0,505.0
527.0,517.0,523.0,521.0,500.0
522.0,521.0,520.0,518.0,505.0
513.0,515.0,508.0,505.0,510.0
507.0,506.0,504.0,504.0,513.0
505.0,506.0,499.0,504.0,517.0
504.0,503.0,499.0,502.0,519.0
503.0,499.0,501.0,508.0,522.0
503.0,498.0,502.0,507.0,521.0
509.0,502.0,516.0,515.0,520.0
521.0,506.0,526.0,522.0,519.0
519.0,504.0,528.0,525.0,520.0
515.0,506.0,531.0,522.0,525.0
509.0,506.0,525.0,519.0,520.0
509.0,504.0,524.0,519.0,513.0
513.0,510.0,522.0,520.0,509.0
518.0,513.0,525.0,520.0,503.0
518.0,523.0,524.0,521.0,504.0
521.0,520.0,520.0,519.0,501.0
525.0,521.0,514.0,516.0,502.0
516.0,515.0,508.0,509.0,506.0
508.0,509.0,502.0,508.0,512.0
505.0,505.0,498.0,501.0,515.0
500.0,504.0,498.0,505.0,516.0
502.0,502.0,503.0,507.0,518.0
504.0,499.0,512.0,513.0,519.0
513.0,504.0,521.0,521.0,513.0
518.0,506.0,524.0,523.0,514.0
518.0,507.0,527.0,522.0,515.0
514.0,504.0,523.0,523.0,517.0
515.0,503.0,522.0,521.0,516.0
516.0,507.0,523.0,518.0,513.0
519.0,512.0,521.0,521.0,510.0
525.0,516.0,523.0,526.0,502.0
527.0,522.0,524.0,522.0,506.0
522.0,520.0,518.0,516.0,509.0
517.0,518.0,511.0,512.0,511.0
515.0,516.0,506.0,508.0,514.0
513.0,508.0,500.0,504.0,513.0
505.0,503.0,496.0,501.0,520.0
503.0,503.0,499.0,502.0,522.0
505.0,501.0,508.0,509.0,519.0
507.0,503.0,514.0,513.0,522.0
510.0,505.0,520.0,521.0,518.0
513.0,507.0,527.0,525.0,518.0
514.0,504.0,526.0,524.0,515.0
513.0,503.0,525.0,517.0,517.0
510.0,506.0,522.0,514.0,514.0
513.0,507.0,521.0,516.0,518.0
516.0,511.0,521.0,518.0,514.0
522.0,516.0,522.0,519.0,507.0
524.0,519.0,521.0,520.0,503.0
522.0,520.0,514.0,517.0,504.0
517.0,517.0,508.0,511.0,510.0
510.0,507.0,502.0,507.0,519.0
504.0,508.0,501.0,504.0,517.0
503.0,504.0,498.0,502.0,520.0
501.0,499.0,503.0,502.0,519.0
506.0,501.0,512.0,510.0,514.0
512.0,503.0,517.0,518.0,513.0
512.0,500.0,522.0,521.0,521.0
516.0,506.0,529.0,525.0,518.0
512.0,504.0,524.0,519.0,513.0
514.0,501.0,520.0,514.0,520.0
511.0,503.0,519.0,509.0,513.0
518.0,508.0,521.0,519.0,507.0
520.0,511.0,520.0,515.0,507.0
521.0,521.0,520.0,519.0,506.0
521.0,520.0,522.0,519.0,508.0
521.0,518.0,514.0,517.0,510.0
516.0,513.0,504.0,509.0,508.0
501.0,505.0,497.0,500.0,516.0
497.0,503.0,498.0,498.0,520.0
498.0,501.0,497.0,500.0,523.0
499.0,504.0,503.0,505.0,519.0
504.0,503.0,512.0,513.0,518.0
508.0,503.0,518.0,522.0,516.0
508.0,504.0,525.0,519.0,517.0
506.0,503.0,524.0,521.0,518.0
511.0,503.0,522.0,519.0,514.0
516.0,504.0,521.0,517.0,516.0
518.0,508.0,522.0,518.0,514.0
517.0,511.0,522.0,519.0,511.0
524.0,516.0,522.0,519.0,508.0
525.0,520.0,523.0,521.0,504.0
525.0,522.0,520.0,520.0,504.0
522.0,520.0,514.0,517.0,509.0
519.0,515.0,508.0,509.0,514.0
512.0,509.0,503.0,504.0,514.0
503.0,503.0,495.0,502.0,521.0
507.0,502.0,500.0,502.0,523.0
506.0,503.0,509.0,509.0,520.0
507.0,502.0,518.0,516.0,516.0
513.0,504.0,521.0,522.0,513.0
520.0,508.0,527.0,524.0,510.0
518.0,507.0,526.0,524.0,513.0
515.0,504.0,523.0,518.0,519.0
518.0,506.0,522.0,517.0,519.0
515.0,512.0,523.0,519.0,517.0
517.0,511.0,523.0,519.0,514.0
520.0,516.0,523.0,516.0,511.0
521.0,522.0,520.0,522.0,507.0
519.0,520.0,515.0,520.0,503.0
516.0,518.0,510.0,514.0,507.0
508.0,513.0,503.0,508.0,512.0
506.0,506.0,498.0,504.0,512.0
501.0,503.0,499.0,504.0,521.0
506.0,501.0,501.0,505.0,524.0
506.0,501.0,508.0,505.0,523.0
