CH1,CH2,CH3,CH4,CH5
506.0,504.0,499.0,501.0,518.0
505.0,501.0,501.0,502.0,518.0
501.0,502.0,503.0,508.0,523.0
508.0,497.0,511.0,513.0,527.0
511.0,502.0,518.0,521.0,519.0
514.0,505.0,526.0,527.0,518.0
514.0,504.0,527.0,526.0,516.0
508.0,503.0,524.0,522.0,518.0
509.0,503.0,520.0,511.0,518.0
515.0,505.0,519.0,515.0,516.0
515.0,506.0,519.0,517.0,516.0
518.0,513.0,521.0,521.0,514.0
527.0,519.0,522.0,526.0,510.0
525.0,517.0,515.0,520.0,505.0
521.0,518.0,510.0,514.0,504.0
513.0,511.0,502.0,505.0,500.0
506.0,506.0,497.0,502.0,504.0
507.0,502.0,497.0,498.0,512.0
503.0,498.0,495.0,505.0,512.0
506.0,498.0,504.0,508.0,511.0
512.0,501.0,515.0,518.0,511.0
516.0,503.0,520.0,527.0,512.0
514.0,506.0,523.0,526.0,514.0
516.0,501.0,521.0,521.0,514.0
512.0,505.0,522.0,518.0,520.0
510.0,500.0,519.0,513.0,519.0
510.0,505.0,516.0,511.0,518.0
515.0,512.0,524.0,516.0,512.0
524.0,516.0,521.0,524.0,503.0
521.0,518.0,519.0,519.0,504.0
523.0,518.0,512.0,514.0,502.0
516.0,517.0,509.0,513.0,506.0
511.0,511.0,502.0,505.0,509.0
506.0,508.0,497.0,508.0,515.0
499.0,501.0,495.0,499.0,522.0
501.0,498.0,496.0,502.0,523.0
505.0,499.0,508.0,509.0,521.0
509.0,503.0,516.0,517.0,519.0
515.0,503.0,522.0,522.0,518.0
521.0,503.0,527.0,526.0,517.0
516.0,503.0,527.0,520.0,515.0
514.0,503.0,522.0,520.0,516.0
514.0,503.0,522.0,519.0,512.0
518.0,506.0,522.0,523.0,506.0
523.0,512.0,523.0,525.0,505.0
522.0,516.0,521.0,522.0,506.0
532.0,520.0,518.0,521.0,504.0
529.0,520.0,514.0,517.0,503.0
518.0,516.0,506.0,511.0,506.0
509.0,510.0,501.0,505.0,510.0
500.0,509.0,495.0,498.0,525.0
498.0,501.0,497.0,497.0,529.0
500.0,499.0,500.0,503.0,525.0
497.0,499.0,509.0,510.0,526.0
508.0,503.0,517.0,515.0,526.0
512.0,506.0,523.0,522.0,524.0
509.0,504.0,525.0,525.0,522.0
515.0,505.0,525.0,521.0,522.0
511.0,503.0,522.0,516.0,522.0
514.0,504.0,521.0,519.0,519.0
522.0,508.0,520.0,516.0,504.0
519.0,514.0,520.0,517.0,501.0
527.0,518.0,521.0,523.0,503.0
524.0,520.0,518.0,522.0,498.0
519.0,518.0,510.0,513.0,502.0
511.0,513.0,502.0,509.0,522.0
507.0,508.0,502.0,503.0,517.0
504.0,501.0,491.0,495.0,519.0
501.0,500.0,500.0,498.0,520.0
505.0,500.0,502.0,506.0,519.0
508.0,499.0,511.0,512.0,519.0
508.0,500.0,517.0,520.0,522.0
510.0,502.0,525.0,524.0,516.0
512.0,502.0,525.0,523.0,515.0
512.0,501.0,524.0,520.0,517.0
513.0,506.0,521.0,517.0,516.0
517.0,507.0,523.0,519.0,510.0
518.0,513.0,521.0,519.0,510.0
522.0,516.0,523.0,521.0,506.0
526.0,519.0,515.0,521.0,503.0
525.0,518.0,516.0,518.0,504.0
518.0,515.0,507.0,511.0,511.0
511.0,505.0,502.0,506.0,511.0
508.0,507.0,497.0,502.0,517.0
500.0,504.0,496.0,501.0,518.0
501.0,498.0,500.0,508.0,520.0
505.0,497.0,503.0,510.0,518.0
508.0,501.0,515.0,520.0,515.0
513.0,504.0,522.0,522.0,517.0
515.0,503.0,524.0,522.0,513.0
516.0,502.0,523.0,520.0,516.0
509.0,501.0,517.0,514.0,520.0
515.0,503.0,521.0,518.0,519.0
514.0,506.0,521.0,518.0,513.0
521.0,510.0,519.0,521.0,510.0
524.0,515.0,521.0,521.0,506.0
525.0,519.0,518.0,518.0,505.0
522.0,517.0,512.0,515.0,506.0
516.0,513.0,505.0,512.0,506.0
511.0,508.0,495.0,504.0,510.0
503.0,503.0,494.0,501.0,512.0
502.0,498.0,495.0,499.0,518.0
501.0,498.0,501.0,509.0,519.0
504.0,499.0,507.0,512.0,516.0
511.0,501.0,518.0,519.0,516.0
518.0,504.0,524.0,523.0,514.0
512.0,502.0,521.0,522.0,515.0
511.0,504.0,524.0,519.0,516.0
514.0,502.0,523.0,519.0,519.0
513.0,504.0,522.0,519.0,522.0
521.0,510.0,523.0,520.0,516.0
523.0,511.0,517.0,516.0,513.0
521.0,515.0,518.0,518.0,512.0
525.0,522.0,516.0,515.0,511.0
518.0,518.0,513.0,514.0,508.0
512.0,510.0,505.0,507.0,505.0
505.0,508.0,498.0,503.0,512.0
503.0,500.0,494.0,498.0,516.0
500.0,498.0,498.0,500.0,520.0
505.0,501.0,506.0,512.0,516.0
509.0,500.0,513.0,516.0,516.0
517.0,501.0,520.0,519.0,512.0
518.0,502.0,524.0,526.0,514.0
514.0,504.0,526.0,523.0,515.0
512.0,504.0,521.0,518.0,520.0
510.0,502.0,521.0,521.0,517.0
515.0,509.0,519.0,515.0,513.0
521.0,510.0,522.0,516.0,511.0
523.0,514.0,521.0,520.0,506.0
528.0,521.0,526.0,523.0,505.0
525.0,517.0,514.0,519.0,502.0
521.0,516.0,509.0,514.0,508.0
511.0,512.0,503.0,510.0,510.0
505.0,505.0,498.0,506.0,517.0
503.0,500.0,495.0,502.0,518.0
504.0,499.0,502.0,503.0,519.0
510.0,501.0,511.0,510.0,520.0
508.0,502.0,516.0,518.0,521.0
514.0,503.0,523.0,526.0,516.0
516.0,505.0,526.0,523.0,516.0
520.0,505.0,526.0,525.0,513.0
515.0,503.0,525.0,521.0,518.0
514.0,509.0,522.0,517.0,518.0
517.0,505.0,526.0,519.0,515.0
520.0,516.0,521.0,519.0,510.0
524.0,517.0,525.0,521.0,509.0
525.0,520.0,519.0,522.0,505.0
524.0,521.0,513.0,515.0,508.0
519.0,516.0,508.0,512.0,513.0
517.0,511.0,500.0,505.0,516.0
506.0,506.0,497.0,502.0,519.0
501.0,502.0,498.0,501.0,522.0
504.0,499.0,502.0,505.0,519.0
507.0,502.0,510.0,513.0,516.0
511.0,503.0,521.0,521.0,514.0
510.0,506.0,523.0,521.0,517.0
513.0,506.0,531.0,523.0,516.0
509.0,502.0,523.0,519.0,524.0
511.0,500.0,524.0,517.0,524.0
514.0,505.0,527.0,519.0,516.0
518.0,512.0,521.0,514.0,508.0
520.0,513.0,521.0,520.0,505.0
521.0,521.0,523.0,521.0,501.0
522.0,523.0,518.0,517.0,494.0
512.0,517.0,517.0,517.0,498.0
508.0,511.0,509.0,507.0,509.0
503.0,507.0,499.0,501.0,516.0
511.0,503.0,495.0,497.0,518.0
504.0,501.0,501.0,500.0,521.0
503.0,501.0,506.0,512.0,518.0
507.0,500.0,515.0,516.0,518.0
512.0,501.0,522.0,522.0,514.0
522.0,504.0,528.0,525.0,513.0
517.0,505.0,533.0,525.0,515.0
512.0,506.0,524.0,518.0,515.0
513.0,506.0,525.0,518.0,514.0
514.0,507.0,521.0,515.0,513.0
517.0,509.0,523.0,517.0,509.0
521.0,514.0,523.0,519.0,507.0
533.0,519.0,524.0,522.0,502.0
532.0,519.0,519.0,519.0,500.0
527.0,516.0,511.0,514.0,504.0
515.0,511.0,504.0,509.0,507.0
509.0,505.0,498.0,506.0,511.0
504.0,500.0,498.0,500.0,517.0
496.0,501.0,500.0,503.0,523.0
504.0,500.0,511.0,507.0,519.0
505.0,502.0,518.0,517.0,519.0
513.0,500.0,523.0,522.0,516.0
515.0,502.0,525.0,523.0,516.0
513.0,501.0,525.0,521.0,518.0
514.0,500.0,525.0,523.0,517.0
517.0,502.0,525.0,519.0,514.0
517.0,510.0,525.0,518.0,515.0
516.0,511.0,520.0,515.0,515.0
521.0,516.0,522.0,518.0,510.0
525.0,521.0,522.0,519.0,507.0
519.0,518.0,514.0,517.0,510.0
517.0,518.0,509.0,508.0,510.0
514.0,511.0,502.0,504.0,515.0
499.0,504.0,497.0,500.0,526.0
498.0,500.0,501.0,499.0,531.0
501.0,496.0,502.0,504.0,527.0
510.0,498.0,508.0,510.0,523.0
515.0,502.0,519.0,519.0,521.0
513.0,501.0,524.0,522.0,515.0
517.0,501.0,526.0,524.0,507.0
519.0,501.0,526.0,522.0,500.0
519.0,501.0,521.0,519.0,493.0
518.0,503.0,523.0,521.0,515.0
519.0,507.0,521.0,514.0,519.0
521.0,510.0,521.0,520.0,512.0
524.0,515.0,519.0,518.0,506.0
525.0,516.0,517.0,516.0,506.0
523.0,516.0,514.0,517.0,506.0
514.0,512.0,505.0,510.0,510.0
507.0,510.0,500.0,503.0,514.0
498.0,499.0,493.0,498.0,519.0
500.0,496.0,491.0,498.0,518.0
504.0,499.0,503.0,506.0,516.0
508.0,499.0,513.0,513.0,517.0
511.0,500.0,519.0,517.0,517.0
516.0,500.0,516.0,519.0,516.0
515.0,501.0,524.0,520.0,514.0
513.0,500.0,522.0,514.0,521.0
508.0,500.0,521.0,515.0,519.0
509.0,506.0,526.0,516.0,518.0
515.0,506.0,520.0,516.0,514.0
527.0,515.0,524.0,523.0,511.0
527.0,514.0,522.0,521.0,506.0
524.0,518.0,517.0,518.0,505.0
522.0,516.0,511.0,513.0,504.0
512.0,509.0,505.0,508.0,510.0
508.0,507.0,501.0,506.0,511.0
500.0,500.0,496.0,503.0,517.0
500.0,498.0,499.0,506.0,518.0
514.0,503.0,512.0,512.0,520.0
509.0,500.0,516.0,519.0,519.0
516.0,503.0,523.0,521.0,516.0
513.0,502.0,525.0,523.0,515.0
513.0,501.0,523.0,520.0,518.0
514.0,502.0,522.0,520.0,522.0
514.0,502.0,523.0,518.0,519.0
521.0,508.0,527.0,518.0,520.0
521.0,511.0,521.0,518.0,515.0
528.0,521.0,525.0,522.0,510.0
530.0,523.0,520.0,518.0,502.0
522.0,517.0,513.0,515.0,503.0
516.0,513.0,506.0,515.0,511.0
511.0,506.0,501.0,505.0,513.0
504.0,504.0,498.0,505.0,516.0
500.0,498.0,497.0,502.0,517.0
502.0,499.0,502.0,506.0,521.0
504.0,500.0,510.0,512.0,518.0
509.0,502.0,517.0,516.0,515.0
511.0,501.0,523.0,521.0,526.0
515.0,502.0,527.0,523.0,521.0
515.0,501.0,524.0,520.0,517.0
512.0,500.0,521.0,510.0,521.0
514.0,503.0,520.0,515.0,520.0
519.0,509.0,522.0,516.0,515.0
517.0,511.0,522.0,522.0,511.0
527.0,521.0,524.0,524.0,504.0
525.0,523.0,518.0,520.0,502.0
523.0,518.0,513.0,516.0,503.0
511.0,510.0,504.0,509.0,507.0
503.0,506.0,497.0,501.0,513.0
499.0,504.0,495.0,500.0,516.0
506.0,502.0,501.0,505.0,515.0
501.0,498.0,504.0,508.0,520.0
507.0,504.0,512.0,514.0,521.0
510.0,501.0,520.0,520.0,521.0
512.0,502.0,526.0,525.0,520.0
515.0,503.0,527.0,525.0,518.0
514.0,503.0,520.0,518.0,519.0
512.0,504.0,524.0,520.0,520.0
517.0,507.0,523.0,517.0,516.0
518.0,509.0,518.0,518.0,515.0
521.0,518.0,522.0,520.0,512.0
525.0,523.0,522.0,521.0,508.0
524.0,521.0,514.0,517.0,506.0
520.0,514.0,503.0,510.0,509.0
510.0,510.0,499.0,502.0,513.0
504.0,506.0,498.0,499.0,517.0
502.0,501.0,497.0,500.0,519.0
496.0,499.0,499.0,502.0,525.0
504.0,500.0,508.0,507.0,526.0
505.0,506.0,516.0,517.0,525.0
507.0,504.0,519.0,518.0,521.0
512.0,504.0,526.0,523.0,520.0
514.0,506.0,528.0,524.0,523.0
514.0,502.0,525.0,516.0,519.0
515.0,505.0,523.0,518.0,517.0
519.0,510.0,523.0,516.0,514.0
525.0,511.0,518.0,516.0,509.0
523.0,517.0,524.0,521.0,507.0
528.0,520.0,521.0,525.0,501.0
523.0,517.0,514.0,517.0,502.0
517.0,517.0,507.0,511.0,503.0
517.0,512.0,501.0,504.0,518.0
508.0,507.0,498.0,502.0,522.0
504.0,504.0,497.0,502.0,511.0
505.0,502.0,500.0,505.0,510.0
510.0,502.0,511.0,516.0,518.0
514.0,505.0,517.0,515.0,516.0
513.0,505.0,524.0,522.0,517.0
516.0,506.0,524.0,523.0,514.0
513.0,501.0,523.0,521.0,516.0
510.0,503.0,522.0,521.0,514.0
515.0,509.0,521.0,515.0,516.0
519.0,514.0,523.0,519.0,518.0
516.0,513.0,521.0,517.0,515.0
522.0,516.0,524.0,522.0,509.0
528.0,521.0,520.0,521.0,506.0
525.0,518.0,513.0,517.0,508.0
515.0,513.0,505.0,509.0,514.0
510.0,509.0,501.0,509.0,514.0
499.0,500.0,493.0,501.0,517.0
498.0,500.0,499.0,505.0,517.0
502.0,500.0,503.0,508.0,519.0
509.0,500.0,514.0,514.0,516.0
512.0,502.0,522.0,522.0,515.0
512.0,498.0,525.0,526.0,514.0
511.0,503.0,526.0,525.0,516.0
515.0,501.0,525.0,521.0,520.0
513.0,500.0,521.0,516.0,517.0
517.0,505.0,521.0,517.0,515.0
521.0,508.0,521.0,517.0,513.0
524.0,515.0,521.0,520.0,508.0
525.0,518.0,520.0,520.0,502.0
529.0,520.0,517.0,521.0,504.0
519.0,515.0,509.0,513.0,506.0
518.0,512.0,505.0,510.0,508.0
505.0,504.0,496.0,499.0,517.0
506.0,501.0,495.0,501.0,518.0
500.0,500.0,501.0,508.0,522.0
508.0,499.0,508.0,511.0,522.0
511.0,501.0,516.0,515.0,519.0
515.0,506.0,522.0,524.0,516.0
522.0,504.0,527.0,528.0,516.0
525.0,506.0,528.0,530.0,515.0
512.0,501.0,520.0,516.0,527.0
514.0,505.0,520.0,514.0,522.0
516.0,506.0,522.0,521.0,520.0
519.0,512.0,523.0,516.0,519.0
519.0,518.0,520.0,513.0,514.0
523.0,519.0,518.0,516.0,509.0
520.0,517.0,512.0,514.0,506.0
518.0,516.0,507.0,510.0,509.0
510.0,509.0,499.0,505.0,510.0
503.0,503.0,494.0,496.0,516.0
499.0,501.0,499.0,501.0,520.0
485.0,489.0,488.0,490.0,531.0
488.0,489.0,494.0,494.0,530.0
496.0,491.0,503.0,502.0,525.0
501.0,496.0,508.0,510.0,522.0
536.0,522.0,533.0,531.0,502.0
545.0,530.0,535.0,533.0,497.0
548.0,529.0,534.0,532.0,493.0
546.0,533.0,525.0,524.0,497.0
535.0,527.0,518.0,523.0,498.0
525.0,523.0,512.0,516.0,497.0
519.0,514.0,508.0,512.0,498.0
510.0,506.0,509.0,510.0,506.0
517.0,503.0,513.0,520.0,512.0
518.0,510.0,525.0,527.0,512.0
521.0,509.0,534.0,534.0,514.0
531.0,512.0,539.0,538.0,520.0
525.0,508.0,535.0,535.0,517.0
521.0,512.0,535.0,533.0,518.0
520.0,508.0,533.0,531.0,520.0
526.0,514.0,538.0,532.0,515.0
529.0,520.0,530.0,525.0,510.0
537.0,523.0,534.0,528.0,505.0
535.0,526.0,528.0,524.0,500.0
534.0,527.0,520.0,514.0,502.0
529.0,524.0,513.0,514.0,502.0
522.0,520.0,508.0,510.0,500.0
521.0,516.0,505.0,510.0,501.0
511.0,508.0,501.0,505.0,509.0
509.0,505.0,508.0,512.0,513.0
510.0,506.0,515.0,519.0,520.0
518.0,506.0,526.0,526.0,515.0
520.0,510.0,529.0,532.0,519.0
525.0,509.0,536.0,541.0,518.0
521.0,508.0,534.0,538.0,520.0
520.0,504.0,532.0,531.0,514.0
526.0,509.0,531.0,530.0,508.0
522.0,511.0,530.0,527.0,511.0
522.0,515.0,526.0,526.0,513.0
528.0,520.0,526.0,524.0,507.0
530.0,528.0,525.0,521.0,504.0
527.0,525.0,517.0,516.0,498.0
519.0,523.0,508.0,508.0,507.0
517.0,517.0,504.0,503.0,507.0
511.0,508.0,500.0,503.0,510.0
506.0,506.0,501.0,503.0,514.0
512.0,503.0,506.0,510.0,519.0
512.0,503.0,516.0,519.0,523.0
516.0,504.0,525.0,526.0,521.0
518.0,508.0,528.0,532.0,523.0
517.0,505.0,531.0,531.0,520.0
511.0,503.0,529.0,527.0,514.0
524.0,505.0,531.0,525.0,515.0
523.0,507.0,527.0,525.0,517.0
528.0,512.0,530.0,522.0,516.0
526.0,515.0,522.0,522.0,512.0
529.0,521.0,522.0,524.0,508.0
534.0,525.0,522.0,519.0,500.0
526.0,523.0,511.0,514.0,496.0
516.0,517.0,505.0,503.0,500.0
512.0,509.0,501.0,504.0,502.0
502.0,504.0,495.0,498.0,510.0
499.0,501.0,498.0,502.0,516.0
512.0,501.0,507.0,511.0,517.0
519.0,507.0,516.0,519.0,514.0
521.0,503.0,523.0,526.0,514.0
516.0,503.0,529.0,530.0,521.0
519.0,506.0,531.0,532.0,519.0
523.0,504.0,527.0,526.0,520.0
522.0,506.0,530.0,525.0,516.0
522.0,504.0,524.0,521.0,515.0
520.0,514.0,523.0,514.0,507.0
523.0,518.0,524.0,520.0,510.0
523.0,520.0,522.0,516.0,503.0
523.0,524.0,516.0,512.0,503.0
528.0,520.0,508.0,507.0,502.0
523.0,515.0,504.0,499.0,507.0
512.0,510.0,492.0,497.0,509.0
507.0,502.0,492.0,490.0,517.0
500.0,499.0,499.0,502.0,523.0
502.0,500.0,507.0,511.0,518.0
508.0,500.0,518.0,517.0,517.0
509.0,502.0,522.0,524.0,519.0
516.0,503.0,531.0,528.0,517.0
518.0,501.0,528.0,528.0,517.0
514.0,502.0,524.0,523.0,518.0
512.0,506.0,526.0,527.0,523.0
515.0,503.0,521.0,517.0,513.0
519.0,509.0,524.0,523.0,506.0
522.0,518.0,519.0,516.0,502.0
524.0,523.0,517.0,512.0,503.0
527.0,522.0,512.0,510.0,503.0
518.0,518.0,504.0,505.0,501.0
512.0,512.0,499.0,500.0,504.0
508.0,508.0,495.0,497.0,510.0
502.0,501.0,495.0,499.0,517.0
501.0,500.0,502.0,507.0,525.0
500.0,500.0,512.0,514.0,527.0
512.0,502.0,519.0,524.0,517.0
513.0,503.0,526.0,528.0,519.0
516.0,502.0,527.0,525.0,517.0
515.0,503.0,527.0,529.0,516.0
513.0,502.0,524.0,520.0,521.0
517.0,505.0,523.0,521.0,523.0
518.0,513.0,521.0,520.0,517.0
522.0,514.0,521.0,517.0,513.0
528.0,519.0,519.0,516.0,506.0
530.0,523.0,516.0,514.0,504.0
522.0,522.0,509.0,509.0,498.0
514.0,516.0,503.0,504.0,503.0
509.0,510.0,498.0,500.0,510.0
501.0,504.0,494.0,497.0,516.0
502.0,501.0,498.0,499.0,524.0
506.0,498.0,503.0,506.0,521.0
507.0,500.0,516.0,514.0,523.0
509.0,503.0,523.0,523.0,523.0
513.0,501.0,526.0,527.0,522.0
515.0,502.0,526.0,528.0,519.0
519.0,502.0,524.0,524.0,522.0
514.0,504.0,527.0,524.0,525.0
518.0,507.0,525.0,520.0,523.0
520.0,510.0,524.0,520.0,516.0
524.0,515.0,520.0,521.0,507.0
524.0,522.0,522.0,516.0,502.0
522.0,520.0,511.0,512.0,497.0
519.0,518.0,508.0,506.0,495.0
518.0,513.0,504.0,501.0,501.0
508.0,510.0,499.0,500.0,510.0
502.0,503.0,497.0,499.0,518.0
501.0,501.0,499.0,504.0,519.0
503.0,500.0,507.0,512.0,524.0
510.0,501.0,518.0,520.0,521.0
510.0,501.0,524.0,526.0,523.0
512.0,502.0,528.0,534.0,519.0
517.0,503.0,532.0,527.0,519.0
513.0,500.0,530.0,524.0,517.0
516.0,503.0,523.0,523.0,517.0
522.0,509.0,530.0,523.0,513.0
516.0,510.0,522.0,519.0,510.0
524.0,517.0,523.0,517.0,503.0
527.0,521.0,518.0,518.0,494.0
521.0,518.0,511.0,511.0,499.0
517.0,516.0,503.0,505.0,506.0
510.0,510.0,500.0,499.0,508.0
505.0,505.0,501.0,498.0,512.0
503.0,502.0,497.0,501.0,515.0
505.0,494.0,501.0,504.0,521.0
505.0,497.0,505.0,512.0,522.0
509.0,501.0,524.0,520.0,524.0
514.0,501.0,527.0,527.0,519.0
514.0,501.0,528.0,529.0,519.0
511.0,499.0,525.0,525.0,520.0
512.0,502.0,525.0,521.0,517.0
512.0,506.0,523.0,520.0,515.0
518.0,510.0,524.0,520.0,512.0
520.0,512.0,521.0,518.0,516.0
527.0,518.0,521.0,518.0,505.0
529.0,525.0,521.0,513.0,496.0
527.0,519.0,510.0,508.0,500.0
516.0,514.0,503.0,502.0,510.0
508.0,511.0,497.0,497.0,515.0
500.0,504.0,496.0,492.0,518.0
498.0,502.0,498.0,500.0,519.0
499.0,505.0,507.0,510.0,521.0
500.0,496.0,514.0,518.0,523.0
507.0,505.0,521.0,528.0,520.0
514.0,504.0,526.0,528.0,515.0
521.0,502.0,527.0,529.0,514.0
517.0,502.0,527.0,529.0,516.0
517.0,503.0,528.0,524.0,511.0
519.0,508.0,523.0,523.0,509.0
520.0,513.0,523.0,519.0,509.0
521.0,517.0,521.0,520.0,510.0
525.0,521.0,522.0,524.0,509.0
526.0,524.0,513.0,517.0,509.0
517.0,518.0,509.0,510.0,509.0
508.0,517.0,502.0,501.0,508.0
510.0,511.0,499.0,502.0,509.0
502.0,504.0,496.0,499.0,517.0
496.0,499.0,498.0,503.0,521.0
504.0,499.0,508.0,512.0,518.0
508.0,499.0,519.0,519.0,520.0
515.0,500.0,522.0,525.0,522.0
519.0,502.0,529.0,528.0,521.0
518.0,504.0,527.0,528.0,520.0
512.0,500.0,524.0,524.0,520.0
517.0,504.0,529.0,524.0,519.0
515.0,508.0,526.0,521.0,511.0
514.0,512.0,519.0,520.0,517.0
517.0,516.0,525.0,518.0,517.0
517.0,525.0,520.0,516.0,506.0
516.0,520.0,512.0,511.0,504.0
515.0,515.0,505.0,504.0,504.0
521.0,511.0,495.0,499.0,502.0
506.0,504.0,496.0,497.0,510.0
499.0,499.0,498.0,499.0,517.0
515.0,499.0,501.0,506.0,522.0
511.0,500.0,514.0,514.0,525.0
517.0,497.0,519.0,522.0,520.0
516.0,502.0,523.0,529.0,516.0
520.0,502.0,526.0,528.0,518.0
521.0,501.0,521.0,526.0,523.0
519.0,504.0,525.0,525.0,524.0
522.0,504.0,518.0,520.0,519.0
521.0,510.0,523.0,519.0,517.0
523.0,511.0,519.0,518.0,513.0
524.0,517.0,516.0,516.0,506.0
520.0,519.0,517.0,510.0,500.0
519.0,518.0,509.0,508.0,501.0
516.0,514.0,503.0,503.0,502.0
506.0,511.0,496.0,498.0,507.0
498.0,501.0,492.0,496.0,520.0
498.0,496.0,494.0,499.0,522.0
501.0,497.0,502.0,509.0,522.0
506.0,500.0,512.0,516.0,524.0
509.0,500.0,520.0,525.0,524.0
510.0,499.0,522.0,522.0,522.0
511.0,501.0,526.0,528.0,524.0
507.0,504.0,527.0,525.0,523.0
510.0,506.0,525.0,523.0,517.0
517.0,507.0,525.0,524.0,515.0
522.0,510.0,523.0,521.0,507.0
521.0,516.0,522.0,522.0,501.0
533.0,521.0,524.0,518.0,501.0
528.0,520.0,515.0,512.0,498.0
524.0,519.0,509.0,506.0,500.0
518.0,510.0,501.0,501.0,509.0
507.0,513.0,497.0,502.0,514.0
498.0,502.0,500.0,498.0,518.0
500.0,499.0,499.0,503.0,520.0
501.0,502.0,508.0,516.0,519.0
507.0,502.0,517.0,524.0,518.0
510.0,500.0,521.0,526.0,522.0
516.0,502.0,526.0,531.0,517.0
516.0,505.0,529.0,530.0,520.0
511.0,503.0,527.0,525.0,521.0
513.0,506.0,528.0,524.0,518.0
511.0,508.0,523.0,524.0,516.0
517.0,512.0,524.0,519.0,512.0
521.0,517.0,520.0,518.0,503.0
527.0,525.0,518.0,516.0,498.0
525.0,521.0,514.0,512.0,497.0
520.0,516.0,505.0,507.0,497.0
510.0,509.0,499.0,502.0,507.0
504.0,504.0,494.0,501.0,516.0
503.0,502.0,496.0,500.0,520.0
502.0,499.0,505.0,508.0,517.0
505.0,501.0,516.0,517.0,519.0
511.0,503.0,520.0,524.0,525.0
513.0,502.0,521.0,529.0,521.0
513.0,503.0,529.0,529.0,525.0
512.0,505.0,525.0,524.0,531.0
513.0,501.0,522.0,520.0,526.0
511.0,504.0,521.0,527.0,522.0
519.0,510.0,524.0,520.0,512.0
523.0,515.0,522.0,524.0,506.0
523.0,522.0,520.0,517.0,496.0
519.0,523.0,515.0,515.0,496.0
511.0,518.0,503.0,508.0,499.0
505.0,514.0,503.0,502.0,504.0
501.0,510.0,497.0,499.0,506.0
496.0,502.0,493.0,495.0,518.0
510.0,500.0,496.0,502.0,518.0
514.0,499.0,506.0,506.0,516.0
512.0,500.0,514.0,516.0,516.0
518.0,502.0,521.0,524.0,518.0
521.0,502.0,528.0,527.0,518.0
521.0,497.0,527.0,527.0,515.0
517.0,500.0,522.0,522.0,522.0
511.0,501.0,523.0,520.0,518.0
515.0,503.0,521.0,519.0,516.0
519.0,508.0,517.0,517.0,508.0
523.0,518.0,519.0,512.0,503.0
523.0,520.0,518.0,517.0,500.0
524.0,518.0,505.0,508.0,496.0
520.0,516.0,507.0,503.0,499.0
515.0,513.0,500.0,499.0,506.0
511.0,507.0,496.0,498.0,516.0
503.0,500.0,492.0,492.0,527.0
498.0,497.0,496.0,493.0,529.0
504.0,499.0,505.0,510.0,527.0
507.0,500.0,520.0,520.0,527.0
514.0,505.0,523.0,525.0,524.0
515.0,503.0,527.0,532.0,521.0
514.0,502.0,527.0,528.0,522.0
513.0,507.0,527.0,525.0,523.0
517.0,503.0,524.0,525.0,518.0
516.0,507.0,523.0,525.0,514.0
516.0,509.0,521.0,516.0,506.0
521.0,517.0,521.0,517.0,507.0
522.0,519.0,517.0,514.0,502.0
525.0,520.0,511.0,509.0,501.0
517.0,517.0,503.0,506.0,505.0
517.0,513.0,500.0,499.0,506.0
509.0,508.0,496.0,500.0,512.0
505.0,502.0,497.0,502.0,514.0
502.0,501.0,501.0,506.0,513.0
507.0,501.0,508.0,514.0,518.0
510.0,499.0,520.0,522.0,522.0
508.0,501.0,525.0,528.0,521.0
514.0,502.0,528.0,529.0,506.0
510.0,499.0,526.0,525.0,509.0
508.0,501.0,525.0,525.0,512.0
509.0,499.0,522.0,522.0,514.0
517.0,507.0,522.0,520.0,510.0
520.0,512.0,523.0,519.0,518.0
521.0,520.0,520.0,518.0,513.0
527.0,522.0,517.0,515.0,504.0
530.0,522.0,511.0,510.0,502.0
516.0,515.0,502.0,506.0,504.0
510.0,507.0,498.0,501.0,498.0
496.0,500.0,496.0,499.0,507.0
500.0,503.0,497.0,501.0,512.0
501.0,497.0,506.0,509.0,516.0
514.0,501.0,515.0,516.0,520.0
511.0,500.0,522.0,524.0,523.0
510.0,503.0,528.0,535.0,524.0
511.0,502.0,526.0,529.0,523.0
508.0,502.0,527.0,524.0,522.0
531.0,504.0,526.0,519.0,517.0
531.0,508.0,524.0,517.0,515.0
528.0,511.0,519.0,519.0,511.0
530.0,515.0,522.0,517.0,508.0
529.0,520.0,520.0,514.0,506.0
528.0,518.0,515.0,509.0,504.0
519.0,518.0,510.0,507.0,507.0
508.0,513.0,503.0,502.0,510.0
503.0,508.0,497.0,499.0,516.0
506.0,501.0,496.0,498.0,518.0
509.0,498.0,499.0,503.0,517.0
511.0,498.0,505.0,512.0,517.0
512.0,504.0,516.0,518.0,515.0
511.0,499.0,520.0,523.0,522.0
513.0,502.0,525.0,525.0,525.0
511.0,503.0,526.0,526.0,521.0
510.0,503.0,523.0,525.0,520.0
511.0,502.0,522.0,519.0,518.0
515.0,507.0,521.0,518.0,514.0
518.0,513.0,519.0,519.0,513.0
520.0,519.0,519.0,514.0,508.0
525.0,518.0,519.0,515.0,501.0
520.0,520.0,512.0,513.0,500.0
511.0,515.0,504.0,504.0,507.0
503.0,508.0,497.0,499.0,511.0
500.0,504.0,493.0,496.0,517.0
495.0,499.0,495.0,500.0,521.0
498.0,497.0,503.0,506.0,522.0
509.0,500.0,509.0,515.0,520.0
520.0,504.0,519.0,527.0,518.0
516.0,502.0,524.0,530.0,520.0
516.0,503.0,530.0,528.0,520.0
517.0,502.0,525.0,526.0,524.0
516.0,501.0,524.0,522.0,521.0
518.0,506.0,526.0,522.0,520.0
518.0,510.0,523.0,521.0,517.0
524.0,513.0,522.0,518.0,509.0
522.0,518.0,520.0,518.0,506.0
524.0,518.0,517.0,515.0,502.0
521.0,520.0,514.0,510.0,501.0
515.0,514.0,506.0,503.0,505.0
508.0,508.0,494.0,500.0,512.0
503.0,502.0,494.0,497.0,518.0
502.0,500.0,498.0,501.0,525.0
507.0,501.0,506.0,507.0,529.0
512.0,498.0,513.0,516.0,527.0
516.0,502.0,520.0,526.0,523.0
515.0,500.0,526.0,524.0,518.0
512.0,500.0,526.0,527.0,517.0
510.0,501.0,525.0,525.0,513.0
514.0,500.0,523.0,520.0,513.0
515.0,505.0,521.0,520.0,524.0
515.0,504.0,518.0,517.0,522.0
520.0,514.0,521.0,515.0,510.0
525.0,519.0,520.0,517.0,506.0
522.0,520.0,516.0,512.0,503.0
519.0,521.0,506.0,509.0,510.0
512.0,514.0,501.0,501.0,516.0
507.0,508.0,496.0,499.0,513.0
501.0,505.0,494.0,501.0,512.0
498.0,496.0,502.0,503.0,513.0
503.0,498.0,506.0,514.0,512.0
510.0,501.0,517.0,521.0,518.0
515.0,501.0,523.0,525.0,520.0
514.0,502.0,527.0,529.0,524.0
514.0,501.0,527.0,527.0,531.0
513.0,501.0,526.0,523.0,527.0
516.0,503.0,524.0,521.0,519.0
518.0,507.0,524.0,522.0,519.0
520.0,510.0,521.0,516.0,514.0
526.0,517.0,518.0,511.0,509.0
525.0,523.0,519.0,513.0,508.0
518.0,518.0,511.0,510.0,502.0
517.0,515.0,504.0,504.0,505.0
508.0,510.0,499.0,499.0,508.0
505.0,504.0,495.0,497.0,505.0
501.0,500.0,496.0,500.0,512.0
504.0,497.0,502.0,506.0,516.0
502.0,497.0,507.0,511.0,520.0
508.0,499.0,520.0,519.0,520.0
510.0,500.0,520.0,523.0,521.0
511.0,497.0,523.0,525.0,521.0
506.0,498.0,524.0,524.0,523.0
511.0,504.0,525.0,523.0,521.0
511.0,503.0,521.0,519.0,513.0
509.0,505.0,519.0,515.0,506.0
517.0,513.0,518.0,515.0,504.0
531.0,512.0,517.0,514.0,514.0
530.0,523.0,518.0,514.0,513.0
522.0,524.0,508.0,508.0,506.0
511.0,514.0,501.0,503.0,511.0
507.0,509.0,498.0,499.0,514.0
499.0,501.0,493.0,495.0,517.0
497.0,501.0,495.0,499.0,525.0
500.0,497.0,505.0,507.0,524.0
512.0,500.0,513.0,516.0,521.0
511.0,502.0,518.0,525.0,526.0
514.0,505.0,528.0,527.0,520.0
515.0,501.0,530.0,528.0,519.0
515.0,503.0,526.0,522.0,516.0
516.0,507.0,525.0,521.0,514.0
524.0,509.0,525.0,522.0,505.0
523.0,509.0,522.0,518.0,502.0
522.0,512.0,522.0,519.0,506.0
525.0,520.0,519.0,514.0,501.0
532.0,520.0,514.0,511.0,501.0
520.0,518.0,506.0,504.0,502.0
511.0,513.0,500.0,499.0,508.0
513.0,509.0,494.0,497.0,514.0
514.0,503.0,494.0,498.0,519.0
515.0,500.0,498.0,501.0,526.0
512.0,502.0,510.0,514.0,524.0
515.0,502.0,520.0,523.0,521.0
518.0,503.0,523.0,524.0,519.0
516.0,502.0,527.0,529.0,515.0
516.0,500.0,524.0,526.0,516.0
519.0,502.0,524.0,522.0,518.0
520.0,504.0,523.0,523.0,520.0
520.0,508.0,528.0,521.0,515.0
525.0,512.0,523.0,516.0,512.0
525.0,518.0,518.0,515.0,509.0
525.0,526.0,516.0,514.0,503.0
523.0,523.0,513.0,508.0,505.0
518.0,522.0,505.0,504.0,507.0
510.0,517.0,498.0,504.0,510.0
506.0,512.0,496.0,502.0,516.0
503.0,507.0,495.0,500.0,510.0
501.0,504.0,500.0,505.0,512.0
501.0,505.0,514.0,515.0,514.0
505.0,507.0,520.0,523.0,521.0
510.0,509.0,526.0,531.0,523.0
513.0,509.0,527.0,528.0,524.0
512.0,505.0,527.0,527.0,521.0
513.0,509.0,524.0,524.0,515.0
514.0,517.0,524.0,521.0,510.0
516.0,516.0,522.0,520.0,513.0
516.0,520.0,521.0,518.0,516.0
523.0,527.0,520.0,518.0,506.0
527.0,527.0,519.0,511.0,504.0
526.0,526.0,509.0,507.0,508.0
515.0,520.0,501.0,503.0,508.0
505.0,515.0,498.0,497.0,517.0
498.0,503.0,491.0,491.0,524.0
502.0,503.0,495.0,497.0,520.0
506.0,504.0,502.0,509.0,519.0
507.0,504.0,514.0,517.0,520.0
508.0,506.0,522.0,523.0,520.0
511.0,504.0,526.0,526.0,512.0
511.0,502.0,525.0,522.0,521.0
512.0,505.0,525.0,521.0,518.0
513.0,508.0,524.0,520.0,521.0
515.0,510.0,523.0,520.0,512.0
512.0,513.0,522.0,517.0,512.0
522.0,521.0,520.0,516.0,509.0
526.0,524.0,520.0,517.0,506.0
522.0,526.0,515.0,511.0,509.0
517.0,520.0,507.0,506.0,509.0
515.0,518.0,501.0,501.0,509.0
506.0,513.0,499.0,500.0,510.0
502.0,506.0,497.0,500.0,511.0
499.0,504.0,501.0,504.0,512.0
504.0,502.0,509.0,512.0,509.0
508.0,506.0,517.0,521.0,510.0
508.0,503.0,522.0,527.0,513.0
516.0,506.0,527.0,528.0,519.0
510.0,506.0,526.0,528.0,525.0
516.0,503.0,523.0,523.0,524.0
517.0,508.0,522.0,524.0,520.0
517.0,511.0,526.0,522.0,514.0
515.0,515.0,526.0,520.0,509.0
525.0,522.0,522.0,517.0,497.0
526.0,525.0,518.0,516.0,497.0
521.0,524.0,513.0,517.0,500.0
518.0,522.0,504.0,504.0,501.0
516.0,514.0,498.0,499.0,503.0
511.0,507.0,495.0,498.0,509.0
501.0,504.0,498.0,500.0,517.0
498.0,504.0,504.0,509.0,518.0
502.0,503.0,513.0,516.0,520.0
504.0,503.0,520.0,528.0,520.0
508.0,503.0,522.0,527.0,518.0
512.0,505.0,530.0,528.0,520.0
513.0,503.0,527.0,525.0,520.0
511.0,501.0,525.0,524.0,523.0
512.0,506.0,522.0,522.0,514.0
514.0,516.0,524.0,523.0,509.0
519.0,514.0,521.0,519.0,508.0
521.0,520.0,519.0,516.0,502.0
519.0,522.0,516.0,513.0,506.0
514.0,519.0,508.0,507.0,509.0
521.0,514.0,503.0,503.0,509.0
514.0,512.0,498.0,500.0,511.0
505.0,508.0,493.0,499.0,517.0
502.0,501.0,498.0,503.0,519.0
504.0,501.0,505.0,510.0,519.0
506.0,499.0,513.0,516.0,524.0
513.0,504.0,523.0,521.0,520.0
512.0,503.0,529.0,529.0,520.0
515.0,503.0,529.0,528.0,514.0
511.0,501.0,523.0,528.0,519.0
514.0,502.0,523.0,521.0,514.0
516.0,507.0,523.0,522.0,518.0
516.0,510.0,520.0,519.0,520.0
518.0,519.0,521.0,516.0,520.0
522.0,521.0,521.0,517.0,512.0
520.0,520.0,511.0,507.0,501.0
516.0,518.0,504.0,501.0,499.0
509.0,510.0,497.0,497.0,507.0
501.0,507.0,496.0,494.0,511.0
502.0,502.0,496.0,497.0,520.0
499.0,500.0,500.0,504.0,519.0
500.0,498.0,510.0,510.0,521.0
503.0,499.0,517.0,521.0,520.0
510.0,500.0,521.0,524.0,520.0
512.0,501.0,528.0,529.0,515.0
515.0,501.0,527.0,523.0,514.0
511.0,501.0,521.0,517.0,520.0
515.0,503.0,524.0,519.0,515.0
513.0,506.0,522.0,519.0,515.0
519.0,509.0,522.0,515.0,510.0
526.0,517.0,522.0,515.0,505.0
529.0,518.0,518.0,513.0,505.0
523.0,520.0,511.0,509.0,499.0
519.0,517.0,509.0,505.0,505.0
513.0,512.0,500.0,498.0,509.0
505.0,504.0,499.0,496.0,510.0
504.0,504.0,498.0,505.0,517.0
506.0,500.0,504.0,506.0,519.0
501.0,500.0,511.0,515.0,521.0
506.0,500.0,519.0,521.0,523.0
512.0,507.0,525.0,528.0,514.0
520.0,504.0,531.0,528.0,514.0
512.0,501.0,526.0,528.0,519.0
505.0,500.0,527.0,520.0,517.0
514.0,506.0,524.0,519.0,517.0
523.0,509.0,520.0,516.0,510.0
524.0,513.0,522.0,518.0,508.0
525.0,518.0,519.0,519.0,501.0
525.0,522.0,516.0,519.0,501.0
529.0,520.0,509.0,511.0,497.0
523.0,515.0,502.0,501.0,502.0
514.0,509.0,500.0,499.0,508.0
503.0,502.0,494.0,496.0,512.0
498.0,497.0,496.0,503.0,519.0
497.0,499.0,507.0,510.0,520.0
506.0,499.0,514.0,517.0,519.0
514.0,502.0,521.0,523.0,521.0
514.0,507.0,526.0,529.0,520.0
515.0,504.0,527.0,527.0,523.0
514.0,502.0,526.0,523.0,525.0
511.0,504.0,524.0,522.0,521.0
510.0,507.0,523.0,521.0,515.0
514.0,511.0,522.0,518.0,500.0
516.0,516.0,521.0,519.0,502.0
519.0,518.0,518.0,514.0,501.0
532.0,523.0,515.0,511.0,501.0
539.0,520.0,508.0,501.0,503.0
524.0,515.0,504.0,502.0,508.0
516.0,511.0,499.0,500.0,510.0
507.0,502.0,496.0,500.0,506.0
506.0,500.0,500.0,504.0,509.0
508.0,498.0,506.0,509.0,516.0
511.0,501.0,515.0,518.0,515.0
519.0,500.0,521.0,524.0,516.0
519.0,502.0,529.0,527.0,511.0
516.0,501.0,526.0,524.0,515.0
513.0,501.0,523.0,521.0,525.0
518.0,504.0,529.0,524.0,522.0
516.0,506.0,523.0,519.0,517.0
522.0,511.0,521.0,515.0,510.0
522.0,514.0,521.0,513.0,512.0
522.0,515.0,515.0,514.0,503.0
518.0,520.0,508.0,508.0,499.0
512.0,515.0,503.0,504.0,502.0
506.0,510.0,500.0,500.0,508.0
497.0,500.0,491.0,494.0,516.0
507.0,499.0,494.0,495.0,522.0
506.0,499.0,503.0,505.0,527.0
503.0,499.0,512.0,517.0,525.0
507.0,499.0,516.0,519.0,523.0
515.0,498.0,522.0,522.0,509.0
514.0,498.0,523.0,524.0,510.0
518.0,501.0,525.0,523.0,510.0
512.0,499.0,523.0,521.0,517.0
518.0,506.0,523.0,523.0,515.0
520.0,510.0,523.0,518.0,516.0
525.0,515.0,525.0,517.0,508.0
528.0,518.0,520.0,514.0,500.0
530.0,522.0,516.0,513.0,499.0
520.0,524.0,511.0,509.0,502.0
514.0,516.0,505.0,504.0,505.0
511.0,510.0,499.0,499.0,509.0
504.0,503.0,496.0,497.0,515.0
501.0,505.0,498.0,504.0,515.0
503.0,501.0,506.0,510.0,517.0
507.0,500.0,516.0,518.0,516.0
510.0,500.0,521.0,524.0,516.0
514.0,505.0,526.0,528.0,514.0
514.0,501.0,527.0,527.0,518.0
514.0,501.0,524.0,523.0,516.0
513.0,502.0,524.0,524.0,521.0
515.0,508.0,521.0,521.0,521.0
522.0,508.0,520.0,517.0,518.0
523.0,515.0,521.0,519.0,506.0
526.0,519.0,519.0,515.0,502.0
518.0,519.0,513.0,512.0,503.0
517.0,517.0,506.0,508.0,501.0
514.0,512.0,501.0,500.0,510.0
503.0,508.0,500.0,499.0,514.0
499.0,502.0,494.0,499.0,519.0
504.0,497.0,500.0,502.0,522.0
504.0,497.0,505.0,511.0,520.0
511.0,500.0,517.0,519.0,519.0
513.0,500.0,521.0,523.0,519.0
512.0,500.0,526.0,528.0,522.0
514.0,501.0,522.0,526.0,521.0
515.0,501.0,529.0,524.0,520.0
514.0,502.0,523.0,517.0,517.0
517.0,508.0,524.0,519.0,510.0
519.0,510.0,521.0,517.0,512.0
523.0,516.0,521.0,515.0,504.0
526.0,523.0,518.0,515.0,501.0
524.0,521.0,511.0,510.0,504.0
516.0,515.0,503.0,502.0,506.0
507.0,512.0,497.0,499.0,513.0
502.0,503.0,494.0,502.0,515.0
500.0,500.0,497.0,501.0,518.0
501.0,499.0,502.0,508.0,519.0
501.0,499.0,515.0,513.0,523.0
511.0,500.0,520.0,521.0,523.0
517.0,502.0,524.0,524.0,520.0
518.0,501.0,526.0,526.0,521.0
512.0,501.0,525.0,524.0,524.0
507.0,499.0,521.0,517.0,523.0
510.0,503.0,523.0,518.0,518.0
513.0,506.0,521.0,515.0,514.0
518.0,514.0,520.0,516.0,511.0
521.0,523.0,522.0,518.0,517.0
519.0,521.0,514.0,510.0,510.0
514.0,518.0,508.0,505.0,505.0
506.0,511.0,500.0,500.0,506.0
505.0,508.0,499.0,497.0,511.0
501.0,501.0,493.0,496.0,517.0
498.0,498.0,495.0,495.0,521.0
499.0,497.0,503.0,505.0,524.0
511.0,499.0,517.0,515.0,526.0
525.0,500.0,520.0,522.0,519.0
520.0,500.0,524.0,525.0,520.0
524.0,496.0,526.0,528.0,524.0
518.0,505.0,526.0,524.0,524.0
517.0,503.0,524.0,525.0,521.0
512.0,511.0,524.0,521.0,518.0
514.0,508.0,521.0,519.0,507.0
526.0,517.0,526.0,521.0,501.0
528.0,521.0,523.0,519.0,497.0
527.0,520.0,513.0,512.0,499.0
515.0,515.0,506.0,506.0,503.0
508.0,510.0,500.0,504.0,511.0
503.0,507.0,498.0,498.0,513.0
495.0,501.0,500.0,500.0,517.0
496.0,498.0,500.0,503.0,522.0
498.0,497.0,508.0,513.0,523.0
505.0,500.0,517.0,523.0,518.0
514.0,501.0,526.0,524.0,517.0
526.0,503.0,527.0,528.0,515.0
521.0,503.0,528.0,527.0,516.0
514.0,501.0,522.0,522.0,518.0
517.0,506.0,525.0,522.0,515.0
524.0,511.0,526.0,520.0,513.0
530.0,512.0,521.0,520.0,509.0
533.0,516.0,514.0,516.0,504.0
530.0,520.0,516.0,514.0,506.0
526.0,518.0,514.0,508.0,503.0
516.0,515.0,503.0,505.0,506.0
510.0,510.0,496.0,499.0,510.0
505.0,504.0,492.0,496.0,516.0
505.0,499.0,498.0,500.0,519.0
505.0,499.0,502.0,507.0,524.0
508.0,501.0,509.0,518.0,524.0
509.0,500.0,519.0,526.0,521.0
514.0,500.0,524.0,532.0,519.0
512.0,499.0,527.0,528.0,518.0
512.0,503.0,523.0,525.0,523.0
511.0,503.0,528.0,524.0,518.0
512.0,504.0,523.0,520.0,512.0
518.0,508.0,524.0,521.0,508.0
523.0,516.0,520.0,519.0,509.0
524.0,517.0,518.0,517.0,505.0
529.0,523.0,514.0,513.0,498.0
524.0,518.0,509.0,514.0,501.0
516.0,514.0,498.0,506.0,506.0
512.0,505.0,501.0,503.0,509.0
498.0,499.0,494.0,497.0,513.0
499.0,495.0,496.0,501.0,519.0
500.0,495.0,502.0,506.0,520.0
502.0,496.0,512.0,514.0,518.0
505.0,498.0,523.0,522.0,526.0
508.0,505.0,526.0,527.0,529.0
521.0,503.0,530.0,527.0,520.0
510.0,499.0,522.0,522.0,516.0
504.0,504.0,524.0,522.0,516.0
511.0,505.0,523.0,518.0,512.0
527.0,511.0,521.0,518.0,508.0
529.0,515.0,522.0,520.0,508.0
526.0,519.0,517.0,515.0,508.0
523.0,517.0,511.0,508.0,509.0
513.0,515.0,505.0,501.0,518.0
504.0,509.0,498.0,503.0,516.0
501.0,505.0,498.0,499.0,513.0
494.0,498.0,494.0,496.0,522.0
491.0,495.0,501.0,499.0,524.0
507.0,499.0,507.0,509.0,524.0
509.0,504.0,517.0,521.0,517.0
510.0,500.0,522.0,524.0,514.0
511.0,501.0,526.0,530.0,516.0
512.0,503.0,526.0,531.0,517.0
523.0,499.0,524.0,525.0,515.0
520.0,503.0,523.0,521.0,512.0
523.0,508.0,524.0,520.0,509.0
519.0,512.0,520.0,518.0,508.0
530.0,516.0,520.0,516.0,502.0
532.0,522.0,517.0,516.0,500.0
526.0,521.0,512.0,511.0,503.0
521.0,517.0,506.0,502.0,504.0
509.0,510.0,499.0,499.0,507.0
504.0,503.0,495.0,497.0,511.0
502.0,502.0,494.0,497.0,516.0
503.0,499.0,501.0,503.0,516.0
507.0,499.0,510.0,515.0,519.0
517.0,502.0,518.0,521.0,518.0
513.0,501.0,524.0,531.0,517.0
515.0,503.0,528.0,529.0,517.0
513.0,501.0,526.0,528.0,523.0
513.0,502.0,524.0,519.0,527.0
515.0,506.0,523.0,526.0,527.0
519.0,511.0,524.0,520.0,522.0
523.0,515.0,525.0,516.0,515.0
527.0,520.0,518.0,517.0,505.0
528.0,522.0,515.0,515.0,500.0
526.0,520.0,510.0,508.0,497.0
516.0,513.0,501.0,508.0,496.0
509.0,507.0,497.0,498.0,509.0
503.0,501.0,493.0,495.0,512.0
499.0,498.0,495.0,499.0,518.0
504.0,497.0,503.0,505.0,524.0
503.0,500.0,518.0,516.0,522.0
508.0,502.0,521.0,523.0,515.0
510.0,500.0,526.0,527.0,516.0
511.0,505.0,529.0,527.0,518.0
513.0,500.0,524.0,524.0,514.0
513.0,503.0,526.0,522.0,511.0
515.0,506.0,522.0,516.0,514.0
518.0,512.0,525.0,518.0,516.0
523.0,515.0,522.0,517.0,508.0
524.0,518.0,518.0,515.0,504.0
528.0,520.0,516.0,509.0,505.0
518.0,517.0,505.0,510.0,502.0
514.0,510.0,499.0,500.0,505.0
508.0,510.0,496.0,498.0,510.0
503.0,501.0,495.0,498.0,515.0
501.0,501.0,500.0,503.0,520.0
501.0,496.0,506.0,508.0,520.0
508.0,501.0,517.0,522.0,517.0
507.0,499.0,523.0,522.0,520.0
511.0,500.0,526.0,529.0,517.0
508.0,499.0,524.0,524.0,519.0
503.0,500.0,520.0,518.0,527.0
507.0,495.0,520.0,519.0,518.0
517.0,507.0,523.0,520.0,516.0
522.0,512.0,520.0,518.0,511.0
524.0,514.0,517.0,513.0,511.0
526.0,520.0,515.0,512.0,506.0
531.0,518.0,508.0,506.0,499.0
520.0,514.0,507.0,503.0,503.0
510.0,514.0,498.0,499.0,505.0
502.0,502.0,495.0,492.0,510.0
497.0,498.0,493.0,496.0,515.0
500.0,495.0,500.0,503.0,518.0
508.0,498.0,511.0,513.0,523.0
511.0,498.0,518.0,517.0,524.0
516.0,500.0,525.0,526.0,520.0
516.0,502.0,527.0,526.0,523.0
517.0,502.0,526.0,524.0,522.0
517.0,502.0,522.0,522.0,522.0
517.0,504.0,528.0,520.0,524.0
519.0,507.0,518.0,517.0,522.0
524.0,514.0,522.0,516.0,509.0
524.0,519.0,521.0,518.0,497.0
521.0,520.0,515.0,512.0,485.0
518.0,517.0,509.0,510.0,488.0
512.0,508.0,500.0,502.0,498.0
505.0,510.0,496.0,499.0,503.0
499.0,501.0,492.0,494.0,518.0
497.0,499.0,498.0,500.0,525.0
507.0,498.0,501.0,510.0,519.0
513.0,501.0,512.0,515.0,521.0
512.0,501.0,522.0,524.0,525.0
514.0,502.0,526.0,527.0,525.0
509.0,501.0,526.0,527.0,523.0
505.0,499.0,524.0,522.0,525.0
509.0,500.0,527.0,519.0,523.0
516.0,503.0,520.0,517.0,521.0
520.0,511.0,519.0,509.0,506.0
522.0,515.0,520.0,518.0,509.0
530.0,520.0,519.0,515.0,505.0
527.0,518.0,512.0,509.0,499.0
524.0,517.0,508.0,503.0,502.0
517.0,514.0,502.0,500.0,507.0
512.0,508.0,497.0,498.0,508.0
505.0,502.0,497.0,498.0,517.0
505.0,498.0,498.0,501.0,520.0
501.0,499.0,508.0,511.0,514.0
511.0,501.0,519.0,522.0,513.0
513.0,501.0,523.0,525.0,517.0
516.0,501.0,526.0,529.0,515.0
516.0,504.0,526.0,527.0,516.0
513.0,497.0,524.0,522.0,524.0
511.0,505.0,527.0,523.0,515.0
520.0,508.0,523.0,519.0,506.0
522.0,510.0,520.0,516.0,510.0
523.0,516.0,522.0,516.0,504.0
527.0,520.0,516.0,514.0,506.0
521.0,517.0,511.0,509.0,506.0
519.0,515.0,504.0,503.0,507.0
510.0,512.0,500.0,501.0,500.0
501.0,502.0,497.0,495.0,512.0
500.0,497.0,492.0,496.0,514.0
503.0,494.0,499.0,502.0,528.0
499.0,496.0,510.0,512.0,537.0
505.0,500.0,519.0,522.0,528.0
507.0,502.0,526.0,529.0,525.0
506.0,501.0,525.0,524.0,527.0
507.0,497.0,523.0,522.0,527.0
511.0,499.0,524.0,520.0,521.0
516.0,504.0,524.0,522.0,514.0
523.0,507.0,520.0,514.0,508.0
522.0,516.0,520.0,516.0,505.0
521.0,514.0,517.0,513.0,498.0
519.0,518.0,516.0,512.0,500.0
515.0,516.0,508.0,506.0,503.0
510.0,512.0,506.0,503.0,505.0
504.0,509.0,499.0,501.0,508.0
496.0,501.0,496.0,497.0,512.0
504.0,497.0,497.0,501.0,515.0
510.0,496.0,505.0,509.0,520.0
509.0,497.0,514.0,520.0,517.0
514.0,503.0,523.0,526.0,511.0
517.0,503.0,526.0,522.0,513.0
518.0,499.0,525.0,525.0,518.0
513.0,501.0,525.0,522.0,517.0
515.0,504.0,524.0,522.0,515.0
522.0,504.0,523.0,520.0,510.0
521.0,510.0,521.0,523.0,507.0
526.0,519.0,521.0,518.0,501.0
527.0,521.0,519.0,518.0,494.0
523.0,521.0,513.0,516.0,497.0
518.0,517.0,506.0,505.0,498.0
509.0,512.0,498.0,497.0,506.0
502.0,510.0,496.0,501.0,507.0
501.0,500.0,496.0,497.0,513.0
505.0,496.0,499.0,502.0,515.0
508.0,498.0,508.0,510.0,520.0
510.0,500.0,520.0,521.0,520.0
511.0,502.0,523.0,524.0,520.0
512.0,502.0,526.0,527.0,518.0
513.0,500.0,526.0,526.0,518.0
509.0,500.0,524.0,523.0,522.0
518.0,503.0,524.0,521.0,518.0
518.0,507.0,522.0,519.0,518.0
518.0,514.0,520.0,517.0,512.0
523.0,516.0,520.0,515.0,513.0
526.0,518.0,515.0,513.0,500.0
524.0,518.0,510.0,508.0,498.0
515.0,514.0,504.0,500.0,503.0
510.0,508.0,499.0,500.0,506.0
503.0,502.0,494.0,496.0,511.0
501.0,498.0,495.0,499.0,513.0
500.0,497.0,506.0,506.0,520.0
506.0,500.0,514.0,516.0,521.0
509.0,502.0,523.0,525.0,520.0
515.0,503.0,527.0,527.0,521.0
514.0,503.0,530.0,528.0,518.0
518.0,501.0,529.0,525.0,521.0
514.0,500.0,523.0,521.0,518.0
516.0,506.0,524.0,524.0,513.0
519.0,508.0,521.0,519.0,507.0
520.0,514.0,520.0,517.0,505.0
523.0,523.0,520.0,518.0,505.0
523.0,521.0,514.0,512.0,512.0
518.0,517.0,506.0,506.0,513.0
511.0,512.0,499.0,500.0,516.0
505.0,508.0,495.0,497.0,513.0
500.0,504.0,494.0,496.0,515.0
503.0,497.0,499.0,500.0,515.0
506.0,499.0,507.0,512.0,513.0
505.0,498.0,515.0,517.0,514.0
507.0,496.0,519.0,522.0,519.0
516.0,501.0,523.0,524.0,521.0
515.0,501.0,526.0,527.0,516.0
513.0,499.0,523.0,522.0,520.0
512.0,503.0,523.0,520.0,518.0
512.0,505.0,522.0,516.0,518.0
519.0,511.0,520.0,519.0,513.0
525.0,515.0,523.0,516.0,508.0
527.0,522.0,522.0,518.0,501.0
526.0,523.0,515.0,512.0,498.0
518.0,521.0,507.0,506.0,502.0
511.0,512.0,500.0,503.0,505.0
505.0,509.0,497.0,499.0,505.0
496.0,499.0,491.0,500.0,524.0
498.0,498.0,501.0,509.0,521.0
509.0,501.0,510.0,510.0,513.0
515.0,500.0,517.0,522.0,514.0
515.0,503.0,526.0,527.0,515.0
519.0,508.0,529.0,529.0,519.0
518.0,501.0,531.0,526.0,513.0
516.0,502.0,526.0,523.0,521.0
517.0,502.0,523.0,522.0,519.0
519.0,509.0,524.0,523.0,510.0
519.0,515.0,522.0,522.0,507.0
525.0,517.0,521.0,519.0,503.0
528.0,516.0,516.0,516.0,500.0
522.0,519.0,510.0,506.0,505.0
517.0,519.0,503.0,502.0,506.0
509.0,509.0,498.0,497.0,514.0
508.0,503.0,496.0,494.0,517.0
498.0,497.0,495.0,499.0,522.0
501.0,499.0,500.0,505.0,520.0
502.0,498.0,513.0,514.0,515.0
508.0,500.0,520.0,522.0,517.0
511.0,498.0,525.0,526.0,517.0
513.0,499.0,525.0,530.0,519.0
516.0,499.0,524.0,524.0,521.0
514.0,507.0,525.0,522.0,520.0
520.0,505.0,524.0,520.0,516.0
517.0,508.0,522.0,520.0,517.0
521.0,513.0,524.0,518.0,512.0
522.0,517.0,520.0,516.0,509.0
520.0,518.0,513.0,512.0,503.0
524.0,521.0,513.0,509.0,501.0
518.0,514.0,505.0,504.0,507.0
512.0,508.0,499.0,498.0,506.0
507.0,503.0,499.0,500.0,510.0
502.0,500.0,499.0,502.0,516.0
503.0,496.0,507.0,509.0,517.0
505.0,498.0,514.0,520.0,520.0
514.0,500.0,524.0,524.0,519.0
513.0,501.0,526.0,527.0,519.0
515.0,500.0,527.0,529.0,515.0
513.0,500.0,526.0,526.0,515.0
515.0,503.0,525.0,524.0,516.0
518.0,509.0,524.0,521.0,523.0
518.0,508.0,520.0,517.0,518.0
521.0,515.0,520.0,514.0,516.0
523.0,519.0,517.0,515.0,507.0
521.0,520.0,513.0,508.0,502.0
522.0,517.0,506.0,505.0,496.0
508.0,511.0,500.0,501.0,498.0
505.0,501.0,494.0,495.0,510.0
496.0,499.0,491.0,491.0,521.0
496.0,495.0,497.0,499.0,525.0
506.0,500.0,512.0,514.0,523.0
510.0,500.0,518.0,520.0,524.0
508.0,501.0,527.0,526.0,525.0
510.0,499.0,527.0,524.0,526.0
518.0,500.0,524.0,524.0,525.0
513.0,500.0,524.0,525.0,528.0
516.0,505.0,524.0,522.0,524.0
518.0,513.0,525.0,520.0,519.0
520.0,513.0,522.0,516.0,519.0
520.0,518.0,520.0,519.0,508.0
523.0,520.0,517.0,514.0,504.0
528.0,519.0,515.0,509.0,501.0
520.0,517.0,502.0,506.0,505.0
511.0,509.0,497.0,495.0,508.0
502.0,504.0,494.0,502.0,513.0
497.0,500.0,496.0,500.0,522.0
506.0,498.0,504.0,506.0,522.0
507.0,498.0,512.0,517.0,522.0
512.0,498.0,517.0,521.0,519.0
514.0,500.0,524.0,527.0,520.0
512.0,501.0,530.0,526.0,522.0
512.0,503.0,524.0,527.0,517.0
514.0,500.0,523.0,523.0,521.0
514.0,507.0,522.0,521.0,516.0
517.0,508.0,522.0,522.0,514.0
527.0,514.0,522.0,521.0,512.0
530.0,522.0,526.0,524.0,503.0
524.0,522.0,515.0,514.0,503.0
519.0,521.0,507.0,507.0,506.0
515.0,511.0,500.0,500.0,508.0
506.0,508.0,497.0,499.0,514.0
498.0,500.0,494.0,502.0,517.0
497.0,497.0,497.0,505.0,520.0
501.0,498.0,512.0,512.0,521.0
505.0,497.0,514.0,517.0,522.0
509.0,500.0,523.0,521.0,526.0
515.0,500.0,525.0,527.0,522.0
512.0,501.0,527.0,527.0,523.0
513.0,501.0,527.0,523.0,522.0
514.0,502.0,524.0,523.0,519.0
518.0,506.0,522.0,521.0,514.0
519.0,511.0,521.0,521.0,512.0
525.0,515.0,521.0,518.0,505.0
526.0,519.0,518.0,515.0,507.0
527.0,518.0,513.0,509.0,505.0
519.0,521.0,505.0,506.0,504.0
510.0,511.0,500.0,504.0,510.0
507.0,508.0,498.0,499.0,509.0
502.0,505.0,497.0,500.0,513.0
502.0,501.0,501.0,506.0,516.0
505.0,498.0,511.0,514.0,519.0
509.0,500.0,517.0,522.0,523.0
512.0,501.0,523.0,529.0,521.0
514.0,500.0,526.0,528.0,518.0
515.0,499.0,525.0,524.0,517.0
512.0,501.0,525.0,524.0,516.0
514.0,502.0,524.0,522.0,512.0
516.0,505.0,521.0,515.0,512.0
517.0,508.0,521.0,512.0,511.0
523.0,515.0,522.0,514.0,507.0
524.0,522.0,518.0,512.0,504.0
522.0,519.0,512.0,508.0,504.0
516.0,514.0,504.0,504.0,506.0
507.0,506.0,496.0,499.0,510.0
501.0,501.0,495.0,495.0,515.0
502.0,500.0,500.0,499.0,519.0
505.0,502.0,503.0,510.0,522.0
505.0,495.0,506.0,513.0,522.0
509.0,500.0,519.0,519.0,524.0
510.0,501.0,525.0,524.0,520.0
513.0,501.0,527.0,526.0,519.0
512.0,501.0,527.0,527.0,522.0
516.0,505.0,526.0,522.0,518.0
514.0,504.0,524.0,521.0,517.0
519.0,509.0,522.0,518.0,512.0
522.0,517.0,523.0,521.0,508.0
524.0,519.0,521.0,518.0,506.0
529.0,522.0,519.0,513.0,499.0
523.0,517.0,510.0,510.0,500.0
514.0,512.0,499.0,508.0,503.0
508.0,511.0,502.0,501.0,513.0
503.0,505.0,497.0,498.0,516.0
504.0,500.0,499.0,501.0,519.0
506.0,498.0,505.0,509.0,520.0
508.0,500.0,516.0,520.0,520.0
509.0,498.0,520.0,523.0,519.0
512.0,502.0,527.0,528.0,519.0
514.0,503.0,529.0,533.0,518.0
519.0,503.0,525.0,525.0,512.0
522.0,505.0,525.0,523.0,512.0
518.0,503.0,522.0,518.0,510.0
520.0,508.0,522.0,515.0,506.0
522.0,517.0,520.0,514.0,505.0
524.0,517.0,518.0,514.0,500.0
527.0,521.0,514.0,511.0,498.0
521.0,518.0,510.0,508.0,500.0
514.0,511.0,500.0,506.0,507.0
505.0,508.0,498.0,498.0,515.0
500.0,500.0,496.0,497.0,522.0
500.0,493.0,498.0,500.0,522.0
506.0,495.0,507.0,509.0,524.0
510.0,499.0,519.0,519.0,520.0
509.0,502.0,523.0,527.0,522.0
514.0,500.0,526.0,531.0,517.0
520.0,498.0,521.0,529.0,515.0
524.0,502.0,527.0,524.0,515.0
514.0,504.0,522.0,521.0,516.0
516.0,512.0,520.0,520.0,514.0
520.0,512.0,520.0,519.0,512.0
530.0,518.0,523.0,519.0,501.0
538.0,524.0,520.0,518.0,499.0
528.0,522.0,509.0,510.0,501.0
513.0,519.0,504.0,501.0,504.0
505.0,509.0,497.0,496.0,507.0
499.0,501.0,492.0,495.0,516.0
500.0,499.0,495.0,499.0,519.0
500.0,497.0,502.0,505.0,517.0
506.0,497.0,512.0,514.0,520.0
508.0,501.0,518.0,522.0,523.0
509.0,502.0,522.0,524.0,524.0
511.0,500.0,525.0,525.0,525.0
512.0,499.0,521.0,523.0,524.0
514.0,503.0,516.0,525.0,520.0
516.0,507.0,518.0,520.0,520.0
521.0,507.0,515.0,517.0,515.0
521.0,508.0,510.0,509.0,514.0
524.0,517.0,512.0,511.0,501.0
525.0,519.0,509.0,509.0,500.0
523.0,519.0,507.0,507.0,503.0
511.0,513.0,502.0,503.0,509.0
504.0,512.0,497.0,496.0,514.0
500.0,499.0,495.0,494.0,523.0
504.0,498.0,495.0,498.0,520.0
502.0,503.0,506.0,508.0,519.0
506.0,503.0,519.0,521.0,521.0
509.0,500.0,526.0,527.0,524.0
513.0,502.0,529.0,527.0,522.0
516.0,500.0,527.0,527.0,521.0
510.0,498.0,519.0,523.0,513.0
516.0,503.0,519.0,524.0,513.0
519.0,507.0,518.0,525.0,509.0
521.0,514.0,518.0,522.0,509.0
524.0,517.0,513.0,518.0,507.0
526.0,522.0,507.0,516.0,507.0
521.0,520.0,499.0,507.0,507.0
516.0,515.0,497.0,502.0,507.0
508.0,511.0,495.0,498.0,511.0
504.0,505.0,500.0,496.0,516.0
499.0,499.0,492.0,498.0,522.0
498.0,493.0,487.0,502.0,527.0
506.0,500.0,497.0,512.0,525.0
508.0,501.0,507.0,520.0,520.0
512.0,503.0,518.0,527.0,521.0
513.0,502.0,521.0,529.0,518.0
513.0,502.0,517.0,527.0,520.0
513.0,506.0,515.0,525.0,519.0
513.0,505.0,512.0,520.0,525.0
519.0,504.0,516.0,517.0,517.0
518.0,504.0,519.0,518.0,517.0
523.0,508.0,522.0,513.0,508.0
529.0,517.0,527.0,515.0,501.0
521.0,518.0,523.0,511.0,504.0
519.0,518.0,525.0,511.0,505.0
508.0,513.0,524.0,505.0,514.0
503.0,505.0,520.0,504.0,515.0
501.0,502.0,521.0,505.0,520.0
502.0,505.0,511.0,515.0,522.0
504.0,501.0,520.0,523.0,521.0
512.0,506.0,527.0,527.0,521.0
516.0,503.0,534.0,532.0,517.0
517.0,509.0,537.0,532.0,521.0
516.0,503.0,534.0,527.0,516.0
513.0,505.0,529.0,523.0,519.0
515.0,506.0,527.0,517.0,518.0
524.0,506.0,523.0,517.0,513.0
528.0,512.0,521.0,517.0,507.0
534.0,524.0,528.0,521.0,498.0
527.0,528.0,521.0,519.0,502.0
521.0,523.0,512.0,503.0,505.0
513.0,517.0,509.0,500.0,507.0
505.0,514.0,501.0,497.0,509.0
504.0,504.0,497.0,499.0,515.0
499.0,494.0,498.0,499.0,522.0
506.0,488.0,507.0,509.0,512.0
511.0,487.0,517.0,522.0,515.0
511.0,480.0,519.0,521.0,523.0
509.0,485.0,523.0,527.0,524.0
514.0,483.0,522.0,525.0,522.0
508.0,487.0,517.0,522.0,522.0
510.0,502.0,523.0,522.0,515.0
513.0,512.0,520.0,518.0,517.0
520.0,516.0,519.0,521.0,509.0
526.0,530.0,524.0,526.0,499.0
531.0,535.0,533.0,529.0,492.0
531.0,530.0,526.0,516.0,492.0
516.0,523.0,511.0,506.0,508.0
504.0,510.0,503.0,490.0,524.0
504.0,505.0,501.0,492.0,520.0
502.0,503.0,504.0,504.0,515.0
505.0,502.0,506.0,508.0,518.0
502.0,508.0,518.0,512.0,523.0
507.0,504.0,534.0,520.0,523.0
509.0,502.0,534.0,524.0,524.0
513.0,504.0,513.0,526.0,522.0
513.0,505.0,507.0,527.0,524.0
514.0,505.0,514.0,527.0,521.0
521.0,508.0,521.0,526.0,513.0
525.0,503.0,517.0,522.0,513.0
517.0,509.0,515.0,518.0,511.0
518.0,517.0,513.0,516.0,505.0
527.0,511.0,508.0,514.0,502.0
526.0,504.0,500.0,506.0,502.0
520.0,495.0,496.0,507.0,500.0
512.0,498.0,496.0,505.0,501.0
503.0,485.0,492.0,494.0,515.0
496.0,486.0,494.0,495.0,522.0
498.0,491.0,506.0,501.0,520.0
506.0,495.0,515.0,515.0,515.0
517.0,500.0,516.0,525.0,513.0
517.0,504.0,514.0,524.0,521.0
515.0,501.0,524.0,527.0,518.0
525.0,489.0,523.0,528.0,517.0
515.0,463.0,520.0,523.0,521.0
506.0,463.0,509.0,520.0,518.0
507.0,472.0,516.0,517.0,515.0
521.0,496.0,518.0,519.0,508.0
524.0,505.0,508.0,514.0,503.0
518.0,504.0,510.0,507.0,507.0
513.0,506.0,519.0,505.0,508.0
505.0,526.0,522.0,504.0,506.0
504.0,552.0,528.0,506.0,506.0
506.0,537.0,520.0,500.0,514.0
506.0,521.0,506.0,505.0,517.0
507.0,513.0,496.0,510.0,517.0
513.0,510.0,515.0,518.0,521.0
518.0,511.0,525.0,526.0,515.0
516.0,513.0,528.0,528.0,516.0
515.0,504.0,524.0,522.0,516.0
513.0,498.0,520.0,521.0,517.0
519.0,512.0,529.0,519.0,515.0
527.0,528.0,540.0,530.0,504.0
518.0,525.0,539.0,525.0,504.0
521.0,517.0,527.0,520.0,507.0
521.0,508.0,510.0,520.0,507.0
522.0,506.0,487.0,525.0,500.0
519.0,498.0,486.0,521.0,503.0
510.0,473.0,472.0,505.0,513.0
499.0,470.0,471.0,495.0,522.0
495.0,477.0,484.0,494.0,525.0
498.0,465.0,490.0,484.0,518.0
504.0,454.0,483.0,488.0,518.0
508.0,461.0,487.0,513.0,512.0
516.0,474.0,508.0,530.0,509.0
511.0,485.0,504.0,521.0,515.0
508.0,483.0,496.0,513.0,520.0
509.0,513.0,495.0,512.0,521.0
518.0,533.0,510.0,522.0,513.0
525.0,506.0,505.0,520.0,514.0
526.0,505.0,507.0,510.0,505.0
525.0,490.0,509.0,512.0,502.0
515.0,472.0,503.0,505.0,509.0
520.0,489.0,502.0,496.0,506.0
518.0,512.0,507.0,487.0,508.0
507.0,501.0,505.0,489.0,512.0
500.0,489.0,495.0,503.0,512.0
502.0,477.0,504.0,513.0,517.0
513.0,495.0,522.0,519.0,512.0
517.0,531.0,543.0,522.0,514.0
520.0,537.0,542.0,526.0,516.0
515.0,536.0,491.0,512.0,516.0
520.0,503.0,465.0,492.0,519.0
520.0,486.0,484.0,500.0,520.0
505.0,478.0,471.0,528.0,527.0
511.0,484.0,454.0,530.0,515.0
514.0,484.0,460.0,511.0,517.0
523.0,492.0,470.0,507.0,516.0
527.0,531.0,492.0,511.0,513.0
524.0,528.0,499.0,512.0,499.0
515.0,495.0,534.0,509.0,509.0
510.0,479.0,547.0,511.0,511.0
500.0,466.0,547.0,505.0,515.0
500.0,438.0,552.0,501.0,517.0
493.0,433.0,556.0,509.0,519.0
500.0,457.0,542.0,518.0,521.0
512.0,521.0,564.0,538.0,512.0
519.0,524.0,574.0,542.0,511.0
522.0,530.0,583.0,545.0,512.0
518.0,558.0,573.0,539.0,513.0
523.0,562.0,535.0,527.0,517.0
515.0,565.0,530.0,515.0,518.0
519.0,568.0,537.0,519.0,513.0
517.0,566.0,541.0,520.0,515.0
529.0,566.0,541.0,520.0,503.0
538.0,566.0,538.0,517.0,494.0
535.0,562.0,532.0,522.0,490.0
520.0,557.0,530.0,526.0,491.0
518.0,549.0,523.0,511.0,505.0
510.0,525.0,515.0,494.0,509.0
499.0,507.0,519.0,510.0,518.0
499.0,502.0,528.0,506.0,527.0
503.0,512.0,537.0,496.0,519.0
512.0,517.0,550.0,505.0,514.0
512.0,514.0,564.0,523.0,525.0
517.0,519.0,552.0,525.0,520.0
527.0,513.0,532.0,524.0,503.0
520.0,477.0,509.0,514.0,499.0
524.0,477.0,526.0,517.0,499.0
520.0,496.0,523.0,516.0,498.0
523.0,467.0,506.0,509.0,500.0
516.0,454.0,510.0,514.0,496.0
514.0,448.0,509.0,513.0,487.0
513.0,469.0,511.0,527.0,499.0
507.0,492.0,491.0,525.0,508.0
507.0,457.0,479.0,494.0,511.0
497.0,453.0,488.0,491.0,526.0
496.0,469.0,526.0,499.0,530.0
502.0,473.0,542.0,517.0,512.0
507.0,440.0,524.0,517.0,518.0
509.0,410.0,500.0,502.0,515.0
501.0,424.0,519.0,511.0,535.0
496.0,499.0,525.0,514.0,539.0
507.0,487.0,516.0,505.0,533.0
502.0,492.0,539.0,512.0,527.0
503.0,540.0,526.0,522.0,518.0
516.0,585.0,507.0,550.0,503.0
515.0,567.0,522.0,564.0,498.0
524.0,579.0,582.0,554.0,489.0
534.0,544.0,579.0,542.0,483.0
532.0,502.0,518.0,489.0,493.0
508.0,428.0,477.0,480.0,517.0
498.0,363.0,481.0,466.0,521.0
489.0,366.0,493.0,473.0,523.0
477.0,387.0,459.0,478.0,531.0
484.0,416.0,455.0,494.0,537.0
513.0,558.0,519.0,523.0,529.0
526.0,561.0,524.0,528.0,498.0
524.0,503.0,550.0,549.0,517.0
517.0,474.0,521.0,530.0,521.0
507.0,401.0,484.0,519.0,530.0
488.0,315.0,472.0,505.0,534.0
504.0,367.0,487.0,513.0,512.0
533.0,564.0,532.0,541.0,484.0
531.0,652.0,568.0,515.0,504.0
531.0,625.0,571.0,482.0,523.0
539.0,616.0,577.0,472.0,495.0
540.0,599.0,510.0,488.0,475.0
523.0,529.0,462.0,471.0,492.0
515.0,529.0,478.0,470.0,500.0
502.0,514.0,511.0,468.0,503.0
487.0,465.0,461.0,458.0,535.0
489.0,418.0,479.0,492.0,527.0
501.0,473.0,580.0,526.0,516.0
498.0,430.0,571.0,572.0,523.0
501.0,335.0,456.0,535.0,528.0
498.0,357.0,456.0,514.0,527.0
519.0,501.0,507.0,519.0,530.0
516.0,495.0,493.0,506.0,514.0
520.0,537.0,479.0,535.0,519.0
528.0,553.0,598.0,558.0,497.0
532.0,552.0,698.0,588.0,491.0
530.0,633.0,703.0,588.0,491.0
520.0,639.0,636.0,553.0,490.0
514.0,630.0,636.0,526.0,500.0
504.0,579.0,501.0,476.0,518.0
509.0,532.0,435.0,441.0,526.0
513.0,458.0,487.0,489.0,517.0
518.0,444.0,485.0,542.0,487.0
517.0,477.0,489.0,558.0,495.0
506.0,503.0,484.0,534.0,528.0
517.0,523.0,519.0,515.0,515.0
521.0,559.0,568.0,520.0,501.0
520.0,505.0,549.0,516.0,510.0
514.0,445.0,515.0,526.0,488.0
518.0,443.0,538.0,521.0,480.0
516.0,423.0,677.0,533.0,487.0
508.0,338.0,809.0,554.0,509.0
520.0,369.0,865.0,590.0,497.0
504.0,466.0,642.0,512.0,523.0
508.0,482.0,302.0,455.0,541.0
504.0,517.0,232.0,436.0,535.0
499.0,458.0,335.0,415.0,526.0
496.0,477.0,412.0,392.0,526.0
495.0,550.0,467.0,457.0,519.0
511.0,508.0,540.0,504.0,518.0
525.0,597.0,550.0,546.0,507.0
540.0,644.0,543.0,565.0,510.0
523.0,532.0,546.0,599.0,518.0
513.0,485.0,516.0,558.0,525.0
515.0,543.0,429.0,499.0,508.0
521.0,575.0,436.0,465.0,522.0
504.0,524.0,474.0,454.0,548.0
495.0,534.0,524.0,461.0,544.0
512.0,483.0,599.0,533.0,523.0
534.0,405.0,566.0,588.0,504.0
522.0,387.0,532.0,592.0,510.0
499.0,482.0,530.0,605.0,507.0
495.0,585.0,513.0,543.0,522.0
509.0,543.0,440.0,478.0,530.0
512.0,469.0,340.0,433.0,526.0
529.0,449.0,416.0,499.0,510.0
529.0,373.0,564.0,542.0,480.0
517.0,427.0,714.0,569.0,497.0
493.0,398.0,635.0,493.0,530.0
502.0,463.0,448.0,421.0,537.0
490.0,464.0,402.0,449.0,549.0
506.0,613.0,501.0,491.0,535.0
515.0,702.0,544.0,545.0,520.0
526.0,731.0,570.0,570.0,503.0
537.0,646.0,553.0,540.0,499.0
532.0,616.0,477.0,517.0,507.0
530.0,611.0,492.0,530.0,491.0
515.0,610.0,556.0,559.0,520.0
509.0,590.0,458.0,533.0,514.0
498.0,582.0,416.0,513.0,513.0
502.0,574.0,522.0,508.0,526.0
498.0,513.0,551.0,528.0,513.0
495.0,516.0,578.0,547.0,505.0
492.0,508.0,586.0,554.0,522.0
517.0,543.0,579.0,572.0,505.0
511.0,507.0,490.0,559.0,501.0
515.0,519.0,402.0,540.0,503.0
518.0,509.0,422.0,501.0,491.0
508.0,460.0,471.0,466.0,501.0
509.0,397.0,494.0,481.0,515.0
515.0,382.0,486.0,496.0,525.0
512.0,381.0,500.0,489.0,516.0
509.0,395.0,543.0,499.0,522.0
521.0,494.0,644.0,552.0,506.0
526.0,517.0,697.0,559.0,505.0
517.0,470.0,533.0,527.0,517.0
505.0,431.0,458.0,553.0,490.0
498.0,462.0,596.0,474.0,492.0
492.0,427.0,584.0,451.0,506.0
477.0,349.0,413.0,455.0,530.0
483.0,508.0,483.0,421.0,575.0
518.0,649.0,551.0,486.0,547.0
548.0,762.0,616.0,596.0,530.0
540.0,710.0,569.0,616.0,557.0
522.0,600.0,442.0,559.0,571.0
508.0,548.0,411.0,478.0,560.0
513.0,597.0,525.0,475.0,555.0
513.0,578.0,611.0,491.0,537.0
515.0,560.0,546.0,471.0,519.0
535.0,568.0,513.0,509.0,495.0
557.0,544.0,541.0,547.0,490.0
535.0,509.0,532.0,592.0,491.0
497.0,416.0,482.0,576.0,512.0
475.0,365.0,409.0,520.0,538.0
477.0,308.0,365.0,480.0,560.0
480.0,382.0,446.0,452.0,522.0
504.0,465.0,586.0,493.0,482.0
503.0,464.0,635.0,530.0,481.0
503.0,440.0,525.0,503.0,505.0
510.0,508.0,451.0,523.0,515.0
508.0,528.0,485.0,529.0,521.0
515.0,563.0,573.0,523.0,516.0
530.0,596.0,571.0,527.0,495.0
529.0,582.0,482.0,566.0,500.0
517.0,474.0,503.0,574.0,519.0
511.0,372.0,473.0,490.0,520.0
540.0,459.0,526.0,530.0,467.0
529.0,510.0,526.0,516.0,487.0
503.0,522.0,481.0,465.0,508.0
496.0,646.0,545.0,536.0,501.0
494.0,674.0,543.0,461.0,537.0
515.0,608.0,490.0,380.0,527.0
513.0,489.0,581.0,502.0,521.0
504.0,433.0,592.0,514.0,539.0
494.0,355.0,467.0,518.0,540.0
514.0,493.0,361.0,504.0,550.0
533.0,541.0,451.0,537.0,536.0
508.0,517.0,536.0,589.0,537.0
495.0,508.0,536.0,586.0,531.0
515.0,498.0,451.0,487.0,523.0
521.0,497.0,465.0,475.0,530.0
543.0,578.0,607.0,551.0,484.0
540.0,593.0,685.0,543.0,472.0
519.0,593.0,710.0,549.0,492.0
523.0,575.0,588.0,533.0,483.0
500.0,479.0,396.0,513.0,511.0
491.0,420.0,349.0,496.0,512.0
493.0,478.0,464.0,477.0,516.0
484.0,446.0,446.0,481.0,538.0
483.0,462.0,364.0,437.0,538.0
499.0,575.0,435.0,493.0,537.0
515.0,590.0,470.0,560.0,534.0
530.0,608.0,531.0,541.0,517.0
527.0,591.0,587.0,550.0,514.0
523.0,557.0,537.0,521.0,510.0
520.0,528.0,525.0,527.0,492.0
507.0,533.0,493.0,511.0,511.0
520.0,510.0,484.0,488.0,510.0
520.0,509.0,518.0,530.0,499.0
517.0,556.0,565.0,549.0,497.0
513.0,528.0,561.0,544.0,511.0
528.0,539.0,471.0,493.0,490.0
514.0,512.0,478.0,495.0,498.0
500.0,468.0,491.0,504.0,523.0
503.0,494.0,500.0,487.0,563.0
510.0,496.0,518.0,486.0,552.0
507.0,500.0,541.0,502.0,527.0
505.0,431.0,548.0,496.0,513.0
514.0,449.0,563.0,508.0,505.0
512.0,382.0,433.0,527.0,518.0
487.0,350.0,479.0,524.0,526.0
496.0,439.0,512.0,512.0,534.0
513.0,472.0,575.0,500.0,530.0
511.0,454.0,549.0,512.0,526.0
524.0,526.0,604.0,540.0,515.0
523.0,553.0,511.0,490.0,505.0
532.0,606.0,455.0,499.0,497.0
526.0,637.0,514.0,516.0,507.0
527.0,583.0,609.0,543.0,513.0
519.0,585.0,593.0,531.0,514.0
504.0,558.0,526.0,530.0,523.0
497.0,518.0,447.0,512.0,529.0
500.0,516.0,471.0,514.0,526.0
501.0,504.0,492.0,496.0,537.0
508.0,490.0,504.0,507.0,546.0
518.0,503.0,552.0,509.0,519.0
520.0,500.0,577.0,522.0,496.0
514.0,509.0,499.0,516.0,498.0
516.0,469.0,427.0,534.0,487.0
522.0,477.0,515.0,538.0,475.0
509.0,416.0,515.0,540.0,482.0
517.0,466.0,514.0,541.0,488.0
514.0,478.0,550.0,574.0,491.0
513.0,573.0,614.0,576.0,514.0
530.0,579.0,615.0,485.0,526.0
520.0,607.0,608.0,491.0,521.0
504.0,561.0,558.0,462.0,527.0
499.0,561.0,510.0,473.0,525.0
503.0,568.0,503.0,491.0,523.0
507.0,558.0,478.0,492.0,528.0
514.0,499.0,462.0,583.0,509.0
520.0,472.0,491.0,579.0,492.0
518.0,420.0,608.0,536.0,513.0
510.0,429.0,581.0,533.0,523.0
509.0,411.0,402.0,497.0,525.0
529.0,487.0,447.0,498.0,505.0
521.0,484.0,508.0,525.0,513.0
497.0,445.0,464.0,532.0,533.0
535.0,643.0,536.0,528.0,499.0
548.0,670.0,515.0,510.0,483.0
529.0,593.0,514.0,527.0,489.0
519.0,576.0,477.0,498.0,507.0
513.0,534.0,489.0,494.0,515.0
504.0,515.0,492.0,496.0,515.0
495.0,470.0,485.0,488.0,527.0
495.0,435.0,491.0,504.0,513.0
500.0,474.0,572.0,528.0,505.0
501.0,491.0,601.0,515.0,524.0
517.0,534.0,585.0,516.0,512.0
517.0,479.0,461.0,523.0,531.0
506.0,472.0,509.0,523.0,546.0
504.0,488.0,552.0,531.0,532.0
530.0,566.0,525.0,515.0,524.0
529.0,570.0,473.0,514.0,512.0
534.0,511.0,492.0,532.0,496.0
530.0,425.0,494.0,513.0,489.0
513.0,445.0,497.0,471.0,507.0
512.0,470.0,530.0,497.0,514.0
520.0,490.0,636.0,519.0,509.0
516.0,566.0,687.0,489.0,515.0
502.0,508.0,529.0,460.0,521.0
491.0,503.0,348.0,495.0,516.0
512.0,549.0,569.0,579.0,504.0
500.0,497.0,724.0,583.0,528.0
484.0,477.0,495.0,484.0,540.0
498.0,496.0,415.0,448.0,529.0
504.0,541.0,436.0,507.0,530.0
511.0,585.0,497.0,542.0,528.0
516.0,566.0,464.0,543.0,525.0
518.0,497.0,453.0,505.0,519.0
521.0,472.0,477.0,522.0,504.0
540.0,474.0,489.0,538.0,483.0
536.0,426.0,492.0,544.0,472.0
515.0,472.0,496.0,530.0,503.0
516.0,567.0,518.0,504.0,508.0
503.0,589.0,492.0,473.0,511.0
503.0,590.0,511.0,473.0,519.0
496.0,542.0,471.0,467.0,521.0
493.0,530.0,491.0,510.0,528.0
498.0,521.0,522.0,526.0,529.0
509.0,511.0,496.0,505.0,526.0
509.0,451.0,551.0,538.0,528.0
511.0,436.0,493.0,533.0,521.0
520.0,470.0,511.0,531.0,503.0
514.0,491.0,560.0,512.0,527.0
510.0,507.0,555.0,499.0,525.0
515.0,530.0,540.0,517.0,518.0
515.0,501.0,530.0,523.0,507.0
531.0,507.0,524.0,511.0,495.0
536.0,495.0,487.0,516.0,484.0
522.0,472.0,465.0,486.0,492.0
522.0,510.0,483.0,484.0,511.0
510.0,533.0,478.0,501.0,525.0
509.0,519.0,492.0,505.0,529.0
494.0,514.0,481.0,520.0,527.0
489.0,520.0,487.0,515.0,512.0
501.0,526.0,505.0,525.0,518.0
516.0,569.0,518.0,527.0,518.0
519.0,561.0,505.0,542.0,516.0
519.0,539.0,528.0,555.0,513.0
501.0,500.0,501.0,552.0,522.0
502.0,480.0,503.0,483.0,525.0
518.0,481.0,604.0,516.0,509.0
521.0,530.0,643.0,538.0,513.0
525.0,516.0,649.0,524.0,498.0
530.0,451.0,538.0,498.0,495.0
515.0,414.0,489.0,491.0,497.0
513.0,408.0,473.0,493.0,514.0
525.0,481.0,522.0,501.0,493.0
510.0,451.0,495.0,507.0,494.0
504.0,546.0,543.0,541.0,491.0
510.0,647.0,633.0,556.0,502.0
517.0,588.0,533.0,496.0,528.0
509.0,558.0,404.0,459.0,532.0
507.0,505.0,459.0,516.0,541.0
512.0,529.0,517.0,558.0,538.0
519.0,561.0,515.0,534.0,528.0
518.0,513.0,527.0,532.0,524.0
518.0,538.0,561.0,542.0,515.0
516.0,473.0,523.0,530.0,524.0
509.0,443.0,466.0,515.0,521.0
508.0,454.0,509.0,522.0,511.0
517.0,530.0,587.0,535.0,497.0
538.0,579.0,553.0,528.0,478.0
522.0,547.0,524.0,508.0,506.0
520.0,530.0,500.0,484.0,518.0
522.0,513.0,453.0,468.0,522.0
511.0,522.0,496.0,491.0,489.0
508.0,546.0,557.0,495.0,472.0
502.0,508.0,503.0,543.0,495.0
513.0,463.0,451.0,502.0,495.0
526.0,475.0,511.0,518.0,492.0
522.0,417.0,550.0,552.0,502.0
508.0,381.0,441.0,505.0,529.0
487.0,384.0,444.0,505.0,559.0
505.0,496.0,535.0,511.0,560.0
510.0,537.0,599.0,504.0,566.0
511.0,510.0,497.0,498.0,545.0
526.0,579.0,518.0,546.0,529.0
532.0,606.0,583.0,586.0,508.0
517.0,586.0,556.0,542.0,509.0
522.0,610.0,512.0,494.0,515.0
513.0,530.0,554.0,479.0,520.0
493.0,463.0,459.0,453.0,536.0
496.0,500.0,503.0,466.0,533.0
495.0,523.0,525.0,517.0,514.0
508.0,551.0,538.0,535.0,504.0
523.0,572.0,542.0,531.0,505.0
521.0,474.0,436.0,498.0,512.0
534.0,413.0,437.0,525.0,509.0
511.0,383.0,474.0,538.0,525.0
509.0,431.0,530.0,535.0,524.0
519.0,534.0,548.0,551.0,502.0
528.0,549.0,570.0,542.0,492.0
521.0,487.0,542.0,519.0,486.0
521.0,495.0,493.0,498.0,494.0
516.0,497.0,426.0,463.0,493.0
513.0,571.0,446.0,482.0,502.0
508.0,584.0,544.0,493.0,495.0
512.0,589.0,524.0,496.0,489.0
507.0,570.0,500.0,508.0,480.0
513.0,538.0,481.0,514.0,490.0
518.0,485.0,516.0,525.0,494.0
523.0,388.0,516.0,541.0,502.0
497.0,330.0,522.0,519.0,521.0
494.0,431.0,543.0,505.0,535.0
520.0,520.0,554.0,516.0,523.0
525.0,633.0,635.0,528.0,507.0
518.0,626.0,541.0,497.0,510.0
506.0,560.0,450.0,514.0,517.0
510.0,496.0,500.0,538.0,481.0
523.0,504.0,521.0,546.0,475.0
534.0,498.0,537.0,544.0,481.0
539.0,552.0,562.0,531.0,483.0
526.0,548.0,590.0,521.0,491.0
508.0,463.0,488.0,497.0,512.0
493.0,343.0,467.0,471.0,515.0
489.0,318.0,418.0,467.0,539.0
487.0,349.0,502.0,499.0,563.0
481.0,458.0,517.0,494.0,559.0
499.0,524.0,448.0,473.0,542.0
515.0,571.0,434.0,498.0,521.0
530.0,626.0,492.0,548.0,501.0
531.0,611.0,461.0,557.0,498.0
527.0,595.0,441.0,533.0,525.0
515.0,537.0,455.0,520.0,531.0
514.0,483.0,477.0,517.0,517.0
518.0,523.0,597.0,533.0,497.0
524.0,608.0,694.0,551.0,491.0
541.0,606.0,647.0,519.0,483.0
535.0,610.0,671.0,517.0,459.0
529.0,597.0,611.0,530.0,463.0
509.0,552.0,490.0,504.0,501.0
500.0,499.0,410.0,470.0,534.0
493.0,477.0,438.0,496.0,550.0
503.0,472.0,504.0,537.0,560.0
508.0,464.0,501.0,533.0,540.0
513.0,519.0,498.0,557.0,523.0
509.0,521.0,541.0,534.0,517.0
514.0,516.0,576.0,522.0,516.0
505.0,483.0,532.0,511.0,547.0
505.0,418.0,443.0,482.0,543.0
521.0,498.0,492.0,512.0,509.0
522.0,512.0,513.0,533.0,480.0
519.0,554.0,587.0,543.0,476.0
523.0,520.0,680.0,536.0,497.0
530.0,496.0,607.0,507.0,493.0
516.0,473.0,602.0,527.0,501.0
512.0,466.0,521.0,533.0,505.0
503.0,397.0,462.0,476.0,537.0
485.0,406.0,483.0,439.0,539.0
511.0,528.0,514.0,467.0,507.0
514.0,587.0,496.0,508.0,499.0
502.0,592.0,448.0,505.0,518.0
514.0,597.0,483.0,513.0,513.0
530.0,563.0,485.0,556.0,502.0
524.0,518.0,479.0,548.0,498.0
519.0,474.0,475.0,530.0,526.0
517.0,417.0,488.0,522.0,525.0
511.0,385.0,528.0,532.0,521.0
503.0,386.0,565.0,527.0,484.0
520.0,421.0,567.0,495.0,471.0
510.0,428.0,509.0,523.0,499.0
516.0,507.0,424.0,547.0,495.0
517.0,542.0,512.0,485.0,511.0
521.0,611.0,621.0,480.0,525.0
506.0,631.0,608.0,485.0,544.0
507.0,626.0,535.0,479.0,549.0
507.0,573.0,447.0,523.0,530.0
508.0,557.0,556.0,517.0,520.0
516.0,582.0,632.0,568.0,515.0
503.0,535.0,453.0,530.0,527.0
504.0,458.0,421.0,480.0,541.0
518.0,410.0,490.0,499.0,520.0
512.0,411.0,520.0,516.0,517.0
509.0,419.0,498.0,524.0,511.0
507.0,426.0,446.0,501.0,520.0
539.0,588.0,482.0,506.0,503.0
545.0,552.0,527.0,524.0,494.0
526.0,509.0,541.0,512.0,518.0
504.0,552.0,460.0,471.0,540.0
521.0,576.0,535.0,514.0,505.0
518.0,577.0,515.0,511.0,498.0
510.0,534.0,488.0,474.0,518.0
516.0,493.0,424.0,487.0,497.0
510.0,491.0,450.0,495.0,515.0
512.0,521.0,492.0,560.0,515.0
517.0,534.0,503.0,534.0,519.0
509.0,502.0,505.0,509.0,522.0
504.0,486.0,540.0,531.0,527.0
505.0,512.0,595.0,560.0,530.0
517.0,550.0,596.0,548.0,526.0
519.0,528.0,546.0,517.0,506.0
516.0,453.0,426.0,496.0,511.0
510.0,444.0,475.0,521.0,515.0
525.0,457.0,489.0,532.0,505.0
533.0,434.0,529.0,543.0,501.0
505.0,398.0,519.0,518.0,496.0
522.0,589.0,556.0,521.0,473.0
517.0,517.0,559.0,537.0,474.0
494.0,448.0,516.0,527.0,501.0
495.0,501.0,456.0,481.0,517.0
503.0,579.0,517.0,489.0,512.0
504.0,578.0,592.0,479.0,521.0
510.0,557.0,629.0,456.0,542.0
514.0,566.0,619.0,560.0,512.0
532.0,554.0,579.0,566.0,506.0
524.0,522.0,443.0,549.0,524.0
515.0,494.0,443.0,494.0,519.0
503.0,514.0,453.0,471.0,533.0
497.0,470.0,504.0,503.0,524.0
516.0,489.0,578.0,523.0,491.0
521.0,496.0,554.0,507.0,486.0
513.0,510.0,443.0,495.0,503.0
528.0,534.0,497.0,505.0,481.0
526.0,524.0,526.0,531.0,457.0
508.0,543.0,486.0,499.0,494.0
490.0,494.0,564.0,527.0,510.0
502.0,490.0,555.0,489.0,491.0
513.0,541.0,568.0,523.0,501.0
511.0,491.0,459.0,524.0,495.0
508.0,500.0,480.0,546.0,532.0
510.0,492.0,486.0,554.0,547.0
500.0,425.0,475.0,519.0,543.0
514.0,415.0,469.0,495.0,526.0
507.0,435.0,482.0,508.0,522.0
510.0,512.0,479.0,505.0,525.0
517.0,537.0,539.0,512.0,521.0
527.0,575.0,607.0,521.0,517.0
530.0,496.0,505.0,527.0,502.0
519.0,410.0,395.0,500.0,519.0
519.0,485.0,428.0,465.0,524.0
515.0,491.0,502.0,504.0,507.0
495.0,484.0,529.0,514.0,505.0
499.0,587.0,464.0,460.0,519.0
504.0,630.0,524.0,457.0,541.0
497.0,567.0,562.0,548.0,557.0
524.0,589.0,583.0,538.0,502.0
518.0,562.0,530.0,544.0,501.0
512.0,534.0,535.0,567.0,524.0
503.0,505.0,512.0,521.0,533.0
515.0,529.0,507.0,497.0,527.0
527.0,489.0,505.0,514.0,505.0
524.0,472.0,500.0,518.0,516.0
505.0,415.0,508.0,515.0,512.0
516.0,480.0,560.0,495.0,500.0
526.0,522.0,594.0,508.0,496.0
529.0,478.0,562.0,499.0,509.0
527.0,454.0,475.0,501.0,505.0
503.0,446.0,550.0,541.0,525.0
491.0,450.0,477.0,525.0,532.0
484.0,366.0,447.0,498.0,510.0
495.0,411.0,460.0,501.0,503.0
491.0,352.0,402.0,513.0,497.0
517.0,513.0,508.0,495.0,473.0
515.0,526.0,521.0,485.0,478.0
512.0,539.0,565.0,515.0,491.0
517.0,594.0,580.0,569.0,487.0
534.0,663.0,507.0,582.0,479.0
538.0,638.0,518.0,528.0,478.0
534.0,598.0,506.0,492.0,465.0
531.0,597.0,520.0,520.0,489.0
524.0,581.0,561.0,561.0,498.0
522.0,535.0,554.0,544.0,508.0
525.0,520.0,488.0,517.0,532.0
508.0,482.0,577.0,479.0,537.0
526.0,596.0,773.0,519.0,521.0
496.0,547.0,801.0,495.0,547.0
487.0,512.0,543.0,476.0,549.0
500.0,489.0,382.0,481.0,537.0
502.0,467.0,360.0,495.0,529.0
498.0,465.0,479.0,547.0,538.0
504.0,482.0,498.0,570.0,538.0
519.0,567.0,510.0,565.0,516.0
509.0,541.0,469.0,547.0,524.0
517.0,509.0,462.0,542.0,509.0
520.0,515.0,465.0,507.0,497.0
522.0,502.0,454.0,479.0,523.0
524.0,498.0,490.0,499.0,519.0
522.0,505.0,536.0,495.0,522.0
527.0,495.0,541.0,494.0,513.0
522.0,502.0,583.0,486.0,504.0
524.0,527.0,496.0,491.0,495.0
505.0,576.0,492.0,506.0,495.0
496.0,514.0,480.0,499.0,509.0
486.0,471.0,393.0,468.0,532.0
511.0,486.0,491.0,510.0,508.0
510.0,447.0,511.0,531.0,522.0
505.0,361.0,477.0,510.0,518.0
499.0,296.0,473.0,520.0,514.0
478.0,307.0,485.0,532.0,528.0
502.0,528.0,525.0,530.0,525.0
531.0,647.0,573.0,560.0,492.0
520.0,640.0,571.0,545.0,484.0
541.0,598.0,557.0,534.0,478.0
556.0,624.0,562.0,557.0,460.0
541.0,616.0,554.0,562.0,468.0
536.0,567.0,544.0,508.0,465.0
511.0,522.0,517.0,515.0,484.0
512.0,510.0,501.0,521.0,510.0
509.0,487.0,511.0,517.0,504.0
505.0,526.0,489.0,486.0,519.0
510.0,554.0,530.0,535.0,518.0
513.0,521.0,581.0,512.0,517.0
507.0,497.0,539.0,485.0,527.0
506.0,486.0,517.0,509.0,514.0
501.0,481.0,439.0,479.0,526.0
514.0,521.0,480.0,465.0,558.0
516.0,512.0,554.0,538.0,555.0
514.0,481.0,565.0,554.0,537.0
512.0,437.0,562.0,520.0,541.0
503.0,390.0,535.0,507.0,533.0
502.0,467.0,477.0,493.0,523.0
525.0,583.0,497.0,486.0,495.0
524.0,608.0,561.0,551.0,491.0
504.0,570.0,489.0,477.0,543.0
501.0,514.0,430.0,467.0,533.0
505.0,509.0,467.0,483.0,517.0
505.0,485.0,499.0,499.0,514.0
502.0,487.0,523.0,539.0,522.0
513.0,504.0,530.0,549.0,513.0
513.0,497.0,675.0,542.0,529.0
516.0,523.0,678.0,546.0,521.0
510.0,471.0,486.0,518.0,519.0
504.0,417.0,558.0,495.0,525.0
493.0,391.0,549.0,491.0,521.0
520.0,469.0,461.0,490.0,505.0
519.0,417.0,389.0,524.0,490.0
521.0,477.0,485.0,551.0,505.0
529.0,504.0,553.0,536.0,506.0
517.0,542.0,536.0,520.0,490.0
509.0,550.0,495.0,491.0,498.0
495.0,459.0,438.0,467.0,514.0
495.0,458.0,473.0,519.0,512.0
494.0,481.0,468.0,536.0,518.0
503.0,562.0,477.0,526.0,528.0
515.0,594.0,464.0,518.0,512.0
525.0,567.0,507.0,527.0,505.0
528.0,495.0,561.0,519.0,498.0
522.0,536.0,579.0,538.0,503.0
512.0,526.0,560.0,537.0,504.0
519.0,590.0,505.0,520.0,496.0
514.0,569.0,519.0,471.0,509.0
527.0,578.0,552.0,501.0,510.0
528.0,539.0,481.0,537.0,485.0
522.0,492.0,510.0,529.0,505.0
514.0,524.0,501.0,497.0,527.0
522.0,507.0,477.0,483.0,508.0
513.0,471.0,432.0,485.0,501.0
511.0,522.0,480.0,494.0,514.0
491.0,440.0,474.0,472.0,544.0
483.0,442.0,463.0,487.0,535.0
490.0,445.0,529.0,530.0,517.0
507.0,400.0,548.0,539.0,507.0
512.0,405.0,488.0,537.0,510.0
506.0,463.0,465.0,485.0,522.0
522.0,633.0,589.0,531.0,506.0
525.0,655.0,627.0,550.0,491.0
525.0,598.0,539.0,523.0,486.0
521.0,536.0,496.0,505.0,491.0
527.0,537.0,545.0,503.0,501.0
526.0,557.0,567.0,489.0,508.0
528.0,546.0,481.0,519.0,516.0
514.0,527.0,436.0,523.0,540.0
504.0,507.0,449.0,513.0,521.0
507.0,497.0,460.0,506.0,502.0
514.0,490.0,500.0,511.0,493.0
497.0,494.0,506.0,490.0,517.0
499.0,497.0,516.0,468.0,527.0
504.0,503.0,479.0,497.0,525.0
514.0,496.0,519.0,516.0,528.0
512.0,489.0,599.0,537.0,528.0
525.0,507.0,636.0,542.0,524.0
527.0,484.0,610.0,546.0,517.0
499.0,485.0,538.0,577.0,526.0
508.0,537.0,541.0,552.0,523.0
519.0,534.0,591.0,531.0,507.0
522.0,546.0,500.0,499.0,510.0
530.0,538.0,507.0,512.0,515.0
537.0,545.0,513.0,498.0,499.0
523.0,527.0,493.0,497.0,506.0
512.0,549.0,533.0,510.0,495.0
519.0,511.0,504.0,521.0,487.0
519.0,496.0,491.0,506.0,504.0
504.0,506.0,509.0,505.0,514.0
517.0,516.0,516.0,518.0,509.0
514.0,488.0,500.0,498.0,518.0
507.0,444.0,446.0,494.0,519.0
496.0,437.0,499.0,489.0,523.0
506.0,499.0,538.0,511.0,506.0
518.0,488.0,525.0,549.0,496.0
521.0,520.0,515.0,531.0,498.0
513.0,476.0,511.0,516.0,508.0
534.0,505.0,529.0,552.0,472.0
518.0,500.0,518.0,549.0,476.0
515.0,539.0,522.0,535.0,488.0
520.0,527.0,512.0,512.0,492.0
517.0,480.0,502.0,507.0,507.0
511.0,447.0,525.0,497.0,505.0
500.0,483.0,486.0,469.0,528.0
487.0,481.0,390.0,414.0,545.0
505.0,527.0,486.0,498.0,535.0
513.0,510.0,615.0,577.0,555.0
498.0,476.0,661.0,583.0,558.0
492.0,539.0,618.0,559.0,558.0
508.0,617.0,558.0,481.0,547.0
525.0,582.0,473.0,482.0,512.0
533.0,537.0,495.0,517.0,486.0
527.0,514.0,597.0,503.0,489.0
526.0,503.0,570.0,492.0,476.0
531.0,466.0,555.0,537.0,475.0
525.0,486.0,443.0,552.0,471.0
533.0,550.0,416.0,515.0,468.0
537.0,551.0,455.0,491.0,479.0
524.0,509.0,464.0,505.0,476.0
510.0,475.0,513.0,515.0,521.0
494.0,462.0,505.0,504.0,545.0
489.0,498.0,513.0,505.0,552.0
483.0,471.0,466.0,489.0,568.0
479.0,455.0,444.0,484.0,566.0
511.0,568.0,513.0,510.0,542.0
519.0,554.0,511.0,521.0,524.0
506.0,505.0,547.0,527.0,526.0
498.0,513.0,534.0,516.0,524.0
511.0,511.0,519.0,520.0,514.0
515.0,459.0,488.0,541.0,501.0
519.0,477.0,513.0,527.0,522.0
513.0,423.0,503.0,507.0,509.0
510.0,378.0,460.0,494.0,512.0
502.0,387.0,452.0,507.0,504.0
527.0,557.0,520.0,513.0,505.0
533.0,604.0,566.0,501.0,496.0
526.0,575.0,495.0,529.0,502.0
494.0,510.0,487.0,530.0,516.0
486.0,504.0,560.0,504.0,509.0
498.0,541.0,620.0,474.0,508.0
505.0,533.0,540.0,526.0,520.0
517.0,566.0,574.0,535.0,510.0
512.0,514.0,520.0,520.0,527.0
511.0,491.0,497.0,538.0,531.0
510.0,527.0,473.0,525.0,524.0
521.0,520.0,520.0,529.0,516.0
518.0,439.0,542.0,516.0,515.0
501.0,437.0,489.0,485.0,529.0
518.0,542.0,469.0,496.0,510.0
536.0,580.0,505.0,529.0,497.0
535.0,578.0,543.0,540.0,483.0
520.0,562.0,505.0,551.0,478.0
526.0,590.0,473.0,534.0,459.0
511.0,563.0,499.0,507.0,479.0
494.0,535.0,489.0,475.0,518.0
499.0,525.0,475.0,474.0,506.0
504.0,514.0,504.0,518.0,494.0
511.0,512.0,498.0,514.0,508.0
518.0,520.0,536.0,534.0,498.0
515.0,509.0,535.0,540.0,514.0
511.0,502.0,536.0,533.0,530.0
518.0,501.0,534.0,537.0,540.0
518.0,498.0,527.0,541.0,553.0
513.0,475.0,477.0,493.0,539.0
518.0,538.0,518.0,524.0,508.0
527.0,507.0,606.0,558.0,491.0
518.0,480.0,585.0,499.0,504.0
516.0,477.0,556.0,458.0,504.0
511.0,487.0,487.0,455.0,504.0
505.0,509.0,449.0,517.0,511.0
514.0,526.0,490.0,523.0,517.0
513.0,510.0,514.0,504.0,502.0
497.0,457.0,529.0,497.0,527.0
493.0,428.0,508.0,496.0,528.0
504.0,407.0,447.0,510.0,529.0
506.0,537.0,508.0,533.0,527.0
505.0,566.0,534.0,541.0,542.0
519.0,537.0,524.0,537.0,535.0
522.0,518.0,524.0,532.0,534.0
531.0,521.0,539.0,534.0,519.0
525.0,505.0,534.0,528.0,512.0
513.0,501.0,502.0,509.0,508.0
517.0,474.0,496.0,505.0,489.0
523.0,485.0,508.0,507.0,487.0
517.0,478.0,492.0,500.0,498.0
514.0,572.0,506.0,497.0,493.0
507.0,559.0,541.0,510.0,491.0
498.0,523.0,526.0,505.0,503.0
497.0,507.0,493.0,498.0,514.0
508.0,499.0,476.0,513.0,515.0
506.0,442.0,498.0,525.0,511.0
502.0,431.0,494.0,539.0,512.0
517.0,490.0,495.0,531.0,488.0
534.0,522.0,543.0,534.0,480.0
528.0,530.0,552.0,504.0,494.0
532.0,533.0,587.0,528.0,500.0
522.0,538.0,595.0,560.0,498.0
517.0,550.0,570.0,547.0,530.0
516.0,536.0,458.0,494.0,527.0
530.0,538.0,475.0,489.0,498.0
522.0,545.0,543.0,530.0,492.0
520.0,549.0,500.0,538.0,505.0
512.0,524.0,489.0,501.0,504.0
506.0,494.0,486.0,472.0,503.0
496.0,472.0,480.0,490.0,504.0
481.0,452.0,505.0,497.0,525.0
494.0,490.0,502.0,514.0,516.0
511.0,525.0,498.0,499.0,501.0
513.0,479.0,498.0,523.0,488.0
513.0,486.0,548.0,546.0,493.0
508.0,499.0,549.0,537.0,494.0
523.0,522.0,512.0,534.0,501.0
513.0,548.0,499.0,534.0,516.0
506.0,533.0,482.0,500.0,531.0
519.0,534.0,538.0,505.0,522.0
518.0,524.0,548.0,514.0,521.0
512.0,525.0,529.0,511.0,531.0
509.0,520.0,535.0,505.0,542.0
500.0,501.0,496.0,510.0,527.0
507.0,504.0,483.0,498.0,508.0
505.0,528.0,512.0,515.0,498.0
500.0,511.0,533.0,507.0,503.0
498.0,470.0,502.0,460.0,518.0
497.0,447.0,505.0,514.0,527.0
498.0,416.0,498.0,506.0,542.0
506.0,480.0,464.0,487.0,544.0
520.0,585.0,523.0,540.0,520.0
513.0,528.0,533.0,530.0,517.0
516.0,511.0,538.0,513.0,511.0
521.0,497.0,528.0,499.0,515.0
522.0,485.0,541.0,523.0,503.0
517.0,467.0,539.0,541.0,510.0
509.0,458.0,459.0,504.0,522.0
520.0,539.0,515.0,506.0,518.0
527.0,485.0,528.0,498.0,504.0
518.0,462.0,535.0,497.0,494.0
514.0,512.0,491.0,498.0,510.0
503.0,534.0,453.0,510.0,507.0
505.0,516.0,460.0,499.0,510.0
496.0,510.0,505.0,519.0,523.0
504.0,481.0,515.0,520.0,520.0
516.0,494.0,579.0,524.0,513.0
517.0,544.0,576.0,536.0,520.0
517.0,522.0,513.0,513.0,520.0
521.0,511.0,491.0,507.0,520.0
509.0,501.0,499.0,528.0,521.0
506.0,510.0,503.0,523.0,529.0
521.0,525.0,512.0,507.0,519.0
531.0,532.0,510.0,504.0,498.0
528.0,523.0,516.0,526.0,482.0
524.0,516.0,519.0,530.0,500.0
520.0,516.0,514.0,536.0,503.0
523.0,537.0,549.0,534.0,486.0
515.0,550.0,545.0,524.0,498.0
501.0,511.0,490.0,492.0,516.0
499.0,519.0,478.0,485.0,517.0
504.0,519.0,507.0,502.0,518.0
518.0,513.0,517.0,518.0,515.0
523.0,491.0,516.0,527.0,523.0
523.0,469.0,521.0,529.0,514.0
510.0,456.0,513.0,531.0,513.0
496.0,446.0,498.0,509.0,537.0
514.0,533.0,514.0,518.0,513.0
521.0,548.0,520.0,518.0,500.0
520.0,534.0,522.0,523.0,494.0
520.0,523.0,520.0,515.0,493.0
524.0,528.0,537.0,513.0,493.0
523.0,528.0,525.0,513.0,499.0
520.0,534.0,531.0,517.0,508.0
516.0,531.0,513.0,493.0,520.0
512.0,521.0,486.0,495.0,522.0
500.0,507.0,491.0,498.0,541.0
495.0,498.0,495.0,495.0,528.0
503.0,500.0,550.0,510.0,522.0
507.0,505.0,579.0,529.0,519.0
522.0,522.0,512.0,534.0,500.0
526.0,503.0,478.0,538.0,497.0
513.0,497.0,491.0,520.0,525.0
510.0,500.0,532.0,510.0,539.0
512.0,506.0,530.0,518.0,528.0
515.0,509.0,511.0,518.0,520.0
520.0,519.0,518.0,521.0,502.0
527.0,524.0,516.0,522.0,501.0
527.0,521.0,508.0,514.0,509.0
522.0,510.0,501.0,495.0,508.0
513.0,495.0,498.0,487.0,508.0
501.0,496.0,502.0,490.0,518.0
504.0,524.0,503.0,506.0,511.0
508.0,511.0,502.0,507.0,509.0
507.0,497.0,507.0,515.0,512.0
501.0,468.0,498.0,500.0,530.0
506.0,481.0,505.0,513.0,520.0
499.0,483.0,520.0,530.0,524.0
510.0,529.0,541.0,528.0,518.0
507.0,510.0,521.0,513.0,520.0
510.0,497.0,513.0,507.0,521.0
514.0,510.0,536.0,504.0,524.0
513.0,528.0,553.0,530.0,523.0
517.0,515.0,517.0,540.0,508.0
523.0,505.0,498.0,543.0,504.0
518.0,501.0,524.0,528.0,513.0
516.0,468.0,499.0,485.0,502.0
513.0,531.0,502.0,494.0,507.0
514.0,534.0,500.0,500.0,505.0
508.0,513.0,497.0,497.0,506.0
500.0,504.0,498.0,499.0,518.0
502.0,504.0,526.0,500.0,529.0
507.0,504.0,540.0,508.0,525.0
509.0,497.0,512.0,509.0,523.0
508.0,500.0,510.0,530.0,519.0
508.0,496.0,525.0,533.0,521.0
505.0,495.0,509.0,521.0,520.0
514.0,504.0,512.0,520.0,514.0
512.0,503.0,521.0,523.0,514.0
515.0,513.0,523.0,520.0,508.0
524.0,511.0,533.0,521.0,502.0
527.0,521.0,536.0,529.0,501.0
524.0,503.0,513.0,523.0,500.0
511.0,495.0,483.0,509.0,499.0
505.0,518.0,499.0,502.0,505.0
508.0,512.0,498.0,495.0,512.0
503.0,500.0,501.0,495.0,518.0
501.0,519.0,514.0,507.0,522.0
511.0,524.0,516.0,512.0,516.0
512.0,500.0,522.0,520.0,513.0
516.0,479.0,521.0,532.0,513.0
511.0,447.0,503.0,525.0,522.0
505.0,472.0,508.0,516.0,526.0
517.0,516.0,521.0,524.0,510.0
512.0,551.0,534.0,529.0,512.0
506.0,526.0,525.0,527.0,512.0
510.0,514.0,518.0,515.0,518.0
515.0,516.0,518.0,518.0,507.0
523.0,535.0,520.0,514.0,503.0
522.0,527.0,515.0,510.0,496.0
515.0,516.0,503.0,510.0,501.0
522.0,514.0,493.0,499.0,507.0
510.0,509.0,485.0,497.0,512.0
505.0,522.0,502.0,501.0,524.0
512.0,513.0,510.0,500.0,518.0
515.0,505.0,516.0,513.0,506.0
520.0,511.0,530.0,528.0,511.0
519.0,509.0,527.0,530.0,513.0
520.0,503.0,519.0,522.0,516.0
516.0,506.0,520.0,527.0,518.0
513.0,503.0,522.0,524.0,521.0
516.0,507.0,523.0,519.0,521.0
520.0,510.0,521.0,512.0,514.0
531.0,512.0,521.0,511.0,503.0
527.0,516.0,514.0,506.0,499.0
524.0,520.0,514.0,521.0,503.0
526.0,528.0,518.0,524.0,505.0
521.0,521.0,510.0,510.0,500.0
505.0,513.0,497.0,498.0,512.0
495.0,502.0,490.0,492.0,522.0
497.0,500.0,496.0,494.0,524.0
503.0,498.0,503.0,507.0,521.0
514.0,499.0,514.0,517.0,516.0
512.0,495.0,516.0,521.0,517.0
509.0,497.0,520.0,526.0,517.0
508.0,498.0,523.0,529.0,509.0
501.0,502.0,538.0,531.0,521.0
508.0,510.0,544.0,520.0,521.0
507.0,506.0,510.0,519.0,521.0
515.0,513.0,516.0,518.0,518.0
519.0,519.0,521.0,517.0,509.0
519.0,520.0,517.0,511.0,504.0
527.0,524.0,516.0,511.0,500.0
525.0,519.0,511.0,512.0,498.0
520.0,515.0,506.0,508.0,498.0
517.0,510.0,500.0,495.0,503.0
505.0,501.0,493.0,497.0,509.0
506.0,499.0,497.0,500.0,512.0
510.0,503.0,506.0,515.0,512.0
514.0,499.0,510.0,521.0,521.0
515.0,500.0,520.0,521.0,520.0
517.0,504.0,524.0,527.0,525.0
519.0,504.0,523.0,525.0,522.0
517.0,504.0,528.0,530.0,521.0
515.0,505.0,525.0,522.0,513.0
512.0,507.0,523.0,523.0,508.0
510.0,508.0,519.0,517.0,507.0
508.0,512.0,520.0,520.0,504.0
509.0,520.0,521.0,514.0,509.0
501.0,521.0,511.0,507.0,509.0
493.0,511.0,505.0,500.0,516.0
490.0,508.0,497.0,501.0,523.0
503.0,507.0,493.0,490.0,519.0
509.0,501.0,496.0,497.0,520.0
519.0,507.0,506.0,511.0,520.0
526.0,502.0,512.0,516.0,519.0
526.0,506.0,519.0,521.0,518.0
532.0,502.0,524.0,530.0,514.0
522.0,502.0,525.0,525.0,514.0
525.0,503.0,522.0,523.0,517.0
521.0,503.0,520.0,518.0,521.0
520.0,507.0,522.0,520.0,512.0
522.0,511.0,520.0,518.0,509.0
527.0,518.0,526.0,519.0,510.0
530.0,523.0,522.0,518.0,505.0
535.0,529.0,519.0,515.0,505.0
530.0,526.0,511.0,512.0,506.0
520.0,515.0,504.0,504.0,513.0
515.0,512.0,500.0,501.0,510.0
508.0,505.0,496.0,502.0,519.0
504.0,498.0,497.0,502.0,514.0
513.0,500.0,505.0,509.0,507.0
514.0,494.0,513.0,522.0,509.0
513.0,485.0,519.0,527.0,503.0
522.0,498.0,526.0,531.0,510.0
528.0,490.0,523.0,534.0,516.0
520.0,499.0,520.0,528.0,522.0
518.0,509.0,523.0,513.0,524.0
516.0,509.0,521.0,515.0,515.0
516.0,511.0,524.0,520.0,505.0
525.0,516.0,521.0,515.0,490.0
531.0,516.0,519.0,513.0,491.0
519.0,515.0,510.0,507.0,501.0
515.0,525.0,507.0,501.0,511.0
506.0,521.0,502.0,500.0,512.0
509.0,515.0,499.0,503.0,515.0
503.0,505.0,496.0,498.0,519.0
499.0,502.0,501.0,506.0,521.0
493.0,493.0,507.0,513.0,526.0
507.0,502.0,513.0,515.0,519.0
520.0,500.0,518.0,525.0,498.0
518.0,500.0,521.0,524.0,498.0
511.0,499.0,523.0,524.0,504.0
509.0,501.0,519.0,529.0,504.0
514.0,508.0,522.0,525.0,509.0
517.0,516.0,525.0,521.0,499.0
522.0,514.0,524.0,519.0,505.0
524.0,520.0,524.0,520.0,491.0
530.0,521.0,518.0,515.0,507.0
531.0,518.0,512.0,511.0,504.0
521.0,518.0,505.0,501.0,492.0
509.0,511.0,506.0,501.0,493.0
502.0,500.0,493.0,497.0,500.0
497.0,497.0,497.0,505.0,515.0
509.0,499.0,499.0,501.0,520.0
513.0,501.0,514.0,523.0,508.0
515.0,499.0,520.0,520.0,513.0
516.0,503.0,527.0,524.0,511.0
512.0,500.0,523.0,526.0,516.0
515.0,499.0,516.0,520.0,521.0
516.0,503.0,522.0,521.0,517.0
514.0,507.0,523.0,522.0,502.0
519.0,511.0,523.0,520.0,507.0
526.0,524.0,527.0,523.0,495.0
532.0,523.0,526.0,521.0,489.0
523.0,518.0,517.0,513.0,486.0
518.0,518.0,507.0,502.0,498.0
510.0,512.0,504.0,506.0,498.0
506.0,506.0,500.0,501.0,506.0
507.0,501.0,488.0,495.0,512.0
502.0,500.0,499.0,506.0,519.0
500.0,498.0,502.0,504.0,538.0
507.0,504.0,512.0,514.0,526.0
511.0,502.0,519.0,523.0,533.0
518.0,504.0,524.0,528.0,517.0
520.0,503.0,521.0,530.0,513.0
516.0,501.0,523.0,526.0,514.0
514.0,505.0,522.0,524.0,513.0
509.0,507.0,520.0,519.0,519.0
511.0,510.0,520.0,520.0,519.0
515.0,515.0,521.0,519.0,516.0
516.0,522.0,524.0,517.0,509.0
516.0,521.0,516.0,513.0,503.0
515.0,518.0,511.0,507.0,501.0
508.0,513.0,507.0,502.0,507.0
502.0,506.0,496.0,498.0,498.0
500.0,500.0,499.0,504.0,493.0
505.0,503.0,503.0,502.0,495.0
511.0,501.0,510.0,513.0,494.0
515.0,500.0,515.0,523.0,507.0
519.0,499.0,521.0,530.0,507.0
514.0,498.0,521.0,527.0,509.0
515.0,500.0,521.0,521.0,508.0
517.0,501.0,520.0,524.0,505.0
515.0,502.0,520.0,521.0,515.0
513.0,512.0,524.0,520.0,515.0
513.0,515.0,527.0,523.0,508.0
515.0,519.0,524.0,520.0,503.0
537.0,522.0,521.0,518.0,492.0
533.0,525.0,517.0,515.0,496.0
516.0,516.0,507.0,506.0,498.0
505.0,510.0,499.0,504.0,507.0
497.0,502.0,499.0,495.0,512.0
496.0,498.0,503.0,510.0,516.0
493.0,495.0,507.0,511.0,526.0
504.0,499.0,511.0,519.0,521.0
517.0,503.0,521.0,525.0,516.0
523.0,503.0,527.0,537.0,523.0
516.0,502.0,524.0,527.0,528.0
507.0,497.0,518.0,517.0,532.0
519.0,499.0,521.0,520.0,512.0
511.0,501.0,518.0,520.0,507.0
514.0,506.0,521.0,516.0,509.0
516.0,514.0,528.0,522.0,502.0
521.0,522.0,523.0,516.0,494.0
531.0,526.0,516.0,512.0,484.0
522.0,516.0,510.0,502.0,496.0
502.0,510.0,501.0,505.0,507.0
500.0,509.0,497.0,503.0,512.0
495.0,499.0,498.0,497.0,520.0
493.0,501.0,502.0,504.0,520.0
506.0,500.0,510.0,513.0,526.0
527.0,505.0,520.0,517.0,510.0
531.0,505.0,522.0,524.0,500.0
524.0,508.0,527.0,530.0,500.0
517.0,502.0,525.0,525.0,505.0
519.0,501.0,524.0,532.0,500.0
520.0,507.0,523.0,521.0,502.0
517.0,510.0,525.0,520.0,522.0
517.0,510.0,521.0,519.0,521.0
524.0,517.0,524.0,528.0,517.0
535.0,526.0,520.0,510.0,519.0
533.0,523.0,515.0,512.0,513.0
513.0,515.0,510.0,511.0,520.0
502.0,509.0,500.0,504.0,520.0
500.0,503.0,496.0,496.0,509.0
500.0,502.0,495.0,495.0,506.0
500.0,497.0,498.0,501.0,508.0
500.0,500.0,510.0,516.0,508.0
502.0,501.0,520.0,525.0,504.0
511.0,504.0,522.0,522.0,496.0
521.0,504.0,524.0,526.0,489.0
520.0,503.0,524.0,529.0,494.0
518.0,502.0,520.0,521.0,510.0
515.0,505.0,523.0,523.0,522.0
525.0,508.0,522.0,520.0,514.0
528.0,507.0,516.0,517.0,506.0
531.0,513.0,518.0,519.0,497.0
530.0,519.0,522.0,519.0,495.0
527.0,519.0,513.0,512.0,495.0
519.0,515.0,504.0,504.0,504.0
504.0,511.0,502.0,501.0,511.0
499.0,502.0,497.0,497.0,517.0
494.0,497.0,496.0,503.0,520.0
508.0,501.0,503.0,502.0,506.0
510.0,499.0,508.0,515.0,502.0
512.0,498.0,514.0,519.0,508.0
514.0,497.0,520.0,525.0,498.0
510.0,504.0,524.0,529.0,516.0
507.0,500.0,522.0,524.0,546.0
507.0,500.0,520.0,519.0,540.0
512.0,507.0,520.0,520.0,523.0
520.0,509.0,527.0,521.0,507.0
521.0,517.0,522.0,518.0,496.0
524.0,516.0,519.0,515.0,499.0
525.0,517.0,515.0,509.0,502.0
518.0,516.0,511.0,508.0,508.0
516.0,514.0,506.0,503.0,517.0
511.0,511.0,498.0,498.0,524.0
502.0,499.0,496.0,499.0,516.0
503.0,504.0,503.0,506.0,530.0
507.0,503.0,507.0,516.0,526.0
519.0,498.0,513.0,522.0,504.0
519.0,495.0,517.0,526.0,494.0
515.0,502.0,521.0,525.0,499.0
520.0,499.0,525.0,529.0,500.0
513.0,500.0,521.0,525.0,512.0
511.0,504.0,522.0,521.0,511.0
512.0,502.0,518.0,516.0,511.0
515.0,504.0,521.0,516.0,507.0
515.0,513.0,518.0,514.0,512.0
525.0,519.0,521.0,517.0,508.0
521.0,517.0,510.0,509.0,513.0
511.0,512.0,506.0,503.0,510.0
509.0,511.0,501.0,497.0,506.0
500.0,506.0,496.0,497.0,507.0
502.0,501.0,500.0,501.0,501.0
498.0,500.0,505.0,510.0,495.0
499.0,505.0,513.0,519.0,488.0
505.0,504.0,524.0,526.0,504.0
509.0,504.0,524.0,526.0,507.0
516.0,507.0,528.0,527.0,502.0
520.0,506.0,526.0,527.0,511.0
513.0,504.0,524.0,525.0,523.0
509.0,509.0,523.0,514.0,524.0
515.0,510.0,525.0,521.0,522.0
522.0,515.0,524.0,522.0,513.0
530.0,525.0,521.0,514.0,505.0
535.0,525.0,519.0,511.0,482.0
530.0,524.0,513.0,513.0,477.0
523.0,514.0,506.0,510.0,498.0
512.0,509.0,499.0,499.0,515.0
500.0,502.0,496.0,505.0,521.0
490.0,499.0,503.0,509.0,525.0
509.0,503.0,498.0,500.0,518.0
510.0,503.0,511.0,515.0,521.0
513.0,505.0,519.0,524.0,517.0
508.0,502.0,523.0,526.0,537.0
514.0,501.0,523.0,528.0,530.0
508.0,499.0,519.0,522.0,520.0
513.0,501.0,521.0,524.0,520.0
513.0,505.0,521.0,519.0,521.0
512.0,510.0,520.0,516.0,519.0
519.0,516.0,523.0,518.0,515.0
526.0,521.0,522.0,518.0,498.0
526.0,520.0,514.0,515.0,484.0
516.0,519.0,511.0,512.0,494.0
505.0,507.0,502.0,505.0,511.0
503.0,511.0,500.0,508.0,515.0
503.0,505.0,497.0,494.0,513.0
493.0,496.0,494.0,499.0,535.0
498.0,499.0,504.0,508.0,528.0
501.0,499.0,510.0,520.0,510.0
510.0,498.0,521.0,526.0,497.0
525.0,504.0,525.0,530.0,491.0
518.0,501.0,522.0,527.0,501.0
502.0,500.0,520.0,519.0,525.0
508.0,502.0,520.0,519.0,519.0
512.0,505.0,518.0,523.0,505.0
511.0,507.0,519.0,523.0,512.0
518.0,514.0,518.0,519.0,517.0
527.0,522.0,520.0,523.0,508.0
528.0,522.0,514.0,518.0,504.0
518.0,518.0,507.0,508.0,505.0
510.0,511.0,505.0,500.0,504.0
509.0,506.0,500.0,498.0,493.0
505.0,502.0,497.0,506.0,500.0
501.0,497.0,502.0,510.0,526.0
506.0,500.0,509.0,509.0,540.0
513.0,502.0,520.0,512.0,521.0
519.0,502.0,522.0,525.0,508.0
517.0,502.0,525.0,531.0,512.0
512.0,504.0,521.0,525.0,515.0
511.0,502.0,522.0,520.0,520.0
511.0,507.0,520.0,522.0,519.0
513.0,511.0,520.0,519.0,511.0
520.0,513.0,521.0,519.0,517.0
519.0,518.0,519.0,518.0,523.0
522.0,522.0,516.0,517.0,511.0
516.0,518.0,509.0,506.0,521.0
510.0,514.0,506.0,500.0,514.0
513.0,510.0,501.0,501.0,508.0
501.0,502.0,496.0,498.0,510.0
499.0,498.0,494.0,503.0,515.0
519.0,505.0,500.0,506.0,517.0
521.0,503.0,509.0,517.0,508.0
525.0,501.0,517.0,525.0,508.0
523.0,503.0,522.0,527.0,503.0
524.0,504.0,526.0,529.0,506.0
513.0,501.0,521.0,525.0,512.0
509.0,502.0,522.0,525.0,511.0
510.0,505.0,520.0,521.0,515.0
510.0,511.0,519.0,518.0,506.0
517.0,515.0,519.0,519.0,498.0
528.0,520.0,520.0,517.0,495.0
532.0,520.0,514.0,512.0,500.0
523.0,516.0,506.0,507.0,507.0
512.0,511.0,501.0,502.0,505.0
503.0,508.0,503.0,500.0,514.0
500.0,501.0,496.0,498.0,517.0
495.0,497.0,497.0,502.0,519.0
503.0,499.0,507.0,512.0,514.0
515.0,502.0,514.0,521.0,520.0
519.0,498.0,521.0,525.0,525.0
528.0,503.0,525.0,529.0,534.0
525.0,504.0,526.0,529.0,533.0
524.0,502.0,520.0,522.0,532.0
524.0,511.0,523.0,523.0,526.0
521.0,510.0,522.0,519.0,513.0
523.0,514.0,520.0,518.0,507.0
528.0,518.0,519.0,517.0,496.0
515.0,520.0,520.0,516.0,499.0
511.0,517.0,511.0,509.0,501.0
509.0,515.0,504.0,507.0,477.0
504.0,504.0,496.0,500.0,467.0
495.0,499.0,493.0,497.0,500.0
490.0,494.0,494.0,502.0,502.0
494.0,497.0,499.0,506.0,513.0
504.0,500.0,507.0,512.0,543.0
510.0,503.0,517.0,521.0,534.0
511.0,501.0,522.0,525.0,525.0
513.0,507.0,522.0,524.0,526.0
519.0,504.0,528.0,525.0,528.0
511.0,502.0,522.0,523.0,540.0
514.0,502.0,519.0,516.0,537.0
518.0,506.0,517.0,516.0,527.0
524.0,509.0,517.0,518.0,519.0
529.0,518.0,520.0,519.0,504.0
530.0,522.0,515.0,518.0,491.0
523.0,522.0,514.0,510.0,496.0
521.0,516.0,505.0,503.0,492.0
508.0,508.0,491.0,498.0,492.0
497.0,509.0,495.0,497.0,521.0
496.0,502.0,497.0,503.0,543.0
500.0,503.0,505.0,511.0,538.0
504.0,502.0,516.0,519.0,535.0
514.0,502.0,515.0,524.0,524.0
522.0,509.0,524.0,527.0,507.0
524.0,504.0,527.0,533.0,500.0
520.0,503.0,523.0,532.0,493.0
514.0,499.0,520.0,521.0,497.0
511.0,502.0,516.0,521.0,505.0
517.0,510.0,517.0,516.0,512.0
520.0,513.0,519.0,516.0,514.0
525.0,517.0,518.0,516.0,506.0
523.0,520.0,514.0,510.0,516.0
520.0,516.0,508.0,505.0,506.0
511.0,513.0,502.0,502.0,504.0
503.0,508.0,494.0,501.0,517.0
503.0,501.0,495.0,499.0,525.0
503.0,497.0,499.0,502.0,524.0
510.0,501.0,511.0,513.0,518.0
513.0,499.0,513.0,520.0,515.0
515.0,504.0,524.0,526.0,516.0
517.0,504.0,525.0,526.0,530.0
520.0,499.0,524.0,523.0,519.0
507.0,497.0,519.0,520.0,522.0
508.0,502.0,522.0,522.0,520.0
514.0,507.0,521.0,523.0,517.0
518.0,512.0,521.0,518.0,517.0
529.0,517.0,520.0,516.0,512.0
526.0,522.0,519.0,516.0,511.0
523.0,519.0,513.0,512.0,516.0
518.0,514.0,507.0,507.0,513.0
507.0,509.0,500.0,503.0,516.0
509.0,507.0,499.0,496.0,514.0
503.0,504.0,499.0,502.0,510.0
502.0,498.0,502.0,507.0,507.0
502.0,498.0,507.0,516.0,509.0
506.0,500.0,516.0,530.0,516.0
510.0,502.0,522.0,522.0,511.0
512.0,499.0,525.0,526.0,514.0
509.0,494.0,522.0,526.0,517.0
504.0,499.0,524.0,522.0,517.0
508.0,505.0,521.0,516.0,514.0
515.0,508.0,522.0,521.0,514.0
522.0,514.0,521.0,516.0,517.0
527.0,517.0,520.0,518.0,516.0
513.0,517.0,513.0,511.0,523.0
536.0,519.0,506.0,500.0,518.0
520.0,514.0,501.0,505.0,517.0
511.0,512.0,498.0,502.0,509.0
498.0,502.0,491.0,494.0,519.0
490.0,499.0,492.0,498.0,504.0
485.0,496.0,501.0,505.0,516.0
494.0,499.0,511.0,516.0,524.0
500.0,501.0,518.0,523.0,527.0
505.0,501.0,520.0,523.0,534.0
510.0,500.0,519.0,520.0,526.0
520.0,503.0,519.0,521.0,506.0
527.0,505.0,525.0,524.0,496.0
518.0,510.0,521.0,517.0,507.0
515.0,509.0,519.0,516.0,515.0
523.0,512.0,516.0,518.0,502.0
536.0,521.0,519.0,517.0,497.0
528.0,517.0,516.0,515.0,506.0
513.0,515.0,506.0,507.0,505.0
510.0,512.0,501.0,500.0,503.0
506.0,505.0,498.0,500.0,511.0
511.0,504.0,495.0,499.0,514.0
512.0,498.0,497.0,501.0,523.0
514.0,499.0,506.0,510.0,516.0
511.0,500.0,514.0,520.0,518.0
518.0,502.0,523.0,527.0,524.0
516.0,499.0,525.0,527.0,520.0
516.0,503.0,524.0,525.0,522.0
517.0,500.0,522.0,522.0,521.0
517.0,507.0,522.0,523.0,524.0
523.0,512.0,523.0,523.0,524.0
527.0,515.0,522.0,520.0,510.0
529.0,518.0,520.0,518.0,506.0
529.0,520.0,517.0,515.0,506.0
527.0,520.0,511.0,510.0,502.0
517.0,516.0,507.0,504.0,498.0
507.0,512.0,501.0,505.0,514.0
499.0,504.0,496.0,505.0,515.0
497.0,498.0,495.0,499.0,511.0
499.0,498.0,500.0,504.0,504.0
506.0,497.0,506.0,510.0,516.0
516.0,500.0,515.0,520.0,519.0
517.0,501.0,520.0,524.0,517.0
519.0,502.0,523.0,523.0,510.0
516.0,501.0,522.0,526.0,514.0
514.0,500.0,521.0,521.0,514.0
515.0,504.0,520.0,522.0,512.0
517.0,510.0,521.0,519.0,513.0
515.0,514.0,521.0,519.0,514.0
525.0,519.0,525.0,519.0,510.0
522.0,520.0,516.0,512.0,514.0
520.0,518.0,508.0,508.0,503.0
513.0,514.0,504.0,503.0,514.0
506.0,508.0,497.0,499.0,510.0
500.0,503.0,495.0,500.0,518.0
500.0,498.0,498.0,499.0,520.0
500.0,498.0,505.0,508.0,526.0
504.0,505.0,514.0,517.0,523.0
508.0,501.0,521.0,521.0,521.0
508.0,501.0,524.0,526.0,521.0
511.0,502.0,525.0,527.0,518.0
511.0,499.0,524.0,523.0,514.0
518.0,503.0,521.0,520.0,516.0
516.0,504.0,519.0,513.0,512.0
523.0,508.0,519.0,516.0,514.0
526.0,514.0,520.0,517.0,509.0
525.0,518.0,518.0,516.0,506.0
522.0,518.0,510.0,510.0,503.0
517.0,516.0,506.0,502.0,501.0
508.0,509.0,499.0,506.0,504.0
510.0,505.0,500.0,499.0,504.0
500.0,500.0,495.0,501.0,510.0
497.0,496.0,496.0,503.0,515.0
501.0,497.0,505.0,510.0,524.0
510.0,501.0,515.0,517.0,529.0
511.0,498.0,525.0,523.0,520.0
515.0,501.0,525.0,525.0,517.0
513.0,501.0,521.0,522.0,515.0
517.0,498.0,519.0,519.0,520.0
519.0,501.0,520.0,519.0,522.0
521.0,504.0,519.0,517.0,519.0
523.0,512.0,521.0,517.0,519.0
524.0,515.0,522.0,520.0,500.0
520.0,517.0,520.0,518.0,493.0
525.0,520.0,508.0,512.0,500.0
517.0,513.0,505.0,506.0,505.0
504.0,509.0,501.0,499.0,510.0
502.0,505.0,496.0,499.0,519.0
500.0,498.0,497.0,499.0,519.0
500.0,496.0,501.0,506.0,521.0
508.0,499.0,511.0,516.0,510.0
513.0,500.0,515.0,520.0,501.0
516.0,501.0,528.0,526.0,511.0
512.0,501.0,525.0,525.0,523.0
512.0,500.0,524.0,523.0,519.0
511.0,501.0,524.0,529.0,514.0
515.0,505.0,524.0,525.0,519.0
521.0,506.0,521.0,516.0,516.0
524.0,509.0,519.0,514.0,520.0
529.0,516.0,520.0,518.0,505.0
534.0,527.0,519.0,516.0,496.0
522.0,520.0,513.0,511.0,496.0
518.0,513.0,504.0,501.0,499.0
509.0,507.0,500.0,495.0,504.0
504.0,505.0,500.0,498.0,503.0
496.0,499.0,500.0,502.0,503.0
497.0,497.0,503.0,507.0,510.0
501.0,497.0,511.0,515.0,516.0
506.0,500.0,519.0,516.0,516.0
513.0,506.0,523.0,526.0,510.0
517.0,503.0,524.0,528.0,511.0
513.0,501.0,523.0,522.0,511.0
514.0,507.0,522.0,522.0,499.0
519.0,508.0,522.0,522.0,490.0
522.0,508.0,524.0,521.0,488.0
525.0,515.0,522.0,516.0,512.0
528.0,521.0,521.0,519.0,525.0
521.0,523.0,515.0,510.0,516.0
519.0,516.0,507.0,504.0,514.0
511.0,512.0,501.0,502.0,510.0
503.0,508.0,498.0,501.0,508.0
498.0,501.0,496.0,499.0,524.0
496.0,497.0,499.0,502.0,524.0
501.0,497.0,504.0,508.0,523.0
508.0,503.0,513.0,515.0,511.0
515.0,504.0,519.0,521.0,509.0
519.0,506.0,525.0,526.0,522.0
518.0,503.0,524.0,523.0,532.0
507.0,503.0,519.0,517.0,544.0
512.0,505.0,521.0,521.0,521.0
516.0,506.0,520.0,517.0,513.0
518.0,516.0,520.0,517.0,508.0
520.0,517.0,518.0,516.0,507.0
526.0,524.0,517.0,515.0,498.0
521.0,518.0,510.0,509.0,505.0
516.0,517.0,506.0,505.0,507.0
507.0,511.0,500.0,502.0,504.0
496.0,502.0,494.0,495.0,519.0
494.0,495.0,495.0,498.0,515.0
496.0,489.0,502.0,504.0,521.0
513.0,500.0,512.0,512.0,523.0
518.0,502.0,517.0,521.0,521.0
518.0,502.0,522.0,525.0,523.0
512.0,503.0,522.0,522.0,524.0
512.0,501.0,523.0,521.0,520.0
517.0,504.0,523.0,522.0,512.0
519.0,508.0,522.0,519.0,512.0
523.0,511.0,523.0,520.0,510.0
532.0,516.0,517.0,519.0,500.0
532.0,527.0,523.0,520.0,504.0
529.0,521.0,516.0,514.0,501.0
528.0,521.0,515.0,509.0,502.0
519.0,515.0,503.0,504.0,508.0
510.0,508.0,500.0,500.0,506.0
507.0,502.0,495.0,498.0,516.0
502.0,500.0,497.0,503.0,517.0
503.0,500.0,507.0,510.0,523.0
501.0,500.0,518.0,517.0,525.0
504.0,499.0,515.0,521.0,529.0
508.0,503.0,525.0,527.0,520.0
510.0,502.0,526.0,526.0,515.0
509.0,502.0,525.0,525.0,516.0
520.0,503.0,523.0,521.0,509.0
520.0,505.0,518.0,520.0,513.0
519.0,512.0,522.0,521.0,522.0
522.0,520.0,526.0,519.0,516.0
525.0,520.0,521.0,518.0,505.0
524.0,522.0,516.0,514.0,502.0
518.0,517.0,509.0,507.0,500.0
507.0,510.0,502.0,502.0,503.0
505.0,509.0,498.0,499.0,505.0
502.0,500.0,497.0,499.0,510.0
501.0,495.0,499.0,503.0,517.0
503.0,499.0,507.0,510.0,520.0
516.0,502.0,515.0,518.0,515.0
517.0,501.0,520.0,521.0,522.0
517.0,502.0,524.0,526.0,523.0
523.0,504.0,526.0,526.0,521.0
517.0,499.0,525.0,523.0,518.0
514.0,504.0,524.0,520.0,515.0
516.0,510.0,518.0,519.0,509.0
521.0,512.0,520.0,516.0,505.0
523.0,518.0,521.0,517.0,499.0
525.0,523.0,520.0,517.0,494.0
522.0,520.0,513.0,511.0,497.0
519.0,516.0,506.0,504.0,514.0
508.0,506.0,500.0,503.0,515.0
503.0,508.0,498.0,500.0,517.0
499.0,503.0,498.0,501.0,522.0
497.0,499.0,505.0,505.0,519.0
501.0,500.0,511.0,513.0,526.0
507.0,501.0,518.0,521.0,520.0
516.0,503.0,524.0,527.0,509.0
511.0,501.0,522.0,523.0,521.0
510.0,500.0,521.0,521.0,519.0
521.0,502.0,519.0,519.0,520.0
521.0,506.0,519.0,518.0,517.0
523.0,508.0,518.0,517.0,515.0
521.0,513.0,517.0,515.0,511.0
522.0,519.0,523.0,520.0,503.0
522.0,522.0,520.0,514.0,497.0
522.0,519.0,509.0,509.0,497.0
516.0,511.0,502.0,505.0,506.0
508.0,509.0,499.0,501.0,510.0
500.0,501.0,492.0,496.0,511.0
500.0,496.0,493.0,503.0,515.0
505.0,498.0,507.0,509.0,516.0
507.0,499.0,510.0,520.0,516.0
513.0,503.0,520.0,524.0,517.0
514.0,502.0,523.0,529.0,519.0
512.0,500.0,522.0,522.0,520.0
509.0,503.0,520.0,521.0,518.0
517.0,502.0,522.0,523.0,514.0
524.0,506.0,521.0,523.0,510.0
517.0,509.0,521.0,522.0,505.0
520.0,520.0,522.0,523.0,513.0
524.0,520.0,520.0,516.0,512.0
524.0,519.0,515.0,512.0,506.0
524.0,515.0,508.0,505.0,506.0
516.0,512.0,501.0,504.0,507.0
514.0,509.0,499.0,501.0,511.0
502.0,500.0,496.0,500.0,514.0
498.0,499.0,503.0,507.0,516.0
504.0,501.0,509.0,514.0,518.0
509.0,496.0,520.0,521.0,524.0
510.0,499.0,518.0,521.0,526.0
513.0,503.0,527.0,524.0,518.0
512.0,505.0,526.0,526.0,521.0
515.0,501.0,521.0,522.0,516.0
516.0,506.0,522.0,518.0,505.0
514.0,511.0,524.0,522.0,525.0
521.0,513.0,521.0,519.0,516.0
523.0,518.0,521.0,517.0,510.0
527.0,522.0,519.0,519.0,499.0
529.0,522.0,515.0,513.0,500.0
519.0,516.0,507.0,509.0,500.0
515.0,509.0,500.0,503.0,516.0
505.0,504.0,497.0,499.0,523.0
496.0,500.0,498.0,499.0,514.0
501.0,498.0,506.0,505.0,515.0
503.0,499.0,513.0,512.0,517.0
508.0,501.0,520.0,521.0,519.0
511.0,502.0,523.0,525.0,519.0
509.0,505.0,526.0,525.0,524.0
510.0,499.0,523.0,522.0,521.0
511.0,500.0,524.0,521.0,522.0
510.0,509.0,525.0,521.0,524.0
518.0,510.0,523.0,518.0,520.0
522.0,514.0,522.0,517.0,514.0
524.0,521.0,523.0,517.0,510.0
524.0,520.0,521.0,517.0,499.0
517.0,514.0,512.0,509.0,504.0
511.0,513.0,504.0,508.0,505.0
512.0,511.0,502.0,502.0,514.0
507.0,503.0,496.0,497.0,519.0
500.0,497.0,497.0,499.0,526.0
502.0,497.0,506.0,506.0,523.0
502.0,498.0,512.0,520.0,521.0
509.0,499.0,519.0,521.0,520.0
512.0,502.0,525.0,526.0,518.0
511.0,502.0,526.0,524.0,526.0
507.0,500.0,522.0,520.0,527.0
510.0,502.0,521.0,524.0,524.0
514.0,506.0,522.0,515.0,520.0
518.0,509.0,521.0,519.0,514.0
522.0,518.0,524.0,518.0,503.0
525.0,519.0,520.0,515.0,499.0
527.0,520.0,514.0,512.0,502.0
521.0,518.0,509.0,506.0,502.0
513.0,511.0,501.0,503.0,510.0
506.0,507.0,499.0,500.0,510.0
498.0,500.0,498.0,502.0,522.0
495.0,499.0,502.0,506.0,525.0
500.0,500.0,510.0,513.0,523.0
507.0,501.0,521.0,520.0,520.0
508.0,501.0,522.0,523.0,523.0
511.0,503.0,529.0,532.0,522.0
512.0,507.0,526.0,525.0,525.0
516.0,503.0,524.0,527.0,521.0
515.0,509.0,527.0,522.0,518.0
517.0,510.0,525.0,521.0,515.0
520.0,513.0,523.0,519.0,511.0
523.0,515.0,521.0,519.0,508.0
527.0,520.0,522.0,517.0,500.0
528.0,519.0,513.0,512.0,498.0
519.0,515.0,508.0,509.0,506.0
510.0,506.0,501.0,502.0,508.0
505.0,504.0,496.0,499.0,515.0
503.0,499.0,498.0,502.0,522.0
504.0,499.0,504.0,508.0,529.0
504.0,501.0,512.0,520.0,532.0
510.0,502.0,520.0,520.0,530.0
513.0,506.0,524.0,528.0,524.0
513.0,505.0,528.0,529.0,518.0
511.0,503.0,528.0,525.0,513.0
513.0,502.0,521.0,521.0,515.0
516.0,504.0,522.0,520.0,517.0
523.0,510.0,521.0,519.0,513.0
524.0,516.0,523.0,522.0,508.0
525.0,517.0,518.0,521.0,501.0
526.0,520.0,521.0,516.0,504.0
519.0,518.0,509.0,507.0,505.0
514.0,515.0,504.0,504.0,508.0
506.0,507.0,499.0,501.0,512.0
501.0,503.0,498.0,498.0,517.0
501.0,499.0,499.0,500.0,516.0
500.0,497.0,504.0,506.0,516.0
508.0,499.0,512.0,515.0,519.0
513.0,499.0,522.0,521.0,520.0
519.0,502.0,525.0,526.0,521.0
515.0,502.0,525.0,527.0,526.0
511.0,501.0,523.0,527.0,524.0
509.0,506.0,526.0,524.0,520.0
514.0,508.0,526.0,524.0,513.0
516.0,507.0,521.0,515.0,504.0
520.0,514.0,520.0,512.0,499.0
532.0,524.0,520.0,512.0,501.0
529.0,522.0,521.0,513.0,511.0
519.0,515.0,504.0,505.0,505.0
510.0,509.0,500.0,499.0,512.0
508.0,507.0,500.0,501.0,510.0
503.0,498.0,495.0,498.0,516.0
502.0,496.0,498.0,506.0,521.0
511.0,498.0,506.0,509.0,522.0
509.0,501.0,516.0,519.0,519.0
512.0,500.0,520.0,521.0,524.0
518.0,501.0,525.0,524.0,518.0
514.0,501.0,523.0,523.0,524.0
514.0,501.0,522.0,520.0,524.0
520.0,503.0,521.0,520.0,516.0
523.0,508.0,523.0,519.0,511.0
520.0,509.0,517.0,516.0,508.0
524.0,513.0,519.0,520.0,501.0
522.0,522.0,519.0,517.0,504.0
512.0,516.0,512.0,511.0,506.0
514.0,517.0,508.0,507.0,507.0
503.0,509.0,499.0,503.0,513.0
502.0,503.0,493.0,498.0,516.0
497.0,499.0,498.0,501.0,517.0
499.0,496.0,502.0,506.0,520.0
508.0,499.0,512.0,515.0,522.0
511.0,502.0,520.0,524.0,520.0
513.0,501.0,524.0,531.0,520.0
515.0,504.0,524.0,525.0,520.0
514.0,502.0,525.0,523.0,521.0
513.0,501.0,522.0,520.0,518.0
517.0,505.0,524.0,521.0,515.0
519.0,510.0,522.0,519.0,512.0
521.0,513.0,521.0,518.0,507.0
523.0,517.0,520.0,519.0,502.0
525.0,520.0,518.0,516.0,502.0
520.0,517.0,511.0,511.0,506.0
511.0,513.0,503.0,506.0,509.0
512.0,510.0,501.0,503.0,508.0
507.0,503.0,497.0,502.0,516.0
506.0,500.0,499.0,504.0,522.0
508.0,500.0,511.0,510.0,526.0
508.0,500.0,513.0,515.0,524.0
510.0,503.0,521.0,523.0,522.0
515.0,502.0,525.0,528.0,521.0
513.0,502.0,524.0,523.0,514.0
511.0,499.0,521.0,522.0,512.0
511.0,503.0,524.0,523.0,506.0
510.0,506.0,523.0,521.0,498.0
516.0,509.0,521.0,519.0,516.0
519.0,515.0,521.0,519.0,517.0
525.0,519.0,521.0,524.0,507.0
522.0,518.0,514.0,517.0,503.0
515.0,514.0,509.0,508.0,509.0
516.0,506.0,500.0,502.0,507.0
511.0,506.0,501.0,504.0,506.0
504.0,501.0,498.0,505.0,508.0
500.0,497.0,500.0,505.0,525.0
504.0,501.0,510.0,512.0,521.0
509.0,500.0,517.0,520.0,521.0
512.0,501.0,523.0,525.0,522.0
512.0,501.0,527.0,529.0,524.0
513.0,500.0,524.0,525.0,521.0
513.0,504.0,523.0,523.0,520.0
514.0,507.0,522.0,526.0,515.0
522.0,509.0,527.0,521.0,507.0
521.0,510.0,520.0,519.0,509.0
526.0,515.0,521.0,522.0,504.0
526.0,521.0,518.0,522.0,500.0
523.0,517.0,509.0,508.0,506.0
516.0,515.0,506.0,509.0,508.0
506.0,507.0,499.0,502.0,511.0
505.0,502.0,493.0,497.0,510.0
500.0,496.0,495.0,495.0,516.0
507.0,496.0,501.0,503.0,516.0
504.0,497.0,509.0,513.0,520.0
514.0,501.0,518.0,519.0,521.0
512.0,505.0,524.0,526.0,524.0
512.0,500.0,524.0,525.0,521.0
513.0,499.0,521.0,523.0,519.0
509.0,500.0,520.0,522.0,519.0
516.0,506.0,524.0,522.0,514.0
520.0,509.0,524.0,521.0,509.0
525.0,514.0,522.0,521.0,504.0
522.0,517.0,518.0,515.0,500.0
515.0,516.0,514.0,515.0,506.0
513.0,514.0,508.0,507.0,505.0
515.0,511.0,505.0,504.0,511.0
512.0,508.0,502.0,501.0,503.0
502.0,501.0,497.0,500.0,515.0
496.0,499.0,499.0,502.0,522.0
503.0,498.0,505.0,512.0,522.0
511.0,504.0,514.0,518.0,516.0
510.0,500.0,519.0,524.0,517.0
511.0,502.0,523.0,527.0,517.0
516.0,502.0,525.0,526.0,521.0
517.0,503.0,527.0,525.0,522.0
519.0,503.0,524.0,522.0,523.0
518.0,507.0,523.0,523.0,517.0
524.0,508.0,521.0,516.0,513.0
527.0,513.0,521.0,518.0,504.0
530.0,520.0,519.0,518.0,500.0
527.0,522.0,516.0,514.0,500.0
524.0,516.0,508.0,505.0,502.0
513.0,509.0,501.0,503.0,510.0
507.0,507.0,501.0,499.0,513.0
501.0,501.0,498.0,499.0,516.0
499.0,498.0,501.0,506.0,522.0
505.0,500.0,512.0,512.0,518.0
509.0,501.0,515.0,521.0,512.0
510.0,500.0,520.0,525.0,513.0
513.0,506.0,525.0,526.0,512.0
516.0,504.0,525.0,527.0,504.0
511.0,503.0,522.0,522.0,519.0
509.0,503.0,520.0,521.0,519.0
516.0,507.0,522.0,521.0,509.0
521.0,514.0,527.0,521.0,506.0
524.0,514.0,519.0,517.0,508.0
529.0,517.0,516.0,513.0,508.0
524.0,515.0,509.0,510.0,513.0
521.0,513.0,505.0,504.0,515.0
513.0,511.0,499.0,502.0,512.0
500.0,504.0,498.0,499.0,518.0
500.0,502.0,497.0,500.0,523.0
504.0,500.0,505.0,506.0,523.0
504.0,499.0,511.0,513.0,525.0
509.0,499.0,517.0,520.0,522.0
514.0,502.0,524.0,527.0,519.0
514.0,503.0,528.0,527.0,521.0
508.0,499.0,523.0,522.0,523.0
513.0,501.0,521.0,520.0,519.0
514.0,504.0,521.0,516.0,515.0
514.0,507.0,517.0,515.0,511.0
523.0,516.0,520.0,517.0,510.0
528.0,521.0,522.0,518.0,508.0
527.0,524.0,523.0,517.0,502.0
526.0,517.0,512.0,508.0,504.0
514.0,509.0,500.0,503.0,504.0
506.0,505.0,499.0,499.0,515.0
505.0,494.0,496.0,501.0,519.0
502.0,497.0,498.0,502.0,519.0
498.0,495.0,502.0,505.0,522.0
502.0,497.0,512.0,515.0,524.0
513.0,499.0,520.0,521.0,519.0
517.0,504.0,525.0,525.0,519.0
517.0,500.0,523.0,523.0,518.0
514.0,498.0,518.0,517.0,522.0
511.0,500.0,523.0,515.0,521.0
514.0,503.0,516.0,515.0,518.0
520.0,511.0,517.0,516.0,512.0
525.0,515.0,523.0,517.0,509.0
526.0,519.0,521.0,519.0,508.0
522.0,520.0,518.0,514.0,504.0
515.0,515.0,510.0,510.0,505.0
509.0,511.0,508.0,505.0,512.0
509.0,506.0,502.0,503.0,513.0
500.0,501.0,502.0,504.0,523.0
504.0,499.0,502.0,510.0,532.0
506.0,501.0,511.0,512.0,528.0
514.0,504.0,517.0,518.0,529.0
514.0,501.0,518.0,521.0,524.0
518.0,502.0,526.0,530.0,519.0
515.0,501.0,523.0,523.0,517.0
513.0,502.0,521.0,519.0,514.0
509.0,503.0,522.0,519.0,514.0
514.0,503.0,521.0,518.0,513.0
519.0,512.0,520.0,517.0,505.0
520.0,517.0,520.0,520.0,504.0
521.0,520.0,518.0,515.0,503.0
528.0,521.0,513.0,510.0,500.0
521.0,514.0,505.0,505.0,496.0
511.0,508.0,501.0,503.0,502.0
501.0,501.0,496.0,499.0,509.0
498.0,497.0,494.0,502.0,516.0
497.0,498.0,503.0,507.0,532.0
504.0,502.0,513.0,517.0,530.0
508.0,503.0,520.0,524.0,525.0
510.0,501.0,524.0,527.0,522.0
514.0,503.0,525.0,528.0,521.0
523.0,504.0,526.0,525.0,520.0
518.0,503.0,524.0,521.0,518.0
514.0,504.0,521.0,522.0,516.0
517.0,510.0,520.0,516.0,516.0
523.0,514.0,520.0,517.0,513.0
528.0,521.0,523.0,518.0,506.0
523.0,521.0,517.0,520.0,508.0
521.0,517.0,511.0,511.0,510.0
513.0,514.0,502.0,503.0,512.0
510.0,508.0,503.0,500.0,519.0
502.0,501.0,496.0,501.0,523.0
498.0,499.0,499.0,498.0,531.0
502.0,497.0,506.0,509.0,531.0
506.0,502.0,514.0,517.0,529.0
511.0,504.0,519.0,521.0,522.0
517.0,498.0,525.0,525.0,512.0
521.0,500.0,526.0,523.0,506.0
514.0,499.0,519.0,518.0,515.0
510.0,501.0,519.0,517.0,516.0
513.0,504.0,519.0,522.0,516.0
516.0,510.0,520.0,520.0,514.0
525.0,516.0,521.0,516.0,511.0
529.0,519.0,520.0,516.0,503.0
523.0,516.0,512.0,509.0,502.0
514.0,516.0,508.0,506.0,508.0
512.0,511.0,500.0,501.0,511.0
508.0,507.0,499.0,500.0,515.0
501.0,500.0,495.0,502.0,522.0
496.0,497.0,500.0,503.0,525.0
505.0,496.0,510.0,509.0,524.0
508.0,499.0,516.0,518.0,516.0
511.0,501.0,521.0,522.0,522.0
515.0,505.0,524.0,526.0,512.0
517.0,501.0,519.0,523.0,516.0
514.0,501.0,521.0,520.0,514.0
516.0,505.0,525.0,521.0,512.0
522.0,510.0,524.0,520.0,507.0
521.0,513.0,524.0,520.0,522.0
523.0,522.0,525.0,521.0,515.0
524.0,524.0,524.0,518.0,505.0
525.0,524.0,514.0,513.0,500.0
517.0,511.0,506.0,505.0,506.0
511.0,507.0,501.0,502.0,508.0
503.0,501.0,498.0,497.0,518.0
502.0,498.0,499.0,502.0,521.0
506.0,496.0,503.0,504.0,521.0
512.0,498.0,513.0,518.0,521.0
515.0,500.0,521.0,523.0,521.0
517.0,503.0,523.0,527.0,517.0
517.0,500.0,522.0,526.0,515.0
512.0,496.0,522.0,522.0,522.0
513.0,497.0,521.0,519.0,522.0
516.0,506.0,526.0,523.0,513.0
517.0,516.0,524.0,519.0,517.0
520.0,515.0,524.0,521.0,508.0
523.0,518.0,523.0,520.0,505.0
526.0,521.0,517.0,516.0,504.0
517.0,517.0,508.0,507.0,508.0
514.0,511.0,506.0,502.0,515.0
503.0,505.0,501.0,501.0,514.0
501.0,501.0,496.0,499.0,518.0
500.0,496.0,499.0,502.0,521.0
505.0,499.0,509.0,513.0,520.0
510.0,501.0,515.0,519.0,523.0
515.0,505.0,522.0,523.0,534.0
522.0,505.0,530.0,525.0,530.0
521.0,502.0,524.0,523.0,524.0
515.0,501.0,521.0,521.0,516.0
521.0,504.0,526.0,519.0,511.0
520.0,507.0,521.0,517.0,512.0
518.0,504.0,520.0,518.0,517.0
521.0,516.0,517.0,518.0,506.0
522.0,520.0,520.0,517.0,502.0
519.0,520.0,514.0,513.0,505.0
516.0,514.0,508.0,507.0,508.0
518.0,510.0,501.0,501.0,512.0
506.0,504.0,497.0,500.0,518.0
502.0,500.0,497.0,499.0,521.0
502.0,501.0,499.0,504.0,522.0
505.0,499.0,510.0,512.0,521.0
509.0,500.0,516.0,518.0,520.0
507.0,500.0,519.0,524.0,518.0
510.0,500.0,522.0,524.0,517.0
511.0,500.0,522.0,521.0,521.0
510.0,500.0,521.0,519.0,522.0
514.0,504.0,525.0,518.0,520.0
518.0,510.0,519.0,515.0,512.0
521.0,509.0,513.0,514.0,504.0
525.0,515.0,517.0,512.0,504.0
525.0,522.0,519.0,516.0,499.0
522.0,518.0,512.0,514.0,502.0
510.0,512.0,503.0,504.0,518.0
506.0,508.0,499.0,500.0,514.0
500.0,503.0,495.0,498.0,516.0
505.0,501.0,499.0,501.0,520.0
503.0,498.0,503.0,508.0,522.0
508.0,501.0,512.0,514.0,524.0
511.0,504.0,519.0,521.0,520.0
515.0,503.0,523.0,525.0,519.0
515.0,503.0,529.0,527.0,518.0
512.0,502.0,524.0,523.0,517.0
511.0,504.0,522.0,521.0,517.0
518.0,505.0,523.0,520.0,514.0
519.0,510.0,520.0,519.0,510.0
525.0,517.0,525.0,519.0,506.0
529.0,521.0,522.0,519.0,502.0
528.0,520.0,515.0,514.0,502.0
526.0,518.0,513.0,513.0,501.0
523.0,512.0,506.0,510.0,503.0
509.0,510.0,503.0,506.0,512.0
498.0,502.0,496.0,502.0,517.0
497.0,502.0,501.0,504.0,524.0
500.0,499.0,505.0,508.0,526.0
506.0,501.0,515.0,515.0,518.0
513.0,502.0,520.0,526.0,517.0
516.0,503.0,525.0,527.0,519.0
514.0,502.0,526.0,528.0,522.0
509.0,499.0,521.0,520.0,523.0
514.0,503.0,522.0,519.0,524.0
518.0,506.0,520.0,517.0,522.0
525.0,511.0,524.0,517.0,519.0
527.0,518.0,524.0,519.0,513.0
527.0,521.0,521.0,517.0,510.0
524.0,519.0,515.0,514.0,508.0
520.0,516.0,509.0,510.0,509.0
509.0,515.0,503.0,502.0,512.0
509.0,504.0,498.0,500.0,512.0
502.0,501.0,501.0,502.0,515.0
504.0,499.0,503.0,504.0,520.0
502.0,498.0,509.0,517.0,521.0
509.0,503.0,519.0,520.0,518.0
512.0,507.0,524.0,525.0,521.0
514.0,503.0,527.0,526.0,516.0
514.0,502.0,524.0,522.0,518.0
513.0,506.0,524.0,522.0,518.0
517.0,506.0,522.0,520.0,516.0
520.0,507.0,524.0,522.0,511.0
526.0,510.0,522.0,520.0,502.0
526.0,515.0,522.0,519.0,501.0
528.0,519.0,519.0,517.0,505.0
525.0,519.0,512.0,510.0,502.0
512.0,515.0,507.0,504.0,506.0
505.0,507.0,501.0,501.0,510.0
499.0,499.0,496.0,497.0,517.0
498.0,499.0,498.0,495.0,521.0
503.0,498.0,505.0,505.0,519.0
508.0,498.0,509.0,510.0,520.0
506.0,499.0,516.0,519.0,520.0
514.0,501.0,521.0,522.0,512.0
519.0,504.0,527.0,524.0,509.0
515.0,501.0,524.0,519.0,528.0
508.0,502.0,522.0,518.0,524.0
509.0,506.0,518.0,510.0,512.0
515.0,509.0,521.0,517.0,510.0
523.0,515.0,525.0,519.0,507.0
524.0,519.0,521.0,520.0,506.0
521.0,523.0,515.0,511.0,509.0
515.0,514.0,502.0,505.0,518.0
513.0,510.0,503.0,501.0,518.0
504.0,508.0,501.0,499.0,518.0
502.0,500.0,496.0,498.0,522.0
498.0,498.0,500.0,504.0,524.0
505.0,501.0,509.0,511.0,522.0
511.0,502.0,516.0,518.0,522.0
512.0,502.0,520.0,521.0,520.0
517.0,499.0,525.0,525.0,518.0
514.0,503.0,525.0,527.0,515.0
510.0,502.0,524.0,521.0,516.0
512.0,505.0,519.0,519.0,515.0
515.0,506.0,521.0,518.0,517.0
520.0,510.0,521.0,518.0,515.0
522.0,515.0,520.0,516.0,507.0
524.0,518.0,517.0,515.0,502.0
521.0,524.0,514.0,512.0,508.0
519.0,515.0,509.0,506.0,511.0
508.0,511.0,502.0,501.0,510.0
513.0,506.0,498.0,502.0,508.0
501.0,499.0,496.0,502.0,509.0
500.0,499.0,502.0,510.0,516.0
506.0,498.0,508.0,513.0,515.0
509.0,501.0,518.0,520.0,521.0
514.0,502.0,522.0,528.0,518.0
516.0,502.0,523.0,526.0,518.0
517.0,503.0,524.0,523.0,520.0
510.0,502.0,522.0,521.0,523.0
512.0,504.0,526.0,521.0,516.0
516.0,509.0,522.0,518.0,518.0
519.0,513.0,520.0,516.0,513.0
524.0,518.0,525.0,517.0,506.0
530.0,521.0,518.0,516.0,505.0
526.0,519.0,512.0,509.0,514.0
520.0,514.0,508.0,505.0,510.0
511.0,512.0,502.0,501.0,512.0
504.0,502.0,496.0,499.0,516.0
500.0,502.0,498.0,500.0,516.0
504.0,500.0,504.0,507.0,521.0
505.0,500.0,510.0,515.0,521.0
512.0,497.0,518.0,520.0,522.0
515.0,503.0,525.0,524.0,521.0
515.0,503.0,526.0,523.0,520.0
511.0,504.0,524.0,520.0,522.0
517.0,505.0,525.0,520.0,521.0
520.0,507.0,525.0,518.0,514.0
519.0,510.0,521.0,515.0,508.0
525.0,516.0,521.0,518.0,506.0
530.0,520.0,522.0,517.0,503.0
526.0,525.0,517.0,514.0,506.0
520.0,518.0,509.0,514.0,506.0
517.0,515.0,504.0,503.0,505.0
509.0,511.0,501.0,500.0,516.0
501.0,504.0,495.0,497.0,518.0
500.0,498.0,498.0,505.0,522.0
502.0,501.0,503.0,511.0,521.0
503.0,498.0,511.0,514.0,520.0
506.0,500.0,517.0,521.0,522.0
510.0,503.0,524.0,522.0,520.0
514.0,503.0,524.0,524.0,521.0
507.0,499.0,519.0,518.0,523.0
508.0,503.0,519.0,517.0,518.0
515.0,510.0,522.0,517.0,510.0
521.0,512.0,520.0,518.0,507.0
522.0,519.0,520.0,518.0,506.0
522.0,522.0,516.0,515.0,502.0
524.0,518.0,512.0,510.0,502.0
519.0,517.0,508.0,511.0,500.0
510.0,510.0,500.0,504.0,503.0
507.0,509.0,497.0,507.0,504.0
504.0,503.0,498.0,502.0,511.0
502.0,500.0,501.0,508.0,514.0
501.0,496.0,508.0,510.0,533.0
509.0,502.0,514.0,519.0,526.0
511.0,502.0,521.0,527.0,521.0
512.0,503.0,524.0,524.0,519.0
510.0,504.0,522.0,521.0,524.0
511.0,503.0,523.0,521.0,522.0
511.0,507.0,522.0,522.0,518.0
516.0,509.0,521.0,519.0,514.0
520.0,514.0,520.0,516.0,511.0
522.0,519.0,521.0,520.0,510.0
522.0,521.0,515.0,516.0,506.0
522.0,522.0,514.0,510.0,507.0
513.0,513.0,504.0,504.0,508.0
507.0,510.0,499.0,500.0,514.0
501.0,505.0,493.0,498.0,517.0
499.0,499.0,495.0,499.0,526.0
504.0,501.0,504.0,509.0,523.0
513.0,500.0,513.0,517.0,517.0
505.0,505.0,519.0,523.0,514.0
509.0,507.0,523.0,524.0,511.0
509.0,504.0,523.0,523.0,522.0
509.0,504.0,522.0,521.0,521.0
508.0,504.0,518.0,520.0,521.0
510.0,507.0,520.0,518.0,521.0
522.0,509.0,517.0,520.0,516.0
528.0,519.0,521.0,515.0,508.0
528.0,519.0,521.0,519.0,502.0
522.0,520.0,514.0,512.0,501.0
515.0,515.0,508.0,509.0,503.0
513.0,515.0,503.0,507.0,504.0
506.0,509.0,500.0,503.0,509.0
500.0,504.0,495.0,498.0,514.0
498.0,498.0,503.0,504.0,522.0
505.0,500.0,507.0,511.0,519.0
510.0,503.0,518.0,517.0,520.0
511.0,501.0,521.0,524.0,522.0
509.0,501.0,524.0,522.0,523.0
508.0,502.0,525.0,526.0,523.0
506.0,504.0,521.0,519.0,521.0
508.0,502.0,521.0,520.0,519.0
511.0,504.0,521.0,518.0,514.0
516.0,510.0,522.0,518.0,517.0
525.0,517.0,521.0,516.0,516.0
521.0,517.0,524.0,515.0,506.0
514.0,514.0,512.0,510.0,510.0
512.0,511.0,506.0,501.0,507.0
509.0,506.0,501.0,502.0,508.0
499.0,501.0,497.0,499.0,518.0
506.0,498.0,498.0,498.0,524.0
500.0,492.0,500.0,500.0,525.0
498.0,495.0,507.0,509.0,528.0
503.0,499.0,515.0,516.0,529.0
519.0,502.0,523.0,523.0,523.0
523.0,503.0,529.0,524.0,521.0
513.0,502.0,525.0,526.0,520.0
507.0,498.0,519.0,516.0,520.0
510.0,501.0,520.0,517.0,519.0
514.0,507.0,522.0,519.0,518.0
520.0,517.0,524.0,520.0,512.0
524.0,522.0,524.0,520.0,509.0
525.0,520.0,519.0,518.0,493.0
520.0,517.0,513.0,513.0,495.0
514.0,516.0,504.0,508.0,501.0
509.0,507.0,500.0,500.0,508.0
501.0,501.0,499.0,496.0,513.0
503.0,499.0,497.0,500.0,518.0
499.0,499.0,506.0,508.0,524.0
509.0,500.0,513.0,515.0,523.0
510.0,500.0,521.0,521.0,517.0
516.0,504.0,526.0,527.0,517.0
514.0,502.0,525.0,526.0,516.0
513.0,500.0,523.0,520.0,509.0
514.0,502.0,523.0,519.0,513.0
511.0,505.0,524.0,519.0,516.0
518.0,509.0,527.0,519.0,512.0
520.0,516.0,523.0,517.0,507.0
524.0,520.0,521.0,522.0,504.0
522.0,519.0,517.0,515.0,504.0
519.0,517.0,509.0,510.0,506.0
512.0,509.0,503.0,504.0,510.0
505.0,506.0,496.0,500.0,514.0
501.0,500.0,497.0,502.0,519.0
501.0,498.0,500.0,502.0,521.0
505.0,499.0,507.0,509.0,521.0
513.0,500.0,514.0,517.0,518.0
512.0,501.0,522.0,521.0,518.0
517.0,504.0,526.0,526.0,519.0
514.0,502.0,525.0,525.0,525.0
512.0,500.0,522.0,519.0,524.0
510.0,502.0,521.0,522.0,519.0
514.0,505.0,521.0,519.0,508.0
519.0,510.0,522.0,519.0,501.0
523.0,515.0,522.0,520.0,496.0
525.0,521.0,521.0,522.0,498.0
524.0,518.0,515.0,515.0,503.0
518.0,514.0,509.0,510.0,513.0
511.0,509.0,506.0,503.0,517.0
500.0,503.0,498.0,498.0,517.0
496.0,498.0,498.0,499.0,525.0
496.0,501.0,507.0,505.0,528.0
507.0,502.0,511.0,513.0,522.0
509.0,502.0,519.0,520.0,519.0
511.0,501.0,523.0,524.0,521.0
516.0,503.0,527.0,525.0,520.0
512.0,501.0,525.0,523.0,519.0
511.0,502.0,524.0,521.0,518.0
513.0,510.0,525.0,521.0,516.0
515.0,513.0,524.0,521.0,516.0
515.0,512.0,521.0,518.0,512.0
523.0,515.0,518.0,512.0,508.0
525.0,521.0,516.0,513.0,503.0
526.0,518.0,513.0,510.0,502.0
518.0,515.0,507.0,509.0,506.0
511.0,509.0,504.0,502.0,511.0
498.0,500.0,494.0,501.0,519.0
497.0,502.0,497.0,499.0,522.0
502.0,496.0,502.0,505.0,522.0
506.0,497.0,511.0,513.0,526.0
512.0,503.0,521.0,525.0,519.0
509.0,502.0,521.0,523.0,521.0
513.0,497.0,522.0,524.0,520.0
515.0,501.0,522.0,523.0,517.0
513.0,504.0,527.0,523.0,517.0
514.0,505.0,526.0,520.0,513.0
520.0,512.0,520.0,517.0,509.0
531.0,516.0,524.0,519.0,506.0
525.0,519.0,521.0,518.0,505.0
522.0,522.0,515.0,515.0,504.0
515.0,516.0,509.0,515.0,507.0
513.0,512.0,506.0,505.0,505.0
499.0,507.0,501.0,503.0,513.0
494.0,502.0,497.0,499.0,515.0
497.0,497.0,498.0,503.0,516.0
501.0,499.0,508.0,512.0,521.0
503.0,500.0,515.0,521.0,521.0
507.0,506.0,520.0,521.0,519.0
517.0,504.0,524.0,528.0,517.0
513.0,503.0,520.0,522.0,520.0
513.0,504.0,522.0,520.0,525.0
516.0,506.0,525.0,521.0,521.0
515.0,510.0,525.0,521.0,524.0
514.0,512.0,524.0,519.0,519.0
517.0,516.0,522.0,519.0,512.0
521.0,519.0,520.0,516.0,503.0
530.0,517.0,514.0,512.0,496.0
528.0,520.0,507.0,508.0,499.0
514.0,510.0,500.0,502.0,507.0
504.0,501.0,495.0,497.0,514.0
502.0,499.0,497.0,500.0,512.0
507.0,498.0,500.0,506.0,517.0
507.0,498.0,510.0,514.0,516.0
510.0,499.0,517.0,519.0,520.0
511.0,501.0,522.0,523.0,517.0
522.0,505.0,526.0,527.0,516.0
518.0,502.0,523.0,525.0,518.0
516.0,502.0,520.0,519.0,520.0
522.0,502.0,521.0,518.0,513.0
520.0,506.0,521.0,516.0,515.0
519.0,514.0,521.0,517.0,515.0
523.0,519.0,524.0,520.0,505.0
523.0,521.0,519.0,519.0,501.0
522.0,518.0,512.0,507.0,500.0
513.0,511.0,505.0,505.0,502.0
512.0,507.0,499.0,500.0,506.0
502.0,502.0,494.0,498.0,508.0
500.0,498.0,498.0,502.0,516.0
503.0,498.0,502.0,511.0,509.0
507.0,500.0,511.0,515.0,511.0
513.0,502.0,519.0,522.0,517.0
512.0,501.0,527.0,526.0,517.0
511.0,501.0,522.0,524.0,520.0
511.0,497.0,523.0,521.0,521.0
512.0,500.0,518.0,518.0,517.0
511.0,503.0,517.0,517.0,516.0
520.0,507.0,520.0,515.0,512.0
521.0,512.0,519.0,516.0,507.0
528.0,518.0,519.0,519.0,502.0
524.0,519.0,516.0,514.0,502.0
516.0,516.0,506.0,506.0,506.0
508.0,511.0,505.0,503.0,513.0
504.0,505.0,496.0,499.0,514.0
499.0,500.0,495.0,497.0,522.0
499.0,497.0,498.0,503.0,523.0
505.0,498.0,505.0,511.0,518.0
508.0,497.0,514.0,514.0,519.0
512.0,503.0,518.0,518.0,519.0
513.0,502.0,520.0,526.0,520.0
516.0,501.0,518.0,522.0,518.0
515.0,502.0,523.0,526.0,518.0
513.0,502.0,523.0,521.0,515.0
517.0,508.0,523.0,523.0,510.0
519.0,511.0,521.0,520.0,509.0
523.0,514.0,521.0,519.0,501.0
525.0,521.0,521.0,521.0,499.0
521.0,519.0,513.0,511.0,501.0
518.0,515.0,506.0,507.0,501.0
510.0,509.0,501.0,507.0,509.0
504.0,504.0,497.0,498.0,520.0
504.0,501.0,499.0,500.0,521.0
504.0,498.0,505.0,505.0,520.0
509.0,498.0,512.0,512.0,519.0
513.0,501.0,517.0,520.0,519.0
517.0,501.0,522.0,525.0,519.0
518.0,505.0,527.0,528.0,519.0
515.0,505.0,523.0,524.0,519.0
514.0,502.0,521.0,519.0,513.0
514.0,506.0,522.0,521.0,515.0
514.0,508.0,521.0,515.0,514.0
520.0,511.0,521.0,515.0,510.0
523.0,516.0,521.0,517.0,505.0
526.0,519.0,518.0,515.0,504.0
518.0,517.0,513.0,511.0,507.0
516.0,513.0,508.0,504.0,513.0
508.0,508.0,500.0,501.0,514.0
502.0,505.0,496.0,500.0,519.0
499.0,500.0,498.0,500.0,529.0
506.0,496.0,505.0,508.0,523.0
510.0,498.0,513.0,522.0,524.0
507.0,500.0,519.0,519.0,527.0
513.0,502.0,523.0,522.0,516.0
517.0,501.0,525.0,523.0,512.0
510.0,502.0,522.0,522.0,515.0
510.0,504.0,522.0,520.0,516.0
511.0,508.0,525.0,517.0,514.0
513.0,508.0,520.0,516.0,512.0
520.0,518.0,520.0,517.0,508.0
524.0,516.0,520.0,516.0,503.0
524.0,519.0,517.0,511.0,505.0
522.0,511.0,509.0,507.0,513.0
514.0,511.0,503.0,506.0,510.0
505.0,504.0,498.0,499.0,518.0
506.0,502.0,502.0,499.0,518.0
498.0,497.0,500.0,500.0,521.0
502.0,500.0,505.0,508.0,518.0
507.0,497.0,516.0,517.0,524.0
512.0,500.0,522.0,523.0,524.0
517.0,502.0,522.0,526.0,520.0
512.0,503.0,526.0,524.0,523.0
502.0,501.0,523.0,525.0,522.0
507.0,503.0,524.0,519.0,518.0
510.0,505.0,519.0,516.0,521.0
519.0,511.0,518.0,512.0,515.0
524.0,516.0,524.0,515.0,510.0
529.0,520.0,521.0,520.0,504.0
524.0,522.0,512.0,510.0,506.0
513.0,512.0,506.0,503.0,513.0
501.0,508.0,499.0,499.0,521.0
501.0,503.0,496.0,499.0,519.0
502.0,503.0,500.0,503.0,521.0
503.0,495.0,499.0,508.0,524.0
507.0,500.0,509.0,513.0,515.0
511.0,498.0,517.0,518.0,518.0
511.0,502.0,524.0,526.0,521.0
512.0,503.0,529.0,524.0,517.0
509.0,504.0,524.0,522.0,516.0
510.0,504.0,522.0,519.0,516.0
516.0,506.0,522.0,517.0,514.0
521.0,509.0,525.0,519.0,513.0
520.0,513.0,523.0,519.0,514.0
525.0,513.0,522.0,518.0,508.0
533.0,519.0,517.0,515.0,502.0
526.0,518.0,514.0,513.0,507.0
520.0,517.0,507.0,508.0,513.0
513.0,511.0,502.0,502.0,524.0
503.0,508.0,500.0,500.0,528.0
501.0,499.0,500.0,504.0,527.0
502.0,500.0,507.0,510.0,521.0
510.0,501.0,518.0,515.0,511.0
510.0,501.0,521.0,524.0,516.0
513.0,503.0,527.0,525.0,515.0
517.0,499.0,526.0,524.0,514.0
514.0,504.0,527.0,520.0,518.0
513.0,504.0,527.0,520.0,516.0
514.0,507.0,524.0,520.0,514.0
519.0,511.0,523.0,522.0,509.0
528.0,517.0,526.0,519.0,503.0
527.0,523.0,527.0,520.0,500.0
528.0,521.0,518.0,515.0,497.0
519.0,517.0,513.0,513.0,504.0
512.0,512.0,505.0,503.0,507.0
508.0,506.0,501.0,501.0,511.0
505.0,502.0,501.0,501.0,515.0
499.0,499.0,502.0,504.0,517.0
502.0,501.0,509.0,518.0,508.0
507.0,497.0,520.0,519.0,518.0
509.0,500.0,521.0,522.0,525.0
514.0,504.0,530.0,526.0,515.0
510.0,504.0,524.0,524.0,517.0
509.0,503.0,522.0,520.0,517.0
514.0,508.0,524.0,521.0,516.0
513.0,510.0,525.0,520.0,513.0
518.0,511.0,517.0,520.0,512.0
527.0,515.0,521.0,519.0,508.0
528.0,517.0,519.0,516.0,504.0
530.0,518.0,515.0,509.0,506.0
517.0,515.0,510.0,506.0,506.0
508.0,511.0,507.0,504.0,502.0
507.0,504.0,498.0,503.0,494.0
502.0,500.0,498.0,500.0,504.0
502.0,497.0,503.0,505.0,518.0
503.0,500.0,510.0,516.0,524.0
507.0,499.0,515.0,516.0,534.0
513.0,500.0,523.0,522.0,529.0
510.0,501.0,522.0,523.0,531.0
512.0,501.0,523.0,520.0,524.0
513.0,504.0,522.0,522.0,523.0
515.0,506.0,521.0,519.0,521.0
517.0,507.0,515.0,517.0,515.0
516.0,511.0,519.0,516.0,513.0
522.0,519.0,520.0,517.0,510.0
525.0,520.0,518.0,517.0,506.0
516.0,512.0,508.0,504.0,513.0
507.0,509.0,504.0,506.0,516.0
508.0,507.0,504.0,505.0,514.0
507.0,501.0,498.0,504.0,516.0
509.0,498.0,499.0,502.0,522.0
509.0,499.0,505.0,505.0,525.0
509.0,502.0,514.0,514.0,525.0
510.0,503.0,519.0,521.0,524.0
512.0,505.0,526.0,526.0,528.0
513.0,498.0,523.0,524.0,526.0
515.0,502.0,521.0,522.0,515.0
513.0,505.0,523.0,519.0,513.0
517.0,507.0,521.0,521.0,516.0
523.0,506.0,520.0,516.0,504.0
529.0,515.0,524.0,518.0,495.0
527.0,518.0,520.0,520.0,493.0
523.0,519.0,516.0,513.0,496.0
521.0,515.0,510.0,510.0,496.0
517.0,512.0,507.0,506.0,502.0
506.0,507.0,499.0,503.0,513.0
502.0,496.0,498.0,501.0,515.0
498.0,496.0,500.0,504.0,522.0
508.0,501.0,512.0,510.0,526.0
508.0,499.0,515.0,519.0,522.0
517.0,501.0,522.0,522.0,520.0
519.0,508.0,524.0,521.0,517.0
513.0,504.0,524.0,522.0,519.0
515.0,505.0,520.0,521.0,521.0
513.0,504.0,523.0,519.0,517.0
514.0,509.0,523.0,519.0,514.0
520.0,511.0,521.0,517.0,512.0
530.0,512.0,521.0,516.0,506.0
526.0,520.0,519.0,517.0,504.0
519.0,517.0,513.0,515.0,509.0
516.0,513.0,506.0,505.0,509.0
507.0,511.0,505.0,502.0,511.0
498.0,504.0,496.0,497.0,516.0
495.0,500.0,499.0,499.0,521.0
495.0,498.0,503.0,507.0,519.0
509.0,499.0,511.0,519.0,517.0
518.0,501.0,520.0,522.0,516.0
