CH1,CH2,CH3,CH4,CH5
522.0,515.0,523.0,518.0,504.0
523.0,520.0,523.0,517.0,502.0
523.0,518.0,519.0,513.0,506.0
517.0,515.0,509.0,507.0,510.0
510.0,509.0,508.0,504.0,515.0
503.0,501.0,498.0,499.0,518.0
501.0,497.0,496.0,501.0,519.0
501.0,496.0,500.0,506.0,524.0
505.0,498.0,507.0,513.0,520.0
513.0,499.0,512.0,519.0,520.0
515.0,502.0,518.0,523.0,518.0
514.0,500.0,519.0,525.0,519.0
512.0,497.0,516.0,520.0,521.0
511.0,499.0,515.0,515.0,522.0
515.0,503.0,517.0,516.0,518.0
516.0,505.0,520.0,517.0,512.0
521.0,513.0,522.0,518.0,507.0
522.0,518.0,524.0,520.0,499.0
529.0,520.0,522.0,518.0,494.0
524.0,518.0,514.0,511.0,502.0
512.0,510.0,506.0,503.0,507.0
506.0,506.0,502.0,504.0,515.0
502.0,501.0,497.0,500.0,513.0
501.0,497.0,497.0,502.0,515.0
507.0,496.0,502.0,509.0,519.0
509.0,497.0,507.0,513.0,520.0
509.0,497.0,514.0,517.0,518.0
514.0,498.0,515.0,520.0,521.0
514.0,499.0,516.0,518.0,518.0
515.0,502.0,514.0,517.0,515.0
512.0,499.0,513.0,515.0,516.0
516.0,503.0,515.0,512.0,514.0
517.0,507.0,516.0,513.0,514.0
523.0,514.0,520.0,513.0,512.0
525.0,521.0,523.0,517.0,507.0
523.0,519.0,520.0,519.0,506.0
518.0,514.0,512.0,509.0,507.0
509.0,508.0,501.0,500.0,509.0
502.0,503.0,498.0,498.0,516.0
501.0,501.0,497.0,498.0,518.0
499.0,497.0,493.0,502.0,518.0
503.0,497.0,505.0,510.0,520.0
510.0,498.0,508.0,517.0,517.0
512.0,498.0,513.0,517.0,523.0
519.0,500.0,519.0,525.0,517.0
517.0,502.0,518.0,523.0,514.0
515.0,503.0,518.0,525.0,515.0
519.0,504.0,519.0,515.0,511.0
522.0,510.0,523.0,525.0,505.0
519.0,512.0,521.0,517.0,507.0
517.0,513.0,522.0,517.0,506.0
528.0,522.0,524.0,517.0,506.0
523.0,518.0,516.0,510.0,506.0
514.0,512.0,509.0,505.0,509.0
507.0,511.0,507.0,501.0,513.0
502.0,503.0,498.0,494.0,519.0
501.0,500.0,499.0,507.0,520.0
501.0,497.0,500.0,504.0,518.0
505.0,496.0,509.0,513.0,516.0
511.0,500.0,512.0,518.0,515.0
513.0,498.0,516.0,522.0,516.0
521.0,499.0,516.0,518.0,516.0
521.0,500.0,516.0,518.0,518.0
513.0,499.0,515.0,516.0,517.0
513.0,503.0,517.0,516.0,514.0
517.0,506.0,518.0,516.0,511.0
522.0,512.0,516.0,521.0,504.0
524.0,518.0,528.0,519.0,503.0
517.0,519.0,521.0,514.0,508.0
515.0,520.0,516.0,512.0,510.0
510.0,511.0,507.0,503.0,513.0
503.0,506.0,502.0,501.0,516.0
498.0,499.0,496.0,500.0,522.0
499.0,496.0,496.0,501.0,524.0
500.0,496.0,502.0,509.0,522.0
505.0,496.0,510.0,516.0,519.0
509.0,499.0,513.0,518.0,517.0
512.0,498.0,517.0,520.0,516.0
512.0,499.0,517.0,521.0,516.0
511.0,499.0,516.0,518.0,518.0
513.0,501.0,518.0,518.0,518.0
517.0,506.0,520.0,515.0,511.0
519.0,509.0,524.0,517.0,509.0
522.0,515.0,523.0,517.0,509.0
525.0,518.0,523.0,516.0,505.0
521.0,515.0,522.0,512.0,506.0
517.0,514.0,512.0,508.0,512.0
511.0,514.0,505.0,505.0,515.0
507.0,503.0,501.0,501.0,513.0
504.0,500.0,499.0,503.0,514.0
504.0,498.0,502.0,508.0,517.0
508.0,497.0,505.0,510.0,514.0
510.0,498.0,512.0,515.0,515.0
513.0,499.0,517.0,519.0,520.0
513.0,500.0,519.0,518.0,518.0
507.0,498.0,516.0,518.0,520.0
509.0,500.0,517.0,517.0,517.0
511.0,502.0,517.0,514.0,513.0
516.0,505.0,519.0,518.0,511.0
516.0,509.0,520.0,515.0,507.0
528.0,518.0,526.0,521.0,505.0
525.0,520.0,523.0,518.0,504.0
521.0,517.0,517.0,512.0,506.0
517.0,514.0,514.0,507.0,512.0
508.0,509.0,505.0,505.0,517.0
507.0,506.0,503.0,505.0,525.0
501.0,505.0,501.0,503.0,534.0
498.0,499.0,503.0,505.0,535.0
504.0,497.0,507.0,510.0,528.0
507.0,499.0,512.0,515.0,520.0
512.0,499.0,515.0,520.0,511.0
517.0,501.0,519.0,522.0,516.0
516.0,500.0,517.0,517.0,517.0
519.0,502.0,517.0,518.0,516.0
523.0,504.0,516.0,517.0,503.0
525.0,508.0,521.0,521.0,498.0
529.0,513.0,524.0,518.0,504.0
523.0,519.0,524.0,519.0,505.0
521.0,514.0,525.0,517.0,505.0
520.0,517.0,514.0,512.0,506.0
513.0,507.0,507.0,506.0,509.0
507.0,508.0,506.0,504.0,516.0
505.0,501.0,500.0,501.0,518.0
500.0,498.0,498.0,502.0,520.0
507.0,496.0,504.0,510.0,521.0
509.0,499.0,510.0,513.0,521.0
513.0,500.0,515.0,521.0,520.0
515.0,499.0,518.0,524.0,524.0
514.0,504.0,519.0,522.0,522.0
512.0,497.0,519.0,520.0,520.0
515.0,504.0,520.0,521.0,516.0
519.0,508.0,522.0,519.0,512.0
526.0,512.0,522.0,520.0,510.0
525.0,516.0,523.0,520.0,504.0
528.0,521.0,524.0,519.0,500.0
525.0,520.0,519.0,517.0,501.0
518.0,516.0,512.0,510.0,503.0
508.0,510.0,506.0,506.0,513.0
503.0,507.0,499.0,500.0,517.0
501.0,501.0,499.0,500.0,520.0
502.0,498.0,501.0,506.0,519.0
504.0,498.0,502.0,513.0,522.0
514.0,500.0,514.0,520.0,519.0
511.0,500.0,519.0,522.0,520.0
510.0,500.0,518.0,523.0,517.0
511.0,499.0,517.0,521.0,517.0
512.0,500.0,516.0,524.0,518.0
515.0,507.0,519.0,519.0,512.0
523.0,509.0,524.0,518.0,507.0
526.0,511.0,524.0,521.0,505.0
526.0,520.0,520.0,520.0,504.0
532.0,522.0,523.0,516.0,506.0
522.0,522.0,519.0,513.0,504.0
517.0,515.0,510.0,509.0,510.0
510.0,509.0,505.0,505.0,510.0
502.0,501.0,498.0,501.0,518.0
498.0,500.0,499.0,501.0,526.0
506.0,501.0,503.0,512.0,523.0
510.0,498.0,509.0,509.0,523.0
510.0,499.0,513.0,518.0,522.0
506.0,502.0,515.0,520.0,525.0
509.0,497.0,515.0,517.0,524.0
509.0,499.0,515.0,515.0,519.0
514.0,503.0,519.0,517.0,515.0
507.0,503.0,517.0,515.0,515.0
505.0,508.0,519.0,514.0,516.0
516.0,513.0,522.0,521.0,511.0
521.0,518.0,524.0,517.0,505.0
520.0,517.0,518.0,510.0,507.0
517.0,513.0,512.0,510.0,511.0
509.0,509.0,502.0,502.0,513.0
505.0,509.0,505.0,503.0,517.0
505.0,502.0,499.0,500.0,519.0
501.0,494.0,502.0,502.0,516.0
506.0,496.0,505.0,505.0,521.0
511.0,501.0,513.0,518.0,520.0
517.0,501.0,513.0,519.0,519.0
516.0,500.0,519.0,521.0,518.0
515.0,502.0,516.0,520.0,520.0
512.0,504.0,518.0,518.0,517.0
516.0,502.0,519.0,517.0,517.0
519.0,508.0,520.0,522.0,511.0
521.0,511.0,521.0,519.0,512.0
530.0,517.0,526.0,523.0,506.0
527.0,522.0,525.0,520.0,504.0
528.0,521.0,520.0,516.0,505.0
522.0,515.0,510.0,510.0,507.0
508.0,509.0,505.0,505.0,518.0
507.0,505.0,500.0,499.0,519.0
499.0,499.0,497.0,501.0,520.0
505.0,497.0,500.0,506.0,521.0
507.0,498.0,505.0,512.0,521.0
504.0,500.0,512.0,518.0,520.0
512.0,500.0,515.0,521.0,521.0
519.0,500.0,515.0,522.0,517.0
516.0,500.0,518.0,522.0,516.0
512.0,500.0,516.0,517.0,517.0
512.0,503.0,517.0,517.0,519.0
518.0,509.0,520.0,517.0,516.0
528.0,514.0,522.0,519.0,509.0
527.0,521.0,521.0,518.0,504.0
529.0,520.0,520.0,516.0,505.0
524.0,518.0,514.0,511.0,506.0
519.0,516.0,510.0,509.0,508.0
508.0,509.0,503.0,502.0,512.0
503.0,508.0,499.0,502.0,521.0
501.0,502.0,497.0,502.0,520.0
504.0,497.0,502.0,512.0,515.0
508.0,498.0,506.0,514.0,509.0
509.0,499.0,511.0,518.0,511.0
514.0,500.0,517.0,526.0,510.0
515.0,503.0,521.0,523.0,516.0
513.0,501.0,517.0,520.0,521.0
513.0,502.0,517.0,522.0,522.0
516.0,506.0,520.0,518.0,520.0
520.0,509.0,520.0,518.0,514.0
523.0,516.0,523.0,519.0,508.0
525.0,519.0,524.0,519.0,503.0
524.0,518.0,518.0,515.0,505.0
521.0,515.0,512.0,511.0,506.0
515.0,513.0,509.0,506.0,513.0
508.0,507.0,501.0,498.0,517.0
504.0,502.0,499.0,504.0,522.0
499.0,496.0,496.0,501.0,525.0
502.0,497.0,502.0,507.0,520.0
505.0,495.0,505.0,512.0,522.0
508.0,497.0,512.0,517.0,519.0
512.0,498.0,517.0,521.0,516.0
512.0,494.0,516.0,518.0,518.0
513.0,499.0,516.0,517.0,518.0
515.0,501.0,517.0,516.0,516.0
518.0,506.0,520.0,518.0,510.0
517.0,507.0,524.0,516.0,509.0
526.0,518.0,524.0,520.0,504.0
526.0,520.0,523.0,519.0,501.0
523.0,518.0,516.0,514.0,506.0
514.0,517.0,508.0,505.0,514.0
512.0,511.0,504.0,503.0,514.0
503.0,505.0,497.0,500.0,518.0
504.0,499.0,497.0,500.0,520.0
502.0,498.0,500.0,507.0,522.0
507.0,502.0,507.0,515.0,518.0
512.0,501.0,513.0,522.0,516.0
512.0,503.0,518.0,523.0,520.0
511.0,502.0,522.0,522.0,519.0
511.0,499.0,516.0,520.0,523.0
507.0,500.0,515.0,516.0,519.0
516.0,506.0,518.0,518.0,520.0
521.0,511.0,521.0,518.0,516.0
522.0,515.0,523.0,519.0,509.0
523.0,517.0,522.0,517.0,506.0
522.0,519.0,519.0,514.0,505.0
517.0,517.0,514.0,512.0,507.0
514.0,513.0,507.0,507.0,510.0
510.0,510.0,503.0,505.0,512.0
504.0,504.0,494.0,502.0,518.0
505.0,500.0,499.0,503.0,524.0
503.0,498.0,507.0,508.0,518.0
513.0,499.0,502.0,515.0,518.0
514.0,501.0,513.0,520.0,516.0
513.0,502.0,517.0,522.0,517.0
512.0,502.0,514.0,523.0,522.0
510.0,501.0,517.0,520.0,517.0
510.0,503.0,518.0,518.0,516.0
513.0,506.0,519.0,518.0,513.0
517.0,511.0,520.0,518.0,509.0
521.0,515.0,523.0,519.0,504.0
526.0,521.0,524.0,520.0,500.0
520.0,520.0,520.0,519.0,504.0
516.0,517.0,513.0,510.0,506.0
509.0,511.0,505.0,503.0,512.0
505.0,506.0,505.0,502.0,514.0
500.0,501.0,498.0,505.0,517.0
500.0,498.0,493.0,504.0,520.0
504.0,498.0,504.0,511.0,518.0
508.0,499.0,510.0,521.0,517.0
512.0,499.0,511.0,521.0,516.0
515.0,501.0,518.0,523.0,514.0
512.0,500.0,518.0,522.0,517.0
514.0,503.0,514.0,519.0,517.0
515.0,507.0,518.0,519.0,513.0
517.0,509.0,521.0,521.0,512.0
517.0,512.0,522.0,521.0,508.0
525.0,516.0,522.0,520.0,505.0
526.0,518.0,521.0,520.0,499.0
525.0,518.0,516.0,514.0,505.0
515.0,514.0,509.0,508.0,508.0
505.0,509.0,502.0,501.0,515.0
504.0,502.0,498.0,496.0,517.0
499.0,498.0,495.0,500.0,515.0
500.0,496.0,500.0,506.0,520.0
506.0,498.0,506.0,511.0,518.0
515.0,500.0,514.0,520.0,522.0
514.0,500.0,515.0,521.0,519.0
511.0,502.0,518.0,521.0,513.0
510.0,498.0,514.0,519.0,515.0
506.0,500.0,516.0,516.0,518.0
514.0,501.0,520.0,519.0,513.0
516.0,508.0,520.0,518.0,517.0
522.0,515.0,525.0,521.0,506.0
519.0,517.0,523.0,519.0,504.0
525.0,519.0,520.0,516.0,502.0
521.0,516.0,513.0,513.0,504.0
514.0,513.0,508.0,508.0,509.0
504.0,507.0,504.0,503.0,512.0
501.0,505.0,499.0,500.0,517.0
497.0,498.0,499.0,502.0,519.0
503.0,499.0,505.0,510.0,520.0
507.0,498.0,508.0,515.0,518.0
514.0,499.0,514.0,520.0,514.0
514.0,501.0,518.0,522.0,516.0
509.0,500.0,518.0,521.0,516.0
516.0,500.0,517.0,520.0,520.0
515.0,503.0,521.0,515.0,514.0
515.0,505.0,520.0,518.0,513.0
517.0,505.0,522.0,518.0,509.0
522.0,516.0,525.0,519.0,503.0
524.0,518.0,525.0,519.0,503.0
522.0,523.0,520.0,516.0,503.0
517.0,517.0,514.0,512.0,506.0
513.0,511.0,505.0,507.0,512.0
509.0,509.0,504.0,504.0,515.0
503.0,502.0,498.0,503.0,516.0
502.0,503.0,502.0,507.0,519.0
505.0,502.0,505.0,511.0,517.0
507.0,495.0,513.0,516.0,518.0
511.0,499.0,516.0,520.0,517.0
512.0,501.0,518.0,523.0,516.0
511.0,501.0,519.0,522.0,515.0
511.0,501.0,517.0,524.0,517.0
515.0,506.0,521.0,520.0,514.0
523.0,510.0,523.0,521.0,512.0
525.0,513.0,524.0,524.0,507.0
526.0,521.0,525.0,521.0,504.0
527.0,522.0,526.0,519.0,500.0
524.0,521.0,518.0,516.0,500.0
516.0,513.0,511.0,510.0,505.0
511.0,513.0,506.0,506.0,512.0
503.0,503.0,499.0,505.0,517.0
503.0,502.0,501.0,504.0,518.0
506.0,499.0,502.0,505.0,517.0
505.0,499.0,509.0,514.0,519.0
510.0,500.0,515.0,515.0,518.0
512.0,500.0,519.0,525.0,517.0
516.0,502.0,522.0,524.0,517.0
515.0,501.0,521.0,521.0,516.0
517.0,502.0,523.0,521.0,514.0
519.0,505.0,522.0,518.0,509.0
521.0,509.0,522.0,521.0,507.0
521.0,515.0,525.0,518.0,508.0
522.0,522.0,525.0,519.0,502.0
523.0,518.0,526.0,515.0,502.0
505.0,508.0,507.0,499.0,513.0
498.0,501.0,494.0,492.0,517.0
498.0,498.0,496.0,490.0,516.0
484.0,492.0,486.0,487.0,521.0
517.0,509.0,518.0,522.0,520.0
523.0,510.0,524.0,530.0,510.0
533.0,506.0,526.0,532.0,505.0
526.0,508.0,530.0,536.0,505.0
522.0,507.0,529.0,533.0,505.0
520.0,506.0,529.0,529.0,507.0
531.0,513.0,529.0,530.0,506.0
539.0,517.0,532.0,530.0,507.0
537.0,520.0,533.0,528.0,505.0
537.0,525.0,533.0,530.0,502.0
537.0,529.0,534.0,529.0,499.0
535.0,527.0,532.0,526.0,494.0
529.0,521.0,523.0,520.0,497.0
523.0,522.0,514.0,518.0,503.0
515.0,514.0,511.0,513.0,507.0
512.0,508.0,507.0,511.0,512.0
509.0,504.0,505.0,511.0,522.0
511.0,506.0,517.0,518.0,524.0
519.0,504.0,518.0,527.0,516.0
526.0,507.0,522.0,527.0,514.0
525.0,507.0,525.0,529.0,513.0
521.0,505.0,524.0,526.0,508.0
523.0,506.0,524.0,525.0,512.0
523.0,512.0,528.0,526.0,518.0
527.0,516.0,526.0,523.0,510.0
528.0,518.0,528.0,522.0,503.0
531.0,521.0,529.0,525.0,497.0
532.0,525.0,530.0,525.0,495.0
529.0,524.0,524.0,520.0,500.0
522.0,519.0,515.0,515.0,503.0
515.0,514.0,509.0,509.0,511.0
504.0,507.0,507.0,506.0,522.0
507.0,504.0,503.0,510.0,518.0
506.0,504.0,508.0,511.0,520.0
510.0,501.0,512.0,517.0,520.0
513.0,501.0,516.0,521.0,521.0
518.0,503.0,521.0,523.0,523.0
516.0,504.0,522.0,524.0,517.0
517.0,503.0,521.0,523.0,521.0
517.0,504.0,522.0,524.0,521.0
520.0,505.0,523.0,521.0,512.0
523.0,505.0,526.0,520.0,505.0
525.0,520.0,528.0,523.0,502.0
526.0,522.0,530.0,524.0,501.0
527.0,521.0,525.0,518.0,499.0
525.0,523.0,519.0,514.0,501.0
516.0,515.0,512.0,512.0,505.0
509.0,511.0,507.0,503.0,514.0
505.0,502.0,498.0,499.0,520.0
505.0,497.0,500.0,503.0,521.0
502.0,497.0,504.0,509.0,521.0
507.0,501.0,513.0,518.0,524.0
509.0,500.0,514.0,519.0,522.0
507.0,500.0,516.0,517.0,520.0
513.0,502.0,521.0,520.0,513.0
511.0,504.0,520.0,522.0,515.0
515.0,506.0,522.0,523.0,514.0
523.0,510.0,523.0,521.0,508.0
523.0,514.0,522.0,519.0,511.0
526.0,522.0,524.0,520.0,510.0
525.0,523.0,522.0,520.0,501.0
522.0,523.0,525.0,519.0,508.0
516.0,521.0,516.0,512.0,514.0
510.0,515.0,508.0,511.0,508.0
503.0,507.0,504.0,503.0,509.0
501.0,502.0,503.0,504.0,519.0
505.0,500.0,503.0,506.0,521.0
516.0,502.0,510.0,516.0,511.0
515.0,502.0,515.0,523.0,513.0
513.0,502.0,519.0,524.0,518.0
515.0,502.0,520.0,524.0,521.0
515.0,502.0,519.0,520.0,518.0
515.0,504.0,520.0,520.0,517.0
516.0,504.0,520.0,520.0,513.0
520.0,512.0,522.0,519.0,514.0
523.0,512.0,524.0,520.0,509.0
528.0,523.0,526.0,518.0,500.0
527.0,523.0,525.0,519.0,497.0
523.0,520.0,524.0,516.0,502.0
517.0,518.0,513.0,511.0,505.0
510.0,510.0,506.0,506.0,515.0
503.0,505.0,500.0,503.0,523.0
502.0,502.0,501.0,505.0,524.0
506.0,502.0,504.0,512.0,523.0
510.0,499.0,509.0,511.0,519.0
513.0,501.0,513.0,521.0,518.0
513.0,506.0,517.0,523.0,517.0
511.0,502.0,518.0,523.0,515.0
511.0,501.0,517.0,522.0,516.0
511.0,504.0,518.0,521.0,516.0
516.0,501.0,523.0,519.0,512.0
520.0,511.0,520.0,520.0,507.0
523.0,517.0,523.0,521.0,505.0
529.0,522.0,525.0,519.0,501.0
527.0,524.0,521.0,517.0,499.0
520.0,521.0,516.0,512.0,504.0
513.0,514.0,510.0,508.0,513.0
511.0,510.0,505.0,505.0,514.0
502.0,505.0,501.0,504.0,524.0
502.0,495.0,500.0,506.0,528.0
503.0,497.0,504.0,510.0,524.0
510.0,503.0,508.0,517.0,522.0
515.0,500.0,516.0,519.0,518.0
515.0,501.0,517.0,524.0,518.0
515.0,502.0,517.0,521.0,518.0
513.0,504.0,517.0,522.0,520.0
515.0,507.0,518.0,519.0,520.0
516.0,510.0,520.0,521.0,518.0
521.0,514.0,521.0,520.0,514.0
524.0,518.0,525.0,525.0,502.0
524.0,521.0,522.0,520.0,496.0
521.0,522.0,516.0,518.0,497.0
514.0,516.0,510.0,511.0,499.0
506.0,513.0,506.0,502.0,506.0
500.0,506.0,498.0,505.0,518.0
498.0,502.0,498.0,502.0,520.0
497.0,495.0,499.0,503.0,521.0
500.0,497.0,502.0,503.0,520.0
515.0,503.0,510.0,515.0,509.0
518.0,501.0,515.0,522.0,505.0
516.0,500.0,514.0,523.0,508.0
512.0,500.0,516.0,519.0,513.0
503.0,498.0,516.0,518.0,522.0
503.0,507.0,517.0,515.0,522.0
518.0,515.0,527.0,523.0,515.0
526.0,516.0,526.0,521.0,506.0
527.0,519.0,524.0,521.0,500.0
526.0,525.0,523.0,519.0,500.0
525.0,524.0,522.0,517.0,503.0
518.0,517.0,514.0,512.0,506.0
510.0,514.0,509.0,506.0,509.0
508.0,505.0,505.0,502.0,513.0
500.0,500.0,499.0,503.0,518.0
504.0,498.0,504.0,510.0,514.0
509.0,499.0,511.0,518.0,519.0
513.0,500.0,513.0,520.0,518.0
514.0,503.0,519.0,524.0,516.0
516.0,507.0,520.0,525.0,516.0
516.0,501.0,519.0,522.0,515.0
516.0,505.0,521.0,524.0,515.0
517.0,506.0,521.0,520.0,512.0
517.0,512.0,522.0,523.0,511.0
517.0,515.0,524.0,515.0,509.0
524.0,523.0,525.0,519.0,504.0
525.0,522.0,525.0,518.0,502.0
518.0,519.0,521.0,513.0,505.0
511.0,513.0,510.0,505.0,509.0
506.0,508.0,505.0,506.0,514.0
508.0,503.0,502.0,503.0,516.0
502.0,495.0,499.0,504.0,522.0
504.0,499.0,500.0,509.0,520.0
505.0,501.0,509.0,519.0,519.0
509.0,500.0,515.0,518.0,520.0
511.0,503.0,519.0,523.0,523.0
511.0,502.0,519.0,521.0,522.0
509.0,505.0,516.0,517.0,523.0
508.0,506.0,521.0,521.0,517.0
522.0,511.0,521.0,520.0,512.0
523.0,513.0,524.0,520.0,508.0
524.0,517.0,524.0,521.0,500.0
527.0,522.0,526.0,524.0,500.0
527.0,519.0,518.0,516.0,500.0
520.0,514.0,512.0,509.0,507.0
516.0,513.0,509.0,505.0,516.0
506.0,507.0,503.0,506.0,515.0
504.0,501.0,496.0,504.0,519.0
504.0,504.0,503.0,508.0,519.0
509.0,500.0,506.0,513.0,515.0
512.0,500.0,511.0,523.0,513.0
516.0,503.0,516.0,522.0,516.0
517.0,501.0,517.0,522.0,521.0
513.0,501.0,516.0,520.0,521.0
512.0,505.0,517.0,519.0,526.0
515.0,507.0,519.0,519.0,523.0
518.0,509.0,518.0,519.0,517.0
524.0,515.0,523.0,522.0,509.0
525.0,517.0,524.0,520.0,505.0
525.0,523.0,526.0,519.0,500.0
522.0,520.0,522.0,516.0,499.0
517.0,516.0,512.0,515.0,503.0
510.0,512.0,506.0,504.0,509.0
503.0,502.0,498.0,498.0,520.0
499.0,499.0,498.0,506.0,525.0
502.0,500.0,506.0,510.0,518.0
503.0,500.0,510.0,513.0,516.0
508.0,497.0,510.0,517.0,517.0
507.0,499.0,515.0,521.0,514.0
511.0,501.0,519.0,523.0,516.0
507.0,500.0,517.0,519.0,521.0
513.0,503.0,519.0,519.0,518.0
516.0,503.0,521.0,517.0,519.0
523.0,513.0,523.0,518.0,518.0
527.0,515.0,525.0,520.0,512.0
527.0,521.0,526.0,519.0,506.0
527.0,520.0,522.0,517.0,505.0
524.0,518.0,515.0,516.0,506.0
514.0,513.0,509.0,507.0,511.0
507.0,510.0,506.0,507.0,512.0
503.0,503.0,501.0,503.0,514.0
499.0,499.0,501.0,502.0,518.0
505.0,499.0,501.0,512.0,516.0
508.0,500.0,511.0,514.0,516.0
511.0,499.0,516.0,519.0,520.0
513.0,502.0,519.0,521.0,521.0
507.0,499.0,517.0,522.0,523.0
507.0,499.0,517.0,518.0,518.0
514.0,507.0,519.0,519.0,513.0
520.0,513.0,522.0,520.0,508.0
522.0,515.0,525.0,523.0,507.0
526.0,517.0,527.0,521.0,501.0
525.0,522.0,526.0,521.0,505.0
522.0,522.0,520.0,514.0,505.0
514.0,515.0,512.0,508.0,501.0
512.0,512.0,509.0,507.0,506.0
509.0,507.0,501.0,506.0,507.0
507.0,502.0,501.0,508.0,514.0
504.0,501.0,503.0,507.0,517.0
504.0,498.0,506.0,511.0,513.0
503.0,499.0,513.0,516.0,509.0
511.0,499.0,514.0,520.0,510.0
518.0,501.0,518.0,521.0,510.0
517.0,501.0,518.0,525.0,513.0
516.0,503.0,520.0,520.0,524.0
517.0,503.0,519.0,518.0,519.0
520.0,512.0,522.0,520.0,515.0
524.0,517.0,526.0,522.0,512.0
528.0,521.0,528.0,521.0,508.0
525.0,522.0,524.0,521.0,509.0
520.0,518.0,517.0,514.0,510.0
512.0,515.0,511.0,508.0,514.0
509.0,512.0,507.0,505.0,512.0
503.0,507.0,499.0,502.0,514.0
501.0,501.0,505.0,505.0,518.0
504.0,501.0,503.0,508.0,521.0
509.0,499.0,508.0,513.0,519.0
513.0,500.0,513.0,516.0,522.0
518.0,505.0,518.0,522.0,521.0
521.0,501.0,517.0,520.0,520.0
514.0,501.0,513.0,517.0,519.0
513.0,500.0,515.0,515.0,514.0
514.0,504.0,517.0,517.0,511.0
517.0,509.0,520.0,519.0,506.0
522.0,515.0,524.0,521.0,501.0
523.0,519.0,524.0,521.0,500.0
520.0,517.0,518.0,514.0,504.0
514.0,513.0,511.0,511.0,512.0
522.0,514.0,512.0,509.0,513.0
510.0,511.0,506.0,508.0,511.0
499.0,501.0,499.0,503.0,521.0
498.0,498.0,498.0,504.0,527.0
510.0,499.0,508.0,510.0,522.0
515.0,501.0,515.0,519.0,515.0
512.0,502.0,515.0,522.0,513.0
515.0,502.0,517.0,523.0,510.0
517.0,501.0,520.0,523.0,508.0
511.0,504.0,517.0,522.0,509.0
515.0,503.0,517.0,519.0,514.0
515.0,509.0,521.0,519.0,514.0
519.0,513.0,522.0,522.0,512.0
517.0,518.0,524.0,523.0,509.0
522.0,523.0,527.0,521.0,499.0
518.0,526.0,521.0,517.0,500.0
518.0,517.0,517.0,510.0,508.0
513.0,510.0,509.0,504.0,510.0
510.0,507.0,501.0,503.0,518.0
506.0,503.0,502.0,504.0,516.0
504.0,500.0,502.0,508.0,517.0
507.0,496.0,507.0,513.0,516.0
511.0,502.0,511.0,517.0,515.0
513.0,500.0,515.0,521.0,516.0
515.0,502.0,518.0,522.0,518.0
517.0,501.0,520.0,521.0,518.0
516.0,502.0,519.0,520.0,519.0
517.0,505.0,518.0,518.0,521.0
521.0,509.0,517.0,516.0,517.0
525.0,515.0,523.0,523.0,511.0
529.0,520.0,526.0,522.0,506.0
525.0,521.0,523.0,518.0,504.0
521.0,522.0,522.0,515.0,505.0
512.0,520.0,510.0,507.0,508.0
505.0,509.0,504.0,510.0,511.0
502.0,502.0,501.0,502.0,509.0
502.0,497.0,498.0,504.0,514.0
500.0,498.0,504.0,511.0,516.0
507.0,498.0,508.0,516.0,516.0
509.0,500.0,513.0,523.0,518.0
512.0,501.0,519.0,521.0,517.0
512.0,501.0,521.0,521.0,518.0
516.0,498.0,516.0,518.0,516.0
519.0,502.0,518.0,518.0,517.0
517.0,507.0,519.0,517.0,513.0
520.0,511.0,521.0,519.0,500.0
521.0,516.0,524.0,523.0,502.0
523.0,520.0,523.0,516.0,500.0
527.0,522.0,520.0,518.0,505.0
524.0,518.0,515.0,510.0,504.0
515.0,515.0,512.0,507.0,513.0
510.0,510.0,504.0,504.0,515.0
504.0,503.0,499.0,502.0,517.0
500.0,498.0,500.0,503.0,523.0
501.0,502.0,504.0,509.0,522.0
507.0,501.0,509.0,512.0,520.0
510.0,499.0,514.0,518.0,516.0
516.0,501.0,521.0,520.0,514.0
509.0,500.0,517.0,517.0,514.0
509.0,499.0,514.0,514.0,515.0
518.0,504.0,517.0,515.0,511.0
525.0,510.0,522.0,520.0,507.0
524.0,511.0,519.0,517.0,503.0
527.0,518.0,522.0,517.0,503.0
523.0,519.0,517.0,515.0,504.0
520.0,521.0,520.0,514.0,505.0
516.0,518.0,518.0,510.0,507.0
507.0,510.0,503.0,498.0,511.0
502.0,501.0,497.0,497.0,516.0
503.0,503.0,500.0,506.0,518.0
505.0,502.0,501.0,511.0,516.0
506.0,498.0,505.0,511.0,515.0
513.0,501.0,516.0,517.0,520.0
515.0,501.0,514.0,523.0,524.0
517.0,502.0,519.0,524.0,522.0
514.0,497.0,517.0,519.0,526.0
517.0,502.0,517.0,515.0,522.0
519.0,507.0,521.0,518.0,516.0
520.0,511.0,521.0,517.0,507.0
521.0,515.0,522.0,518.0,510.0
526.0,524.0,525.0,524.0,506.0
526.0,526.0,524.0,518.0,498.0
520.0,520.0,517.0,515.0,506.0
511.0,515.0,510.0,508.0,508.0
514.0,511.0,510.0,507.0,510.0
502.0,501.0,499.0,502.0,513.0
502.0,499.0,499.0,509.0,519.0
505.0,498.0,504.0,508.0,526.0
509.0,499.0,510.0,519.0,523.0
514.0,500.0,512.0,518.0,522.0
520.0,503.0,520.0,521.0,519.0
516.0,502.0,519.0,521.0,520.0
512.0,501.0,516.0,518.0,523.0
514.0,505.0,518.0,520.0,510.0
517.0,507.0,520.0,519.0,507.0
517.0,511.0,521.0,519.0,507.0
522.0,518.0,522.0,519.0,502.0
524.0,521.0,526.0,522.0,502.0
525.0,520.0,521.0,516.0,503.0
517.0,519.0,516.0,513.0,503.0
510.0,517.0,509.0,508.0,507.0
507.0,508.0,504.0,503.0,505.0
502.0,501.0,500.0,503.0,517.0
502.0,503.0,499.0,508.0,515.0
510.0,498.0,503.0,509.0,516.0
506.0,498.0,509.0,515.0,520.0
508.0,498.0,513.0,520.0,516.0
514.0,499.0,517.0,521.0,516.0
515.0,503.0,517.0,519.0,519.0
513.0,501.0,517.0,517.0,520.0
511.0,503.0,518.0,517.0,522.0
523.0,509.0,520.0,517.0,516.0
524.0,515.0,524.0,519.0,511.0
527.0,522.0,525.0,519.0,505.0
524.0,521.0,525.0,520.0,501.0
522.0,522.0,520.0,514.0,504.0
512.0,515.0,514.0,508.0,512.0
504.0,508.0,507.0,505.0,518.0
493.0,504.0,504.0,504.0,521.0
497.0,504.0,505.0,505.0,523.0
512.0,500.0,503.0,508.0,516.0
509.0,499.0,507.0,512.0,513.0
512.0,500.0,516.0,517.0,516.0
516.0,497.0,516.0,519.0,513.0
512.0,498.0,518.0,518.0,517.0
508.0,500.0,517.0,518.0,522.0
511.0,501.0,519.0,520.0,515.0
519.0,506.0,521.0,519.0,515.0
519.0,511.0,522.0,514.0,516.0
519.0,514.0,524.0,517.0,510.0
522.0,516.0,523.0,517.0,507.0
525.0,522.0,523.0,519.0,505.0
522.0,523.0,521.0,515.0,507.0
510.0,515.0,511.0,505.0,515.0
505.0,509.0,506.0,501.0,516.0
500.0,505.0,499.0,499.0,518.0
499.0,499.0,500.0,503.0,520.0
500.0,500.0,506.0,507.0,516.0
507.0,496.0,512.0,514.0,519.0
510.0,504.0,515.0,519.0,513.0
516.0,501.0,523.0,520.0,514.0
519.0,499.0,522.0,521.0,517.0
514.0,499.0,517.0,518.0,518.0
516.0,503.0,518.0,516.0,518.0
521.0,510.0,522.0,517.0,518.0
520.0,513.0,524.0,517.0,512.0
524.0,518.0,525.0,521.0,507.0
527.0,522.0,528.0,521.0,501.0
522.0,524.0,522.0,515.0,509.0
518.0,520.0,515.0,510.0,512.0
505.0,511.0,507.0,502.0,513.0
504.0,506.0,504.0,508.0,510.0
496.0,504.0,500.0,501.0,519.0
500.0,498.0,502.0,504.0,517.0
503.0,497.0,506.0,510.0,516.0
507.0,499.0,512.0,516.0,522.0
509.0,503.0,518.0,521.0,531.0
514.0,502.0,519.0,521.0,525.0
512.0,501.0,520.0,520.0,523.0
515.0,500.0,518.0,517.0,521.0
521.0,506.0,524.0,518.0,509.0
519.0,512.0,523.0,515.0,502.0
515.0,513.0,524.0,520.0,505.0
519.0,516.0,528.0,519.0,500.0
523.0,521.0,525.0,517.0,500.0
522.0,520.0,521.0,516.0,501.0
516.0,516.0,515.0,511.0,504.0
508.0,512.0,505.0,508.0,509.0
507.0,507.0,507.0,503.0,515.0
505.0,502.0,501.0,503.0,519.0
505.0,498.0,504.0,505.0,521.0
509.0,501.0,512.0,512.0,520.0
517.0,502.0,514.0,517.0,521.0
514.0,501.0,519.0,522.0,514.0
515.0,500.0,520.0,520.0,512.0
506.0,499.0,516.0,516.0,515.0
504.0,505.0,518.0,518.0,513.0
510.0,505.0,520.0,520.0,505.0
517.0,509.0,523.0,521.0,504.0
519.0,515.0,523.0,520.0,506.0
522.0,519.0,529.0,521.0,504.0
521.0,520.0,521.0,517.0,502.0
522.0,518.0,516.0,516.0,503.0
519.0,515.0,512.0,508.0,511.0
505.0,507.0,503.0,503.0,519.0
501.0,503.0,504.0,503.0,524.0
496.0,496.0,498.0,507.0,526.0
501.0,495.0,503.0,508.0,525.0
503.0,496.0,508.0,513.0,521.0
507.0,498.0,515.0,521.0,517.0
511.0,500.0,519.0,522.0,513.0
512.0,499.0,517.0,519.0,517.0
509.0,501.0,517.0,517.0,518.0
515.0,503.0,518.0,518.0,516.0
514.0,510.0,521.0,518.0,513.0
517.0,511.0,522.0,519.0,505.0
524.0,514.0,524.0,519.0,504.0
524.0,521.0,524.0,518.0,508.0
522.0,520.0,518.0,514.0,506.0
520.0,521.0,515.0,505.0,507.0
514.0,513.0,509.0,509.0,512.0
511.0,507.0,500.0,502.0,512.0
506.0,502.0,502.0,501.0,513.0
502.0,500.0,501.0,505.0,518.0
507.0,499.0,505.0,513.0,521.0
508.0,499.0,512.0,521.0,523.0
510.0,498.0,515.0,519.0,521.0
515.0,500.0,516.0,521.0,514.0
512.0,503.0,523.0,521.0,510.0
509.0,501.0,520.0,519.0,512.0
509.0,503.0,518.0,521.0,521.0
523.0,509.0,522.0,518.0,517.0
527.0,515.0,525.0,518.0,507.0
521.0,518.0,525.0,519.0,508.0
526.0,524.0,526.0,518.0,501.0
516.0,517.0,518.0,513.0,504.0
514.0,514.0,512.0,508.0,506.0
508.0,507.0,508.0,506.0,511.0
500.0,505.0,501.0,504.0,516.0
497.0,500.0,500.0,504.0,523.0
500.0,503.0,505.0,508.0,523.0
508.0,500.0,513.0,513.0,526.0
510.0,501.0,514.0,519.0,523.0
514.0,498.0,517.0,520.0,521.0
515.0,500.0,518.0,520.0,522.0
511.0,500.0,517.0,518.0,514.0
506.0,500.0,520.0,516.0,519.0
515.0,508.0,520.0,520.0,514.0
522.0,512.0,523.0,521.0,503.0
525.0,516.0,524.0,521.0,499.0
524.0,519.0,524.0,521.0,499.0
525.0,522.0,521.0,519.0,498.0
521.0,521.0,518.0,516.0,504.0
516.0,518.0,511.0,510.0,515.0
514.0,512.0,509.0,504.0,525.0
501.0,504.0,500.0,501.0,524.0
503.0,497.0,498.0,503.0,522.0
504.0,497.0,503.0,510.0,517.0
507.0,498.0,509.0,515.0,518.0
510.0,499.0,512.0,518.0,518.0
516.0,500.0,516.0,520.0,517.0
512.0,501.0,522.0,521.0,518.0
512.0,500.0,517.0,518.0,516.0
511.0,503.0,520.0,518.0,510.0
512.0,506.0,520.0,518.0,511.0
514.0,511.0,523.0,517.0,509.0
524.0,518.0,524.0,519.0,507.0
527.0,520.0,527.0,518.0,502.0
525.0,519.0,519.0,515.0,504.0
517.0,518.0,511.0,508.0,507.0
505.0,510.0,505.0,502.0,510.0
508.0,505.0,501.0,501.0,515.0
505.0,503.0,502.0,504.0,519.0
499.0,497.0,500.0,504.0,522.0
502.0,496.0,502.0,506.0,523.0
510.0,500.0,510.0,514.0,524.0
511.0,502.0,514.0,518.0,526.0
519.0,507.0,518.0,521.0,519.0
514.0,501.0,515.0,515.0,514.0
513.0,500.0,514.0,515.0,516.0
514.0,504.0,520.0,517.0,512.0
519.0,509.0,521.0,522.0,504.0
517.0,514.0,522.0,518.0,503.0
522.0,518.0,526.0,521.0,504.0
528.0,522.0,524.0,520.0,505.0
527.0,522.0,520.0,515.0,506.0
519.0,517.0,512.0,511.0,509.0
512.0,511.0,505.0,510.0,511.0
499.0,504.0,500.0,504.0,518.0
499.0,499.0,501.0,505.0,518.0
500.0,497.0,500.0,505.0,519.0
505.0,498.0,506.0,509.0,521.0
506.0,499.0,511.0,515.0,525.0
513.0,504.0,515.0,519.0,522.0
513.0,499.0,516.0,520.0,520.0
507.0,500.0,516.0,518.0,522.0
510.0,503.0,517.0,517.0,518.0
514.0,506.0,518.0,517.0,513.0
517.0,510.0,520.0,518.0,507.0
519.0,516.0,524.0,522.0,505.0
525.0,522.0,525.0,520.0,499.0
530.0,521.0,520.0,514.0,499.0
523.0,518.0,515.0,511.0,511.0
516.0,514.0,508.0,506.0,512.0
512.0,510.0,504.0,504.0,515.0
505.0,502.0,499.0,501.0,517.0
501.0,498.0,498.0,501.0,516.0
506.0,499.0,503.0,508.0,519.0
505.0,500.0,511.0,516.0,518.0
508.0,499.0,513.0,517.0,522.0
509.0,500.0,516.0,520.0,519.0
517.0,502.0,518.0,519.0,518.0
515.0,497.0,516.0,517.0,519.0
515.0,505.0,521.0,520.0,517.0
516.0,511.0,521.0,516.0,507.0
515.0,508.0,523.0,518.0,508.0
519.0,516.0,522.0,517.0,508.0
527.0,520.0,523.0,517.0,502.0
522.0,525.0,521.0,513.0,507.0
517.0,517.0,513.0,510.0,507.0
508.0,513.0,508.0,505.0,515.0
503.0,512.0,504.0,502.0,515.0
501.0,504.0,501.0,500.0,518.0
501.0,501.0,506.0,506.0,520.0
503.0,500.0,508.0,511.0,522.0
508.0,502.0,511.0,517.0,518.0
514.0,502.0,517.0,524.0,518.0
515.0,501.0,519.0,522.0,519.0
513.0,501.0,518.0,517.0,519.0
510.0,504.0,516.0,516.0,520.0
514.0,503.0,517.0,515.0,514.0
521.0,509.0,522.0,520.0,510.0
520.0,513.0,520.0,510.0,510.0
523.0,522.0,524.0,517.0,508.0
520.0,520.0,521.0,510.0,505.0
524.0,521.0,519.0,517.0,507.0
514.0,517.0,511.0,504.0,510.0
509.0,512.0,510.0,502.0,508.0
502.0,502.0,493.0,497.0,514.0
499.0,498.0,494.0,500.0,518.0
502.0,500.0,503.0,505.0,524.0
508.0,502.0,510.0,512.0,523.0
510.0,500.0,513.0,516.0,522.0
512.0,500.0,515.0,518.0,518.0
512.0,501.0,517.0,520.0,515.0
513.0,501.0,517.0,517.0,516.0
518.0,504.0,520.0,521.0,516.0
517.0,506.0,520.0,516.0,517.0
524.0,513.0,523.0,518.0,511.0
531.0,518.0,529.0,522.0,507.0
533.0,521.0,526.0,526.0,504.0
528.0,527.0,523.0,512.0,505.0
519.0,522.0,517.0,512.0,508.0
513.0,515.0,510.0,512.0,512.0
509.0,509.0,506.0,504.0,518.0
502.0,504.0,499.0,502.0,520.0
498.0,499.0,500.0,503.0,522.0
502.0,499.0,506.0,510.0,519.0
506.0,499.0,511.0,516.0,520.0
508.0,500.0,513.0,518.0,518.0
507.0,499.0,516.0,521.0,512.0
511.0,501.0,520.0,519.0,515.0
512.0,502.0,516.0,519.0,518.0
513.0,505.0,520.0,519.0,517.0
518.0,507.0,520.0,517.0,517.0
522.0,515.0,522.0,518.0,512.0
523.0,517.0,523.0,519.0,508.0
529.0,522.0,524.0,525.0,504.0
527.0,522.0,519.0,520.0,503.0
516.0,520.0,519.0,512.0,509.0
508.0,518.0,509.0,508.0,510.0
504.0,508.0,502.0,503.0,510.0
499.0,497.0,497.0,503.0,516.0
500.0,502.0,499.0,505.0,519.0
506.0,499.0,507.0,512.0,517.0
509.0,502.0,509.0,515.0,522.0
509.0,504.0,514.0,517.0,525.0
512.0,507.0,519.0,522.0,521.0
510.0,501.0,517.0,520.0,522.0
511.0,503.0,519.0,517.0,514.0
518.0,505.0,517.0,515.0,512.0
519.0,510.0,519.0,516.0,511.0
524.0,516.0,526.0,518.0,517.0
525.0,519.0,523.0,522.0,509.0
524.0,522.0,523.0,521.0,509.0
520.0,519.0,517.0,513.0,506.0
512.0,513.0,509.0,507.0,511.0
508.0,510.0,505.0,505.0,513.0
502.0,505.0,501.0,505.0,517.0
501.0,502.0,499.0,505.0,517.0
504.0,499.0,504.0,508.0,517.0
507.0,499.0,507.0,513.0,519.0
511.0,498.0,513.0,519.0,516.0
516.0,501.0,517.0,522.0,520.0
514.0,499.0,516.0,516.0,515.0
513.0,499.0,517.0,518.0,511.0
514.0,503.0,514.0,518.0,512.0
515.0,503.0,520.0,513.0,512.0
513.0,507.0,518.0,515.0,509.0
521.0,517.0,521.0,519.0,503.0
524.0,518.0,524.0,520.0,505.0
527.0,519.0,523.0,519.0,507.0
520.0,518.0,515.0,519.0,511.0
512.0,513.0,508.0,504.0,518.0
509.0,510.0,504.0,502.0,519.0
508.0,507.0,499.0,503.0,518.0
503.0,497.0,500.0,503.0,512.0
500.0,501.0,509.0,510.0,508.0
502.0,498.0,509.0,515.0,511.0
506.0,497.0,512.0,516.0,505.0
510.0,498.0,517.0,521.0,509.0
511.0,499.0,519.0,521.0,518.0
509.0,502.0,523.0,522.0,518.0
513.0,504.0,520.0,520.0,514.0
518.0,506.0,520.0,518.0,515.0
522.0,514.0,521.0,518.0,515.0
523.0,518.0,526.0,521.0,515.0
524.0,522.0,525.0,522.0,504.0
518.0,519.0,520.0,518.0,510.0
513.0,514.0,513.0,511.0,507.0
505.0,513.0,508.0,507.0,507.0
507.0,504.0,501.0,501.0,511.0
504.0,503.0,499.0,500.0,515.0
503.0,499.0,503.0,508.0,520.0
508.0,502.0,507.0,513.0,526.0
508.0,500.0,512.0,514.0,523.0
510.0,503.0,515.0,522.0,518.0
514.0,502.0,518.0,525.0,511.0
511.0,500.0,517.0,520.0,510.0
513.0,501.0,517.0,518.0,509.0
517.0,507.0,522.0,519.0,514.0
519.0,510.0,523.0,518.0,516.0
525.0,515.0,522.0,517.0,512.0
526.0,519.0,525.0,516.0,508.0
527.0,521.0,527.0,517.0,505.0
520.0,519.0,518.0,514.0,506.0
510.0,515.0,512.0,508.0,513.0
505.0,511.0,506.0,503.0,510.0
500.0,505.0,502.0,504.0,515.0
502.0,500.0,500.0,502.0,516.0
502.0,499.0,505.0,506.0,515.0
508.0,497.0,507.0,515.0,517.0
510.0,500.0,511.0,518.0,517.0
513.0,499.0,514.0,518.0,516.0
513.0,502.0,520.0,519.0,516.0
515.0,502.0,516.0,519.0,512.0
513.0,506.0,520.0,522.0,513.0
519.0,507.0,521.0,517.0,515.0
520.0,508.0,522.0,517.0,513.0
524.0,516.0,525.0,518.0,508.0
524.0,521.0,525.0,520.0,506.0
522.0,520.0,520.0,514.0,502.0
516.0,517.0,514.0,509.0,508.0
509.0,513.0,512.0,506.0,512.0
507.0,509.0,505.0,505.0,514.0
502.0,501.0,500.0,504.0,514.0
500.0,499.0,501.0,504.0,513.0
500.0,497.0,503.0,505.0,519.0
505.0,500.0,511.0,517.0,519.0
507.0,501.0,515.0,519.0,519.0
510.0,501.0,517.0,519.0,522.0
505.0,499.0,518.0,523.0,521.0
516.0,499.0,516.0,516.0,518.0
520.0,506.0,518.0,516.0,515.0
521.0,511.0,523.0,520.0,508.0
521.0,514.0,523.0,520.0,509.0
521.0,516.0,527.0,520.0,506.0
522.0,519.0,524.0,517.0,502.0
524.0,519.0,520.0,516.0,495.0
521.0,517.0,514.0,513.0,501.0
510.0,512.0,505.0,505.0,512.0
501.0,503.0,502.0,499.0,522.0
498.0,499.0,498.0,498.0,524.0
502.0,503.0,504.0,507.0,526.0
504.0,499.0,507.0,510.0,526.0
511.0,500.0,513.0,517.0,526.0
512.0,498.0,514.0,521.0,523.0
513.0,497.0,517.0,521.0,520.0
510.0,504.0,517.0,520.0,521.0
509.0,502.0,518.0,517.0,518.0
514.0,507.0,521.0,518.0,514.0
514.0,510.0,523.0,518.0,507.0
519.0,516.0,523.0,518.0,504.0
522.0,519.0,525.0,520.0,501.0
523.0,524.0,525.0,517.0,501.0
520.0,519.0,519.0,513.0,504.0
517.0,516.0,512.0,508.0,507.0
508.0,513.0,507.0,508.0,508.0
502.0,504.0,499.0,502.0,511.0
499.0,500.0,500.0,502.0,517.0
502.0,498.0,503.0,509.0,517.0
510.0,500.0,512.0,514.0,518.0
512.0,505.0,515.0,520.0,520.0
515.0,501.0,518.0,522.0,520.0
517.0,502.0,522.0,521.0,515.0
508.0,500.0,517.0,517.0,522.0
514.0,502.0,518.0,519.0,517.0
515.0,506.0,520.0,518.0,516.0
514.0,511.0,520.0,517.0,510.0
522.0,520.0,527.0,524.0,503.0
527.0,522.0,525.0,523.0,501.0
523.0,522.0,522.0,513.0,503.0
517.0,521.0,516.0,511.0,510.0
511.0,512.0,507.0,508.0,509.0
506.0,509.0,508.0,505.0,514.0
500.0,504.0,501.0,503.0,517.0
500.0,503.0,502.0,506.0,520.0
507.0,500.0,505.0,507.0,522.0
511.0,502.0,512.0,519.0,516.0
511.0,500.0,516.0,523.0,517.0
509.0,500.0,518.0,523.0,518.0
511.0,501.0,519.0,518.0,518.0
509.0,501.0,516.0,516.0,513.0
516.0,507.0,521.0,518.0,516.0
518.0,510.0,526.0,518.0,518.0
515.0,513.0,523.0,523.0,513.0
523.0,514.0,526.0,519.0,509.0
525.0,520.0,525.0,519.0,506.0
524.0,522.0,521.0,517.0,505.0
517.0,519.0,515.0,509.0,510.0
509.0,506.0,507.0,504.0,513.0
504.0,504.0,500.0,499.0,518.0
504.0,502.0,500.0,501.0,516.0
508.0,502.0,502.0,509.0,517.0
510.0,501.0,506.0,511.0,513.0
510.0,499.0,512.0,522.0,515.0
511.0,499.0,515.0,521.0,515.0
520.0,500.0,521.0,523.0,515.0
512.0,502.0,520.0,521.0,516.0
512.0,501.0,518.0,518.0,512.0
518.0,505.0,521.0,515.0,519.0
519.0,508.0,520.0,513.0,512.0
520.0,512.0,522.0,517.0,509.0
520.0,515.0,522.0,517.0,504.0
531.0,521.0,525.0,520.0,500.0
523.0,520.0,519.0,515.0,501.0
513.0,517.0,509.0,506.0,511.0
505.0,511.0,509.0,503.0,517.0
500.0,502.0,499.0,500.0,518.0
497.0,498.0,500.0,501.0,523.0
501.0,497.0,504.0,508.0,526.0
506.0,500.0,510.0,513.0,523.0
511.0,501.0,515.0,521.0,521.0
514.0,504.0,518.0,524.0,519.0
511.0,505.0,520.0,523.0,517.0
509.0,503.0,517.0,517.0,520.0
514.0,504.0,519.0,516.0,521.0
519.0,507.0,525.0,518.0,515.0
515.0,510.0,523.0,521.0,509.0
523.0,515.0,525.0,521.0,503.0
526.0,522.0,527.0,519.0,499.0
524.0,519.0,521.0,517.0,498.0
518.0,515.0,516.0,513.0,504.0
514.0,511.0,512.0,511.0,509.0
506.0,509.0,503.0,503.0,512.0
502.0,502.0,501.0,501.0,520.0
502.0,498.0,501.0,504.0,519.0
516.0,498.0,506.0,511.0,518.0
513.0,499.0,513.0,521.0,515.0
509.0,497.0,514.0,522.0,519.0
510.0,501.0,517.0,520.0,521.0
512.0,500.0,517.0,518.0,518.0
512.0,501.0,513.0,518.0,518.0
516.0,506.0,522.0,519.0,515.0
514.0,510.0,523.0,524.0,511.0
521.0,514.0,522.0,519.0,510.0
525.0,519.0,524.0,520.0,508.0
525.0,521.0,524.0,519.0,503.0
521.0,520.0,518.0,517.0,503.0
517.0,519.0,511.0,509.0,508.0
510.0,513.0,508.0,511.0,511.0
504.0,505.0,502.0,502.0,517.0
504.0,501.0,500.0,504.0,519.0
502.0,499.0,503.0,507.0,521.0
506.0,500.0,508.0,514.0,519.0
509.0,499.0,513.0,519.0,517.0
518.0,503.0,517.0,521.0,513.0
521.0,502.0,520.0,523.0,517.0
516.0,501.0,518.0,521.0,516.0
521.0,502.0,515.0,520.0,516.0
519.0,513.0,523.0,523.0,516.0
521.0,512.0,523.0,519.0,511.0
521.0,516.0,524.0,521.0,508.0
526.0,521.0,527.0,524.0,506.0
524.0,520.0,523.0,516.0,503.0
522.0,520.0,519.0,515.0,502.0
521.0,516.0,514.0,508.0,509.0
510.0,510.0,506.0,507.0,514.0
503.0,505.0,501.0,502.0,516.0
500.0,499.0,498.0,500.0,521.0
502.0,496.0,500.0,505.0,520.0
503.0,497.0,509.0,513.0,522.0
508.0,499.0,513.0,518.0,521.0
509.0,502.0,519.0,520.0,519.0
509.0,499.0,520.0,522.0,518.0
510.0,496.0,516.0,518.0,518.0
515.0,507.0,519.0,518.0,516.0
515.0,508.0,523.0,517.0,516.0
517.0,511.0,520.0,515.0,513.0
523.0,516.0,527.0,518.0,507.0
525.0,521.0,524.0,520.0,505.0
525.0,518.0,522.0,516.0,504.0
523.0,515.0,515.0,511.0,507.0
516.0,515.0,510.0,509.0,514.0
509.0,508.0,504.0,503.0,514.0
503.0,509.0,503.0,503.0,517.0
503.0,499.0,501.0,506.0,516.0
505.0,500.0,505.0,514.0,519.0
508.0,500.0,512.0,518.0,522.0
511.0,500.0,520.0,523.0,517.0
514.0,501.0,519.0,523.0,514.0
512.0,503.0,517.0,521.0,515.0
514.0,500.0,518.0,518.0,513.0
519.0,502.0,516.0,519.0,511.0
520.0,508.0,523.0,517.0,512.0
520.0,511.0,519.0,515.0,508.0
525.0,521.0,524.0,517.0,509.0
527.0,520.0,524.0,516.0,504.0
521.0,520.0,519.0,513.0,504.0
516.0,517.0,513.0,512.0,507.0
514.0,509.0,508.0,507.0,516.0
505.0,508.0,503.0,502.0,517.0
504.0,501.0,501.0,500.0,521.0
507.0,498.0,508.0,506.0,518.0
508.0,499.0,508.0,512.0,517.0
512.0,499.0,514.0,514.0,515.0
513.0,500.0,516.0,520.0,520.0
512.0,499.0,516.0,513.0,520.0
511.0,500.0,515.0,515.0,521.0
514.0,499.0,515.0,516.0,520.0
514.0,505.0,521.0,520.0,518.0
516.0,510.0,522.0,519.0,518.0
520.0,513.0,525.0,517.0,509.0
528.0,519.0,528.0,523.0,503.0
530.0,519.0,522.0,514.0,500.0
530.0,519.0,519.0,512.0,505.0
514.0,515.0,512.0,508.0,511.0
509.0,510.0,507.0,508.0,509.0
501.0,504.0,505.0,504.0,518.0
497.0,493.0,499.0,501.0,524.0
501.0,499.0,507.0,507.0,522.0
506.0,499.0,509.0,512.0,523.0
513.0,500.0,512.0,516.0,519.0
512.0,502.0,518.0,523.0,520.0
512.0,501.0,517.0,522.0,520.0
512.0,503.0,517.0,519.0,521.0
512.0,503.0,516.0,522.0,517.0
520.0,510.0,519.0,517.0,513.0
525.0,515.0,521.0,515.0,512.0
524.0,518.0,524.0,516.0,507.0
530.0,522.0,525.0,519.0,505.0
526.0,523.0,524.0,515.0,506.0
523.0,517.0,515.0,512.0,511.0
516.0,512.0,509.0,508.0,512.0
510.0,510.0,503.0,500.0,515.0
507.0,502.0,500.0,496.0,520.0
503.0,498.0,500.0,504.0,522.0
506.0,500.0,506.0,511.0,517.0
508.0,498.0,508.0,514.0,519.0
511.0,497.0,510.0,516.0,519.0
509.0,501.0,515.0,518.0,517.0
511.0,499.0,516.0,520.0,518.0
513.0,501.0,517.0,521.0,517.0
515.0,503.0,518.0,518.0,515.0
515.0,506.0,518.0,517.0,514.0
521.0,511.0,521.0,515.0,508.0
525.0,519.0,526.0,519.0,507.0
526.0,520.0,526.0,517.0,506.0
527.0,524.0,525.0,515.0,509.0
520.0,516.0,514.0,510.0,508.0
507.0,504.0,503.0,503.0,512.0
510.0,502.0,500.0,501.0,517.0
505.0,503.0,500.0,504.0,518.0
505.0,505.0,505.0,509.0,516.0
504.0,501.0,509.0,516.0,519.0
505.0,497.0,510.0,518.0,521.0
510.0,496.0,513.0,517.0,524.0
515.0,500.0,518.0,524.0,519.0
518.0,502.0,519.0,518.0,516.0
512.0,503.0,520.0,518.0,524.0
515.0,510.0,525.0,518.0,516.0
521.0,512.0,522.0,519.0,509.0
522.0,521.0,527.0,519.0,508.0
525.0,522.0,528.0,519.0,505.0
525.0,522.0,526.0,517.0,509.0
520.0,518.0,512.0,512.0,508.0
513.0,517.0,510.0,509.0,514.0
509.0,508.0,502.0,507.0,514.0
503.0,500.0,498.0,501.0,517.0
501.0,497.0,498.0,504.0,524.0
504.0,497.0,507.0,510.0,521.0
508.0,502.0,511.0,517.0,520.0
511.0,498.0,511.0,520.0,521.0
515.0,490.0,516.0,521.0,517.0
511.0,483.0,515.0,519.0,517.0
512.0,484.0,513.0,518.0,516.0
521.0,489.0,521.0,520.0,511.0
522.0,496.0,521.0,522.0,515.0
520.0,494.0,521.0,520.0,508.0
527.0,499.0,530.0,520.0,508.0
529.0,504.0,529.0,522.0,500.0
524.0,532.0,530.0,519.0,501.0
516.0,529.0,524.0,517.0,509.0
514.0,521.0,514.0,504.0,510.0
510.0,510.0,507.0,501.0,513.0
508.0,498.0,493.0,503.0,515.0
503.0,498.0,495.0,503.0,520.0
505.0,502.0,502.0,508.0,520.0
512.0,502.0,513.0,516.0,518.0
509.0,499.0,515.0,522.0,516.0
516.0,505.0,515.0,521.0,513.0
513.0,501.0,511.0,518.0,522.0
513.0,499.0,503.0,517.0,515.0
517.0,505.0,504.0,517.0,516.0
518.0,516.0,513.0,519.0,512.0
525.0,523.0,514.0,518.0,507.0
531.0,525.0,519.0,523.0,500.0
527.0,531.0,523.0,520.0,500.0
517.0,520.0,514.0,513.0,506.0
517.0,515.0,509.0,503.0,513.0
511.0,508.0,507.0,501.0,514.0
506.0,502.0,506.0,502.0,521.0
503.0,493.0,506.0,503.0,522.0
503.0,486.0,506.0,513.0,518.0
511.0,478.0,511.0,514.0,514.0
514.0,477.0,516.0,520.0,521.0
515.0,477.0,525.0,531.0,511.0
520.0,466.0,525.0,534.0,507.0
517.0,458.0,517.0,533.0,501.0
508.0,459.0,512.0,520.0,508.0
512.0,468.0,511.0,513.0,517.0
505.0,485.0,514.0,514.0,521.0
519.0,509.0,523.0,517.0,514.0
524.0,529.0,534.0,519.0,513.0
522.0,527.0,527.0,516.0,511.0
514.0,488.0,515.0,508.0,520.0
507.0,474.0,506.0,506.0,519.0
500.0,457.0,500.0,507.0,524.0
496.0,453.0,492.0,501.0,529.0
497.0,459.0,491.0,498.0,529.0
500.0,484.0,500.0,504.0,531.0
510.0,529.0,522.0,511.0,522.0
514.0,568.0,530.0,513.0,518.0
518.0,558.0,537.0,526.0,516.0
521.0,556.0,528.0,525.0,516.0
517.0,533.0,517.0,519.0,517.0
521.0,532.0,521.0,522.0,513.0
526.0,532.0,529.0,520.0,509.0
525.0,535.0,528.0,523.0,507.0
522.0,542.0,529.0,521.0,507.0
528.0,546.0,531.0,521.0,500.0
526.0,542.0,525.0,515.0,500.0
520.0,535.0,519.0,511.0,503.0
513.0,527.0,510.0,508.0,511.0
505.0,518.0,498.0,501.0,514.0
504.0,515.0,502.0,502.0,516.0
505.0,512.0,501.0,506.0,521.0
509.0,515.0,510.0,513.0,520.0
513.0,509.0,516.0,524.0,513.0
515.0,507.0,519.0,528.0,510.0
513.0,506.0,521.0,525.0,516.0
510.0,503.0,516.0,519.0,520.0
517.0,503.0,515.0,519.0,515.0
523.0,511.0,521.0,523.0,516.0
519.0,520.0,527.0,519.0,514.0
521.0,518.0,527.0,518.0,510.0
522.0,517.0,525.0,519.0,504.0
527.0,516.0,527.0,519.0,505.0
521.0,510.0,521.0,519.0,507.0
511.0,508.0,518.0,513.0,508.0
509.0,509.0,515.0,508.0,513.0
505.0,513.0,512.0,504.0,521.0
505.0,521.0,508.0,506.0,517.0
509.0,513.0,498.0,512.0,511.0
513.0,507.0,504.0,515.0,516.0
507.0,500.0,508.0,513.0,522.0
512.0,505.0,520.0,516.0,525.0
517.0,506.0,520.0,521.0,521.0
512.0,502.0,520.0,520.0,520.0
513.0,507.0,524.0,530.0,516.0
513.0,509.0,523.0,521.0,514.0
519.0,511.0,521.0,523.0,507.0
525.0,516.0,522.0,516.0,508.0
526.0,520.0,526.0,521.0,503.0
526.0,523.0,526.0,521.0,502.0
530.0,517.0,520.0,516.0,505.0
514.0,508.0,511.0,508.0,518.0
504.0,487.0,504.0,501.0,521.0
505.0,460.0,490.0,501.0,519.0
499.0,444.0,495.0,505.0,522.0
498.0,416.0,497.0,510.0,523.0
501.0,412.0,507.0,513.0,523.0
505.0,402.0,505.0,518.0,516.0
518.0,423.0,520.0,536.0,512.0
516.0,439.0,511.0,528.0,514.0
504.0,453.0,505.0,515.0,520.0
516.0,474.0,508.0,516.0,512.0
512.0,545.0,518.0,515.0,513.0
514.0,596.0,527.0,514.0,513.0
528.0,573.0,530.0,521.0,508.0
535.0,554.0,530.0,532.0,490.0
531.0,550.0,518.0,527.0,501.0
517.0,542.0,513.0,514.0,507.0
511.0,513.0,492.0,501.0,517.0
508.0,493.0,488.0,495.0,516.0
503.0,483.0,491.0,500.0,516.0
500.0,476.0,490.0,496.0,523.0
496.0,470.0,488.0,491.0,522.0
502.0,491.0,501.0,504.0,518.0
515.0,519.0,523.0,505.0,519.0
513.0,544.0,537.0,517.0,520.0
514.0,518.0,529.0,513.0,523.0
517.0,497.0,528.0,520.0,515.0
520.0,468.0,534.0,537.0,513.0
519.0,449.0,540.0,536.0,508.0
524.0,387.0,541.0,541.0,501.0
518.0,364.0,553.0,545.0,499.0
513.0,384.0,547.0,543.0,498.0
509.0,418.0,468.0,506.0,511.0
497.0,450.0,459.0,482.0,524.0
500.0,469.0,478.0,479.0,520.0
502.0,533.0,467.0,486.0,524.0
507.0,584.0,483.0,495.0,513.0
512.0,582.0,502.0,523.0,508.0
513.0,566.0,503.0,529.0,519.0
523.0,561.0,502.0,535.0,518.0
530.0,539.0,516.0,537.0,507.0
525.0,552.0,519.0,539.0,493.0
511.0,572.0,528.0,527.0,507.0
513.0,553.0,525.0,523.0,510.0
514.0,545.0,524.0,523.0,512.0
516.0,555.0,528.0,525.0,513.0
518.0,548.0,523.0,513.0,515.0
521.0,547.0,530.0,513.0,511.0
521.0,551.0,534.0,514.0,510.0
520.0,553.0,535.0,517.0,505.0
519.0,566.0,537.0,523.0,505.0
509.0,549.0,531.0,516.0,509.0
502.0,542.0,523.0,508.0,515.0
500.0,520.0,519.0,507.0,518.0
506.0,495.0,522.0,518.0,515.0
514.0,484.0,523.0,517.0,507.0
516.0,479.0,524.0,506.0,513.0
521.0,476.0,524.0,499.0,516.0
510.0,479.0,527.0,501.0,518.0
499.0,485.0,517.0,487.0,525.0
508.0,519.0,533.0,492.0,520.0
522.0,571.0,543.0,504.0,513.0
524.0,556.0,541.0,514.0,510.0
529.0,518.0,532.0,511.0,507.0
532.0,509.0,532.0,508.0,498.0
520.0,465.0,509.0,524.0,497.0
501.0,420.0,497.0,536.0,498.0
497.0,426.0,506.0,519.0,511.0
501.0,497.0,514.0,501.0,517.0
506.0,515.0,508.0,515.0,518.0
496.0,496.0,512.0,532.0,523.0
507.0,491.0,467.0,518.0,517.0
519.0,508.0,499.0,517.0,519.0
521.0,506.0,509.0,520.0,512.0
510.0,472.0,507.0,522.0,514.0
503.0,478.0,519.0,532.0,520.0
511.0,523.0,527.0,528.0,517.0
522.0,557.0,542.0,527.0,508.0
525.0,548.0,544.0,528.0,495.0
525.0,559.0,548.0,526.0,489.0
518.0,569.0,536.0,518.0,503.0
518.0,550.0,531.0,525.0,512.0
523.0,534.0,527.0,520.0,506.0
518.0,509.0,505.0,518.0,505.0
508.0,493.0,503.0,511.0,508.0
500.0,483.0,493.0,506.0,515.0
497.0,467.0,472.0,497.0,519.0
501.0,467.0,467.0,498.0,516.0
502.0,502.0,479.0,507.0,522.0
510.0,479.0,488.0,509.0,521.0
512.0,486.0,495.0,508.0,522.0
508.0,510.0,520.0,500.0,525.0
503.0,457.0,504.0,484.0,526.0
513.0,432.0,516.0,510.0,518.0
521.0,423.0,468.0,497.0,504.0
519.0,395.0,460.0,513.0,507.0
520.0,366.0,499.0,559.0,499.0
506.0,340.0,525.0,565.0,498.0
489.0,421.0,563.0,560.0,512.0
503.0,530.0,562.0,544.0,508.0
504.0,527.0,546.0,495.0,520.0
514.0,524.0,534.0,502.0,510.0
512.0,485.0,495.0,480.0,511.0
496.0,447.0,487.0,479.0,527.0
499.0,460.0,467.0,508.0,516.0
518.0,520.0,496.0,519.0,511.0
519.0,490.0,531.0,498.0,514.0
525.0,458.0,544.0,494.0,511.0
510.0,332.0,571.0,495.0,518.0
482.0,231.0,530.0,467.0,530.0
482.0,234.0,498.0,489.0,533.0
506.0,353.0,527.0,524.0,507.0
520.0,399.0,489.0,546.0,494.0
514.0,406.0,477.0,541.0,507.0
522.0,477.0,515.0,540.0,499.0
536.0,548.0,564.0,548.0,479.0
527.0,676.0,532.0,515.0,487.0
511.0,629.0,534.0,493.0,511.0
510.0,586.0,520.0,501.0,514.0
517.0,582.0,509.0,493.0,507.0
525.0,570.0,474.0,496.0,496.0
524.0,533.0,478.0,516.0,494.0
522.0,499.0,518.0,526.0,516.0
513.0,441.0,503.0,503.0,524.0
525.0,441.0,533.0,529.0,517.0
522.0,448.0,543.0,521.0,527.0
511.0,410.0,560.0,548.0,511.0
501.0,379.0,556.0,574.0,510.0
485.0,326.0,479.0,495.0,527.0
504.0,410.0,455.0,449.0,534.0
488.0,447.0,497.0,442.0,538.0
522.0,601.0,672.0,572.0,490.0
533.0,719.0,710.0,576.0,487.0
522.0,674.0,617.0,514.0,506.0
505.0,589.0,533.0,524.0,521.0
500.0,561.0,488.0,484.0,521.0
526.0,612.0,536.0,479.0,492.0
571.0,711.0,508.0,542.0,446.0
540.0,707.0,570.0,537.0,483.0
514.0,664.0,587.0,532.0,512.0
510.0,611.0,593.0,539.0,510.0
507.0,574.0,547.0,538.0,513.0
512.0,591.0,603.0,551.0,521.0
516.0,584.0,553.0,518.0,518.0
520.0,543.0,508.0,510.0,508.0
516.0,491.0,511.0,509.0,513.0
525.0,392.0,447.0,509.0,507.0
531.0,290.0,425.0,533.0,490.0
528.0,324.0,487.0,525.0,503.0
498.0,246.0,511.0,454.0,519.0
497.0,369.0,609.0,472.0,509.0
499.0,334.0,591.0,425.0,522.0
495.0,270.0,598.0,426.0,530.0
493.0,477.0,615.0,477.0,536.0
491.0,644.0,620.0,557.0,524.0
509.0,755.0,651.0,582.0,527.0
534.0,775.0,609.0,562.0,509.0
531.0,702.0,574.0,536.0,500.0
518.0,638.0,495.0,581.0,499.0
512.0,594.0,410.0,598.0,506.0
522.0,602.0,407.0,541.0,501.0
532.0,617.0,505.0,540.0,490.0
540.0,607.0,581.0,580.0,476.0
533.0,527.0,566.0,585.0,487.0
538.0,504.0,449.0,516.0,500.0
527.0,488.0,449.0,460.0,499.0
503.0,468.0,460.0,456.0,516.0
515.0,491.0,466.0,463.0,496.0
535.0,447.0,580.0,512.0,488.0
486.0,435.0,607.0,486.0,527.0
482.0,453.0,600.0,407.0,542.0
482.0,454.0,556.0,409.0,553.0
489.0,497.0,640.0,516.0,541.0
519.0,483.0,612.0,579.0,531.0
510.0,366.0,402.0,561.0,534.0
482.0,274.0,464.0,525.0,541.0
499.0,508.0,562.0,512.0,530.0
492.0,538.0,493.0,596.0,524.0
522.0,587.0,504.0,574.0,520.0
528.0,563.0,611.0,602.0,504.0
523.0,521.0,604.0,592.0,499.0
516.0,549.0,516.0,462.0,510.0
516.0,596.0,369.0,409.0,527.0
516.0,466.0,320.0,441.0,518.0
509.0,433.0,379.0,479.0,517.0
485.0,384.0,478.0,469.0,532.0
490.0,470.0,443.0,480.0,526.0
529.0,704.0,467.0,495.0,509.0
528.0,711.0,591.0,539.0,505.0
517.0,650.0,587.0,565.0,494.0
514.0,585.0,531.0,542.0,514.0
515.0,521.0,497.0,553.0,512.0
513.0,488.0,475.0,548.0,505.0
519.0,420.0,541.0,529.0,508.0
528.0,382.0,555.0,545.0,499.0
507.0,381.0,520.0,518.0,518.0
519.0,598.0,458.0,519.0,527.0
528.0,652.0,525.0,517.0,518.0
524.0,635.0,582.0,509.0,511.0
522.0,573.0,598.0,535.0,503.0
519.0,480.0,557.0,576.0,510.0
494.0,418.0,624.0,534.0,529.0
481.0,479.0,597.0,513.0,534.0
503.0,555.0,533.0,547.0,520.0
511.0,521.0,351.0,504.0,529.0
505.0,405.0,440.0,457.0,527.0
516.0,456.0,565.0,497.0,529.0
519.0,536.0,614.0,518.0,511.0
502.0,588.0,550.0,429.0,528.0
527.0,594.0,578.0,520.0,493.0
536.0,520.0,585.0,485.0,499.0
509.0,460.0,523.0,521.0,498.0
517.0,496.0,497.0,513.0,511.0
517.0,479.0,539.0,535.0,521.0
530.0,407.0,517.0,558.0,500.0
537.0,460.0,389.0,530.0,499.0
510.0,286.0,261.0,460.0,523.0
496.0,420.0,446.0,483.0,490.0
514.0,703.0,583.0,514.0,455.0
506.0,696.0,536.0,543.0,472.0
510.0,609.0,585.0,538.0,485.0
532.0,582.0,646.0,549.0,488.0
515.0,547.0,664.0,576.0,512.0
514.0,552.0,498.0,603.0,505.0
506.0,586.0,441.0,558.0,536.0
506.0,568.0,441.0,498.0,554.0
494.0,511.0,518.0,492.0,567.0
512.0,556.0,497.0,462.0,536.0
518.0,504.0,481.0,494.0,516.0
531.0,421.0,491.0,527.0,504.0
523.0,360.0,482.0,508.0,499.0
506.0,406.0,431.0,458.0,524.0
537.0,638.0,425.0,432.0,511.0
528.0,681.0,476.0,516.0,498.0
533.0,655.0,516.0,533.0,496.0
512.0,603.0,510.0,528.0,508.0
502.0,572.0,498.0,510.0,526.0
486.0,532.0,460.0,510.0,549.0
492.0,488.0,480.0,478.0,564.0
500.0,419.0,571.0,469.0,547.0
500.0,370.0,663.0,467.0,552.0
495.0,358.0,729.0,470.0,552.0
483.0,345.0,581.0,519.0,549.0
492.0,466.0,473.0,577.0,536.0
507.0,483.0,482.0,542.0,529.0
508.0,529.0,399.0,525.0,544.0
525.0,509.0,450.0,556.0,517.0
543.0,526.0,574.0,593.0,476.0
526.0,572.0,534.0,574.0,492.0
519.0,602.0,524.0,517.0,484.0
529.0,686.0,477.0,514.0,488.0
511.0,599.0,535.0,529.0,511.0
495.0,570.0,563.0,493.0,531.0
502.0,575.0,442.0,494.0,532.0
498.0,522.0,441.0,492.0,556.0
516.0,504.0,510.0,462.0,542.0
517.0,470.0,573.0,514.0,522.0
523.0,526.0,616.0,549.0,517.0
509.0,533.0,587.0,571.0,533.0
505.0,519.0,370.0,545.0,546.0
520.0,500.0,433.0,526.0,536.0
510.0,438.0,465.0,477.0,530.0
497.0,434.0,487.0,529.0,527.0
510.0,515.0,522.0,545.0,507.0
534.0,568.0,533.0,514.0,485.0
525.0,520.0,481.0,481.0,496.0
515.0,517.0,499.0,509.0,506.0
509.0,504.0,484.0,519.0,506.0
517.0,497.0,504.0,505.0,500.0
513.0,432.0,539.0,514.0,498.0
487.0,280.0,522.0,509.0,532.0
471.0,258.0,487.0,484.0,550.0
496.0,474.0,574.0,462.0,537.0
520.0,582.0,676.0,537.0,517.0
532.0,638.0,686.0,557.0,509.0
517.0,650.0,658.0,543.0,523.0
516.0,601.0,500.0,509.0,527.0
533.0,605.0,462.0,508.0,506.0
538.0,585.0,507.0,540.0,505.0
542.0,568.0,575.0,564.0,504.0
537.0,550.0,606.0,548.0,494.0
534.0,532.0,461.0,492.0,504.0
529.0,510.0,408.0,491.0,490.0
523.0,452.0,523.0,531.0,491.0
506.0,491.0,654.0,511.0,470.0
496.0,462.0,496.0,474.0,460.0
492.0,455.0,369.0,490.0,483.0
494.0,491.0,369.0,555.0,485.0
516.0,581.0,494.0,576.0,486.0
533.0,538.0,510.0,516.0,514.0
519.0,446.0,501.0,554.0,537.0
488.0,307.0,427.0,487.0,580.0
479.0,270.0,398.0,472.0,560.0
497.0,410.0,474.0,514.0,550.0
506.0,530.0,558.0,533.0,544.0
521.0,619.0,674.0,537.0,543.0
534.0,620.0,663.0,548.0,509.0
536.0,514.0,600.0,556.0,497.0
522.0,456.0,539.0,542.0,511.0
516.0,577.0,471.0,405.0,500.0
519.0,659.0,470.0,392.0,487.0
520.0,643.0,514.0,450.0,523.0
496.0,538.0,537.0,540.0,547.0
490.0,523.0,550.0,555.0,525.0
507.0,554.0,522.0,522.0,504.0
524.0,589.0,597.0,528.0,504.0
525.0,551.0,539.0,547.0,522.0
517.0,563.0,549.0,538.0,529.0
513.0,498.0,553.0,528.0,530.0
515.0,445.0,538.0,538.0,516.0
515.0,430.0,455.0,553.0,521.0
510.0,414.0,453.0,553.0,525.0
525.0,406.0,551.0,562.0,515.0
520.0,384.0,643.0,528.0,496.0
525.0,473.0,621.0,503.0,496.0
501.0,462.0,427.0,460.0,534.0
495.0,611.0,380.0,422.0,531.0
510.0,694.0,490.0,511.0,510.0
507.0,626.0,397.0,510.0,503.0
505.0,538.0,391.0,471.0,497.0
512.0,544.0,486.0,549.0,487.0
510.0,534.0,513.0,562.0,496.0
505.0,478.0,530.0,570.0,502.0
505.0,542.0,479.0,517.0,512.0
526.0,531.0,467.0,492.0,514.0
516.0,521.0,506.0,514.0,535.0
507.0,520.0,517.0,492.0,546.0
527.0,552.0,602.0,539.0,515.0
550.0,544.0,626.0,547.0,495.0
539.0,545.0,557.0,533.0,503.0
512.0,551.0,460.0,507.0,514.0
525.0,538.0,504.0,516.0,497.0
505.0,530.0,530.0,504.0,520.0
497.0,491.0,468.0,482.0,524.0
504.0,475.0,441.0,476.0,528.0
498.0,447.0,488.0,493.0,538.0
505.0,519.0,541.0,541.0,531.0
502.0,541.0,504.0,512.0,552.0
504.0,510.0,552.0,492.0,542.0
503.0,466.0,530.0,489.0,524.0
497.0,415.0,449.0,539.0,522.0
501.0,414.0,475.0,541.0,499.0
514.0,517.0,563.0,536.0,503.0
518.0,520.0,563.0,521.0,512.0
531.0,527.0,465.0,526.0,501.0
537.0,502.0,505.0,573.0,486.0
511.0,419.0,502.0,556.0,493.0
512.0,509.0,520.0,424.0,514.0
536.0,595.0,542.0,439.0,497.0
541.0,524.0,608.0,487.0,477.0
525.0,412.0,576.0,548.0,493.0
495.0,364.0,516.0,514.0,520.0
463.0,397.0,403.0,502.0,529.0
496.0,515.0,435.0,503.0,529.0
520.0,562.0,498.0,533.0,517.0
516.0,522.0,498.0,530.0,514.0
515.0,484.0,492.0,536.0,513.0
523.0,536.0,506.0,553.0,509.0
523.0,533.0,521.0,559.0,513.0
527.0,579.0,559.0,556.0,509.0
542.0,574.0,548.0,530.0,498.0
526.0,552.0,638.0,498.0,514.0
513.0,527.0,781.0,526.0,509.0
497.0,453.0,723.0,510.0,526.0
515.0,472.0,569.0,536.0,505.0
520.0,451.0,409.0,542.0,505.0
509.0,514.0,345.0,505.0,494.0
506.0,613.0,474.0,522.0,483.0
501.0,589.0,462.0,491.0,503.0
503.0,580.0,419.0,492.0,511.0
510.0,551.0,505.0,532.0,502.0
521.0,485.0,523.0,549.0,497.0
501.0,424.0,420.0,506.0,520.0
508.0,416.0,513.0,488.0,527.0
518.0,539.0,566.0,495.0,521.0
507.0,502.0,511.0,485.0,543.0
510.0,516.0,513.0,529.0,516.0
525.0,576.0,518.0,540.0,508.0
527.0,547.0,467.0,460.0,511.0
523.0,524.0,491.0,465.0,504.0
526.0,506.0,565.0,493.0,500.0
522.0,527.0,537.0,477.0,509.0
514.0,537.0,518.0,532.0,505.0
514.0,530.0,558.0,535.0,505.0
506.0,538.0,502.0,520.0,510.0
499.0,480.0,441.0,514.0,510.0
501.0,513.0,563.0,536.0,514.0
502.0,491.0,594.0,554.0,521.0
513.0,400.0,516.0,542.0,523.0
515.0,448.0,433.0,522.0,508.0
514.0,499.0,429.0,484.0,505.0
497.0,503.0,567.0,533.0,527.0
500.0,549.0,640.0,545.0,536.0
511.0,545.0,621.0,506.0,535.0
515.0,524.0,450.0,477.0,538.0
509.0,492.0,472.0,513.0,533.0
531.0,472.0,499.0,529.0,495.0
526.0,430.0,462.0,493.0,505.0
525.0,485.0,550.0,519.0,506.0
542.0,535.0,679.0,526.0,484.0
528.0,593.0,626.0,481.0,493.0
515.0,534.0,465.0,511.0,476.0
505.0,540.0,434.0,525.0,489.0
503.0,477.0,401.0,564.0,493.0
513.0,463.0,502.0,567.0,494.0
512.0,476.0,682.0,579.0,514.0
501.0,508.0,694.0,558.0,537.0
508.0,551.0,503.0,480.0,557.0
511.0,483.0,357.0,470.0,519.0
504.0,450.0,433.0,491.0,536.0
516.0,552.0,519.0,490.0,538.0
527.0,584.0,645.0,524.0,537.0
530.0,602.0,772.0,508.0,503.0
534.0,537.0,690.0,451.0,496.0
510.0,488.0,520.0,453.0,507.0
516.0,442.0,342.0,434.0,498.0
524.0,467.0,374.0,512.0,471.0
508.0,498.0,410.0,574.0,476.0
508.0,544.0,459.0,549.0,477.0
496.0,573.0,445.0,510.0,523.0
497.0,547.0,440.0,511.0,539.0
511.0,496.0,472.0,536.0,535.0
499.0,424.0,465.0,532.0,527.0
502.0,468.0,466.0,523.0,527.0
521.0,598.0,509.0,511.0,517.0
515.0,564.0,517.0,513.0,508.0
506.0,516.0,485.0,492.0,512.0
519.0,496.0,480.0,506.0,512.0
520.0,486.0,527.0,521.0,514.0
524.0,529.0,555.0,544.0,518.0
534.0,551.0,617.0,544.0,497.0
540.0,566.0,628.0,548.0,488.0
534.0,574.0,526.0,523.0,509.0
521.0,527.0,546.0,522.0,519.0
498.0,492.0,564.0,510.0,520.0
503.0,492.0,450.0,418.0,529.0
499.0,466.0,415.0,476.0,524.0
504.0,478.0,456.0,562.0,511.0
510.0,465.0,517.0,550.0,503.0
530.0,482.0,545.0,545.0,499.0
513.0,455.0,514.0,513.0,511.0
498.0,438.0,461.0,520.0,512.0
505.0,458.0,544.0,502.0,525.0
504.0,504.0,540.0,502.0,542.0
524.0,582.0,497.0,502.0,510.0
518.0,517.0,550.0,554.0,518.0
521.0,560.0,616.0,606.0,506.0
521.0,557.0,584.0,532.0,508.0
524.0,526.0,465.0,452.0,507.0
527.0,550.0,468.0,517.0,486.0
519.0,524.0,488.0,501.0,495.0
515.0,520.0,490.0,492.0,496.0
504.0,451.0,483.0,493.0,510.0
491.0,374.0,481.0,492.0,527.0
486.0,365.0,573.0,508.0,540.0
495.0,458.0,573.0,500.0,544.0
510.0,539.0,526.0,513.0,527.0
511.0,492.0,504.0,539.0,507.0
507.0,523.0,536.0,578.0,503.0
509.0,496.0,628.0,550.0,524.0
500.0,485.0,502.0,462.0,535.0
525.0,606.0,550.0,502.0,497.0
542.0,636.0,447.0,515.0,486.0
547.0,594.0,463.0,512.0,500.0
553.0,496.0,601.0,519.0,481.0
530.0,461.0,716.0,545.0,490.0
503.0,367.0,693.0,495.0,529.0
497.0,438.0,579.0,490.0,533.0
499.0,569.0,368.0,521.0,513.0
503.0,518.0,350.0,465.0,520.0
507.0,501.0,479.0,470.0,516.0
496.0,474.0,541.0,506.0,520.0
513.0,580.0,541.0,562.0,526.0
529.0,604.0,463.0,501.0,502.0
532.0,608.0,473.0,484.0,494.0
525.0,557.0,487.0,509.0,522.0
526.0,471.0,455.0,564.0,526.0
529.0,445.0,459.0,572.0,522.0
518.0,441.0,583.0,590.0,522.0
504.0,386.0,617.0,561.0,501.0
493.0,456.0,490.0,478.0,489.0
507.0,578.0,549.0,538.0,483.0
516.0,614.0,630.0,564.0,515.0
520.0,625.0,512.0,431.0,533.0
510.0,592.0,535.0,490.0,518.0
514.0,557.0,468.0,485.0,490.0
510.0,500.0,430.0,499.0,479.0
518.0,493.0,448.0,517.0,508.0
517.0,404.0,429.0,501.0,502.0
523.0,449.0,474.0,516.0,482.0
504.0,397.0,458.0,513.0,498.0
511.0,532.0,495.0,502.0,515.0
521.0,587.0,528.0,515.0,507.0
516.0,559.0,504.0,516.0,515.0
520.0,538.0,504.0,521.0,532.0
514.0,552.0,562.0,536.0,518.0
520.0,589.0,688.0,534.0,520.0
526.0,550.0,663.0,530.0,510.0
523.0,517.0,521.0,452.0,485.0
512.0,504.0,523.0,484.0,514.0
508.0,505.0,433.0,537.0,503.0
497.0,425.0,404.0,554.0,507.0
505.0,454.0,486.0,546.0,488.0
504.0,442.0,541.0,502.0,506.0
506.0,461.0,618.0,476.0,506.0
507.0,495.0,709.0,499.0,515.0
525.0,570.0,621.0,572.0,524.0
526.0,525.0,436.0,621.0,530.0
518.0,512.0,348.0,508.0,538.0
521.0,503.0,417.0,468.0,513.0
531.0,502.0,503.0,496.0,517.0
504.0,398.0,497.0,514.0,528.0
501.0,396.0,449.0,496.0,516.0
507.0,381.0,469.0,492.0,514.0
523.0,542.0,532.0,542.0,500.0
537.0,627.0,593.0,555.0,480.0
522.0,520.0,547.0,491.0,495.0
519.0,504.0,558.0,447.0,510.0
512.0,535.0,531.0,458.0,524.0
485.0,472.0,519.0,475.0,544.0
491.0,591.0,509.0,468.0,537.0
511.0,599.0,410.0,528.0,519.0
522.0,550.0,492.0,544.0,506.0
511.0,522.0,503.0,533.0,518.0
510.0,530.0,479.0,519.0,519.0
528.0,539.0,555.0,518.0,506.0
523.0,510.0,582.0,522.0,507.0
522.0,493.0,538.0,519.0,497.0
517.0,462.0,425.0,481.0,494.0
520.0,406.0,437.0,536.0,474.0
522.0,461.0,509.0,568.0,490.0
546.0,641.0,545.0,555.0,485.0
523.0,586.0,573.0,543.0,510.0
521.0,590.0,688.0,528.0,507.0
537.0,539.0,670.0,537.0,481.0
530.0,522.0,565.0,542.0,488.0
497.0,493.0,362.0,508.0,511.0
493.0,484.0,327.0,441.0,546.0
493.0,401.0,430.0,460.0,547.0
493.0,372.0,525.0,538.0,514.0
501.0,397.0,488.0,482.0,520.0
499.0,441.0,513.0,523.0,533.0
509.0,457.0,577.0,543.0,525.0
498.0,456.0,616.0,512.0,531.0
511.0,571.0,515.0,462.0,512.0
533.0,541.0,528.0,445.0,512.0
531.0,641.0,651.0,520.0,494.0
529.0,595.0,625.0,543.0,492.0
539.0,566.0,530.0,589.0,491.0
532.0,546.0,428.0,544.0,480.0
529.0,507.0,407.0,509.0,481.0
518.0,478.0,424.0,500.0,504.0
507.0,451.0,544.0,509.0,492.0
500.0,434.0,640.0,550.0,493.0
512.0,592.0,712.0,535.0,502.0
540.0,550.0,499.0,500.0,492.0
527.0,492.0,330.0,462.0,519.0
532.0,540.0,435.0,486.0,508.0
506.0,560.0,445.0,534.0,513.0
512.0,561.0,461.0,564.0,527.0
514.0,572.0,513.0,576.0,532.0
514.0,549.0,519.0,523.0,519.0
505.0,534.0,551.0,500.0,517.0
512.0,504.0,519.0,492.0,516.0
510.0,456.0,504.0,510.0,517.0
497.0,425.0,569.0,516.0,529.0
510.0,437.0,627.0,527.0,519.0
491.0,376.0,549.0,561.0,542.0
482.0,268.0,454.0,488.0,533.0
471.0,308.0,433.0,429.0,549.0
511.0,591.0,473.0,449.0,549.0
526.0,595.0,508.0,532.0,525.0
514.0,632.0,658.0,553.0,508.0
518.0,596.0,622.0,487.0,508.0
523.0,540.0,504.0,478.0,523.0
524.0,480.0,398.0,491.0,511.0
524.0,428.0,468.0,585.0,493.0
531.0,404.0,559.0,564.0,482.0
534.0,376.0,551.0,566.0,489.0
515.0,407.0,589.0,551.0,509.0
514.0,580.0,479.0,467.0,511.0
528.0,682.0,612.0,418.0,505.0
544.0,687.0,603.0,477.0,478.0
532.0,628.0,487.0,516.0,487.0
522.0,540.0,407.0,525.0,492.0
502.0,508.0,447.0,530.0,518.0
499.0,521.0,366.0,466.0,546.0
517.0,567.0,426.0,483.0,541.0
525.0,530.0,536.0,566.0,523.0
509.0,456.0,535.0,551.0,524.0
511.0,474.0,487.0,520.0,519.0
520.0,528.0,476.0,541.0,521.0
513.0,460.0,653.0,537.0,523.0
481.0,369.0,614.0,477.0,532.0
495.0,497.0,559.0,515.0,539.0
502.0,489.0,527.0,631.0,523.0
492.0,558.0,456.0,555.0,521.0
537.0,585.0,574.0,444.0,485.0
533.0,519.0,531.0,443.0,482.0
525.0,579.0,566.0,556.0,506.0
511.0,523.0,485.0,529.0,506.0
502.0,580.0,372.0,489.0,511.0
519.0,560.0,501.0,499.0,499.0
516.0,516.0,496.0,502.0,511.0
506.0,460.0,478.0,477.0,537.0
513.0,524.0,520.0,521.0,523.0
510.0,525.0,523.0,493.0,534.0
513.0,509.0,566.0,511.0,528.0
503.0,446.0,550.0,552.0,512.0
505.0,485.0,509.0,549.0,517.0
529.0,529.0,467.0,537.0,503.0
526.0,549.0,455.0,517.0,502.0
526.0,550.0,523.0,523.0,500.0
528.0,493.0,541.0,529.0,500.0
507.0,436.0,518.0,520.0,514.0
510.0,420.0,420.0,487.0,507.0
516.0,450.0,478.0,496.0,507.0
513.0,560.0,627.0,486.0,509.0
505.0,609.0,623.0,486.0,502.0
509.0,550.0,462.0,488.0,516.0
505.0,539.0,433.0,606.0,504.0
514.0,504.0,481.0,586.0,497.0
515.0,471.0,485.0,529.0,506.0
524.0,475.0,480.0,509.0,505.0
531.0,435.0,524.0,524.0,499.0
511.0,364.0,491.0,513.0,515.0
504.0,302.0,487.0,515.0,517.0
504.0,402.0,593.0,589.0,507.0
506.0,512.0,618.0,572.0,494.0
535.0,682.0,650.0,487.0,498.0
550.0,662.0,577.0,467.0,477.0
540.0,625.0,484.0,403.0,505.0
530.0,603.0,484.0,499.0,510.0
521.0,587.0,527.0,534.0,489.0
511.0,533.0,467.0,515.0,493.0
500.0,503.0,449.0,504.0,481.0
497.0,535.0,447.0,506.0,511.0
503.0,532.0,457.0,532.0,522.0
498.0,539.0,483.0,508.0,509.0
504.0,508.0,494.0,536.0,509.0
516.0,489.0,502.0,524.0,526.0
499.0,456.0,470.0,509.0,556.0
488.0,448.0,474.0,528.0,553.0
505.0,504.0,505.0,475.0,551.0
517.0,535.0,568.0,502.0,539.0
520.0,554.0,536.0,515.0,539.0
534.0,530.0,537.0,528.0,524.0
532.0,487.0,523.0,524.0,519.0
514.0,495.0,527.0,541.0,512.0
519.0,465.0,600.0,546.0,515.0
500.0,410.0,564.0,502.0,528.0
507.0,518.0,513.0,483.0,531.0
514.0,579.0,589.0,481.0,529.0
486.0,550.0,558.0,496.0,538.0
503.0,551.0,517.0,503.0,518.0
525.0,556.0,471.0,559.0,494.0
522.0,515.0,477.0,525.0,508.0
506.0,474.0,451.0,518.0,518.0
502.0,422.0,479.0,515.0,514.0
512.0,320.0,463.0,503.0,505.0
510.0,322.0,461.0,499.0,511.0
493.0,324.0,487.0,498.0,532.0
522.0,635.0,612.0,550.0,525.0
530.0,651.0,663.0,590.0,502.0
532.0,668.0,736.0,558.0,501.0
531.0,609.0,664.0,552.0,503.0
520.0,573.0,502.0,500.0,514.0
523.0,539.0,381.0,487.0,507.0
516.0,486.0,437.0,561.0,498.0
502.0,417.0,517.0,506.0,525.0
490.0,416.0,534.0,459.0,527.0
495.0,484.0,459.0,408.0,528.0
499.0,460.0,384.0,485.0,540.0
513.0,523.0,425.0,517.0,522.0
518.0,609.0,481.0,532.0,518.0
522.0,542.0,514.0,538.0,503.0
517.0,458.0,508.0,537.0,509.0
519.0,406.0,487.0,505.0,502.0
529.0,527.0,554.0,502.0,514.0
514.0,551.0,624.0,521.0,511.0
531.0,622.0,669.0,510.0,496.0
528.0,626.0,628.0,547.0,498.0
519.0,549.0,429.0,500.0,508.0
500.0,475.0,373.0,492.0,519.0
496.0,460.0,423.0,527.0,510.0
499.0,517.0,472.0,508.0,518.0
505.0,510.0,460.0,487.0,522.0
524.0,529.0,506.0,525.0,508.0
524.0,540.0,489.0,511.0,521.0
519.0,501.0,456.0,527.0,508.0
509.0,507.0,432.0,490.0,518.0
513.0,520.0,481.0,491.0,509.0
514.0,481.0,536.0,515.0,489.0
502.0,475.0,580.0,501.0,535.0
496.0,477.0,598.0,526.0,550.0
512.0,506.0,607.0,517.0,529.0
525.0,511.0,620.0,515.0,510.0
526.0,530.0,499.0,485.0,500.0
531.0,507.0,478.0,501.0,503.0
523.0,509.0,467.0,523.0,502.0
510.0,507.0,456.0,537.0,509.0
505.0,495.0,504.0,541.0,501.0
505.0,474.0,511.0,510.0,506.0
520.0,515.0,623.0,511.0,517.0
492.0,461.0,607.0,539.0,536.0
489.0,513.0,559.0,469.0,532.0
511.0,571.0,566.0,560.0,523.0
517.0,532.0,466.0,609.0,525.0
516.0,502.0,511.0,590.0,517.0
508.0,506.0,519.0,530.0,530.0
516.0,500.0,475.0,456.0,533.0
530.0,479.0,448.0,469.0,496.0
529.0,460.0,522.0,517.0,486.0
536.0,464.0,519.0,522.0,490.0
536.0,498.0,530.0,491.0,499.0
525.0,467.0,516.0,494.0,492.0
506.0,371.0,432.0,486.0,508.0
498.0,395.0,491.0,480.0,507.0
496.0,548.0,688.0,510.0,507.0
514.0,606.0,695.0,542.0,484.0
512.0,573.0,494.0,545.0,491.0
523.0,565.0,456.0,493.0,500.0
503.0,572.0,552.0,433.0,509.0
491.0,504.0,591.0,523.0,506.0
513.0,552.0,450.0,510.0,505.0
523.0,510.0,396.0,533.0,513.0
513.0,533.0,444.0,535.0,512.0
511.0,562.0,495.0,531.0,518.0
526.0,543.0,520.0,534.0,531.0
528.0,473.0,560.0,569.0,525.0
511.0,347.0,579.0,527.0,539.0
510.0,366.0,489.0,479.0,537.0
507.0,474.0,525.0,489.0,529.0
507.0,559.0,489.0,511.0,523.0
511.0,648.0,471.0,528.0,505.0
506.0,617.0,423.0,462.0,497.0
511.0,564.0,482.0,494.0,492.0
509.0,554.0,509.0,538.0,491.0
518.0,553.0,528.0,531.0,480.0
532.0,544.0,514.0,511.0,476.0
521.0,518.0,524.0,514.0,506.0
514.0,466.0,638.0,532.0,525.0
510.0,432.0,615.0,536.0,527.0
520.0,420.0,514.0,574.0,528.0
519.0,436.0,470.0,535.0,539.0
519.0,431.0,518.0,541.0,510.0
497.0,457.0,475.0,469.0,517.0
522.0,630.0,513.0,490.0,488.0
522.0,579.0,555.0,532.0,488.0
511.0,563.0,528.0,483.0,508.0
501.0,507.0,503.0,449.0,486.0
514.0,532.0,473.0,475.0,491.0
497.0,490.0,448.0,530.0,532.0
499.0,513.0,467.0,533.0,533.0
504.0,519.0,493.0,521.0,514.0
503.0,471.0,515.0,523.0,521.0
519.0,443.0,610.0,523.0,517.0
502.0,396.0,667.0,529.0,520.0
500.0,488.0,679.0,493.0,516.0
514.0,565.0,724.0,485.0,500.0
521.0,593.0,454.0,495.0,497.0
524.0,568.0,455.0,531.0,502.0
531.0,569.0,430.0,535.0,493.0
538.0,568.0,474.0,576.0,485.0
532.0,559.0,495.0,543.0,502.0
528.0,544.0,465.0,526.0,503.0
513.0,501.0,431.0,505.0,503.0
506.0,478.0,423.0,481.0,511.0
501.0,515.0,484.0,497.0,531.0
499.0,543.0,554.0,514.0,533.0
515.0,538.0,538.0,548.0,518.0
505.0,508.0,501.0,531.0,538.0
495.0,487.0,524.0,462.0,551.0
502.0,489.0,497.0,479.0,527.0
499.0,451.0,470.0,514.0,533.0
506.0,414.0,465.0,528.0,521.0
520.0,497.0,558.0,523.0,518.0
509.0,519.0,626.0,503.0,525.0
511.0,555.0,559.0,538.0,524.0
520.0,562.0,502.0,571.0,516.0
522.0,492.0,446.0,522.0,503.0
526.0,496.0,455.0,503.0,486.0
519.0,489.0,483.0,486.0,499.0
509.0,505.0,482.0,501.0,509.0
496.0,490.0,467.0,495.0,531.0
505.0,508.0,536.0,503.0,526.0
504.0,500.0,530.0,549.0,515.0
517.0,486.0,564.0,595.0,507.0
503.0,420.0,470.0,539.0,530.0
493.0,402.0,447.0,473.0,545.0
501.0,453.0,489.0,452.0,527.0
508.0,412.0,548.0,483.0,519.0
526.0,490.0,515.0,504.0,476.0
536.0,517.0,544.0,503.0,486.0
533.0,491.0,548.0,530.0,477.0
543.0,589.0,622.0,526.0,479.0
528.0,613.0,566.0,472.0,495.0
529.0,591.0,540.0,437.0,505.0
519.0,554.0,486.0,484.0,511.0
508.0,512.0,488.0,517.0,503.0
504.0,549.0,426.0,517.0,509.0
498.0,544.0,488.0,555.0,525.0
514.0,533.0,509.0,533.0,525.0
509.0,509.0,492.0,539.0,540.0
509.0,473.0,449.0,531.0,520.0
518.0,465.0,467.0,481.0,510.0
497.0,477.0,661.0,535.0,515.0
498.0,444.0,720.0,574.0,507.0
506.0,477.0,670.0,502.0,514.0
509.0,515.0,462.0,461.0,511.0
507.0,519.0,372.0,502.0,526.0
523.0,550.0,477.0,549.0,510.0
527.0,561.0,527.0,545.0,511.0
524.0,557.0,560.0,538.0,515.0
521.0,528.0,579.0,530.0,521.0
514.0,534.0,493.0,522.0,509.0
509.0,499.0,380.0,473.0,532.0
509.0,487.0,467.0,519.0,512.0
500.0,455.0,495.0,476.0,505.0
495.0,465.0,543.0,503.0,516.0
513.0,515.0,549.0,546.0,499.0
510.0,464.0,461.0,542.0,484.0
511.0,498.0,491.0,544.0,478.0
522.0,556.0,631.0,596.0,474.0
508.0,510.0,673.0,581.0,485.0
503.0,486.0,513.0,485.0,483.0
517.0,535.0,401.0,458.0,485.0
530.0,585.0,421.0,477.0,490.0
547.0,580.0,643.0,518.0,483.0
531.0,501.0,660.0,512.0,498.0
528.0,506.0,486.0,462.0,493.0
541.0,497.0,507.0,552.0,483.0
531.0,506.0,475.0,506.0,490.0
514.0,480.0,421.0,503.0,516.0
497.0,518.0,490.0,500.0,548.0
486.0,558.0,501.0,502.0,555.0
505.0,560.0,466.0,509.0,531.0
501.0,523.0,458.0,507.0,534.0
497.0,499.0,492.0,518.0,536.0
499.0,478.0,500.0,536.0,527.0
508.0,462.0,475.0,519.0,524.0
501.0,411.0,478.0,519.0,514.0
506.0,479.0,524.0,529.0,513.0
498.0,462.0,522.0,499.0,513.0
517.0,490.0,495.0,519.0,508.0
525.0,545.0,518.0,532.0,511.0
527.0,598.0,523.0,518.0,505.0
526.0,520.0,539.0,492.0,509.0
519.0,509.0,539.0,504.0,510.0
524.0,509.0,541.0,532.0,504.0
520.0,527.0,529.0,547.0,503.0
511.0,513.0,500.0,513.0,517.0
508.0,511.0,609.0,492.0,531.0
495.0,482.0,623.0,465.0,550.0
502.0,538.0,661.0,480.0,530.0
504.0,555.0,585.0,525.0,504.0
501.0,530.0,394.0,530.0,519.0
504.0,512.0,401.0,512.0,539.0
525.0,505.0,486.0,520.0,519.0
516.0,476.0,502.0,521.0,516.0
511.0,469.0,498.0,533.0,503.0
526.0,465.0,487.0,539.0,495.0
524.0,499.0,493.0,526.0,507.0
531.0,548.0,606.0,532.0,496.0
532.0,536.0,602.0,508.0,490.0
522.0,568.0,516.0,492.0,500.0
514.0,536.0,452.0,515.0,517.0
511.0,511.0,440.0,511.0,523.0
504.0,497.0,492.0,517.0,521.0
500.0,524.0,500.0,504.0,526.0
487.0,526.0,478.0,510.0,535.0
488.0,514.0,468.0,517.0,542.0
509.0,516.0,556.0,513.0,525.0
513.0,482.0,569.0,498.0,524.0
510.0,448.0,467.0,500.0,531.0
510.0,434.0,506.0,534.0,526.0
494.0,429.0,574.0,545.0,534.0
518.0,576.0,584.0,504.0,505.0
525.0,537.0,572.0,522.0,484.0
524.0,555.0,532.0,497.0,494.0
528.0,538.0,429.0,487.0,484.0
534.0,556.0,455.0,513.0,477.0
526.0,533.0,476.0,507.0,492.0
513.0,515.0,517.0,505.0,505.0
515.0,518.0,579.0,534.0,502.0
496.0,491.0,515.0,529.0,529.0
500.0,520.0,472.0,521.0,539.0
513.0,521.0,472.0,495.0,523.0
518.0,511.0,510.0,510.0,515.0
514.0,489.0,465.0,513.0,509.0
507.0,472.0,483.0,513.0,513.0
512.0,499.0,533.0,527.0,490.0
510.0,472.0,517.0,526.0,510.0
508.0,488.0,510.0,515.0,517.0
506.0,486.0,516.0,523.0,493.0
517.0,484.0,555.0,534.0,483.0
505.0,503.0,538.0,521.0,506.0
512.0,539.0,464.0,499.0,519.0
521.0,534.0,521.0,508.0,502.0
520.0,491.0,508.0,513.0,501.0
515.0,448.0,496.0,511.0,511.0
496.0,447.0,495.0,525.0,538.0
489.0,503.0,507.0,561.0,537.0
499.0,554.0,547.0,529.0,511.0
505.0,561.0,551.0,499.0,522.0
516.0,528.0,478.0,469.0,541.0
513.0,510.0,503.0,488.0,536.0
518.0,508.0,536.0,513.0,539.0
512.0,513.0,521.0,514.0,522.0
515.0,535.0,530.0,508.0,522.0
512.0,510.0,535.0,505.0,525.0
513.0,493.0,532.0,500.0,517.0
511.0,472.0,495.0,515.0,524.0
520.0,496.0,551.0,524.0,510.0
513.0,494.0,568.0,533.0,506.0
524.0,582.0,511.0,508.0,502.0
521.0,562.0,494.0,494.0,519.0
514.0,514.0,493.0,506.0,508.0
509.0,503.0,496.0,503.0,521.0
500.0,507.0,509.0,512.0,529.0
506.0,513.0,492.0,509.0,527.0
510.0,510.0,486.0,509.0,522.0
507.0,516.0,514.0,521.0,520.0
513.0,514.0,539.0,521.0,514.0
517.0,508.0,516.0,523.0,505.0
513.0,493.0,488.0,524.0,509.0
514.0,490.0,541.0,537.0,508.0
513.0,464.0,530.0,529.0,507.0
515.0,527.0,497.0,518.0,505.0
522.0,548.0,535.0,513.0,510.0
523.0,539.0,529.0,524.0,504.0
525.0,528.0,518.0,516.0,505.0
522.0,514.0,516.0,507.0,507.0
512.0,508.0,508.0,506.0,510.0
508.0,503.0,496.0,500.0,518.0
509.0,510.0,497.0,504.0,513.0
505.0,515.0,503.0,512.0,515.0
509.0,506.0,507.0,513.0,521.0
509.0,504.0,504.0,514.0,522.0
507.0,502.0,506.0,525.0,518.0
509.0,499.0,513.0,530.0,516.0
509.0,503.0,549.0,531.0,518.0
509.0,503.0,548.0,518.0,526.0
525.0,502.0,500.0,510.0,506.0
530.0,508.0,499.0,528.0,502.0
530.0,525.0,521.0,530.0,503.0
523.0,520.0,545.0,504.0,501.0
523.0,525.0,552.0,498.0,501.0
518.0,514.0,539.0,497.0,512.0
511.0,502.0,506.0,524.0,508.0
509.0,498.0,504.0,523.0,505.0
508.0,491.0,493.0,500.0,507.0
508.0,519.0,476.0,491.0,514.0
503.0,510.0,496.0,514.0,514.0
508.0,500.0,506.0,519.0,516.0
508.0,505.0,493.0,513.0,521.0
512.0,505.0,496.0,515.0,522.0
512.0,500.0,503.0,519.0,521.0
512.0,502.0,512.0,513.0,523.0
510.0,505.0,525.0,520.0,515.0
508.0,510.0,527.0,518.0,513.0
512.0,508.0,517.0,514.0,510.0
515.0,512.0,527.0,519.0,508.0
522.0,519.0,532.0,520.0,495.0
514.0,524.0,543.0,514.0,498.0
510.0,518.0,539.0,508.0,503.0
510.0,508.0,510.0,500.0,505.0
507.0,508.0,489.0,496.0,510.0
506.0,503.0,485.0,497.0,517.0
500.0,498.0,497.0,506.0,522.0
499.0,496.0,503.0,512.0,526.0
501.0,493.0,505.0,506.0,519.0
511.0,502.0,510.0,513.0,512.0
513.0,500.0,515.0,518.0,519.0
519.0,497.0,513.0,523.0,507.0
522.0,499.0,518.0,520.0,506.0
521.0,509.0,517.0,514.0,507.0
516.0,507.0,525.0,522.0,510.0
517.0,492.0,521.0,514.0,507.0
518.0,515.0,526.0,519.0,507.0
521.0,515.0,531.0,522.0,511.0
524.0,513.0,519.0,511.0,496.0
518.0,517.0,515.0,507.0,499.0
513.0,532.0,502.0,504.0,513.0
510.0,516.0,498.0,495.0,513.0
507.0,507.0,496.0,497.0,519.0
507.0,503.0,499.0,505.0,519.0
508.0,508.0,506.0,510.0,525.0
510.0,506.0,511.0,518.0,520.0
506.0,505.0,516.0,520.0,519.0
502.0,502.0,515.0,520.0,523.0
503.0,501.0,513.0,515.0,519.0
500.0,500.0,514.0,515.0,514.0
502.0,507.0,516.0,516.0,514.0
509.0,509.0,521.0,520.0,509.0
525.0,518.0,525.0,525.0,503.0
529.0,526.0,527.0,520.0,500.0
530.0,523.0,526.0,517.0,498.0
524.0,521.0,526.0,515.0,502.0
522.0,518.0,515.0,509.0,505.0
512.0,509.0,494.0,499.0,509.0
507.0,501.0,499.0,503.0,511.0
504.0,495.0,498.0,506.0,516.0
512.0,506.0,508.0,512.0,516.0
515.0,505.0,501.0,514.0,516.0
516.0,502.0,512.0,515.0,514.0
521.0,502.0,517.0,517.0,513.0
520.0,503.0,512.0,520.0,514.0
515.0,502.0,518.0,523.0,517.0
517.0,506.0,520.0,521.0,516.0
521.0,508.0,519.0,517.0,510.0
522.0,510.0,521.0,521.0,507.0
527.0,516.0,523.0,518.0,505.0
535.0,522.0,523.0,513.0,492.0
531.0,525.0,521.0,513.0,496.0
522.0,518.0,516.0,510.0,504.0
518.0,515.0,511.0,507.0,508.0
513.0,510.0,506.0,501.0,508.0
504.0,502.0,500.0,497.0,520.0
500.0,496.0,496.0,504.0,521.0
503.0,496.0,500.0,506.0,524.0
507.0,495.0,508.0,513.0,514.0
511.0,500.0,513.0,519.0,514.0
511.0,500.0,516.0,523.0,519.0
512.0,497.0,518.0,520.0,511.0
509.0,500.0,517.0,523.0,516.0
515.0,506.0,524.0,522.0,511.0
517.0,507.0,522.0,519.0,509.0
517.0,511.0,527.0,530.0,508.0
522.0,519.0,525.0,523.0,511.0
531.0,526.0,524.0,505.0,502.0
526.0,524.0,523.0,512.0,496.0
514.0,512.0,514.0,508.0,501.0
506.0,508.0,508.0,509.0,514.0
501.0,501.0,499.0,496.0,516.0
501.0,497.0,495.0,510.0,513.0
495.0,498.0,504.0,502.0,523.0
499.0,496.0,499.0,505.0,513.0
498.0,496.0,509.0,509.0,523.0
495.0,497.0,512.0,509.0,524.0
504.0,502.0,518.0,517.0,520.0
507.0,499.0,517.0,517.0,517.0
508.0,503.0,516.0,513.0,523.0
511.0,506.0,520.0,516.0,516.0
527.0,514.0,527.0,521.0,509.0
526.0,516.0,529.0,524.0,502.0
517.0,520.0,531.0,525.0,498.0
522.0,519.0,528.0,515.0,493.0
510.0,520.0,519.0,510.0,499.0
495.0,512.0,513.0,505.0,504.0
490.0,506.0,505.0,502.0,510.0
494.0,500.0,498.0,498.0,515.0
504.0,499.0,498.0,503.0,521.0
519.0,502.0,505.0,506.0,515.0
524.0,500.0,508.0,509.0,516.0
523.0,502.0,517.0,518.0,520.0
531.0,502.0,518.0,525.0,517.0
533.0,503.0,521.0,526.0,518.0
524.0,501.0,519.0,520.0,521.0
524.0,508.0,522.0,523.0,513.0
528.0,510.0,524.0,526.0,508.0
526.0,513.0,524.0,521.0,507.0
526.0,517.0,527.0,520.0,499.0
530.0,522.0,529.0,520.0,501.0
521.0,518.0,522.0,507.0,505.0
513.0,517.0,516.0,512.0,508.0
503.0,509.0,514.0,509.0,509.0
495.0,504.0,504.0,497.0,511.0
496.0,498.0,499.0,503.0,512.0
506.0,499.0,500.0,503.0,517.0
517.0,500.0,507.0,509.0,514.0
524.0,498.0,512.0,517.0,502.0
519.0,495.0,518.0,529.0,507.0
531.0,505.0,519.0,522.0,507.0
524.0,503.0,520.0,521.0,515.0
508.0,501.0,516.0,513.0,526.0
513.0,502.0,520.0,517.0,496.0
515.0,509.0,524.0,521.0,499.0
520.0,515.0,526.0,521.0,496.0
519.0,518.0,528.0,520.0,491.0
519.0,518.0,524.0,520.0,493.0
520.0,518.0,517.0,509.0,503.0
521.0,516.0,513.0,512.0,512.0
510.0,514.0,504.0,501.0,507.0
499.0,503.0,496.0,498.0,521.0
494.0,503.0,499.0,498.0,507.0
505.0,499.0,502.0,510.0,498.0
520.0,501.0,507.0,513.0,511.0
524.0,501.0,509.0,509.0,520.0
522.0,500.0,513.0,514.0,526.0
524.0,503.0,518.0,520.0,511.0
527.0,500.0,519.0,522.0,498.0
527.0,501.0,517.0,517.0,497.0
525.0,506.0,520.0,521.0,495.0
530.0,513.0,523.0,525.0,497.0
531.0,515.0,524.0,522.0,498.0
530.0,519.0,522.0,514.0,506.0
526.0,524.0,523.0,516.0,501.0
525.0,520.0,524.0,516.0,499.0
512.0,514.0,514.0,513.0,508.0
513.0,513.0,509.0,505.0,513.0
502.0,503.0,501.0,501.0,502.0
496.0,499.0,499.0,501.0,489.0
509.0,500.0,506.0,510.0,501.0
511.0,501.0,512.0,523.0,515.0
515.0,503.0,520.0,523.0,526.0
516.0,506.0,519.0,517.0,537.0
512.0,495.0,518.0,519.0,533.0
510.0,498.0,517.0,526.0,536.0
502.0,502.0,523.0,528.0,537.0
508.0,507.0,517.0,512.0,523.0
517.0,511.0,521.0,516.0,506.0
516.0,515.0,524.0,521.0,503.0
518.0,524.0,524.0,514.0,487.0
519.0,521.0,523.0,515.0,487.0
510.0,516.0,516.0,514.0,499.0
503.0,507.0,509.0,507.0,510.0
502.0,505.0,506.0,508.0,515.0
507.0,507.0,501.0,495.0,516.0
505.0,505.0,498.0,503.0,523.0
501.0,499.0,504.0,509.0,532.0
503.0,503.0,512.0,525.0,532.0
510.0,502.0,515.0,517.0,531.0
513.0,504.0,523.0,520.0,525.0
509.0,500.0,519.0,522.0,527.0
507.0,499.0,517.0,520.0,523.0
516.0,507.0,517.0,519.0,514.0
521.0,510.0,521.0,522.0,499.0
522.0,511.0,521.0,520.0,506.0
523.0,513.0,526.0,525.0,504.0
531.0,523.0,525.0,509.0,496.0
527.0,521.0,517.0,510.0,497.0
519.0,518.0,511.0,506.0,500.0
514.0,512.0,507.0,505.0,500.0
513.0,506.0,502.0,502.0,496.0
515.0,503.0,498.0,500.0,485.0
516.0,498.0,500.0,509.0,491.0
518.0,499.0,501.0,511.0,491.0
520.0,500.0,512.0,519.0,496.0
524.0,502.0,520.0,525.0,498.0
525.0,501.0,517.0,524.0,519.0
515.0,500.0,516.0,520.0,526.0
510.0,498.0,515.0,518.0,514.0
507.0,502.0,518.0,518.0,516.0
508.0,509.0,522.0,522.0,518.0
515.0,514.0,524.0,522.0,512.0
515.0,515.0,522.0,515.0,504.0
518.0,518.0,522.0,517.0,494.0
513.0,517.0,516.0,509.0,498.0
510.0,512.0,508.0,503.0,509.0
508.0,508.0,504.0,502.0,515.0
509.0,503.0,499.0,501.0,516.0
501.0,498.0,498.0,502.0,518.0
503.0,498.0,502.0,510.0,515.0
499.0,497.0,509.0,515.0,516.0
495.0,493.0,515.0,523.0,513.0
518.0,504.0,516.0,522.0,507.0
521.0,503.0,516.0,520.0,498.0
508.0,500.0,513.0,519.0,504.0
510.0,505.0,518.0,520.0,512.0
518.0,513.0,521.0,519.0,512.0
524.0,511.0,525.0,520.0,506.0
517.0,511.0,526.0,519.0,508.0
525.0,518.0,525.0,516.0,489.0
530.0,520.0,522.0,523.0,479.0
525.0,515.0,514.0,516.0,482.0
514.0,514.0,511.0,505.0,486.0
509.0,510.0,504.0,503.0,483.0
509.0,502.0,501.0,502.0,509.0
504.0,501.0,502.0,508.0,505.0
498.0,499.0,504.0,516.0,511.0
505.0,502.0,513.0,514.0,515.0
511.0,501.0,515.0,521.0,522.0
513.0,501.0,518.0,523.0,533.0
513.0,499.0,518.0,523.0,528.0
508.0,499.0,519.0,521.0,528.0
514.0,506.0,523.0,522.0,515.0
518.0,512.0,524.0,523.0,504.0
520.0,510.0,521.0,519.0,509.0
519.0,515.0,524.0,518.0,510.0
516.0,521.0,526.0,519.0,502.0
518.0,519.0,519.0,519.0,499.0
511.0,515.0,514.0,512.0,505.0
507.0,510.0,505.0,506.0,514.0
494.0,503.0,500.0,500.0,511.0
503.0,500.0,502.0,503.0,501.0
509.0,501.0,504.0,507.0,508.0
509.0,502.0,508.0,515.0,510.0
515.0,496.0,513.0,521.0,511.0
510.0,498.0,515.0,518.0,525.0
510.0,499.0,518.0,519.0,527.0
509.0,500.0,521.0,518.0,521.0
509.0,502.0,517.0,522.0,515.0
511.0,506.0,521.0,522.0,505.0
517.0,512.0,522.0,521.0,500.0
520.0,516.0,529.0,525.0,493.0
520.0,521.0,529.0,528.0,503.0
530.0,524.0,523.0,515.0,509.0
526.0,514.0,517.0,511.0,505.0
518.0,515.0,513.0,509.0,524.0
513.0,509.0,504.0,504.0,518.0
505.0,504.0,501.0,503.0,518.0
501.0,498.0,501.0,509.0,525.0
502.0,495.0,505.0,515.0,530.0
509.0,498.0,508.0,512.0,508.0
522.0,500.0,510.0,517.0,517.0
523.0,499.0,514.0,520.0,524.0
520.0,501.0,515.0,519.0,524.0
515.0,500.0,516.0,522.0,520.0
514.0,502.0,521.0,526.0,518.0
519.0,509.0,523.0,517.0,515.0
522.0,513.0,522.0,518.0,504.0
526.0,515.0,523.0,519.0,489.0
529.0,520.0,524.0,517.0,481.0
530.0,524.0,520.0,515.0,508.0
527.0,519.0,515.0,512.0,526.0
518.0,513.0,509.0,502.0,520.0
513.0,507.0,501.0,500.0,520.0
503.0,499.0,495.0,497.0,522.0
506.0,504.0,500.0,506.0,516.0
512.0,498.0,505.0,512.0,497.0
511.0,499.0,507.0,512.0,500.0
511.0,499.0,511.0,517.0,517.0
511.0,501.0,516.0,522.0,513.0
516.0,503.0,518.0,525.0,508.0
523.0,502.0,516.0,519.0,508.0
526.0,507.0,517.0,520.0,506.0
528.0,509.0,520.0,519.0,507.0
522.0,510.0,519.0,516.0,513.0
528.0,513.0,523.0,517.0,502.0
524.0,517.0,521.0,518.0,496.0
516.0,513.0,515.0,514.0,508.0
507.0,510.0,510.0,510.0,515.0
498.0,511.0,507.0,508.0,523.0
493.0,504.0,501.0,505.0,526.0
494.0,500.0,501.0,506.0,524.0
489.0,499.0,503.0,510.0,530.0
496.0,499.0,507.0,513.0,521.0
503.0,499.0,511.0,521.0,521.0
511.0,498.0,506.0,520.0,503.0
517.0,502.0,516.0,524.0,489.0
516.0,503.0,519.0,525.0,495.0
525.0,504.0,519.0,525.0,499.0
524.0,507.0,519.0,522.0,513.0
523.0,511.0,520.0,520.0,507.0
528.0,517.0,527.0,520.0,496.0
530.0,520.0,528.0,521.0,499.0
527.0,517.0,521.0,520.0,499.0
526.0,514.0,512.0,510.0,476.0
515.0,509.0,505.0,505.0,475.0
509.0,507.0,505.0,503.0,487.0
506.0,502.0,500.0,500.0,501.0
503.0,498.0,497.0,502.0,502.0
508.0,499.0,504.0,507.0,503.0
513.0,499.0,508.0,515.0,511.0
513.0,498.0,512.0,517.0,532.0
508.0,500.0,517.0,521.0,530.0
508.0,500.0,518.0,519.0,523.0
512.0,499.0,516.0,519.0,520.0
516.0,505.0,522.0,522.0,512.0
524.0,510.0,522.0,521.0,497.0
521.0,512.0,520.0,519.0,495.0
522.0,515.0,523.0,522.0,492.0
537.0,520.0,527.0,528.0,481.0
536.0,519.0,521.0,517.0,516.0
517.0,516.0,512.0,507.0,528.0
511.0,513.0,506.0,501.0,530.0
504.0,507.0,504.0,504.0,525.0
504.0,504.0,496.0,502.0,520.0
504.0,499.0,499.0,503.0,516.0
501.0,496.0,502.0,509.0,508.0
509.0,501.0,506.0,518.0,504.0
512.0,500.0,513.0,522.0,506.0
515.0,501.0,517.0,519.0,513.0
514.0,499.0,512.0,515.0,495.0
506.0,502.0,512.0,514.0,517.0
505.0,502.0,514.0,517.0,523.0
508.0,508.0,520.0,515.0,519.0
515.0,513.0,522.0,520.0,512.0
520.0,519.0,524.0,520.0,523.0
517.0,520.0,520.0,514.0,526.0
518.0,519.0,514.0,510.0,529.0
511.0,515.0,510.0,507.0,527.0
513.0,510.0,508.0,504.0,511.0
501.0,502.0,498.0,498.0,504.0
504.0,498.0,496.0,503.0,514.0
509.0,497.0,499.0,504.0,524.0
513.0,502.0,507.0,514.0,525.0
515.0,503.0,514.0,520.0,524.0
519.0,500.0,511.0,518.0,525.0
509.0,499.0,512.0,518.0,514.0
502.0,499.0,514.0,520.0,524.0
501.0,501.0,519.0,520.0,518.0
505.0,506.0,518.0,521.0,513.0
525.0,513.0,521.0,521.0,503.0
527.0,518.0,525.0,518.0,510.0
527.0,521.0,525.0,523.0,507.0
521.0,522.0,521.0,518.0,503.0
525.0,519.0,515.0,513.0,498.0
511.0,514.0,507.0,512.0,505.0
507.0,506.0,503.0,505.0,511.0
493.0,500.0,497.0,501.0,527.0
498.0,498.0,495.0,504.0,519.0
505.0,501.0,504.0,509.0,521.0
505.0,500.0,507.0,515.0,517.0
514.0,505.0,511.0,519.0,517.0
517.0,506.0,515.0,523.0,519.0
514.0,502.0,515.0,524.0,512.0
511.0,502.0,517.0,525.0,511.0
515.0,502.0,521.0,522.0,504.0
509.0,507.0,516.0,510.0,501.0
508.0,512.0,524.0,519.0,505.0
520.0,518.0,523.0,520.0,507.0
532.0,525.0,527.0,524.0,511.0
543.0,526.0,520.0,515.0,504.0
535.0,521.0,518.0,510.0,505.0
518.0,516.0,509.0,508.0,506.0
514.0,509.0,502.0,503.0,507.0
504.0,504.0,496.0,500.0,504.0
493.0,498.0,497.0,504.0,511.0
501.0,502.0,503.0,515.0,513.0
503.0,500.0,510.0,516.0,518.0
524.0,503.0,513.0,525.0,507.0
535.0,504.0,519.0,527.0,499.0
535.0,506.0,518.0,525.0,508.0
529.0,505.0,517.0,526.0,516.0
523.0,508.0,518.0,520.0,514.0
546.0,518.0,523.0,522.0,501.0
535.0,516.0,522.0,519.0,501.0
531.0,517.0,523.0,519.0,496.0
529.0,517.0,523.0,518.0,496.0
525.0,520.0,516.0,513.0,501.0
511.0,516.0,511.0,508.0,509.0
503.0,513.0,506.0,504.0,503.0
494.0,503.0,503.0,502.0,515.0
493.0,500.0,499.0,503.0,539.0
494.0,497.0,502.0,507.0,531.0
504.0,498.0,507.0,519.0,528.0
506.0,502.0,511.0,522.0,532.0
510.0,499.0,514.0,516.0,520.0
520.0,500.0,516.0,517.0,502.0
521.0,499.0,514.0,521.0,486.0
521.0,504.0,517.0,518.0,488.0
524.0,507.0,519.0,516.0,505.0
522.0,510.0,513.0,518.0,503.0
527.0,515.0,523.0,521.0,514.0
525.0,519.0,525.0,523.0,504.0
523.0,525.0,527.0,520.0,495.0
521.0,519.0,517.0,512.0,501.0
509.0,515.0,508.0,502.0,517.0
504.0,508.0,503.0,497.0,520.0
502.0,503.0,498.0,498.0,531.0
507.0,499.0,501.0,503.0,536.0
506.0,499.0,505.0,512.0,529.0
507.0,502.0,512.0,519.0,526.0
509.0,500.0,514.0,521.0,519.0
511.0,502.0,520.0,522.0,523.0
510.0,502.0,517.0,521.0,527.0
510.0,500.0,517.0,519.0,529.0
508.0,505.0,520.0,527.0,525.0
512.0,507.0,521.0,520.0,539.0
515.0,512.0,522.0,520.0,516.0
525.0,519.0,524.0,520.0,506.0
528.0,523.0,529.0,518.0,506.0
526.0,526.0,522.0,517.0,507.0
521.0,518.0,512.0,510.0,500.0
512.0,513.0,507.0,507.0,505.0
508.0,509.0,500.0,501.0,509.0
508.0,501.0,496.0,503.0,516.0
504.0,502.0,500.0,506.0,527.0
506.0,497.0,504.0,512.0,527.0
509.0,499.0,509.0,518.0,527.0
513.0,499.0,514.0,522.0,528.0
515.0,499.0,516.0,523.0,524.0
517.0,500.0,517.0,523.0,518.0
514.0,500.0,517.0,522.0,522.0
518.0,508.0,520.0,521.0,522.0
526.0,511.0,520.0,520.0,514.0
528.0,512.0,521.0,518.0,503.0
529.0,518.0,524.0,520.0,506.0
525.0,521.0,523.0,521.0,503.0
528.0,523.0,517.0,512.0,506.0
520.0,515.0,508.0,508.0,507.0
510.0,512.0,504.0,505.0,509.0
508.0,506.0,500.0,501.0,525.0
501.0,502.0,497.0,502.0,530.0
497.0,498.0,502.0,511.0,527.0
499.0,498.0,507.0,515.0,523.0
504.0,497.0,511.0,519.0,519.0
513.0,502.0,514.0,522.0,513.0
519.0,502.0,517.0,522.0,520.0
519.0,501.0,515.0,519.0,526.0
519.0,506.0,517.0,520.0,526.0
521.0,507.0,518.0,517.0,526.0
525.0,507.0,522.0,520.0,514.0
532.0,517.0,524.0,520.0,506.0
522.0,521.0,524.0,521.0,507.0
515.0,522.0,523.0,516.0,500.0
509.0,517.0,516.0,516.0,497.0
502.0,515.0,510.0,507.0,508.0
503.0,511.0,508.0,503.0,516.0
497.0,505.0,501.0,504.0,525.0
501.0,499.0,498.0,505.0,521.0
505.0,499.0,504.0,511.0,523.0
518.0,501.0,509.0,515.0,531.0
521.0,502.0,516.0,521.0,523.0
518.0,500.0,519.0,523.0,523.0
511.0,502.0,515.0,515.0,522.0
500.0,497.0,512.0,511.0,524.0
500.0,501.0,518.0,518.0,520.0
508.0,507.0,523.0,523.0,503.0
508.0,508.0,520.0,521.0,493.0
520.0,514.0,522.0,521.0,495.0
520.0,519.0,520.0,517.0,499.0
519.0,518.0,517.0,520.0,508.0
516.0,520.0,512.0,510.0,516.0
507.0,513.0,509.0,507.0,521.0
503.0,506.0,502.0,502.0,518.0
517.0,501.0,500.0,504.0,514.0
516.0,498.0,501.0,503.0,520.0
513.0,498.0,505.0,509.0,534.0
519.0,494.0,509.0,518.0,511.0
516.0,498.0,518.0,526.0,503.0
517.0,502.0,520.0,527.0,507.0
506.0,498.0,515.0,519.0,511.0
514.0,500.0,515.0,520.0,505.0
516.0,502.0,516.0,520.0,498.0
526.0,509.0,522.0,527.0,503.0
536.0,515.0,524.0,524.0,497.0
533.0,519.0,525.0,524.0,486.0
531.0,525.0,526.0,523.0,487.0
528.0,520.0,519.0,511.0,507.0
515.0,518.0,512.0,506.0,509.0
508.0,515.0,506.0,503.0,507.0
508.0,505.0,502.0,504.0,499.0
500.0,499.0,499.0,504.0,518.0
503.0,499.0,505.0,507.0,534.0
506.0,500.0,504.0,513.0,531.0
514.0,500.0,513.0,520.0,528.0
516.0,501.0,519.0,530.0,515.0
515.0,503.0,520.0,528.0,515.0
515.0,504.0,519.0,522.0,522.0
516.0,503.0,519.0,517.0,529.0
513.0,502.0,518.0,514.0,521.0
514.0,508.0,519.0,519.0,517.0
521.0,516.0,525.0,517.0,512.0
525.0,522.0,526.0,516.0,507.0
519.0,521.0,521.0,513.0,508.0
515.0,518.0,514.0,511.0,513.0
510.0,513.0,507.0,502.0,518.0
503.0,508.0,504.0,505.0,525.0
504.0,505.0,499.0,499.0,530.0
500.0,502.0,497.0,502.0,531.0
504.0,498.0,504.0,510.0,523.0
504.0,497.0,508.0,514.0,520.0
512.0,501.0,516.0,521.0,511.0
514.0,501.0,517.0,518.0,516.0
513.0,501.0,517.0,522.0,517.0
509.0,501.0,517.0,518.0,520.0
518.0,504.0,519.0,518.0,515.0
519.0,508.0,522.0,523.0,512.0
526.0,511.0,519.0,519.0,508.0
524.0,519.0,523.0,518.0,502.0
526.0,521.0,528.0,516.0,498.0
525.0,521.0,519.0,513.0,502.0
518.0,517.0,514.0,506.0,507.0
508.0,513.0,506.0,504.0,512.0
500.0,504.0,503.0,499.0,520.0
500.0,499.0,496.0,498.0,520.0
497.0,499.0,500.0,503.0,523.0
502.0,498.0,506.0,512.0,523.0
506.0,500.0,514.0,517.0,521.0
509.0,499.0,513.0,520.0,519.0
512.0,500.0,517.0,522.0,519.0
508.0,499.0,515.0,516.0,527.0
508.0,502.0,515.0,517.0,524.0
510.0,505.0,518.0,522.0,521.0
514.0,511.0,521.0,518.0,518.0
522.0,513.0,523.0,515.0,510.0
524.0,518.0,524.0,516.0,507.0
526.0,520.0,523.0,514.0,505.0
526.0,519.0,513.0,511.0,509.0
520.0,516.0,511.0,506.0,504.0
514.0,514.0,505.0,501.0,505.0
506.0,502.0,497.0,500.0,512.0
506.0,500.0,500.0,503.0,518.0
504.0,498.0,503.0,511.0,525.0
506.0,499.0,508.0,519.0,525.0
507.0,501.0,514.0,522.0,530.0
517.0,502.0,517.0,525.0,528.0
518.0,501.0,517.0,523.0,527.0
512.0,500.0,516.0,519.0,528.0
516.0,503.0,519.0,525.0,524.0
517.0,508.0,523.0,520.0,523.0
520.0,510.0,521.0,519.0,516.0
520.0,517.0,524.0,523.0,504.0
515.0,521.0,530.0,521.0,498.0
510.0,520.0,521.0,518.0,497.0
505.0,513.0,512.0,509.0,501.0
507.0,512.0,506.0,505.0,497.0
513.0,508.0,504.0,503.0,505.0
505.0,503.0,498.0,499.0,512.0
504.0,497.0,498.0,505.0,514.0
510.0,496.0,504.0,511.0,507.0
515.0,500.0,513.0,520.0,514.0
518.0,501.0,514.0,521.0,514.0
522.0,503.0,519.0,528.0,518.0
517.0,504.0,519.0,525.0,525.0
514.0,501.0,515.0,518.0,546.0
517.0,506.0,518.0,523.0,530.0
525.0,511.0,520.0,522.0,520.0
520.0,513.0,519.0,517.0,521.0
535.0,518.0,522.0,518.0,512.0
537.0,523.0,526.0,520.0,499.0
531.0,521.0,522.0,511.0,504.0
521.0,516.0,514.0,507.0,509.0
507.0,505.0,504.0,502.0,509.0
491.0,499.0,502.0,498.0,508.0
486.0,497.0,498.0,502.0,517.0
498.0,503.0,504.0,509.0,524.0
506.0,500.0,508.0,516.0,530.0
515.0,502.0,513.0,520.0,527.0
518.0,500.0,514.0,524.0,524.0
524.0,504.0,523.0,526.0,512.0
523.0,505.0,520.0,524.0,519.0
526.0,505.0,520.0,523.0,508.0
513.0,503.0,520.0,523.0,502.0
507.0,507.0,517.0,522.0,497.0
502.0,511.0,522.0,522.0,496.0
526.0,519.0,524.0,521.0,492.0
530.0,520.0,520.0,515.0,503.0
520.0,516.0,513.0,504.0,515.0
511.0,511.0,507.0,503.0,509.0
512.0,508.0,503.0,499.0,508.0
507.0,503.0,499.0,500.0,505.0
502.0,497.0,496.0,502.0,505.0
494.0,493.0,497.0,506.0,503.0
509.0,497.0,508.0,520.0,495.0
512.0,500.0,513.0,524.0,507.0
508.0,500.0,517.0,524.0,534.0
510.0,500.0,517.0,523.0,519.0
512.0,499.0,509.0,518.0,509.0
511.0,503.0,518.0,517.0,513.0
516.0,504.0,518.0,518.0,510.0
518.0,509.0,520.0,520.0,505.0
523.0,515.0,524.0,520.0,500.0
525.0,520.0,525.0,520.0,499.0
523.0,520.0,526.0,515.0,495.0
518.0,522.0,517.0,513.0,498.0
517.0,513.0,509.0,508.0,503.0
509.0,508.0,506.0,505.0,512.0
500.0,499.0,500.0,501.0,521.0
500.0,498.0,503.0,504.0,523.0
506.0,497.0,505.0,510.0,522.0
509.0,498.0,512.0,519.0,518.0
508.0,498.0,514.0,522.0,524.0
515.0,501.0,518.0,523.0,519.0
507.0,502.0,517.0,519.0,519.0
507.0,499.0,518.0,523.0,519.0
515.0,502.0,516.0,520.0,513.0
515.0,509.0,522.0,520.0,513.0
526.0,513.0,523.0,522.0,504.0
529.0,519.0,525.0,523.0,498.0
522.0,522.0,525.0,517.0,500.0
520.0,516.0,521.0,514.0,502.0
513.0,514.0,512.0,508.0,505.0
508.0,510.0,507.0,505.0,504.0
505.0,500.0,502.0,501.0,510.0
500.0,500.0,500.0,503.0,517.0
502.0,497.0,503.0,507.0,522.0
502.0,498.0,508.0,515.0,525.0
510.0,499.0,512.0,518.0,524.0
512.0,501.0,517.0,527.0,524.0
515.0,502.0,518.0,527.0,523.0
511.0,501.0,519.0,527.0,526.0
511.0,503.0,519.0,520.0,526.0
515.0,507.0,520.0,520.0,512.0
515.0,510.0,521.0,518.0,502.0
521.0,516.0,522.0,516.0,498.0
528.0,520.0,526.0,523.0,496.0
523.0,521.0,522.0,517.0,498.0
521.0,516.0,516.0,512.0,500.0
515.0,514.0,510.0,511.0,506.0
509.0,509.0,507.0,504.0,507.0
505.0,502.0,498.0,501.0,513.0
502.0,498.0,496.0,502.0,516.0
504.0,499.0,505.0,511.0,519.0
509.0,499.0,508.0,517.0,520.0
509.0,499.0,515.0,520.0,519.0
511.0,500.0,519.0,523.0,512.0
510.0,498.0,514.0,521.0,517.0
512.0,501.0,514.0,521.0,516.0
513.0,504.0,519.0,520.0,514.0
520.0,506.0,517.0,517.0,513.0
520.0,511.0,519.0,511.0,510.0
522.0,517.0,523.0,519.0,509.0
525.0,522.0,525.0,520.0,505.0
522.0,521.0,520.0,513.0,502.0
517.0,517.0,514.0,509.0,506.0
510.0,513.0,505.0,503.0,505.0
508.0,506.0,502.0,501.0,512.0
500.0,500.0,499.0,501.0,517.0
497.0,502.0,500.0,505.0,521.0
497.0,497.0,504.0,510.0,525.0
503.0,500.0,510.0,515.0,526.0
508.0,498.0,510.0,522.0,523.0
513.0,498.0,513.0,519.0,510.0
517.0,498.0,509.0,520.0,512.0
515.0,499.0,513.0,519.0,516.0
517.0,502.0,515.0,519.0,520.0
519.0,507.0,518.0,517.0,507.0
523.0,511.0,521.0,516.0,501.0
527.0,520.0,525.0,519.0,491.0
527.0,519.0,523.0,516.0,494.0
522.0,516.0,518.0,513.0,500.0
514.0,515.0,514.0,514.0,502.0
509.0,511.0,507.0,506.0,507.0
501.0,502.0,500.0,501.0,513.0
495.0,498.0,499.0,502.0,520.0
495.0,497.0,500.0,507.0,524.0
510.0,499.0,509.0,510.0,518.0
512.0,504.0,512.0,517.0,522.0
519.0,500.0,515.0,522.0,522.0
527.0,501.0,518.0,521.0,527.0
515.0,498.0,514.0,518.0,530.0
510.0,501.0,519.0,518.0,531.0
511.0,506.0,524.0,519.0,522.0
523.0,512.0,523.0,518.0,515.0
524.0,517.0,525.0,520.0,507.0
528.0,519.0,525.0,518.0,492.0
521.0,522.0,525.0,518.0,482.0
514.0,512.0,514.0,511.0,480.0
511.0,514.0,509.0,507.0,491.0
517.0,506.0,503.0,504.0,498.0
504.0,501.0,499.0,503.0,518.0
498.0,498.0,497.0,504.0,518.0
497.0,501.0,502.0,510.0,515.0
502.0,499.0,508.0,517.0,516.0
510.0,501.0,512.0,519.0,517.0
515.0,502.0,516.0,522.0,513.0
513.0,503.0,515.0,520.0,519.0
513.0,500.0,512.0,519.0,523.0
516.0,503.0,517.0,518.0,518.0
515.0,504.0,517.0,515.0,507.0
511.0,510.0,519.0,517.0,502.0
521.0,515.0,526.0,519.0,494.0
520.0,521.0,528.0,518.0,498.0
537.0,521.0,523.0,519.0,497.0
531.0,518.0,516.0,517.0,498.0
527.0,513.0,510.0,506.0,499.0
519.0,507.0,503.0,506.0,505.0
507.0,501.0,499.0,504.0,510.0
509.0,499.0,499.0,503.0,512.0
515.0,503.0,504.0,508.0,532.0
517.0,499.0,512.0,511.0,537.0
510.0,500.0,515.0,519.0,536.0
514.0,503.0,519.0,522.0,529.0
513.0,502.0,518.0,521.0,528.0
513.0,503.0,519.0,520.0,514.0
504.0,501.0,518.0,518.0,500.0
505.0,510.0,521.0,520.0,505.0
513.0,508.0,519.0,517.0,503.0
520.0,516.0,522.0,516.0,500.0
527.0,519.0,522.0,515.0,493.0
518.0,518.0,518.0,514.0,496.0
511.0,512.0,508.0,507.0,502.0
507.0,509.0,503.0,501.0,509.0
508.0,503.0,499.0,499.0,518.0
503.0,498.0,498.0,502.0,520.0
500.0,498.0,502.0,507.0,519.0
500.0,496.0,505.0,516.0,523.0
506.0,498.0,510.0,514.0,522.0
509.0,499.0,514.0,518.0,523.0
511.0,497.0,516.0,520.0,521.0
511.0,498.0,515.0,517.0,523.0
508.0,501.0,520.0,519.0,520.0
518.0,507.0,523.0,520.0,509.0
525.0,512.0,522.0,520.0,502.0
525.0,516.0,524.0,519.0,497.0
523.0,518.0,524.0,519.0,499.0
528.0,520.0,521.0,518.0,505.0
518.0,518.0,516.0,512.0,511.0
515.0,514.0,509.0,509.0,509.0
510.0,514.0,505.0,507.0,513.0
506.0,502.0,500.0,503.0,516.0
501.0,495.0,499.0,503.0,519.0
503.0,500.0,508.0,509.0,524.0
505.0,499.0,509.0,519.0,523.0
510.0,503.0,513.0,520.0,519.0
513.0,501.0,517.0,522.0,518.0
514.0,501.0,517.0,521.0,521.0
515.0,503.0,517.0,520.0,521.0
512.0,506.0,520.0,522.0,520.0
515.0,507.0,519.0,517.0,520.0
516.0,510.0,519.0,516.0,518.0
526.0,516.0,522.0,519.0,508.0
528.0,520.0,524.0,519.0,498.0
527.0,521.0,520.0,516.0,503.0
519.0,520.0,514.0,506.0,504.0
514.0,511.0,507.0,508.0,507.0
507.0,508.0,505.0,501.0,511.0
502.0,500.0,499.0,502.0,515.0
506.0,499.0,501.0,505.0,516.0
504.0,497.0,504.0,511.0,527.0
508.0,498.0,510.0,515.0,521.0
510.0,498.0,513.0,519.0,519.0
514.0,505.0,518.0,523.0,519.0
513.0,501.0,516.0,520.0,517.0
515.0,500.0,516.0,518.0,517.0
517.0,506.0,518.0,519.0,516.0
517.0,509.0,521.0,518.0,514.0
519.0,511.0,518.0,517.0,514.0
523.0,514.0,525.0,518.0,507.0
524.0,524.0,522.0,517.0,503.0
522.0,520.0,519.0,514.0,504.0
519.0,518.0,515.0,511.0,509.0
513.0,511.0,510.0,508.0,509.0
503.0,501.0,500.0,502.0,518.0
499.0,501.0,499.0,505.0,524.0
499.0,498.0,502.0,507.0,526.0
505.0,500.0,509.0,513.0,531.0
510.0,500.0,512.0,519.0,528.0
514.0,500.0,516.0,521.0,525.0
506.0,500.0,517.0,523.0,527.0
511.0,500.0,516.0,516.0,526.0
515.0,501.0,515.0,516.0,528.0
514.0,504.0,519.0,516.0,525.0
517.0,509.0,521.0,517.0,520.0
517.0,514.0,524.0,515.0,507.0
530.0,519.0,528.0,520.0,493.0
526.0,520.0,522.0,512.0,498.0
522.0,517.0,516.0,509.0,502.0
511.0,512.0,510.0,509.0,507.0
506.0,507.0,504.0,502.0,514.0
501.0,501.0,499.0,501.0,525.0
496.0,495.0,496.0,500.0,525.0
504.0,498.0,503.0,503.0,520.0
512.0,497.0,510.0,517.0,518.0
513.0,501.0,515.0,521.0,520.0
521.0,503.0,516.0,522.0,521.0
515.0,500.0,517.0,520.0,518.0
517.0,499.0,515.0,517.0,517.0
525.0,505.0,517.0,517.0,512.0
522.0,508.0,520.0,517.0,510.0
521.0,510.0,521.0,516.0,510.0
522.0,516.0,525.0,521.0,508.0
523.0,516.0,525.0,519.0,505.0
521.0,522.0,526.0,516.0,508.0
516.0,516.0,514.0,512.0,506.0
510.0,511.0,507.0,510.0,510.0
505.0,505.0,503.0,505.0,520.0
502.0,496.0,500.0,499.0,524.0
503.0,498.0,501.0,500.0,518.0
505.0,498.0,508.0,510.0,513.0
507.0,498.0,511.0,517.0,517.0
512.0,499.0,517.0,521.0,516.0
512.0,498.0,519.0,523.0,513.0
510.0,500.0,518.0,521.0,517.0
509.0,499.0,520.0,519.0,524.0
512.0,507.0,520.0,517.0,522.0
522.0,508.0,524.0,516.0,525.0
527.0,514.0,524.0,519.0,520.0
531.0,520.0,527.0,523.0,502.0
530.0,521.0,525.0,519.0,499.0
526.0,519.0,520.0,514.0,504.0
514.0,513.0,514.0,508.0,506.0
503.0,507.0,506.0,506.0,503.0
492.0,499.0,500.0,500.0,499.0
491.0,497.0,499.0,508.0,513.0
495.0,497.0,503.0,508.0,512.0
508.0,499.0,512.0,515.0,518.0
509.0,501.0,515.0,525.0,515.0
505.0,500.0,519.0,527.0,514.0
499.0,497.0,517.0,523.0,515.0
495.0,495.0,515.0,517.0,521.0
501.0,501.0,521.0,522.0,513.0
500.0,502.0,521.0,520.0,513.0
503.0,506.0,522.0,519.0,512.0
555.0,520.0,526.0,523.0,502.0
561.0,524.0,531.0,523.0,500.0
547.0,525.0,527.0,520.0,498.0
529.0,521.0,518.0,513.0,501.0
521.0,514.0,513.0,510.0,504.0
517.0,506.0,505.0,506.0,508.0
502.0,501.0,497.0,503.0,515.0
505.0,499.0,503.0,503.0,523.0
504.0,500.0,506.0,511.0,522.0
507.0,500.0,510.0,515.0,522.0
512.0,498.0,512.0,518.0,520.0
517.0,501.0,520.0,523.0,518.0
516.0,500.0,520.0,520.0,521.0
513.0,499.0,515.0,517.0,516.0
519.0,504.0,519.0,519.0,515.0
522.0,512.0,522.0,518.0,516.0
524.0,513.0,524.0,516.0,511.0
525.0,515.0,525.0,516.0,509.0
526.0,519.0,527.0,517.0,508.0
520.0,520.0,521.0,514.0,509.0
516.0,514.0,515.0,510.0,510.0
512.0,504.0,507.0,505.0,510.0
505.0,504.0,506.0,502.0,512.0
502.0,498.0,503.0,501.0,523.0
496.0,497.0,500.0,505.0,522.0
502.0,497.0,510.0,512.0,520.0
505.0,498.0,513.0,518.0,521.0
508.0,501.0,517.0,524.0,520.0
511.0,502.0,520.0,524.0,521.0
519.0,503.0,521.0,524.0,521.0
522.0,501.0,520.0,523.0,518.0
521.0,505.0,523.0,520.0,520.0
524.0,508.0,522.0,522.0,516.0
528.0,516.0,520.0,517.0,513.0
521.0,518.0,526.0,520.0,507.0
525.0,521.0,524.0,520.0,503.0
522.0,519.0,518.0,511.0,511.0
515.0,514.0,512.0,507.0,510.0
509.0,508.0,506.0,504.0,514.0
503.0,502.0,500.0,501.0,518.0
506.0,499.0,500.0,506.0,521.0
503.0,498.0,503.0,504.0,521.0
506.0,499.0,509.0,515.0,521.0
509.0,499.0,513.0,517.0,523.0
513.0,499.0,516.0,521.0,520.0
513.0,499.0,517.0,521.0,520.0
512.0,499.0,517.0,518.0,520.0
515.0,502.0,518.0,519.0,517.0
513.0,506.0,520.0,519.0,517.0
516.0,510.0,524.0,519.0,513.0
526.0,517.0,526.0,523.0,509.0
528.0,521.0,527.0,521.0,505.0
524.0,520.0,523.0,516.0,504.0
523.0,517.0,515.0,511.0,506.0
517.0,512.0,509.0,512.0,511.0
509.0,511.0,504.0,504.0,512.0
501.0,502.0,502.0,501.0,519.0
498.0,498.0,500.0,509.0,521.0
504.0,493.0,503.0,510.0,522.0
509.0,501.0,513.0,522.0,520.0
510.0,500.0,515.0,520.0,520.0
514.0,500.0,517.0,521.0,520.0
512.0,501.0,518.0,520.0,522.0
511.0,500.0,517.0,517.0,524.0
514.0,503.0,520.0,520.0,524.0
518.0,510.0,523.0,522.0,523.0
521.0,514.0,525.0,520.0,516.0
524.0,518.0,526.0,517.0,509.0
524.0,522.0,526.0,519.0,500.0
524.0,520.0,521.0,514.0,495.0
517.0,511.0,512.0,508.0,494.0
512.0,509.0,508.0,504.0,499.0
508.0,505.0,505.0,500.0,515.0
503.0,499.0,500.0,501.0,523.0
503.0,496.0,501.0,508.0,528.0
507.0,495.0,505.0,508.0,525.0
511.0,500.0,514.0,518.0,522.0
515.0,499.0,518.0,526.0,521.0
512.0,500.0,516.0,519.0,520.0
509.0,502.0,516.0,518.0,520.0
508.0,500.0,517.0,516.0,524.0
518.0,506.0,520.0,519.0,509.0
517.0,509.0,522.0,523.0,503.0
516.0,512.0,523.0,518.0,511.0
525.0,515.0,522.0,516.0,505.0
529.0,518.0,524.0,515.0,503.0
528.0,519.0,522.0,518.0,502.0
516.0,513.0,511.0,508.0,505.0
509.0,509.0,505.0,504.0,505.0
504.0,502.0,501.0,499.0,513.0
504.0,499.0,501.0,501.0,509.0
501.0,498.0,509.0,509.0,512.0
504.0,497.0,510.0,515.0,517.0
507.0,502.0,516.0,521.0,517.0
511.0,500.0,517.0,520.0,515.0
517.0,499.0,518.0,521.0,522.0
517.0,502.0,518.0,521.0,520.0
520.0,501.0,519.0,521.0,510.0
527.0,504.0,520.0,519.0,504.0
534.0,513.0,523.0,521.0,502.0
524.0,519.0,527.0,523.0,505.0
525.0,520.0,527.0,521.0,504.0
520.0,521.0,523.0,515.0,497.0
514.0,516.0,516.0,510.0,495.0
508.0,513.0,508.0,504.0,503.0
506.0,509.0,504.0,502.0,512.0
504.0,502.0,500.0,501.0,513.0
499.0,499.0,503.0,509.0,520.0
500.0,499.0,505.0,510.0,521.0
505.0,499.0,511.0,521.0,520.0
512.0,501.0,515.0,521.0,518.0
515.0,501.0,519.0,524.0,520.0
513.0,502.0,519.0,524.0,516.0
513.0,505.0,518.0,521.0,511.0
513.0,505.0,518.0,516.0,512.0
513.0,510.0,521.0,517.0,512.0
515.0,510.0,521.0,515.0,511.0
523.0,516.0,524.0,517.0,505.0
526.0,520.0,525.0,519.0,503.0
521.0,519.0,524.0,512.0,506.0
523.0,516.0,513.0,507.0,512.0
510.0,511.0,509.0,504.0,510.0
508.0,507.0,504.0,503.0,514.0
503.0,504.0,504.0,504.0,522.0
502.0,499.0,503.0,508.0,524.0
514.0,501.0,510.0,517.0,523.0
510.0,503.0,513.0,519.0,522.0
515.0,501.0,518.0,523.0,520.0
516.0,502.0,521.0,523.0,517.0
512.0,501.0,516.0,518.0,520.0
514.0,501.0,517.0,521.0,521.0
517.0,506.0,520.0,518.0,517.0
517.0,511.0,522.0,518.0,513.0
522.0,519.0,525.0,520.0,510.0
529.0,522.0,528.0,523.0,507.0
524.0,523.0,524.0,517.0,506.0
524.0,516.0,515.0,512.0,502.0
517.0,511.0,508.0,503.0,505.0
507.0,508.0,504.0,500.0,510.0
505.0,503.0,499.0,500.0,514.0
506.0,501.0,501.0,505.0,518.0
502.0,498.0,502.0,508.0,519.0
509.0,499.0,509.0,516.0,518.0
512.0,498.0,510.0,512.0,517.0
510.0,498.0,515.0,522.0,517.0
510.0,501.0,520.0,523.0,520.0
506.0,501.0,515.0,519.0,518.0
507.0,505.0,516.0,517.0,518.0
510.0,508.0,520.0,518.0,515.0
516.0,510.0,521.0,518.0,511.0
520.0,516.0,525.0,519.0,508.0
526.0,520.0,526.0,519.0,503.0
536.0,523.0,523.0,518.0,501.0
528.0,516.0,516.0,511.0,504.0
515.0,511.0,510.0,506.0,509.0
509.0,506.0,504.0,501.0,516.0
502.0,500.0,499.0,495.0,518.0
501.0,497.0,502.0,506.0,521.0
502.0,499.0,506.0,514.0,518.0
507.0,499.0,511.0,517.0,519.0
515.0,500.0,519.0,520.0,519.0
512.0,501.0,519.0,524.0,513.0
513.0,499.0,518.0,521.0,518.0
511.0,500.0,520.0,521.0,519.0
515.0,501.0,519.0,519.0,513.0
516.0,507.0,521.0,522.0,507.0
525.0,513.0,524.0,519.0,507.0
528.0,517.0,527.0,521.0,503.0
526.0,520.0,525.0,519.0,504.0
520.0,518.0,518.0,516.0,502.0
518.0,514.0,513.0,511.0,505.0
509.0,511.0,508.0,508.0,511.0
502.0,504.0,503.0,510.0,515.0
506.0,501.0,501.0,505.0,517.0
503.0,498.0,504.0,508.0,523.0
501.0,497.0,507.0,512.0,527.0
502.0,499.0,509.0,520.0,526.0
506.0,499.0,515.0,522.0,516.0
506.0,499.0,517.0,522.0,516.0
511.0,501.0,518.0,521.0,517.0
513.0,503.0,517.0,518.0,513.0
513.0,504.0,520.0,517.0,518.0
523.0,510.0,521.0,516.0,514.0
526.0,510.0,524.0,518.0,510.0
527.0,519.0,525.0,520.0,502.0
529.0,522.0,525.0,517.0,498.0
521.0,517.0,518.0,511.0,500.0
512.0,513.0,510.0,507.0,506.0
506.0,508.0,502.0,501.0,512.0
501.0,503.0,503.0,500.0,522.0
498.0,497.0,498.0,503.0,523.0
500.0,497.0,502.0,508.0,525.0
503.0,499.0,505.0,509.0,522.0
521.0,501.0,516.0,519.0,522.0
523.0,502.0,518.0,523.0,519.0
518.0,503.0,521.0,522.0,525.0
513.0,500.0,515.0,521.0,516.0
512.0,504.0,519.0,519.0,510.0
510.0,508.0,523.0,515.0,511.0
513.0,511.0,522.0,523.0,507.0
523.0,517.0,525.0,520.0,501.0
527.0,520.0,525.0,519.0,499.0
527.0,521.0,522.0,517.0,500.0
519.0,520.0,515.0,511.0,499.0
512.0,511.0,506.0,505.0,503.0
510.0,510.0,503.0,503.0,512.0
504.0,498.0,498.0,500.0,519.0
500.0,501.0,500.0,503.0,521.0
503.0,498.0,505.0,511.0,517.0
509.0,498.0,511.0,514.0,522.0
506.0,497.0,510.0,514.0,521.0
510.0,495.0,515.0,519.0,516.0
518.0,500.0,518.0,520.0,517.0
512.0,500.0,514.0,517.0,518.0
509.0,502.0,516.0,520.0,518.0
514.0,508.0,522.0,517.0,513.0
518.0,511.0,522.0,519.0,512.0
523.0,516.0,525.0,522.0,507.0
526.0,519.0,529.0,519.0,499.0
524.0,522.0,523.0,516.0,495.0
522.0,515.0,512.0,508.0,500.0
517.0,511.0,509.0,505.0,510.0
508.0,506.0,501.0,501.0,511.0
512.0,501.0,503.0,502.0,517.0
505.0,500.0,504.0,510.0,515.0
508.0,500.0,509.0,514.0,515.0
512.0,498.0,512.0,515.0,523.0
518.0,505.0,517.0,519.0,518.0
514.0,501.0,516.0,521.0,519.0
509.0,494.0,517.0,521.0,522.0
511.0,500.0,519.0,520.0,521.0
514.0,508.0,521.0,519.0,511.0
518.0,511.0,522.0,518.0,510.0
520.0,515.0,525.0,520.0,507.0
521.0,521.0,527.0,520.0,503.0
521.0,522.0,525.0,516.0,499.0
519.0,517.0,516.0,510.0,502.0
516.0,515.0,511.0,506.0,507.0
509.0,504.0,504.0,503.0,511.0
501.0,502.0,500.0,499.0,514.0
500.0,499.0,501.0,502.0,518.0
503.0,500.0,505.0,508.0,519.0
502.0,499.0,509.0,514.0,520.0
510.0,501.0,516.0,518.0,521.0
510.0,503.0,517.0,521.0,519.0
512.0,501.0,518.0,523.0,520.0
513.0,504.0,517.0,523.0,519.0
512.0,503.0,520.0,519.0,517.0
515.0,507.0,522.0,522.0,512.0
518.0,510.0,521.0,519.0,508.0
524.0,516.0,526.0,520.0,505.0
523.0,520.0,526.0,519.0,502.0
527.0,519.0,517.0,514.0,502.0
518.0,518.0,517.0,512.0,505.0
512.0,511.0,510.0,508.0,510.0
510.0,506.0,505.0,505.0,512.0
498.0,501.0,500.0,502.0,522.0
500.0,498.0,502.0,504.0,522.0
502.0,495.0,505.0,509.0,521.0
505.0,501.0,512.0,515.0,521.0
507.0,501.0,514.0,520.0,519.0
510.0,501.0,520.0,524.0,515.0
509.0,500.0,519.0,521.0,516.0
509.0,503.0,522.0,519.0,517.0
521.0,503.0,518.0,516.0,513.0
518.0,510.0,525.0,520.0,511.0
519.0,511.0,523.0,518.0,510.0
521.0,515.0,523.0,517.0,511.0
518.0,516.0,524.0,514.0,509.0
515.0,518.0,518.0,511.0,508.0
508.0,513.0,513.0,511.0,513.0
505.0,508.0,502.0,504.0,515.0
499.0,504.0,499.0,498.0,520.0
506.0,499.0,502.0,502.0,520.0
511.0,500.0,504.0,507.0,521.0
515.0,499.0,511.0,510.0,527.0
512.0,500.0,514.0,517.0,528.0
510.0,504.0,517.0,521.0,525.0
506.0,500.0,517.0,520.0,513.0
504.0,498.0,516.0,518.0,515.0
512.0,498.0,516.0,516.0,513.0
517.0,502.0,518.0,518.0,509.0
522.0,508.0,522.0,520.0,507.0
523.0,512.0,525.0,518.0,502.0
522.0,517.0,527.0,523.0,496.0
521.0,521.0,523.0,518.0,501.0
515.0,518.0,520.0,512.0,506.0
506.0,511.0,515.0,508.0,506.0
503.0,508.0,508.0,507.0,509.0
508.0,499.0,504.0,501.0,513.0
508.0,499.0,501.0,504.0,518.0
518.0,499.0,506.0,512.0,518.0
520.0,501.0,514.0,514.0,523.0
513.0,500.0,512.0,513.0,524.0
515.0,497.0,518.0,522.0,525.0
512.0,501.0,520.0,523.0,523.0
513.0,502.0,517.0,522.0,521.0
516.0,506.0,519.0,519.0,517.0
514.0,507.0,522.0,525.0,514.0
521.0,512.0,523.0,520.0,507.0
521.0,520.0,526.0,519.0,507.0
525.0,519.0,528.0,519.0,508.0
520.0,519.0,522.0,515.0,508.0
516.0,515.0,515.0,510.0,513.0
518.0,509.0,508.0,506.0,512.0
511.0,506.0,503.0,501.0,516.0
505.0,497.0,501.0,501.0,517.0
504.0,500.0,500.0,504.0,517.0
501.0,498.0,506.0,512.0,515.0
507.0,497.0,512.0,517.0,513.0
514.0,500.0,517.0,521.0,514.0
511.0,502.0,521.0,523.0,531.0
511.0,502.0,522.0,520.0,528.0
506.0,499.0,516.0,518.0,524.0
517.0,506.0,523.0,519.0,519.0
523.0,509.0,521.0,519.0,510.0
521.0,515.0,521.0,517.0,503.0
525.0,521.0,525.0,520.0,500.0
527.0,521.0,524.0,523.0,499.0
521.0,523.0,519.0,514.0,503.0
514.0,515.0,512.0,512.0,511.0
508.0,505.0,504.0,502.0,514.0
503.0,505.0,499.0,500.0,514.0
502.0,503.0,499.0,504.0,519.0
503.0,500.0,500.0,507.0,521.0
506.0,498.0,506.0,515.0,522.0
508.0,500.0,513.0,518.0,519.0
516.0,503.0,514.0,520.0,518.0
511.0,504.0,516.0,520.0,514.0
506.0,499.0,515.0,517.0,516.0
511.0,496.0,514.0,517.0,514.0
519.0,506.0,517.0,518.0,514.0
528.0,506.0,517.0,517.0,510.0
523.0,511.0,526.0,522.0,506.0
524.0,524.0,524.0,520.0,506.0
520.0,522.0,520.0,513.0,508.0
514.0,520.0,515.0,511.0,507.0
508.0,511.0,506.0,504.0,509.0
504.0,510.0,503.0,503.0,508.0
499.0,503.0,499.0,501.0,514.0
499.0,497.0,497.0,504.0,518.0
501.0,499.0,502.0,508.0,522.0
503.0,498.0,508.0,514.0,519.0
507.0,500.0,515.0,522.0,521.0
511.0,506.0,518.0,524.0,515.0
511.0,504.0,517.0,527.0,514.0
511.0,499.0,516.0,521.0,515.0
513.0,508.0,520.0,522.0,513.0
516.0,508.0,519.0,517.0,517.0
519.0,512.0,523.0,516.0,520.0
520.0,519.0,523.0,518.0,510.0
524.0,520.0,525.0,520.0,502.0
524.0,520.0,519.0,517.0,499.0
520.0,519.0,515.0,513.0,505.0
511.0,511.0,504.0,507.0,511.0
502.0,505.0,497.0,503.0,514.0
499.0,500.0,498.0,502.0,518.0
502.0,499.0,501.0,506.0,521.0
503.0,497.0,504.0,510.0,522.0
509.0,501.0,514.0,516.0,524.0
510.0,499.0,515.0,520.0,520.0
514.0,502.0,518.0,523.0,515.0
516.0,501.0,516.0,523.0,514.0
514.0,499.0,514.0,519.0,513.0
518.0,504.0,517.0,519.0,516.0
518.0,510.0,521.0,517.0,515.0
522.0,512.0,521.0,517.0,514.0
525.0,517.0,523.0,518.0,505.0
522.0,519.0,523.0,518.0,506.0
522.0,517.0,517.0,516.0,504.0
515.0,516.0,511.0,507.0,508.0
510.0,509.0,506.0,503.0,517.0
503.0,502.0,499.0,501.0,519.0
500.0,500.0,500.0,503.0,521.0
500.0,499.0,504.0,508.0,525.0
502.0,498.0,506.0,513.0,528.0
501.0,500.0,512.0,518.0,526.0
507.0,501.0,516.0,521.0,525.0
509.0,504.0,515.0,518.0,519.0
510.0,499.0,518.0,518.0,511.0
514.0,502.0,518.0,520.0,506.0
513.0,505.0,518.0,520.0,506.0
516.0,510.0,521.0,523.0,513.0
520.0,518.0,524.0,518.0,510.0
523.0,523.0,525.0,518.0,510.0
524.0,520.0,526.0,516.0,510.0
521.0,517.0,515.0,504.0,514.0
510.0,512.0,509.0,504.0,522.0
512.0,508.0,506.0,503.0,519.0
506.0,507.0,501.0,501.0,520.0
506.0,503.0,498.0,503.0,522.0
512.0,499.0,500.0,511.0,519.0
509.0,500.0,511.0,518.0,522.0
508.0,502.0,512.0,517.0,514.0
507.0,497.0,513.0,520.0,514.0
509.0,497.0,515.0,518.0,513.0
512.0,501.0,514.0,516.0,512.0
510.0,502.0,517.0,518.0,510.0
509.0,504.0,518.0,515.0,510.0
514.0,509.0,521.0,516.0,510.0
520.0,514.0,524.0,516.0,504.0
522.0,519.0,527.0,519.0,498.0
522.0,518.0,520.0,513.0,500.0
515.0,514.0,512.0,509.0,506.0
508.0,509.0,507.0,505.0,510.0
499.0,502.0,501.0,500.0,517.0
499.0,499.0,497.0,501.0,520.0
505.0,501.0,501.0,506.0,520.0
511.0,502.0,512.0,514.0,515.0
513.0,503.0,511.0,515.0,513.0
513.0,501.0,516.0,522.0,516.0
516.0,498.0,517.0,520.0,514.0
511.0,501.0,517.0,520.0,523.0
511.0,501.0,519.0,520.0,516.0
512.0,503.0,519.0,519.0,511.0
516.0,514.0,523.0,521.0,506.0
518.0,513.0,526.0,522.0,505.0
524.0,520.0,525.0,520.0,509.0
526.0,522.0,524.0,518.0,503.0
523.0,523.0,520.0,513.0,498.0
514.0,516.0,514.0,509.0,508.0
507.0,511.0,508.0,504.0,509.0
503.0,498.0,501.0,501.0,515.0
501.0,499.0,500.0,501.0,518.0
508.0,502.0,505.0,509.0,517.0
506.0,494.0,508.0,509.0,519.0
507.0,499.0,515.0,522.0,523.0
512.0,502.0,519.0,525.0,522.0
509.0,501.0,518.0,521.0,528.0
511.0,502.0,518.0,518.0,524.0
521.0,506.0,519.0,516.0,518.0
517.0,504.0,518.0,515.0,510.0
516.0,509.0,521.0,518.0,507.0
523.0,515.0,526.0,519.0,502.0
524.0,519.0,526.0,513.0,500.0
525.0,519.0,522.0,516.0,501.0
518.0,515.0,515.0,511.0,500.0
517.0,512.0,509.0,507.0,503.0
512.0,509.0,507.0,508.0,509.0
502.0,502.0,501.0,507.0,512.0
501.0,500.0,499.0,501.0,512.0
502.0,499.0,504.0,507.0,521.0
505.0,501.0,509.0,515.0,524.0
508.0,499.0,516.0,519.0,527.0
514.0,501.0,521.0,521.0,522.0
511.0,503.0,520.0,522.0,524.0
512.0,502.0,516.0,516.0,516.0
519.0,505.0,519.0,519.0,516.0
520.0,509.0,521.0,518.0,509.0
520.0,512.0,521.0,521.0,503.0
527.0,521.0,524.0,519.0,501.0
528.0,522.0,526.0,520.0,499.0
526.0,516.0,524.0,515.0,501.0
524.0,516.0,517.0,514.0,501.0
509.0,511.0,507.0,509.0,506.0
505.0,509.0,500.0,501.0,516.0
502.0,500.0,498.0,500.0,516.0
496.0,497.0,498.0,502.0,527.0
501.0,497.0,503.0,504.0,523.0
506.0,502.0,508.0,515.0,521.0
509.0,500.0,515.0,520.0,522.0
512.0,502.0,518.0,521.0,519.0
511.0,500.0,514.0,519.0,522.0
509.0,500.0,517.0,516.0,519.0
514.0,505.0,518.0,518.0,515.0
519.0,510.0,522.0,519.0,510.0
518.0,512.0,522.0,517.0,510.0
523.0,517.0,524.0,518.0,506.0
527.0,518.0,523.0,518.0,498.0
519.0,517.0,518.0,514.0,500.0
512.0,515.0,511.0,511.0,507.0
510.0,511.0,506.0,506.0,506.0
502.0,504.0,499.0,502.0,516.0
501.0,501.0,500.0,503.0,522.0
505.0,502.0,502.0,504.0,520.0
509.0,500.0,510.0,517.0,522.0
510.0,500.0,511.0,518.0,519.0
515.0,498.0,515.0,520.0,518.0
514.0,501.0,517.0,521.0,517.0
509.0,502.0,517.0,519.0,521.0
517.0,504.0,519.0,522.0,518.0
516.0,510.0,519.0,517.0,514.0
516.0,511.0,519.0,512.0,509.0
522.0,517.0,523.0,520.0,505.0
527.0,520.0,530.0,522.0,503.0
530.0,522.0,524.0,522.0,503.0
518.0,518.0,520.0,510.0,508.0
516.0,512.0,508.0,507.0,507.0
514.0,508.0,504.0,510.0,510.0
508.0,504.0,501.0,505.0,515.0
496.0,496.0,499.0,503.0,517.0
502.0,498.0,503.0,505.0,519.0
507.0,502.0,508.0,515.0,521.0
510.0,500.0,515.0,520.0,521.0
513.0,501.0,516.0,521.0,525.0
516.0,501.0,516.0,516.0,521.0
516.0,500.0,515.0,521.0,521.0
520.0,504.0,519.0,519.0,520.0
518.0,505.0,522.0,520.0,512.0
517.0,514.0,522.0,518.0,508.0
524.0,518.0,528.0,520.0,500.0
522.0,520.0,526.0,520.0,498.0
516.0,518.0,518.0,515.0,501.0
513.0,514.0,515.0,510.0,510.0
504.0,508.0,506.0,503.0,514.0
505.0,504.0,500.0,505.0,517.0
498.0,500.0,499.0,504.0,517.0
500.0,497.0,501.0,506.0,517.0
500.0,496.0,508.0,513.0,519.0
508.0,499.0,511.0,517.0,516.0
510.0,499.0,514.0,519.0,517.0
515.0,500.0,516.0,518.0,517.0
520.0,500.0,516.0,519.0,517.0
516.0,500.0,514.0,519.0,517.0
517.0,508.0,518.0,518.0,514.0
523.0,509.0,520.0,519.0,510.0
522.0,513.0,523.0,520.0,507.0
526.0,512.0,526.0,519.0,505.0
526.0,521.0,525.0,523.0,504.0
524.0,520.0,522.0,515.0,502.0
514.0,513.0,509.0,507.0,501.0
508.0,506.0,504.0,502.0,508.0
500.0,502.0,498.0,501.0,514.0
501.0,499.0,499.0,503.0,520.0
503.0,497.0,502.0,508.0,523.0
510.0,498.0,508.0,515.0,521.0
509.0,498.0,510.0,520.0,523.0
517.0,502.0,515.0,524.0,520.0
519.0,502.0,521.0,521.0,518.0
515.0,501.0,515.0,518.0,519.0
517.0,502.0,517.0,518.0,520.0
513.0,505.0,517.0,518.0,524.0
515.0,513.0,521.0,518.0,517.0
521.0,518.0,526.0,523.0,510.0
526.0,520.0,525.0,521.0,502.0
523.0,520.0,521.0,516.0,501.0
521.0,517.0,516.0,512.0,505.0
512.0,512.0,508.0,507.0,508.0
509.0,507.0,504.0,504.0,509.0
505.0,500.0,498.0,502.0,509.0
507.0,500.0,499.0,504.0,513.0
506.0,500.0,506.0,512.0,516.0
505.0,497.0,510.0,518.0,519.0
513.0,498.0,510.0,521.0,517.0
517.0,503.0,519.0,526.0,513.0
517.0,502.0,519.0,525.0,518.0
512.0,501.0,516.0,518.0,516.0
519.0,506.0,518.0,519.0,514.0
517.0,509.0,520.0,517.0,513.0
518.0,511.0,520.0,517.0,507.0
521.0,516.0,524.0,520.0,510.0
524.0,517.0,524.0,519.0,505.0
519.0,520.0,519.0,514.0,508.0
514.0,515.0,511.0,508.0,510.0
509.0,511.0,507.0,506.0,512.0
499.0,503.0,499.0,500.0,518.0
500.0,500.0,500.0,501.0,519.0
502.0,500.0,503.0,509.0,519.0
505.0,498.0,505.0,512.0,523.0
513.0,499.0,512.0,517.0,521.0
513.0,498.0,515.0,520.0,522.0
508.0,498.0,515.0,518.0,522.0
520.0,501.0,515.0,519.0,518.0
521.0,501.0,518.0,522.0,520.0
512.0,505.0,519.0,516.0,520.0
522.0,511.0,526.0,518.0,512.0
521.0,514.0,520.0,520.0,506.0
523.0,518.0,528.0,518.0,508.0
523.0,521.0,525.0,517.0,504.0
520.0,519.0,520.0,516.0,502.0
509.0,512.0,510.0,509.0,509.0
507.0,507.0,499.0,504.0,508.0
500.0,494.0,498.0,500.0,514.0
499.0,498.0,500.0,504.0,523.0
504.0,499.0,503.0,509.0,521.0
507.0,499.0,510.0,515.0,521.0
509.0,499.0,512.0,516.0,520.0
512.0,501.0,519.0,522.0,521.0
514.0,504.0,518.0,518.0,523.0
512.0,500.0,518.0,517.0,520.0
512.0,502.0,518.0,519.0,518.0
516.0,507.0,525.0,519.0,516.0
521.0,510.0,525.0,517.0,516.0
525.0,520.0,525.0,519.0,508.0
528.0,520.0,526.0,521.0,506.0
522.0,520.0,524.0,513.0,508.0
514.0,514.0,514.0,509.0,506.0
510.0,510.0,509.0,505.0,504.0
507.0,506.0,506.0,503.0,512.0
501.0,502.0,505.0,503.0,520.0
497.0,495.0,498.0,501.0,524.0
504.0,497.0,503.0,508.0,526.0
507.0,500.0,511.0,517.0,524.0
513.0,500.0,516.0,523.0,521.0
512.0,501.0,518.0,517.0,520.0
509.0,502.0,516.0,518.0,523.0
507.0,499.0,517.0,516.0,520.0
510.0,501.0,518.0,519.0,520.0
514.0,508.0,522.0,521.0,517.0
521.0,511.0,525.0,519.0,510.0
524.0,518.0,528.0,522.0,508.0
523.0,521.0,527.0,528.0,508.0
530.0,523.0,520.0,518.0,507.0
519.0,516.0,515.0,509.0,515.0
511.0,509.0,506.0,504.0,512.0
506.0,502.0,501.0,505.0,514.0
497.0,498.0,500.0,501.0,518.0
499.0,497.0,501.0,509.0,521.0
501.0,497.0,506.0,512.0,520.0
505.0,496.0,514.0,519.0,520.0
509.0,499.0,519.0,518.0,523.0
510.0,499.0,518.0,523.0,519.0
515.0,501.0,519.0,519.0,519.0
524.0,501.0,518.0,518.0,518.0
521.0,506.0,519.0,517.0,516.0
522.0,509.0,524.0,516.0,514.0
526.0,513.0,523.0,518.0,507.0
535.0,519.0,527.0,519.0,504.0
530.0,521.0,527.0,516.0,507.0
521.0,518.0,517.0,510.0,506.0
511.0,514.0,511.0,510.0,508.0
507.0,508.0,506.0,508.0,509.0
506.0,501.0,501.0,502.0,513.0
499.0,498.0,498.0,503.0,518.0
498.0,493.0,506.0,510.0,527.0
513.0,499.0,513.0,514.0,525.0
516.0,503.0,512.0,516.0,523.0
515.0,500.0,517.0,521.0,522.0
514.0,500.0,518.0,521.0,523.0
510.0,498.0,517.0,517.0,524.0
513.0,502.0,513.0,519.0,519.0
515.0,506.0,521.0,520.0,518.0
519.0,511.0,522.0,519.0,515.0
524.0,517.0,526.0,521.0,505.0
528.0,521.0,524.0,518.0,503.0
524.0,518.0,520.0,514.0,506.0
520.0,517.0,516.0,512.0,509.0
512.0,511.0,507.0,502.0,515.0
505.0,507.0,503.0,504.0,514.0
499.0,503.0,501.0,503.0,518.0
499.0,497.0,501.0,504.0,520.0
506.0,498.0,505.0,512.0,513.0
509.0,499.0,510.0,519.0,512.0
511.0,502.0,514.0,521.0,516.0
510.0,500.0,517.0,521.0,525.0
510.0,504.0,516.0,518.0,522.0
516.0,500.0,515.0,517.0,522.0
519.0,505.0,519.0,520.0,511.0
517.0,503.0,519.0,516.0,508.0
515.0,511.0,519.0,516.0,508.0
521.0,513.0,520.0,516.0,506.0
518.0,519.0,525.0,518.0,500.0
523.0,519.0,520.0,514.0,501.0
515.0,514.0,513.0,509.0,507.0
503.0,509.0,507.0,504.0,514.0
496.0,502.0,498.0,499.0,521.0
497.0,499.0,503.0,503.0,526.0
495.0,500.0,502.0,505.0,523.0
500.0,498.0,506.0,513.0,524.0
511.0,499.0,509.0,515.0,515.0
513.0,500.0,515.0,522.0,522.0
516.0,503.0,520.0,523.0,521.0
517.0,502.0,516.0,519.0,522.0
515.0,501.0,517.0,517.0,520.0
515.0,506.0,521.0,515.0,517.0
520.0,505.0,524.0,517.0,513.0
524.0,518.0,523.0,520.0,507.0
529.0,519.0,527.0,522.0,500.0
523.0,523.0,524.0,520.0,500.0
522.0,524.0,520.0,515.0,504.0
514.0,512.0,510.0,508.0,507.0
513.0,512.0,505.0,506.0,508.0
506.0,504.0,499.0,506.0,512.0
500.0,501.0,501.0,504.0,518.0
502.0,495.0,502.0,505.0,520.0
502.0,497.0,508.0,513.0,520.0
506.0,502.0,515.0,519.0,519.0
511.0,503.0,521.0,521.0,520.0
511.0,500.0,518.0,520.0,515.0
512.0,500.0,516.0,514.0,517.0
507.0,504.0,520.0,522.0,521.0
514.0,506.0,525.0,519.0,515.0
517.0,512.0,523.0,518.0,510.0
522.0,516.0,525.0,515.0,507.0
523.0,521.0,525.0,518.0,501.0
524.0,520.0,527.0,516.0,505.0
517.0,515.0,514.0,510.0,505.0
513.0,512.0,509.0,503.0,510.0
510.0,506.0,504.0,503.0,512.0
503.0,503.0,500.0,502.0,520.0
499.0,501.0,507.0,507.0,520.0
504.0,499.0,506.0,512.0,519.0
507.0,502.0,513.0,516.0,522.0
512.0,502.0,514.0,518.0,522.0
513.0,499.0,516.0,519.0,521.0
511.0,500.0,517.0,520.0,518.0
511.0,502.0,515.0,514.0,522.0
517.0,504.0,519.0,516.0,517.0
520.0,510.0,524.0,517.0,512.0
520.0,511.0,520.0,517.0,509.0
523.0,519.0,528.0,519.0,509.0
521.0,521.0,525.0,517.0,516.0
520.0,516.0,512.0,510.0,518.0
515.0,515.0,515.0,507.0,516.0
511.0,509.0,507.0,504.0,512.0
508.0,503.0,502.0,500.0,513.0
505.0,500.0,497.0,504.0,514.0
505.0,497.0,502.0,506.0,519.0
506.0,499.0,505.0,512.0,516.0
510.0,498.0,509.0,519.0,515.0
513.0,496.0,516.0,520.0,517.0
512.0,500.0,516.0,518.0,519.0
508.0,499.0,515.0,520.0,519.0
509.0,502.0,517.0,517.0,520.0
515.0,503.0,520.0,514.0,514.0
510.0,506.0,519.0,515.0,514.0
524.0,519.0,526.0,520.0,508.0
526.0,520.0,526.0,520.0,504.0
524.0,519.0,524.0,513.0,504.0
515.0,517.0,515.0,510.0,510.0
512.0,511.0,508.0,504.0,513.0
506.0,506.0,503.0,501.0,518.0
500.0,500.0,496.0,497.0,524.0
499.0,495.0,496.0,499.0,524.0
504.0,497.0,501.0,506.0,519.0
510.0,501.0,511.0,514.0,519.0
510.0,499.0,513.0,517.0,519.0
511.0,500.0,519.0,519.0,518.0
512.0,499.0,516.0,518.0,523.0
510.0,506.0,517.0,518.0,523.0
513.0,505.0,519.0,518.0,520.0
515.0,510.0,520.0,516.0,512.0
517.0,511.0,521.0,519.0,509.0
524.0,516.0,526.0,523.0,502.0
529.0,521.0,525.0,519.0,501.0
529.0,518.0,520.0,514.0,499.0
521.0,518.0,515.0,510.0,502.0
513.0,509.0,511.0,505.0,507.0
507.0,506.0,503.0,503.0,511.0
507.0,501.0,500.0,501.0,518.0
502.0,498.0,500.0,504.0,515.0
507.0,499.0,505.0,507.0,517.0
510.0,500.0,512.0,521.0,517.0
515.0,500.0,517.0,521.0,515.0
516.0,504.0,519.0,521.0,514.0
512.0,501.0,516.0,518.0,522.0
508.0,501.0,516.0,517.0,525.0
518.0,505.0,520.0,516.0,520.0
516.0,509.0,521.0,515.0,515.0
522.0,514.0,523.0,517.0,511.0
523.0,517.0,525.0,519.0,505.0
526.0,520.0,524.0,518.0,504.0
521.0,519.0,518.0,514.0,505.0
513.0,515.0,512.0,509.0,505.0
506.0,510.0,505.0,500.0,510.0
502.0,505.0,501.0,502.0,517.0
503.0,498.0,495.0,500.0,519.0
504.0,500.0,507.0,507.0,531.0
507.0,502.0,506.0,513.0,528.0
509.0,501.0,515.0,515.0,524.0
512.0,504.0,515.0,520.0,522.0
512.0,500.0,517.0,520.0,518.0
511.0,501.0,520.0,519.0,524.0
517.0,503.0,518.0,517.0,521.0
515.0,506.0,520.0,517.0,515.0
519.0,510.0,521.0,518.0,513.0
524.0,516.0,527.0,519.0,508.0
527.0,520.0,525.0,520.0,506.0
527.0,520.0,518.0,517.0,505.0
520.0,518.0,514.0,511.0,508.0
512.0,514.0,508.0,504.0,515.0
509.0,508.0,506.0,504.0,516.0
505.0,500.0,498.0,496.0,519.0
507.0,499.0,499.0,504.0,525.0
510.0,498.0,503.0,508.0,517.0
512.0,500.0,511.0,514.0,520.0
510.0,497.0,513.0,518.0,520.0
515.0,501.0,519.0,524.0,518.0
512.0,506.0,522.0,527.0,517.0
510.0,505.0,519.0,524.0,515.0
513.0,504.0,523.0,520.0,512.0
515.0,509.0,523.0,519.0,512.0
520.0,510.0,524.0,517.0,508.0
515.0,514.0,522.0,516.0,518.0
523.0,521.0,525.0,516.0,506.0
521.0,520.0,520.0,512.0,504.0
518.0,517.0,511.0,509.0,504.0
513.0,512.0,506.0,509.0,508.0
508.0,506.0,501.0,501.0,514.0
500.0,502.0,501.0,505.0,519.0
495.0,500.0,499.0,502.0,520.0
490.0,497.0,504.0,514.0,526.0
499.0,497.0,510.0,515.0,525.0
502.0,500.0,516.0,520.0,526.0
516.0,505.0,517.0,522.0,520.0
510.0,499.0,516.0,518.0,522.0
505.0,499.0,512.0,515.0,523.0
522.0,506.0,519.0,518.0,515.0
528.0,511.0,520.0,518.0,508.0
525.0,517.0,521.0,517.0,505.0
522.0,519.0,523.0,518.0,506.0
525.0,521.0,525.0,519.0,501.0
534.0,522.0,523.0,514.0,500.0
524.0,515.0,511.0,507.0,503.0
516.0,510.0,507.0,505.0,509.0
507.0,505.0,504.0,502.0,516.0
500.0,500.0,500.0,505.0,520.0
504.0,499.0,502.0,511.0,517.0
506.0,503.0,509.0,515.0,529.0
510.0,502.0,514.0,519.0,519.0
514.0,502.0,517.0,521.0,523.0
513.0,502.0,518.0,521.0,522.0
514.0,500.0,515.0,518.0,516.0
514.0,501.0,518.0,518.0,515.0
524.0,506.0,518.0,516.0,511.0
522.0,512.0,520.0,517.0,510.0
527.0,519.0,523.0,519.0,503.0
533.0,521.0,527.0,520.0,503.0
527.0,522.0,522.0,517.0,505.0
523.0,517.0,514.0,510.0,504.0
511.0,511.0,506.0,506.0,507.0
508.0,510.0,504.0,508.0,512.0
499.0,502.0,499.0,509.0,520.0
500.0,499.0,497.0,504.0,519.0
505.0,498.0,503.0,505.0,521.0
508.0,499.0,508.0,516.0,523.0
512.0,499.0,514.0,519.0,521.0
514.0,501.0,515.0,520.0,520.0
510.0,499.0,516.0,521.0,519.0
512.0,500.0,516.0,516.0,521.0
521.0,503.0,519.0,523.0,516.0
518.0,507.0,520.0,519.0,512.0
520.0,512.0,522.0,517.0,509.0
524.0,516.0,526.0,517.0,506.0
527.0,519.0,523.0,521.0,502.0
523.0,518.0,518.0,515.0,504.0
516.0,518.0,514.0,511.0,506.0
507.0,508.0,506.0,506.0,511.0
502.0,505.0,501.0,503.0,513.0
506.0,501.0,501.0,503.0,518.0
499.0,498.0,500.0,506.0,526.0
510.0,500.0,511.0,512.0,522.0
510.0,505.0,512.0,518.0,525.0
510.0,502.0,511.0,514.0,526.0
514.0,500.0,515.0,519.0,523.0
513.0,494.0,513.0,518.0,520.0
518.0,503.0,517.0,521.0,515.0
522.0,503.0,513.0,517.0,509.0
521.0,509.0,520.0,518.0,504.0
518.0,513.0,524.0,517.0,507.0
517.0,517.0,524.0,519.0,502.0
525.0,521.0,523.0,517.0,500.0
526.0,518.0,516.0,512.0,500.0
