CH1,CH2,CH3,CH4,CH5
511,497,477,534,435
508,495,474,533,445
504,500,481,520,475
500,503,499,513,518
499,513,521,505,554
504,520,539,501,583
505,517,543,498,581
510,513,542,496,576
509,510,543,492,576
520,510,541,493,573
517,506,533,495,559
518,504,529,504,533
520,501,518,511,504
525,502,504,524,469
526,501,495,530,444
525,500,488,536,430
519,497,478,534,428
517,499,477,534,435
505,493,470,524,452
498,500,482,517,493
490,506,503,511,531
484,513,526,505,562
487,514,541,499,580
495,513,543,496,571
495,508,540,495,572
488,506,539,494,578
507,504,541,494,575
534,505,535,498,555
522,500,524,505,522
518,500,514,515,489
521,500,502,527,459
528,500,492,531,444
548,504,484,536,430
531,499,478,532,430
521,498,473,532,436
511,498,474,522,466
502,505,492,518,502
503,512,510,509,536
503,520,534,505,571
508,517,540,499,580
511,515,543,498,575
509,510,539,492,579
514,509,542,497,575
513,506,542,497,563
514,503,531,500,537
517,502,519,505,510
525,499,506,518,477
528,500,496,529,446
526,503,489,535,434
519,499,482,535,428
512,496,477,534,432
504,497,475,529,444
498,500,477,519,474
497,507,500,513,514
501,514,522,506,549
508,520,539,504,578
513,515,542,498,577
512,513,540,496,575
513,509,542,496,579
511,510,544,498,574
508,503,536,494,558
513,501,528,502,531
509,501,516,510,506
511,500,506,523,470
513,500,492,531,449
512,500,487,532,436
506,497,479,531,439
527,502,475,533,435
518,498,474,527,453
508,502,486,518,486
502,513,506,513,526
505,515,526,503,558
507,516,540,500,582
512,514,543,498,578
510,512,545,496,576
514,510,542,495,567
513,510,540,495,573
511,504,533,498,556
509,499,523,505,528
512,500,513,517,495
520,503,499,528,457
518,501,491,533,442
512,500,486,537,432
502,496,475,534,434
508,497,475,530,434
505,497,476,522,463
497,503,493,515,499
511,512,512,509,531
505,517,532,504,566
506,517,542,498,582
520,517,543,498,571
519,510,542,497,581
513,512,543,495,577
516,509,541,499,570
513,503,531,501,543
522,500,521,509,513
525,501,509,518,478
526,499,496,531,449
523,499,489,536,438
520,498,479,535,433
513,497,473,532,439
510,498,472,526,439
499,497,479,524,475
498,503,495,514,509
498,512,518,508,550
500,517,538,507,579
503,512,542,499,576
507,513,542,500,576
501,508,540,495,574
499,507,540,494,571
504,506,536,496,558
501,503,525,502,534
514,499,516,510,504
522,497,505,523,470
517,498,491,530,449
536,502,487,537,439
532,500,478,534,438
522,500,476,532,436
510,495,472,525,450
505,505,485,520,480
502,507,504,510,520
507,516,521,505,554
510,517,541,500,581
507,512,540,496,578
511,509,541,495,581
512,510,541,497,574
512,511,542,496,563
509,501,532,497,552
517,503,525,505,522
524,503,514,517,489
525,500,502,529,468
523,501,490,532,452
520,497,484,533,436
512,495,475,534,435
511,494,473,532,437
504,497,474,516,460
497,502,488,511,498
494,509,510,509,535
494,515,531,505,568
502,516,541,496,582
502,513,540,495,580
499,507,542,496,584
510,512,543,491,576
514,508,538,495,568
508,502,532,499,545
510,501,521,507,520
515,501,512,519,489
521,499,495,528,458
520,504,490,534,444
520,498,481,535,433
525,497,476,531,430
524,498,472,526,435
513,500,480,519,466
509,506,498,513,508
507,514,519,504,544
511,520,539,501,577
511,515,543,496,578
506,511,542,495,580
506,509,543,493,580
511,509,543,495,574
507,506,538,497,559
513,503,529,501,533
517,502,517,510,505
529,498,503,521,471
531,501,493,528,444
525,500,486,533,435
516,496,478,532,435
515,498,476,533,432
501,493,472,528,450
496,501,485,518,480
492,507,502,511,524
490,513,525,504,557
492,516,540,498,585
495,513,542,494,582
508,511,540,495,573
512,509,538,491,575
515,510,540,495,576
518,506,531,496,556
527,504,525,506,527
535,502,513,513,491
530,500,502,526,457
532,504,493,532,440
526,503,486,536,430
515,497,476,531,435
513,499,475,532,437
501,497,475,521,461
497,503,488,513,498
497,508,509,508,539
499,515,530,503,574
506,518,543,500,583
512,514,542,498,574
512,508,541,495,572
513,512,539,494,574
510,505,536,495,565
511,504,531,500,545
512,501,521,507,517
520,500,509,517,482
527,501,497,530,450
520,502,491,531,439
522,500,483,533,433
519,499,477,532,434
512,501,475,531,441
505,497,478,521,473
499,505,498,514,511
500,513,515,506,546
505,516,536,501,576
504,513,542,501,585
509,517,544,498,584
509,510,542,495,585
508,509,542,494,575
509,505,535,496,561
511,503,526,503,533
511,499,516,511,504
516,500,509,524,470
517,500,494,529,444
517,505,487,537,434
510,498,479,531,432
510,499,476,532,432
509,497,472,525,448
504,499,480,516,485
501,508,503,510,524
494,514,523,504,570
500,519,542,501,591
509,512,542,497,579
523,512,542,494,578
516,511,543,490,576
518,510,542,495,569
518,506,537,498,552
516,501,524,503,522
520,500,510,513,493
523,498,500,523,458
521,500,492,533,441
519,499,486,536,431
507,495,474,531,437
513,499,476,534,434
503,497,476,523,461
493,504,490,515,502
496,511,511,509,539
499,516,535,504,576
515,517,544,498,584
513,513,543,496,579
505,506,539,493,586
516,511,545,495,579
516,511,541,496,567
508,502,531,500,548
519,501,522,508,519
533,502,512,521,485
530,499,498,531,453
525,502,491,532,440
521,502,478,534,436
515,498,473,530,436
510,498,474,530,443
501,500,478,521,469
502,508,501,516,509
502,513,518,508,542
504,519,538,504,577
505,515,541,496,579
507,514,540,497,580
507,510,541,491,582
507,511,542,493,576
513,506,538,497,561
515,504,528,503,537
512,499,517,513,510
519,499,505,521,472
514,499,493,530,444
516,502,488,534,434
511,497,476,533,437
514,496,474,533,437
505,494,471,523,454
508,498,481,518,485
505,509,502,509,523
504,514,525,505,557
509,519,540,501,580
512,515,542,497,579
512,514,543,495,578
509,511,542,490,577
505,508,541,494,570
500,504,533,498,556
503,502,525,506,525
507,501,514,515,491
514,498,497,525,458
516,500,492,533,445
519,501,486,534,430
513,497,473,530,431
508,498,473,529,435
521,497,474,523,458
512,503,485,513,495
508,509,509,509,532
506,517,530,501,570
521,520,542,498,582
523,512,544,499,578
518,512,542,494,576
515,509,541,496,575
518,509,540,496,563
517,504,533,500,544
522,501,521,505,513
523,500,511,518,481
524,501,499,527,453
522,502,491,534,443
519,499,482,531,435
513,496,477,532,435
510,497,477,532,438
502,501,477,521,468
499,504,497,512,509
500,510,517,508,544
506,518,534,499,576
509,516,545,498,587
514,514,543,496,579
512,512,541,494,572
510,510,543,493,572
510,507,537,495,560
509,499,527,502,538
516,499,517,509,506
520,498,502,521,468
525,501,497,532,445
522,503,488,534,436
515,499,477,533,433
508,496,475,533,433
500,494,470,525,447
496,498,482,517,482
495,507,500,512,521
499,514,524,506,559
517,516,540,501,585
515,513,539,497,586
512,510,542,497,584
506,508,542,498,581
511,510,542,496,573
510,503,532,498,553
514,506,526,506,527
514,503,517,517,494
519,500,502,525,459
512,498,493,537,444
515,501,484,537,429
505,497,474,531,432
503,497,476,530,439
504,496,473,523,463
503,505,490,517,497
509,512,510,511,532
505,516,529,506,568
515,518,543,498,583
519,514,541,497,576
514,509,542,495,579
516,512,542,494,575
516,508,540,495,570
517,504,532,500,552
516,500,520,509,518
520,499,511,516,481
521,498,499,534,452
522,500,490,534,434
520,500,479,534,431
513,496,473,530,431
511,500,474,532,435
498,498,477,523,474
496,503,494,512,514
498,511,516,508,548
505,515,534,500,575
504,513,541,499,582
505,512,543,499,580
506,508,545,495,582
513,511,545,494,573
512,506,541,498,561
512,505,529,503,534
514,501,519,511,507
517,499,508,518,471
520,501,497,532,446
520,501,492,536,437
515,498,477,532,440
518,498,476,530,436
510,495,471,526,448
502,500,482,515,482
500,510,501,512,519
501,513,523,504,560
499,519,544,502,586
502,515,543,500,582
506,513,541,495,583
502,508,542,491,581
506,509,540,492,576
521,511,535,498,555
523,501,525,505,529
520,500,516,518,500
521,500,502,528,463
518,500,491,533,443
513,501,487,536,431
506,496,476,533,428
505,498,474,533,433
492,493,472,523,461
499,501,487,519,498
518,512,510,512,534
512,516,531,502,569
518,519,542,500,582
514,516,541,499,578
508,511,545,497,586
510,507,544,497,578
511,510,542,496,571
512,504,534,501,549
518,502,522,505,515
521,500,509,519,481
523,497,496,528,443
527,499,488,533,433
526,500,484,536,427
521,500,476,532,432
520,498,475,531,439
506,501,476,521,474
499,506,495,513,511
500,513,518,505,543
508,519,537,499,575
507,516,541,497,583
509,511,543,497,580
507,509,543,494,580
508,508,543,496,576
510,507,537,498,558
514,503,531,504,535
515,500,519,507,506
522,498,505,522,472
523,500,496,532,445
523,502,489,536,433
518,496,478,534,431
511,499,477,535,435
498,494,472,525,452
496,499,484,519,483
494,507,501,511,522
499,515,523,505,555
499,518,540,498,584
517,515,540,496,579
517,511,543,500,579
513,511,543,495,581
511,512,542,493,579
508,504,535,498,559
510,502,526,507,529
511,503,517,515,497
517,498,500,523,456
520,500,493,532,437
522,501,486,536,426
514,497,474,529,433
523,500,473,531,441
508,496,474,522,467
502,502,486,514,495
503,511,506,506,533
505,517,529,504,571
505,514,540,496,590
507,516,544,499,584
507,507,542,496,574
507,509,543,492,572
506,508,542,494,564
506,504,532,502,544
511,501,519,506,518
518,501,511,517,482
515,496,497,527,451
516,499,487,531,435
517,500,481,533,429
507,495,475,532,431
502,499,473,531,440
493,498,476,519,478
503,508,495,513,515
510,514,517,505,549
522,520,538,503,579
518,513,541,497,578
518,511,542,495,579
516,509,542,492,577
517,509,541,494,569
515,508,537,496,562
516,502,530,502,536
520,501,520,510,506
521,500,506,520,473
518,495,494,529,449
515,499,488,534,439
506,495,479,534,438
505,499,474,533,437
505,494,471,527,452
504,500,482,520,484
514,510,503,510,519
512,516,524,506,555
513,521,541,500,582
508,514,541,495,581
508,511,543,496,581
503,509,541,493,578
507,510,545,496,573
507,505,534,497,552
512,504,528,504,526
530,503,514,512,494
532,497,500,522,457
526,500,493,531,441
522,501,488,533,436
508,495,477,530,442
508,499,474,532,438
496,498,475,523,457
495,504,488,516,493
506,509,510,511,528
504,518,531,503,561
505,512,539,500,574
503,514,544,495,573
510,512,543,491,574
518,510,542,495,571
517,506,539,496,569
513,504,531,499,548
513,501,520,506,524
518,501,513,517,489
519,498,496,527,453
519,501,489,533,438
523,499,482,534,430
512,496,474,532,433
507,499,473,531,438
501,496,477,524,472
501,504,491,512,510
507,511,515,506,549
508,514,534,500,580
505,512,540,496,586
517,516,542,498,575
523,515,542,496,573
519,511,542,495,569
514,506,538,495,559
515,503,531,504,541
515,503,520,510,513
522,500,507,519,478
521,498,496,532,451
521,499,487,535,440
518,499,480,532,435
515,500,473,532,437
509,495,470,526,446
505,498,480,518,477
506,509,503,514,515
501,513,523,506,553
508,520,539,501,578
510,514,542,496,571
510,511,543,497,571
507,511,541,493,574
511,510,541,494,572
509,507,536,497,563
516,501,525,504,534
518,503,515,513,502
521,500,503,526,464
524,503,490,532,443
526,503,487,536,430
518,499,476,532,433
512,498,477,531,439
502,496,474,523,457
497,502,487,517,498
492,509,507,508,531
498,517,531,504,570
500,517,541,500,583
500,513,544,496,578
499,509,542,494,581
509,510,540,492,574
521,509,541,493,562
524,504,532,499,539
518,501,522,508,515
519,500,510,513,485
518,499,499,529,457
515,499,491,535,442
517,499,483,535,435
511,495,473,530,437
518,498,471,529,439
503,496,477,522,473
498,505,498,515,512
499,513,515,508,545
499,514,534,502,578
497,512,539,498,583
500,512,543,497,580
501,506,540,491,581
505,506,538,493,574
509,506,538,496,560
514,502,532,503,541
519,500,522,509,512
534,500,508,521,476
531,500,496,526,446
527,506,490,535,436
527,501,481,536,434
519,499,478,534,436
508,495,470,527,450
500,498,482,522,482
502,508,499,512,516
500,515,525,506,554
509,518,536,502,578
517,515,542,494,577
520,513,543,493,574
514,505,537,492,575
511,507,539,494,573
507,504,536,499,552
511,500,524,503,529
518,501,514,511,499
519,496,501,524,464
520,500,490,530,449
524,503,488,536,430
510,497,478,534,430
505,498,479,534,429
498,496,471,523,451
497,499,488,515,488
515,510,505,505,533
511,517,527,500,571
509,517,541,498,585
512,514,543,495,586
510,511,541,497,589
505,509,543,495,586
502,507,540,496,578
503,501,531,498,548
513,500,519,505,513
520,500,509,515,484
522,500,497,528,453
518,500,491,532,441
530,502,481,536,433
520,497,475,532,436
510,499,475,531,440
500,497,478,525,471
503,503,493,516,506
504,516,516,508,540
506,520,537,503,574
512,516,542,499,577
520,510,541,493,578
513,508,541,492,579
511,506,541,494,570
510,507,538,495,560
509,501,528,501,536
515,500,517,508,506
524,500,508,522,471
522,498,494,530,447
523,501,487,534,433
519,498,480,536,433
514,498,474,532,438
507,496,471,527,447
499,498,479,520,481
497,506,502,510,519
501,513,519,505,554
505,518,540,502,579
506,515,543,499,578
506,513,545,498,572
502,506,543,494,573
505,509,541,496,571
517,506,535,498,560
516,501,526,501,531
522,504,516,514,498
529,499,505,528,462
525,499,494,532,445
521,500,488,536,435
516,496,475,533,438
512,499,475,530,436
503,497,474,522,460
500,503,487,518,496
500,511,505,509,533
500,516,528,504,565
505,517,542,497,583
505,512,542,498,582
502,511,544,497,584
506,510,543,493,581
519,509,542,494,569
516,505,532,498,543
514,499,521,507,517
515,499,513,518,485
517,497,495,527,449
514,499,491,533,435
511,500,483,535,428
503,496,475,530,432
515,499,473,531,439
506,497,478,520,467
506,503,491,511,504
509,511,514,506,538
519,518,533,501,569
515,516,544,500,579
515,512,544,498,574
509,509,540,491,585
503,505,542,495,577
509,506,537,496,558
510,503,531,503,535
514,499,520,511,515
516,500,508,522,481
520,500,492,529,451
520,501,489,532,441
522,499,481,534,443
510,498,476,532,448
501,496,469,526,451
489,496,480,520,480
481,506,498,511,521
484,515,522,506,553
501,518,539,501,575
515,513,538,498,577
519,514,545,499,576
515,511,540,493,581
518,507,540,490,567
521,502,534,495,540
527,498,524,504,518
525,497,514,514,489
527,500,504,526,464
519,498,491,531,444
518,500,488,536,430
505,499,477,534,439
502,500,479,535,437
485,497,472,525,461
471,501,485,517,500
491,511,506,508,524
512,517,530,507,544
524,517,540,500,575
522,512,542,497,567
516,510,539,491,576
510,508,542,495,600
516,512,542,496,586
522,504,534,500,554
533,503,524,509,513
536,499,513,517,477
540,498,497,521,446
538,498,486,528,442
530,497,483,536,435
523,498,476,532,425
512,496,470,531,433
487,493,474,520,472
480,502,489,512,503
479,510,513,507,539
479,515,535,503,582
483,513,541,498,592
498,515,545,499,585
509,511,541,494,583
507,509,542,493,573
533,509,535,494,545
543,503,527,498,525
538,499,517,507,501
535,500,509,524,470
535,502,498,531,442
533,503,489,535,433
525,500,481,532,428
518,498,475,530,432
513,494,471,527,442
509,500,480,519,478
508,508,499,509,524
505,513,520,509,562
508,520,539,499,589
510,514,539,496,595
511,514,543,496,587
506,509,542,490,583
510,508,541,493,572
505,504,533,496,552
510,501,527,505,526
517,499,518,514,494
518,496,502,525,462
521,501,493,531,444
522,503,487,537,432
515,495,476,534,429
512,497,474,533,432
505,496,472,523,455
503,501,483,517,490
503,509,504,510,528
503,516,527,505,564
507,518,540,497,581
507,514,543,496,579
512,513,543,497,579
507,507,541,495,577
509,508,546,496,571
510,503,528,496,549
513,503,520,506,520
518,501,510,517,490
524,500,498,527,454
521,500,489,534,442
521,504,484,537,431
510,496,473,531,437
507,497,471,532,441
500,498,472,521,468
500,504,491,514,504
502,512,512,509,540
502,518,536,504,577
505,518,542,499,585
509,515,539,497,580
507,514,541,496,575
503,510,545,497,575
504,505,535,496,563
503,504,530,502,547
504,503,519,510,518
510,499,510,522,486
509,498,496,532,455
507,501,489,537,450
517,500,478,535,447
510,494,472,531,449
508,497,472,531,462
500,503,482,523,487
491,508,495,517,518
502,514,520,504,550
507,518,538,502,575
513,515,539,496,572
521,514,541,497,562
524,507,539,495,563
521,511,540,495,569
518,505,533,496,552
515,499,524,505,530
520,499,514,514,494
534,496,499,524,452
537,497,490,532,428
527,502,486,536,426
513,498,477,533,427
508,498,473,532,432
496,493,471,529,461
495,500,484,517,484
513,509,504,508,514
505,518,526,504,553
494,519,541,500,584
482,517,543,495,608
493,511,542,494,622
510,511,539,495,618
507,513,543,495,592
517,511,534,502,549
520,502,518,503,516
505,495,508,515,480
513,499,498,526,427
522,501,491,537,412
529,502,485,536,434
520,497,476,533,456
507,504,476,536,435
483,494,474,519,483
511,503,487,513,503
504,512,513,513,526
481,517,532,507,564
487,512,538,500,565
483,509,537,496,549
482,508,537,492,549
498,511,542,496,563
500,504,536,496,584
540,503,530,500,557
550,504,519,512,521
545,500,508,519,479
540,496,495,522,429
528,499,490,537,400
523,496,480,535,383
520,495,472,528,411
529,496,469,523,457
510,496,476,517,485
514,507,499,516,504
536,519,523,518,540
528,520,543,506,597
519,515,540,501,574
514,514,545,500,559
512,512,541,497,585
533,514,539,492,593
529,506,535,490,590
526,502,526,500,541
526,499,516,512,508
534,500,504,520,470
527,497,493,531,446
526,500,486,532,430
521,498,476,531,428
519,497,473,528,431
511,496,469,524,456
503,503,483,517,486
506,511,501,509,525
504,516,526,503,563
508,520,540,497,584
510,513,540,497,575
504,511,540,493,584
502,505,539,492,588
504,507,538,494,590
505,502,533,494,575
513,500,524,503,544
524,500,513,519,486
522,495,492,524,454
521,496,488,534,435
522,500,482,539,430
512,494,477,536,442
504,497,475,537,451
482,489,473,528,464
484,502,490,519,484
490,514,509,505,529
483,522,533,495,586
475,523,542,495,627
482,518,544,498,609
503,520,546,496,588
501,513,541,491,583
522,505,534,492,578
525,499,525,498,538
522,496,518,511,470
510,489,505,523,434
530,493,495,534,445
523,499,489,540,459
514,503,482,541,461
501,500,478,542,450
514,498,474,538,424
504,495,477,522,452
466,506,495,511,517
464,519,516,496,565
468,520,535,497,620
474,515,539,496,639
491,515,541,497,603
478,506,539,494,582
444,505,537,496,572
428,495,529,498,547
476,499,527,511,528
522,502,519,521,520
598,503,505,527,469
573,498,489,530,410
549,489,480,533,359
526,495,478,532,385
507,499,478,540,399
523,499,477,530,416
518,498,481,516,477
519,507,499,512,522
526,515,521,506,532
538,520,534,492,567
526,510,534,484,608
540,514,541,492,605
539,516,541,490,603
512,519,544,495,612
495,509,536,497,603
481,501,523,511,570
488,495,516,523,493
486,479,492,532,468
500,483,484,535,448
543,496,488,540,402
530,492,482,539,421
529,493,475,536,417
487,499,478,527,499
474,510,495,516,600
485,516,507,499,622
502,529,528,494,658
509,529,540,502,618
502,519,539,501,540
483,521,540,506,488
515,524,548,508,524
537,513,539,493,533
565,499,525,502,478
567,484,508,502,481
562,481,499,517,465
537,484,494,530,505
531,494,494,546,469
535,490,483,540,458
529,479,469,537,427
561,490,469,541,383
548,497,475,527,375
530,511,491,507,477
488,521,512,490,596
474,536,537,497,596
505,524,540,496,594
516,516,533,489,608
514,512,536,494,600
504,519,543,496,589
464,517,542,496,581
443,517,540,511,592
430,505,527,532,533
473,491,506,536,502
493,480,488,540,429
496,467,470,527,435
505,473,467,521,505
476,474,461,513,507
456,468,454,508,339
511,488,476,522,314
588,525,507,522,386
564,545,532,507,528
532,541,543,500,568
499,525,542,502,607
469,517,538,498,615
460,515,538,492,573
412,517,541,496,580
409,505,535,499,556
416,486,514,495,551
415,479,504,512,469
510,482,495,538,367
540,474,483,539,388
487,465,469,535,436
471,469,466,534,496
547,501,479,538,519
513,508,485,550,544
436,512,500,549,519
476,521,510,513,585
447,531,535,503,498
362,521,539,485,643
352,513,537,502,726
412,502,526,495,626
454,503,530,495,492
423,496,527,487,468
421,483,517,477,505
450,468,499,474,573
424,464,487,491,574
553,483,492,523,472
577,486,488,530,460
559,494,486,544,417
549,500,483,558,414
478,485,474,541,460
407,480,467,524,457
437,524,505,522,554
529,557,537,524,602
536,561,549,499,626
581,546,545,502,434
649,529,536,501,495
630,501,518,475,512
589,498,522,482,499
603,502,527,479,625
578,502,523,496,624
590,496,515,512,446
555,492,504,529,390
558,493,491,524,460
591,498,488,539,428
555,496,482,537,542
502,509,494,548,563
471,499,479,536,499
497,493,479,516,434
505,497,485,485,446
541,521,510,490,402
543,535,535,502,482
506,523,531,502,560
498,519,538,500,583
506,513,537,509,536
491,513,533,487,708
417,510,529,502,762
468,501,526,539,647
464,487,514,544,543
490,487,498,542,301
474,485,488,531,315
524,480,477,504,417
602,484,469,514,474
612,484,467,532,427
562,476,456,516,359
572,494,470,511,292
584,540,513,515,497
516,552,538,504,669
550,541,540,491,636
577,513,525,480,597
537,494,518,475,584
468,502,529,497,660
353,496,525,503,768
287,472,510,504,571
283,454,494,494,351
334,482,509,523,454
316,495,500,521,482
389,490,482,512,486
545,494,472,518,371
648,483,456,522,350
658,492,464,531,371
562,492,473,539,452
471,522,506,550,507
360,510,508,515,594
406,514,522,500,612
476,521,527,487,677
503,529,539,506,634
426,516,533,481,686
441,504,533,485,588
563,496,523,504,394
693,504,517,499,449
668,503,512,506,557
650,504,507,524,529
603,491,494,536,480
501,489,488,540,526
484,492,479,540,432
459,493,480,540,409
388,505,486,545,493
304,490,473,513,506
332,492,480,486,443
350,496,499,504,517
364,509,521,526,638
478,511,530,511,596
541,497,523,477,576
500,498,518,457,557
514,518,530,479,615
427,499,526,504,404
519,488,509,500,466
607,501,510,510,422
705,507,505,530,419
698,518,504,538,469
665,513,491,556,428
643,485,465,528,461
646,483,459,527,376
601,497,469,514,403
547,514,487,512,492
507,520,498,502,617
521,508,508,507,663
573,517,525,506,512
610,529,540,513,454
548,532,549,501,614
454,524,544,494,636
458,518,538,488,617
526,504,517,491,556
560,499,510,507,496
588,492,499,517,451
571,484,486,515,439
581,480,470,515,431
556,484,472,536,410
535,487,468,537,421
516,495,471,535,417
512,496,473,520,418
484,507,491,509,509
461,529,512,507,660
465,546,538,502,760
494,522,532,489,680
530,511,531,499,619
520,501,525,492,531
488,504,533,499,516
510,507,531,502,516
515,506,526,505,460
498,500,517,519,457
448,481,488,512,503
493,481,478,525,403
590,495,478,526,371
537,493,473,533,421
491,491,467,531,395
417,488,465,526,445
372,490,470,511,528
344,495,494,510,536
413,516,518,507,648
411,523,535,506,635
398,509,536,506,491
537,528,536,485,549
644,538,540,494,540
591,520,537,489,620
570,508,530,502,567
535,501,525,508,415
538,496,508,523,457
532,487,491,541,488
526,497,493,552,683
522,508,490,561,588
530,498,476,550,424
466,491,471,542,350
419,479,456,493,505
443,495,482,505,374
423,513,502,508,496
461,511,521,489,519
590,518,530,491,487
572,516,533,479,578
601,508,532,488,583
542,503,535,495,564
384,490,524,493,526
295,475,511,497,450
401,489,513,513,456
582,517,522,530,449
607,522,509,546,484
588,503,486,528,480
613,505,479,521,389
646,504,475,527,433
552,490,466,526,583
528,493,468,516,594
478,492,485,508,480
413,502,504,495,587
429,524,535,496,557
461,537,546,503,569
492,545,553,512,667
500,519,538,484,760
520,502,533,484,612
555,507,534,510,400
524,495,520,517,425
533,498,513,530,369
517,496,502,528,439
578,495,486,514,541
635,516,492,529,408
599,513,490,554,368
528,486,471,526,398
485,478,457,519,416
443,484,470,510,519
490,497,488,496,569
521,517,517,499,670
524,529,539,516,706
541,514,538,500,588
589,513,535,482,511
551,515,539,485,534
537,522,542,486,569
479,509,537,501,587
508,510,528,507,519
595,502,512,529,527
624,498,499,547,446
524,475,478,560,226
504,487,478,525,357
519,488,472,516,416
498,507,480,521,473
456,506,475,513,476
448,511,489,511,446
482,509,503,506,472
453,505,516,486,637
479,516,533,492,600
500,518,540,495,570
553,519,545,498,583
531,522,543,498,614
506,513,541,504,555
493,505,531,517,456
514,493,520,512,490
556,478,500,506,487
498,471,479,514,541
543,499,487,531,462
551,502,479,542,412
497,501,476,536,468
505,508,479,541,477
440,496,475,527,443
444,492,482,503,475
480,509,505,501,501
482,515,528,494,721
540,526,542,513,769
427,503,533,512,685
480,500,532,493,410
541,519,543,499,398
566,520,537,488,490
548,521,533,499,523
533,521,529,526,507
510,495,510,537,404
486,491,490,525,424
587,492,477,522,513
558,514,490,567,551
549,486,465,549,454
578,484,465,527,349
532,489,473,498,442
427,489,489,498,538
348,503,511,489,577
321,520,536,498,628
283,516,538,485,640
499,528,548,497,598
723,518,539,502,529
578,497,533,493,538
440,494,527,486,572
381,496,530,509,515
435,492,512,521,515
622,492,493,524,485
700,502,485,518,455
572,499,481,525,441
446,483,463,522,392
490,484,467,530,365
611,503,470,524,362
639,527,494,529,338
567,525,512,527,457
538,531,534,514,609
519,516,539,508,640
560,512,540,502,540
596,527,546,494,541
501,504,533,492,499
477,511,537,479,597
476,507,533,503,556
473,503,521,500,581
542,508,515,513,542
549,501,500,525,489
498,500,487,530,479
551,499,478,540,505
525,488,466,531,596
488,474,457,518,496
492,493,472,529,424
599,533,502,522,585
545,525,517,505,520
470,513,531,498,500
449,511,537,492,480
480,517,543,498,549
443,513,542,495,629
512,510,540,496,608
486,496,530,493,533
517,507,531,505,478
533,508,524,521,503
556,508,512,533,423
517,492,491,522,429
552,497,484,528,439
564,496,478,536,470
564,495,474,540,432
509,486,468,529,441
462,493,475,519,448
432,500,498,504,522
471,514,520,497,626
469,515,532,489,684
542,530,551,513,596
513,522,546,517,465
522,512,550,520,452
601,509,541,488,531
541,508,535,491,530
474,501,528,512,499
405,487,515,536,452
378,474,492,520,453
511,495,488,524,463
655,521,491,533,375
640,512,487,527,404
595,500,473,517,439
531,481,465,506,542
466,495,489,522,526
508,513,511,515,557
489,517,530,496,595
529,525,545,492,530
515,518,544,490,594
469,513,544,490,620
467,509,543,489,617
519,510,544,494,561
531,506,537,503,520
478,498,524,508,539
456,490,510,515,477
529,490,493,523,453
587,506,493,536,453
508,496,482,536,463
425,480,473,536,507
417,475,465,538,504
491,490,475,531,451
537,512,497,503,473
548,541,535,516,495
500,540,552,520,599
502,512,540,498,667
586,516,541,491,624
602,513,539,487,525
526,502,537,490,425
467,492,534,496,546
490,499,527,498,550
517,500,518,506,519
573,501,508,521,443
566,499,490,526,401
578,499,487,533,411
548,505,483,536,400
519,511,486,545,422
453,501,484,541,492
435,500,485,518,514
480,498,493,499,507
554,511,512,498,545
534,523,540,504,564
508,520,543,489,634
535,519,550,497,562
535,502,531,486,583
482,506,543,500,442
511,502,534,503,458
519,503,524,503,557
548,514,526,517,567
534,492,505,540,460
583,494,487,530,438
596,497,482,523,481
568,501,480,519,466
473,491,473,533,460
404,484,468,526,416
419,489,476,509,530
461,500,500,494,601
512,525,531,494,571
472,507,540,496,550
525,520,546,496,571
531,524,547,494,620
540,523,548,492,596
516,511,544,490,579
470,510,543,512,508
484,506,526,514,490
515,505,516,516,540
512,496,503,534,476
519,494,491,538,424
543,494,477,537,362
574,488,468,525,419
581,500,478,530,539
480,493,477,528,571
467,491,487,516,465
494,508,515,522,413
455,516,535,495,562
504,522,545,490,556
501,518,547,493,594
449,510,543,493,584
525,526,551,499,522
553,520,545,499,529
544,501,528,502,549
573,499,518,506,532
542,495,502,518,477
553,496,495,529,436
556,502,487,534,395
555,503,481,536,403
519,491,474,533,433
472,487,469,523,437
451,491,481,518,512
485,510,502,515,500
532,520,524,502,562
504,524,541,496,613
472,516,541,494,586
463,513,545,498,606
509,507,542,502,566
526,509,544,501,536
494,503,541,509,520
460,493,521,493,578
565,505,516,498,506
585,504,506,530,433
529,501,495,538,471
517,507,492,530,435
506,492,480,538,422
460,488,471,532,429
468,495,479,533,455
491,504,490,523,468
573,531,514,511,557
588,532,531,507,582
556,528,541,497,626
478,507,540,488,593
472,514,543,490,594
521,511,543,493,606
564,511,544,500,552
501,492,525,492,500
523,491,516,504,453
515,489,504,514,510
538,492,493,533,435
564,505,492,530,515
521,508,493,537,540
431,487,468,533,472
413,487,471,545,372
446,505,485,531,443
522,523,504,529,471
473,516,521,516,523
412,498,525,493,532
493,516,536,484,543
591,521,542,489,576
585,516,542,509,631
543,514,545,510,659
504,500,530,496,520
537,502,525,477,523
569,501,515,497,497
567,499,505,507,525
564,501,496,523,450
552,500,491,537,411
544,501,483,535,425
516,495,475,531,421
470,492,471,526,458
456,501,482,525,438
490,511,505,520,481
478,516,524,513,542
491,525,544,496,531
533,523,548,498,521
567,517,543,490,558
536,511,538,489,577
526,512,543,494,606
531,497,527,489,608
507,498,528,503,557
502,501,516,512,538
507,494,500,527,473
549,499,493,538,429
523,502,488,540,470
497,495,478,533,454
427,492,473,538,447
389,490,472,522,500
417,499,484,510,497
478,514,507,498,537
550,533,537,505,525
563,526,546,505,557
599,515,539,493,564
564,501,535,498,534
514,501,536,489,551
510,500,536,488,572
521,501,533,494,601
535,501,524,510,516
570,508,516,525,434
557,505,504,533,462
529,500,493,537,504
510,495,483,545,422
478,495,477,548,370
426,486,470,527,443
419,495,475,519,455
425,506,495,511,496
436,513,517,505,541
549,528,540,506,542
556,522,542,501,608
555,507,540,497,600
548,501,537,490,573
587,518,542,488,542
573,508,535,495,544
566,506,528,491,582
547,504,519,504,561
520,496,507,517,495
521,499,498,535,396
525,507,494,543,413
527,497,475,533,394
522,493,470,520,463
506,491,467,525,467
495,497,479,520,488
489,505,496,511,508
512,516,523,510,543
531,527,541,502,566
507,517,545,501,594
468,523,548,505,607
411,513,547,499,551
384,505,539,495,575
439,504,534,495,605
534,500,526,516,509
583,491,507,523,408
609,502,503,514,427
569,502,497,526,474
525,504,488,533,476
504,507,485,543,462
472,493,477,541,423
474,487,471,519,507
496,497,482,512,509
596,517,505,508,513
603,516,524,503,579
527,508,534,492,694
539,510,536,492,570
546,512,541,494,511
495,507,540,488,541
509,512,545,503,506
508,503,538,511,525
521,503,525,522,497
545,510,516,517,469
513,504,497,526,441
516,510,497,537,464
501,510,493,548,424
480,491,476,537,479
437,482,469,545,425
472,497,475,524,432
514,518,502,522,476
461,506,514,497,558
491,516,533,494,587
465,501,530,498,545
481,504,534,514,538
542,513,537,498,537
619,517,536,480,597
566,509,537,477,658
522,506,534,506,681
484,495,522,516,620
521,497,507,521,428
564,506,496,523,304
573,504,486,528,409
542,497,481,531,452
537,496,474,530,420
514,492,471,525,468
498,498,478,511,512
456,507,504,520,479
466,514,523,507,571
489,519,540,501,562
524,523,543,496,577
464,519,558,503,659
451,501,539,487,645
495,520,545,485,546
497,507,534,493,524
535,502,525,501,577
507,497,512,511,503
504,490,500,527,388
520,497,494,539,414
619,502,484,538,387
578,495,477,536,402
537,493,471,533,415
504,492,468,522,441
496,498,483,509,487
496,504,502,509,523
512,517,526,504,599
541,526,544,499,592
531,519,545,492,595
531,514,544,492,598
533,511,539,492,562
493,508,542,492,556
494,505,535,497,540
490,503,526,513,527
534,501,514,521,493
542,496,496,522,504
541,502,490,532,419
534,502,483,537,401
514,493,476,536,415
496,494,472,534,425
479,492,475,530,469
482,503,491,516,522
457,510,513,504,573
465,515,530,494,607
474,508,536,491,583
550,523,545,500,557
505,517,546,497,544
484,512,544,501,556
529,507,537,493,569
539,503,531,493,560
520,502,521,510,531
556,500,508,522,464
547,495,494,529,459
537,499,486,534,431
523,497,482,538,439
507,494,474,531,430
518,497,473,522,439
528,496,479,519,468
520,509,499,509,554
501,522,524,509,591
488,526,546,504,568
492,517,544,495,592
498,510,539,490,573
510,504,536,489,555
511,509,538,489,569
519,505,536,498,554
500,506,532,508,529
504,501,518,516,495
513,496,504,524,473
525,495,491,532,418
531,495,485,533,404
538,495,476,533,435
526,494,473,533,447
504,493,474,530,467
493,503,487,522,505
489,515,505,507,542
528,527,527,499,565
548,531,544,501,568
551,515,538,492,598
493,503,541,491,568
468,503,543,494,563
499,506,540,492,576
523,502,533,496,550
526,501,524,508,518
515,499,514,520,485
519,495,500,529,450
521,499,491,535,435
521,498,485,539,426
506,491,469,533,434
510,498,474,531,433
523,499,479,521,464
508,503,492,512,506
499,515,515,509,544
513,523,536,499,580
528,522,540,496,596
510,517,544,497,585
498,507,542,493,577
499,505,539,488,570
504,504,538,494,562
529,505,531,502,529
517,499,520,510,506
513,498,508,523,473
525,497,500,533,448
537,504,494,538,430
524,503,482,538,425
508,498,477,533,439
501,497,472,529,448
491,501,482,522,476
505,509,497,512,512
508,516,520,504,550
513,522,539,499,585
513,516,542,495,585
513,514,544,499,584
509,513,543,488,582
510,515,544,494,570
509,507,538,496,556
509,498,526,505,536
526,498,516,511,505
534,500,506,526,470
538,505,498,535,445
524,511,496,543,440
502,503,485,540,433
498,495,473,532,437
506,489,470,521,451
521,501,486,516,503
514,510,506,505,537
509,518,528,503,570
503,517,537,499,573
512,514,542,498,566
513,512,542,492,580
508,509,543,489,581
502,508,541,490,578
506,505,531,498,555
511,500,522,502,524
530,502,513,516,492
533,498,501,530,453
526,500,492,536,439
523,501,484,536,425
516,495,474,531,429
513,495,471,531,434
509,497,477,519,461
505,507,494,513,503
498,517,515,507,539
501,521,532,500,575
509,518,541,494,576
517,516,544,494,580
517,512,543,491,583
506,509,541,490,597
509,508,536,492,574
511,501,530,497,547
517,498,521,507,512
525,499,508,521,474
527,498,496,532,444
525,498,492,537,439
520,498,482,535,437
511,495,476,529,444
509,494,474,530,452
501,497,479,519,479
501,510,501,514,516
503,518,522,507,554
504,521,539,499,586
506,518,538,494,587
506,515,544,495,589
509,512,540,491,590
514,512,543,492,583
514,507,537,496,561
517,502,528,504,533
520,499,518,511,505
523,495,505,525,470
524,497,494,532,448
526,501,486,537,434
527,500,481,539,426
516,492,472,533,427
504,495,471,527,448
499,502,486,517,484
498,512,509,511,532
500,521,528,504,573
502,518,539,501,595
509,516,545,498,586
514,517,549,500,584
506,509,542,499,587
510,510,543,499,578
513,505,534,498,552
522,501,524,505,526
530,501,516,514,491
523,496,502,523,458
524,500,489,529,450
527,504,485,535,431
519,496,476,533,433
512,500,472,528,434
506,497,477,519,463
501,503,488,509,505
504,511,512,502,546
509,522,530,497,587
506,516,538,492,597
510,513,540,492,590
514,515,538,486,588
506,512,537,490,590
510,509,537,492,578
510,503,526,498,550
520,504,523,505,517
526,499,513,523,478
529,499,502,535,445
527,498,491,540,432
525,497,480,537,424
516,494,474,534,429
509,495,473,531,438
506,498,484,524,472
499,507,501,510,521
503,516,520,504,555
513,520,539,500,586
513,508,543,498,588
512,506,543,499,583
509,504,537,493,584
508,502,536,492,584
510,496,530,495,562
514,491,521,506,534
521,495,513,512,503
525,501,501,524,464
526,508,497,535,441
527,514,494,538,427
521,507,487,538,423
514,504,477,532,429
505,501,477,524,449
501,508,490,517,483
502,516,512,511,525
504,522,530,502,565
507,521,545,497,587
510,518,548,495,584
512,517,546,495,579
511,509,542,491,579
510,506,543,496,570
516,497,532,498,551
519,497,522,505,521
522,499,514,515,487
527,496,497,528,454
527,501,491,534,431
526,507,487,539,426
520,509,484,533,427
511,505,480,531,433
505,503,483,522,460
497,505,496,518,500
498,514,516,507,543
503,521,539,499,572
507,519,547,494,585
512,516,549,493,582
517,515,549,494,577
508,510,545,490,578
511,508,545,493,570
517,506,533,498,540
522,500,521,506,509
528,500,510,519,473
533,501,501,530,440
534,503,492,535,425
529,501,485,537,417
521,497,478,534,420
509,493,474,529,439
503,501,483,518,475
497,512,505,513,513
505,517,527,504,553
506,524,546,499,583
512,517,548,495,587
514,515,550,495,585
512,513,546,491,587
511,511,547,491,582
513,510,542,496,561
516,503,533,503,533
522,502,522,512,502
533,501,508,525,459
533,501,498,531,433
521,503,493,540,427
514,499,480,535,428
519,496,476,533,432
508,495,477,527,454
495,505,493,518,492
499,508,507,505,529
502,517,531,501,569
506,519,550,498,584
508,515,552,496,583
510,513,550,493,589
508,509,550,493,585
511,509,549,494,578
512,504,542,497,554
513,503,532,504,526
520,502,521,515,492
526,500,505,526,452
526,500,497,533,435
524,502,489,537,424
518,498,481,533,427
513,497,478,529,432
499,497,484,522,465
495,505,498,513,503
501,513,520,506,545
506,513,541,499,576
506,515,551,497,587
511,517,555,497,582
511,516,554,493,584
509,508,551,491,577
511,506,549,494,566
511,505,541,499,545
516,503,529,511,516
521,503,519,521,481
526,504,501,529,449
524,502,497,538,436
522,502,486,535,428
514,500,485,532,435
507,497,479,528,444
501,499,490,521,478
498,507,513,513,518
505,516,533,507,552
507,521,555,500,582
508,514,554,493,578
511,516,555,495,576
511,512,554,493,576
508,509,549,492,574
511,505,547,497,558
517,504,537,504,528
522,503,527,513,498
523,501,515,526,464
523,504,506,532,445
519,502,499,539,435
515,501,492,534,429
505,498,486,532,439
497,500,487,526,458
495,501,499,518,492
505,510,522,509,526
505,516,542,504,563
508,517,554,500,579
510,515,555,494,577
515,515,555,496,575
512,510,554,494,576
510,513,554,497,563
519,508,547,504,543
515,505,537,508,520
522,506,527,516,489
523,502,515,528,456
521,501,505,531,443
528,502,506,537,432
525,499,499,538,427
506,497,492,535,433
495,500,498,527,466
495,505,509,513,506
497,512,529,502,547
500,519,546,498,577
505,519,553,495,587
511,517,556,496,580
511,515,554,493,579
507,509,550,490,574
511,509,548,494,566
510,506,541,501,544
514,504,533,510,511
520,501,527,523,478
524,500,514,531,445
526,504,510,540,430
520,503,505,540,429
512,500,496,532,434
505,498,496,530,445
500,501,501,521,474
499,510,523,513,513
500,515,538,507,551
504,520,552,497,584
507,513,553,494,588
509,516,553,494,582
509,512,552,491,583
507,509,551,490,578
511,508,547,497,560
512,504,537,502,535
516,502,530,511,501
521,500,524,527,465
522,497,513,534,441
524,500,509,540,428
517,501,505,540,427
511,500,500,534,431
506,497,497,527,450
502,503,510,518,485
500,515,528,511,531
497,517,542,500,571
504,520,557,495,587
508,516,556,496,583
511,515,555,494,579
508,509,553,493,574
508,509,550,493,572
509,505,542,501,555
515,502,539,508,525
520,502,531,520,488
525,500,514,530,452
524,500,512,538,435
518,502,509,539,425
515,501,502,542,430
510,500,497,532,438
500,499,500,524,468
494,503,512,516,508
494,512,532,506,548
500,519,553,500,584
510,518,554,496,588
513,516,554,495,576
515,513,558,494,579
509,510,555,490,578
515,509,552,496,564
515,505,548,502,541
514,503,536,513,511
517,501,524,518,479
519,501,512,537,452
523,499,505,539,436
523,502,498,539,427
513,499,491,536,426
507,497,487,529,435
498,500,496,522,472
497,509,514,509,511
501,516,537,504,553
504,519,553,496,590
506,514,555,494,590
513,515,560,494,584
510,512,557,492,582
506,508,554,493,582
509,506,550,499,563
518,504,541,506,530
520,499,531,514,498
519,500,517,530,463
525,502,506,537,437
522,505,502,540,427
512,501,496,537,429
514,499,487,533,430
503,494,485,525,455
497,502,500,514,486
498,510,521,508,528
499,517,540,501,568
504,518,556,496,586
505,516,554,494,583
503,511,557,495,585
501,512,556,493,585
504,511,554,493,576
504,501,545,499,557
508,501,538,507,528
519,502,527,521,494
531,503,512,531,455
534,502,505,539,437
530,504,499,540,425
522,502,489,537,428
512,494,484,533,435
503,493,489,524,462
498,503,501,513,501
505,513,525,507,537
508,518,546,500,572
509,515,553,497,588
513,514,555,492,585
512,514,556,493,588
507,509,553,490,586
511,508,551,494,573
515,502,542,503,543
519,502,533,510,514
526,501,522,526,477
524,497,507,535,448
521,500,500,535,432
516,501,491,538,427
511,497,485,535,431
500,495,483,530,442
491,501,490,521,475
488,505,509,513,520
498,515,529,503,555
497,521,547,497,589
491,514,553,494,592
500,515,552,493,591
501,513,553,494,591
505,508,549,490,583
510,505,545,492,568
518,504,538,504,539
537,501,527,516,499
545,501,515,528,458
535,499,504,537,432
538,501,498,543,420
526,497,488,538,418
523,494,481,533,425
512,495,480,525,448
506,503,494,517,484
506,515,515,510,523
507,517,532,502,569
511,522,550,499,586
517,518,548,495,582
519,515,550,495,580
510,508,549,494,585
508,509,548,492,586
513,504,543,502,563
510,502,533,510,537
515,501,519,517,505
520,496,502,526,457
522,498,498,534,423
525,498,492,538,410
517,494,483,539,412
509,495,475,531,434
501,496,486,522,462
502,503,495,515,498
502,512,514,506,535
506,523,537,500,571
508,518,546,492,584
507,515,546,495,589
510,513,545,494,584
508,510,545,492,584
512,507,543,493,572
513,502,535,501,545
515,498,525,510,515
519,496,514,521,478
525,495,501,535,447
522,497,496,536,433
517,494,487,537,423
512,495,479,535,429
504,490,475,531,442
498,496,483,522,475
498,508,501,511,512
501,519,522,505,552
504,522,540,500,581
505,518,541,494,586
513,515,544,494,580
512,514,545,497,580
505,507,543,495,580
510,506,539,495,559
512,502,532,505,536
513,498,519,512,507
523,493,508,524,467
524,495,496,531,440
524,500,493,537,432
517,496,484,538,432
512,496,479,531,436
504,495,478,525,457
500,501,487,518,488
501,514,504,509,524
502,522,527,502,562
510,525,540,498,585
510,516,542,497,578
513,517,544,495,577
510,512,544,495,580
512,512,541,494,576
512,502,536,502,554
516,499,527,507,524
521,496,517,517,491
527,492,502,527,454
525,497,495,534,437
523,495,489,537,430
515,490,479,534,430
507,492,476,533,435
500,496,478,525,462
500,504,490,515,505
499,515,511,507,543
503,526,529,500,575
508,524,542,499,586
513,521,544,497,582
514,517,545,491,581
507,512,540,491,584
511,509,538,494,571
515,503,534,501,546
517,497,523,508,518
521,492,512,517,480
528,491,499,532,447
525,492,493,536,431
521,492,487,537,424
510,491,477,532,428
508,488,473,527,439
500,498,480,520,469
499,512,498,511,512
499,524,517,503,550
503,532,536,500,583
509,525,543,495,586
512,519,544,497,580
516,516,542,495,579
511,511,541,497,582
516,505,537,495,564
516,500,529,502,536
519,495,517,510,507
525,490,504,522,466
528,488,496,530,433
523,490,488,534,422
518,489,478,534,424
515,489,475,529,426
507,490,471,524,450
499,504,488,517,487
502,517,504,508,528
499,524,522,502,569
506,531,540,498,588
509,524,541,497,583
510,519,542,496,580
508,514,540,497,580
509,510,540,492,579
512,505,532,494,555
516,499,524,505,528
522,491,514,514,493
524,487,503,527,456
520,488,493,534,439
518,489,488,539,428
515,488,480,533,430
508,490,475,529,434
504,492,477,523,458
500,508,490,515,495
501,518,509,505,533
505,530,532,499,571
506,528,543,497,588
514,523,543,496,582
511,520,542,494,583
509,514,541,493,581
509,511,539,495,572
514,500,532,499,546
513,494,522,509,520
517,491,513,519,483
522,488,501,529,446
519,491,497,537,436
521,491,485,539,426
513,489,479,535,428
510,491,471,526,437
500,498,480,520,470
497,511,494,510,509
500,524,516,506,548
509,534,537,499,582
509,526,538,494,586
510,522,542,497,584
509,521,542,494,581
509,513,538,490,580
514,507,536,495,557
515,500,527,502,534
520,495,519,512,505
528,490,507,524,464
528,490,498,530,441
528,492,490,536,424
522,489,480,534,423
513,489,476,529,430
507,490,472,526,446
498,502,482,516,481
500,519,503,510,527
500,527,523,506,562
506,533,540,498,586
506,526,539,497,587
509,522,544,495,584
507,519,541,494,582
505,511,536,489,577
518,505,534,498,555
521,497,525,502,526
519,494,517,518,492
522,484,503,526,454
523,489,493,532,439
523,491,488,537,425
512,489,481,531,425
512,491,476,531,433
508,494,475,520,456
502,506,489,512,493
501,521,509,505,534
505,531,531,502,570
511,530,541,499,586
514,525,542,496,577
511,516,542,495,582
510,514,541,493,584
510,510,540,494,574
519,502,533,500,546
516,496,526,509,521
521,494,514,520,480
525,487,500,529,443
523,489,489,533,434
522,490,486,534,423
519,490,479,534,423
505,486,473,528,434
497,495,479,518,469
498,510,494,510,507
503,522,517,507,546
504,533,534,500,576
507,525,539,496,582
512,523,543,497,583
511,519,542,492,582
508,513,540,490,583
509,509,537,494,567
513,501,527,500,539
517,495,521,509,505
518,486,508,524,467
523,488,497,528,441
522,490,491,537,429
517,491,482,532,425
512,489,477,532,429
504,491,474,522,448
498,503,485,515,482
500,516,504,511,525
503,526,523,501,560
505,529,539,503,589
507,523,540,495,587
507,518,542,495,582
509,513,541,493,586
509,510,539,492,584
512,505,535,498,555
514,498,523,504,526
520,494,518,515,491
527,487,501,527,455
522,490,495,533,439
521,493,490,538,427
518,490,480,536,428
510,491,476,531,437
498,494,474,518,462
497,505,488,513,499
502,519,509,508,532
504,531,530,502,568
507,525,539,498,580
512,523,543,495,577
511,518,541,494,576
508,515,541,494,580
510,512,541,495,569
514,502,531,500,544
514,494,523,511,515
523,494,514,520,475
525,486,500,529,446
525,489,494,535,431
522,492,487,535,425
511,488,479,533,426
505,490,477,529,437
498,499,481,519,469
495,512,499,511,510
499,524,519,506,548
504,533,536,501,575
505,526,541,497,587
512,525,542,497,580
511,516,542,493,579
510,513,535,491,582
512,508,537,493,567
512,496,527,501,538
514,491,517,509,508
519,489,507,523,469
524,488,499,534,438
523,491,492,534,427
521,492,483,537,420
514,490,477,530,427
504,490,473,524,446
500,499,482,515,480
500,516,500,509,522
501,527,523,505,560
508,528,539,499,583
509,520,538,496,587
515,520,544,494,582
514,516,543,492,580
512,513,536,491,576
512,503,535,497,553
518,496,525,502,525
520,492,517,515,493
529,487,504,527,451
522,487,494,533,437
526,493,487,536,424
520,488,478,535,428
514,489,475,534,433
504,494,476,523,455
495,504,488,512,494
492,518,509,512,536
494,528,530,502,574
498,527,540,494,589
500,522,542,496,588
496,517,543,495,583
493,512,539,494,583
509,511,540,496,567
517,502,533,501,544
520,494,524,509,515
526,492,513,521,479
534,488,501,530,443
532,492,492,534,432
525,491,487,536,428
526,491,479,535,428
519,491,473,528,438
506,499,477,519,467
505,511,495,513,505
503,522,515,505,550
506,533,537,498,585
507,527,541,495,588
512,522,544,497,584
519,519,540,492,582
511,511,541,493,584
513,507,536,496,568
517,501,531,505,537
517,493,518,509,509
523,489,508,525,470
521,488,498,532,443
520,490,491,538,432
517,489,484,537,427
512,492,476,534,431
503,488,473,526,444
502,499,482,519,476
500,515,502,510,518
505,528,519,504,560
507,531,537,500,591
508,524,542,498,584
512,521,541,497,577
510,517,542,498,581
509,513,540,495,580
508,504,531,496,561
511,496,525,504,532
516,491,516,518,497
525,488,501,526,458
522,490,495,536,439
524,493,488,538,426
518,488,480,535,423
510,489,474,532,430
501,492,475,525,458
495,505,488,516,496
497,519,506,509,538
501,528,527,503,573
505,532,541,499,585
511,524,543,495,583
508,519,542,496,584
507,518,542,494,584
506,510,540,495,574
511,503,529,498,550
515,495,522,508,523
519,490,513,521,484
521,487,500,528,448
520,490,493,531,434
520,491,486,535,426
515,490,479,532,426
507,489,473,529,434
500,496,478,524,470
495,511,493,514,508
501,523,518,508,549
504,534,535,499,585
507,525,540,496,586
505,518,541,495,586
511,517,542,496,583
509,513,541,492,584
510,508,536,496,567
511,497,527,503,538
516,495,517,511,507
519,488,508,523,471
522,488,496,532,443
520,488,490,537,431
517,488,483,537,423
511,494,477,533,431
502,488,470,524,448
500,500,482,519,483
499,515,501,512,524
502,526,521,502,560
506,534,538,500,588
507,523,537,494,589
512,523,544,497,586
514,516,542,494,578
511,512,537,494,580
512,507,533,496,559
509,498,523,507,532
518,494,517,518,496
529,487,504,524,452
527,487,494,535,433
524,493,485,537,425
516,488,478,535,425
512,487,473,533,432
504,495,475,523,448
501,507,489,519,484
497,520,509,509,530
498,528,525,501,569
500,526,539,497,586
508,521,541,496,585
510,518,542,492,588
507,516,540,493,586
510,510,538,495,575
511,503,532,499,550
517,496,521,505,524
524,492,511,518,479
532,487,497,529,444
529,487,492,535,431
521,492,483,534,424
508,490,476,532,429
504,489,470,523,440
498,498,479,521,471
497,511,492,513,509
506,523,516,507,549
518,533,535,502,581
512,527,545,500,585
512,520,542,498,582
507,513,539,492,587
505,511,540,491,584
508,507,536,495,568
514,501,530,503,542
517,495,520,510,509
522,490,505,521,471
523,488,497,529,441
524,490,489,536,434
518,490,482,537,427
512,492,477,534,434
502,488,472,524,448
499,502,483,519,481
501,517,503,512,523
504,527,522,506,558
506,531,539,500,588
509,524,538,496,586
509,522,541,496,584
510,520,544,495,585
508,513,543,492,582
509,504,536,498,559
514,501,527,505,529
522,493,518,515,500
520,486,504,526,465
521,489,496,529,444
520,491,489,537,432
515,489,481,533,426
512,488,475,530,429
503,492,475,524,453
501,504,487,515,490
498,515,507,508,535
504,529,526,499,569
505,527,539,499,588
510,523,542,497,584
512,519,543,494,582
510,515,539,491,583
510,511,539,493,574
513,506,532,501,547
516,497,521,506,517
520,491,511,517,481
525,489,497,529,448
523,491,493,535,436
524,492,487,539,426
516,488,479,535,425
510,491,476,529,438
498,495,478,519,470
501,507,494,514,509
501,524,515,506,547
502,531,535,499,582
509,527,542,498,585
513,522,544,496,577
511,520,543,500,577
504,514,539,494,583
505,505,537,496,567
508,500,530,503,544
511,495,518,507,513
518,490,508,519,475
530,486,494,529,443
528,492,494,537,429
519,492,486,535,429
515,490,477,533,431
509,493,472,527,449
500,501,482,517,479
500,517,499,510,519
500,527,520,503,561
507,533,538,499,586
511,523,539,496,584
517,522,544,495,583
504,516,543,496,584
504,513,541,491,582
508,507,534,498,559
513,498,526,505,532
517,493,517,518,504
526,489,502,525,460
526,491,494,534,441
523,493,487,535,428
519,490,481,536,429
511,488,473,528,434
501,494,474,523,456
499,505,488,515,496
498,516,507,508,535
501,529,528,502,570
500,526,539,494,589
518,525,544,497,584
513,519,544,497,585
513,516,541,493,582
508,511,540,494,573
510,503,534,499,550
515,497,523,507,521
519,491,514,518,483
523,488,499,528,450
525,490,493,535,435
522,491,485,536,423
517,490,479,531,426
512,491,470,528,435
504,496,481,522,468
501,511,498,515,508
501,523,517,506,546
502,534,534,500,581
505,524,539,495,586
510,524,543,497,582
513,518,543,493,580
508,514,540,492,583
509,507,537,494,572
516,503,532,502,539
517,494,522,512,507
520,491,509,524,469
527,487,497,532,443
524,489,492,538,434
517,489,483,535,428
512,490,478,532,432
504,490,472,524,445
500,496,480,518,475
498,514,501,508,516
500,525,521,502,555
504,530,539,500,583
505,521,540,495,582
506,520,543,496,578
505,517,542,492,580
510,512,538,487,575
518,505,534,496,552
515,496,526,502,527
518,492,516,518,495
527,489,505,526,457
527,488,493,531,438
530,488,488,535,423
516,488,478,536,427
512,492,474,532,431
502,492,475,523,456
498,505,487,516,493
498,517,507,507,533
501,527,528,500,571
504,528,536,495,587
512,523,542,495,580
514,518,541,495,584
512,516,540,493,580
508,510,535,490,571
513,504,532,498,549
516,496,519,506,519
520,493,515,520,485
523,488,498,527,450
527,490,490,534,438
526,493,486,536,423
516,492,481,534,427
510,493,474,529,436
496,497,476,521,471
494,509,492,514,509
498,522,516,508,545
506,532,533,500,583
507,524,539,496,589
512,523,543,497,584
509,517,539,492,584
507,512,537,492,583
508,505,536,495,573
511,502,531,502,542
514,495,518,510,511
525,492,507,522,472
527,490,499,529,445
522,491,488,533,432
525,489,482,538,428
518,492,478,534,430
508,491,473,527,445
503,501,482,520,477
497,515,500,513,522
499,523,521,504,560
507,532,537,500,586
509,525,539,497,582
509,520,543,493,583
512,514,542,492,582
506,510,536,491,580
510,503,534,497,556
515,496,525,505,524
523,495,518,514,494
523,491,505,527,457
525,492,495,533,436
522,492,488,538,428
517,489,479,533,427
514,492,474,531,433
502,493,474,521,459
499,504,489,516,497
501,518,508,508,531
503,525,528,504,572
508,527,541,497,586
510,518,541,497,586
515,520,543,497,582
510,514,542,495,579
508,509,539,491,576
512,502,531,494,550
516,496,523,508,522
523,494,515,520,486
522,489,501,529,452
523,490,492,533,437
522,494,483,535,430
516,493,480,532,432
510,492,473,530,436
497,495,477,521,468
496,508,492,513,508
500,521,518,508,545
505,530,534,496,580
508,524,540,495,584
509,518,542,498,580
511,517,541,494,580
508,510,540,491,575
513,506,537,493,558
516,504,530,502,539
525,495,517,510,509
524,490,508,523,473
518,490,498,529,446
525,494,491,536,432
521,493,479,534,431
514,495,477,533,431
502,491,470,526,442
499,500,481,519,477
498,511,499,511,517
502,524,518,503,556
506,527,535,498,585
507,522,541,497,584
514,519,543,495,584
510,518,542,494,581
508,511,536,492,578
510,504,534,497,555
512,500,525,504,534
516,495,517,513,497
523,492,505,522,457
524,491,493,533,437
525,496,489,538,429
520,493,480,535,424
515,492,476,531,429
502,494,474,523,454
499,504,487,519,490
499,517,505,509,530
503,526,529,505,566
507,527,540,495,586
507,519,540,498,587
514,520,544,497,578
510,515,541,493,580
508,509,538,493,572
510,506,532,499,551
515,498,525,505,528
522,495,512,518,487
521,491,501,531,453
521,493,493,532,437
521,494,484,535,427
517,492,477,534,428
513,493,472,530,436
502,497,477,521,464
499,507,491,513,505
501,522,513,506,545
503,528,533,497,578
507,523,544,498,585
512,519,541,497,579
510,515,540,494,582
510,512,537,493,580
511,511,537,495,565
514,502,528,502,546
513,496,522,511,513
521,493,508,521,473
521,492,497,531,446
520,493,492,537,434
514,493,482,538,427
504,494,475,534,431
495,490,471,526,443
494,500,480,521,480
493,511,499,513,521
491,525,519,504,558
519,527,536,499,584
513,522,539,497,587
520,520,541,498,575
526,514,541,501,576
518,512,540,496,574
515,506,538,500,556
516,499,527,502,532
524,496,517,512,500
528,492,505,527,458
523,491,498,535,442
522,494,488,536,430
522,496,481,536,429
517,495,477,533,433
503,493,472,521,458
499,499,486,513,493
501,515,505,511,532
503,526,527,500,571
503,525,540,497,586
504,518,542,500,585
505,516,544,497,583
504,510,543,495,578
504,508,539,495,576
506,502,532,498,551
511,495,523,504,522
522,492,513,520,486
524,490,502,529,453
526,493,493,531,438
529,494,488,535,429
523,494,479,534,427
509,493,475,528,433
502,496,474,520,463
500,509,491,511,505
504,518,513,505,545
505,530,534,501,581
508,524,540,496,585
511,520,543,498,582
511,515,542,495,577
509,510,538,492,576
509,503,534,494,569
514,503,531,499,543
519,496,520,511,514
522,493,507,523,478
520,488,497,531,444
523,497,491,536,428
522,490,481,535,428
513,492,478,536,430
505,490,470,526,446
500,499,484,520,479
498,511,499,515,520
504,523,518,504,554
507,527,536,500,585
511,522,540,497,578
511,517,539,498,581
511,515,541,494,575
508,510,540,490,577
510,504,533,494,558
518,499,528,501,531
519,495,516,513,501
524,489,502,526,463
523,490,493,533,445
524,498,491,540,430
519,493,479,534,430
512,492,472,531,435
501,491,472,522,459
499,503,486,516,493
498,514,505,512,533
500,525,522,501,570
503,524,538,499,588
508,521,541,496,585
509,516,541,495,579
508,514,542,495,579
506,509,541,494,577
510,504,531,497,551
512,496,523,509,525
520,493,514,519,490
522,491,498,529,455
520,494,491,534,440
519,493,486,536,430
514,492,481,535,431
508,491,472,531,438
500,497,476,523,464
502,509,492,515,503
499,521,514,507,542
497,525,532,502,581
508,524,538,497,587
509,518,542,497,584
512,513,541,497,581
509,509,540,494,581
509,508,538,495,571
511,503,527,499,543
515,494,518,508,517
520,494,509,519,476
522,491,498,532,446
522,495,491,538,432
519,492,482,537,425
513,492,475,532,433
506,491,472,523,445
497,500,478,519,479
495,511,497,512,517
499,523,520,505,556
502,528,533,498,585
504,519,538,495,584
509,520,543,501,580
507,515,542,494,581
508,511,537,494,583
512,505,535,501,562
518,501,527,507,529
522,496,515,512,499
522,490,506,525,469
520,491,494,534,446
524,495,488,538,431
520,494,479,536,429
516,495,476,535,432
504,493,472,525,454
502,504,484,517,490
503,516,505,510,528
507,528,526,505,563
508,526,538,498,584
507,520,541,499,584
513,519,540,496,584
508,514,537,493,580
506,506,538,494,578
509,504,530,498,551
513,496,521,506,522
519,495,512,518,488
523,491,500,528,454
521,493,492,532,438
521,496,486,537,428
513,494,479,535,431
505,490,473,530,439
494,496,477,523,468
493,503,491,516,505
496,519,512,510,540
510,529,533,503,576
510,524,539,501,584
514,519,542,500,579
522,518,544,500,580
522,513,538,493,586
512,505,534,493,574
512,501,527,498,546
515,498,517,509,515
520,493,511,522,482
520,491,495,531,455
523,493,490,538,438
525,496,483,537,429
516,493,477,532,427
503,493,471,528,443
497,499,481,520,476
500,514,497,513,517
500,523,518,506,554
510,529,537,499,582
512,519,538,498,586
514,518,542,500,577
517,514,542,498,572
509,509,539,494,575
503,504,532,495,563
513,500,525,503,536
520,496,516,512,506
524,494,503,526,469
525,492,494,530,443
524,494,487,536,436
517,493,480,536,429
512,494,477,532,432
502,495,473,524,457
501,503,483,516,491
499,515,505,510,530
504,526,525,504,561
509,525,539,499,589
509,519,540,497,586
510,516,539,496,585
508,515,540,494,581
505,509,539,491,576
511,504,535,498,554
516,495,523,508,519
523,495,512,518,485
525,487,501,528,451
522,493,493,532,435
520,492,486,538,428
520,493,479,535,427
510,492,474,531,434
500,495,474,521,465
499,507,493,515,505
502,520,509,507,544
504,528,532,502,579
507,521,539,497,588
509,519,543,497,583
510,517,542,495,580
508,511,539,493,576
507,503,536,495,567
511,501,530,500,545
513,496,521,511,515
519,492,511,521,479
516,488,498,531,449
515,491,490,536,438
519,490,484,534,430
517,493,480,534,432
510,491,474,529,445
502,500,482,519,478
503,513,498,511,518
502,521,520,506,554
507,529,534,500,583
508,521,540,494,584
510,518,544,497,580
512,514,540,494,578
511,510,540,494,576
515,504,536,493,557
515,499,529,508,533
519,496,521,516,502
524,492,505,526,462
525,491,496,532,438
525,493,490,537,427
519,491,479,535,430
515,493,475,534,431
504,493,473,525,451
498,502,486,515,486
502,516,506,511,525
501,525,525,501,565
499,523,539,498,590
508,520,539,495,584
511,519,541,494,582
512,514,543,493,579
510,509,540,496,577
508,501,531,496,550
513,495,523,505,525
521,492,514,518,488
526,489,501,529,450
526,494,493,534,439
521,494,486,537,429
519,490,480,536,426
513,490,476,533,431
496,494,477,522,469
495,505,489,509,506
500,517,511,505,544
502,529,532,497,575
510,522,539,494,582
515,517,541,497,583
514,516,543,494,579
515,510,540,494,573
512,503,536,494,563
509,498,529,500,542
515,496,521,510,513
525,494,510,521,475
522,492,499,531,447
521,495,492,536,434
520,491,482,536,429
510,492,478,532,428
504,491,472,528,442
497,500,482,521,478
498,515,499,512,515
505,521,518,505,553
507,529,536,499,584
506,522,542,496,585
509,519,541,493,581
508,516,543,494,582
510,510,540,492,575
511,504,535,496,556
512,499,527,503,536
515,494,518,516,503
524,492,506,526,460
523,489,495,532,440
523,493,489,536,430
513,492,476,533,428
504,492,475,532,435
497,492,472,520,453
495,501,484,517,489
493,514,504,512,528
492,523,525,503,567
501,526,535,494,586
513,520,541,497,583
515,515,541,496,580
511,515,541,493,579
508,510,538,490,571
516,505,532,499,553
513,496,523,506,525
518,494,516,521,491
526,493,500,528,454
533,491,493,534,441
534,495,488,536,428
525,491,480,533,427
513,494,476,532,432
500,495,476,522,465
499,506,488,510,503
500,517,511,510,540
506,528,528,502,575
511,525,540,496,583
512,518,542,498,585
512,518,540,494,575
515,515,542,493,574
513,508,536,494,562
514,500,531,501,541
518,495,520,509,508
519,491,510,522,476
523,486,497,529,445
520,492,493,536,435
520,493,483,535,429
514,493,478,532,429
508,491,470,526,442
506,500,481,521,472
506,513,500,514,511
502,524,520,504,552
505,530,539,501,584
506,521,539,494,586
509,519,544,498,582
509,515,540,494,577
508,510,537,492,580
512,507,533,496,558
517,503,528,506,530
518,495,519,515,496
523,489,504,525,462
523,489,493,532,438
522,493,489,537,427
516,491,481,535,431
508,489,476,529,434
506,493,474,523,454
499,503,485,518,487
500,515,503,507,527
502,525,521,501,563
505,527,539,497,585
507,519,541,492,581
509,517,542,496,581
511,515,542,493,578
508,510,538,492,573
512,503,534,498,549
514,497,525,509,523
517,494,513,517,491
524,489,501,525,453
522,488,493,530,438
520,492,488,538,430
514,491,480,534,431
511,492,476,532,436
501,495,477,522,461
498,507,490,511,500
501,519,508,507,538
503,528,528,500,574
507,526,539,496,586
512,519,544,495,582
510,517,542,494,578
510,511,541,494,578
513,506,537,495,567
515,502,531,501,539
514,497,522,511,509
519,493,510,525,478
520,490,497,526,447
521,492,491,530,436
520,491,482,534,430
512,489,478,537,433
502,489,471,527,447
501,503,481,520,477
496,513,498,513,515
497,521,516,504,556
503,526,538,499,586
513,521,537,495,586
517,518,543,497,581
512,511,542,495,577
507,511,539,492,581
514,503,534,495,562
515,499,527,504,532
519,494,515,512,501
522,493,507,526,466
526,493,498,533,441
522,494,490,538,430
516,493,480,535,428
514,491,477,532,434
504,492,473,522,452
502,503,484,515,484
501,514,504,508,523
503,524,525,503,561
502,524,538,497,588
511,519,540,495,584
514,515,540,495,579
511,516,542,493,579
507,507,538,493,572
511,503,535,496,554
513,498,524,504,522
518,495,513,516,490
524,493,501,526,454
528,493,493,534,436
523,496,484,536,428
517,492,479,534,430
509,493,476,533,436
501,497,477,520,464
498,506,489,511,501
500,516,510,511,540
505,527,534,503,574
508,523,539,496,582
509,516,541,496,580
508,513,542,496,578
505,510,541,495,579
505,508,538,496,570
505,502,532,503,542
508,496,520,510,512
512,494,511,518,479
522,493,498,531,443
522,495,494,536,433
519,493,483,535,430
522,495,478,531,434
511,493,468,526,443
501,500,480,520,476
500,512,496,514,514
506,523,517,507,547
508,527,535,502,576
511,520,541,500,573
510,517,539,496,576
509,512,541,493,584
513,513,539,490,580
508,504,534,494,563
511,499,527,500,534
517,497,516,511,503
524,490,507,525,463
522,492,492,532,439
522,494,490,536,430
514,491,480,534,431
509,492,475,533,434
505,492,470,523,452
507,501,485,520,487
501,511,503,510,528
505,523,525,501,561
509,524,539,500,584
510,518,540,497,577
513,514,540,495,577
510,512,543,494,579
509,509,540,494,574
511,503,534,499,553
517,499,525,503,523
519,495,515,516,490
522,492,497,525,456
521,495,494,534,440
519,497,488,535,433
511,494,481,534,436
508,493,474,530,439
511,498,478,521,462
506,507,491,514,497
507,517,510,507,532
509,524,529,501,564
510,519,538,500,582
516,517,540,495,580
514,514,540,494,587
510,514,541,493,584
511,507,538,493,572
511,503,532,501,546
516,498,520,508,514
518,494,510,521,479
524,490,497,531,450
520,493,491,533,437
519,494,484,537,431
514,494,480,533,433
506,493,473,527,443
497,497,480,523,475
496,508,498,515,514
500,518,517,506,552
506,525,538,502,577
513,518,540,496,582
516,517,542,497,574
509,514,541,495,580
513,510,545,492,576
511,506,541,495,559
514,501,533,501,535
516,496,523,514,507
524,495,505,523,466
523,495,490,531,442
524,493,488,537,428
518,493,481,535,427
512,495,477,530,429
504,495,472,524,450
501,503,483,517,487
499,514,504,511,527
500,522,522,502,564
510,522,538,496,584
510,515,538,497,578
510,513,538,493,581
505,512,542,492,581
506,505,540,494,577
507,503,533,497,558
510,497,523,506,528
518,496,512,517,494
530,493,501,530,451
523,495,495,534,436
520,497,490,540,425
514,494,479,536,430
510,493,474,528,439
501,496,473,521,467
498,505,488,512,504
496,513,509,510,543
506,523,529,501,573
510,522,540,498,582
512,517,541,497,583
509,517,540,494,580
505,509,541,494,581
510,506,538,497,573
510,504,534,499,546
514,498,520,508,517
519,495,511,521,477
522,494,498,531,447
526,495,492,535,434
522,496,484,536,426
514,495,478,533,432
508,493,474,528,444
499,497,480,519,473
499,510,501,512,513
499,519,521,504,549
499,523,536,500,583
505,516,541,497,581
506,515,542,492,579
513,514,542,495,578
511,509,540,492,576
511,506,536,497,562
516,501,529,502,532
519,495,518,511,504
522,495,505,522,466
524,495,494,531,442
525,496,491,537,430
518,496,482,532,429
511,496,478,534,431
502,495,473,525,456
497,504,486,515,488
497,513,505,509,528
500,520,522,502,561
504,523,541,499,584
508,518,538,495,581
512,515,542,493,572
510,509,541,494,572
508,507,540,500,570
514,504,535,495,549
520,500,520,504,528
522,498,517,513,495
525,493,502,527,459
522,494,494,534,441
520,496,489,536,427
515,493,478,534,434
512,493,477,532,434
502,492,473,520,462
497,504,488,514,499
500,515,512,508,539
502,524,532,501,573
505,521,538,497,584
509,518,542,495,580
511,514,540,495,576
513,514,542,496,577
510,509,539,496,565
510,503,532,497,545
513,499,523,507,517
517,495,509,516,479
520,492,498,527,446
520,495,488,532,436
522,496,484,537,427
520,496,479,535,432
508,494,474,531,443
506,500,481,522,471
502,509,498,515,514
504,519,516,508,549
503,525,537,500,585
505,517,539,500,589
511,518,543,500,581
516,512,542,497,573
512,512,541,497,569
509,505,534,497,556
514,505,529,504,530
519,499,519,509,505
522,495,507,520,469
523,493,493,529,443
523,495,489,535,432
518,495,483,536,428
514,496,479,535,432
507,492,472,523,449
508,504,486,521,483
505,516,505,512,524
497,519,524,504,560
500,523,538,499,582
509,518,541,496,581
509,514,541,493,582
509,513,541,493,581
507,510,539,490,580
506,504,534,497,554
510,498,524,501,526
519,497,515,513,493
520,493,501,526,455
519,497,494,535,441
524,497,487,533,426
525,500,481,535,425
514,491,476,532,431
499,496,474,523,463
501,506,488,513,499
506,517,506,508,537
508,527,530,502,575
509,524,537,498,584
509,516,540,496,582
509,515,543,492,580
510,512,540,495,580
508,508,538,491,568
513,504,530,499,545
516,498,521,508,515
520,495,508,516,479
523,495,498,530,450
521,497,492,536,438
520,496,484,536,430
512,497,477,534,431
505,494,475,526,439
498,500,482,521,476
497,509,499,513,515
503,519,516,507,549
506,523,535,500,584
510,521,539,497,585
513,518,541,496,575
512,514,542,496,575
508,512,540,492,577
516,506,536,498,560
514,503,526,503,532
512,495,517,512,505
522,495,508,521,466
523,494,496,533,444
522,498,490,535,433
521,496,482,535,429
510,497,478,533,433
500,491,471,522,452
496,500,483,518,487
497,511,503,512,526
501,521,523,499,558
505,528,540,500,583
509,518,541,495,577
511,516,542,496,579
509,512,542,496,575
509,512,539,494,577
509,504,531,495,553
515,499,525,506,527
520,498,516,515,494
521,491,499,526,461
521,490,493,532,440
519,495,485,536,432
516,495,480,535,430
513,497,477,533,434
502,495,472,521,461
500,505,487,515,501
501,514,510,506,537
503,521,530,502,572
509,521,540,497,583
511,517,540,495,577
512,515,543,496,575
511,513,542,493,577
510,509,540,494,566
510,500,532,503,545
514,497,524,510,516
521,496,511,520,480
523,493,499,530,450
522,495,493,535,439
523,497,485,537,429
517,496,478,535,432
512,495,475,530,442
500,497,478,520,471
500,508,494,510,508
500,517,517,510,546
503,523,537,501,576
506,519,541,499,581
509,518,543,496,576
511,515,541,495,577
510,511,538,493,579
512,505,537,495,562
519,502,531,503,533
516,500,520,513,504
522,491,507,523,471
528,495,498,535,448
526,498,492,540,433
516,496,484,536,429
511,498,480,536,435
501,493,472,525,457
500,504,485,516,488
501,508,502,510,524
499,516,521,504,559
506,522,539,502,578
511,516,539,499,574
515,516,542,497,570
510,513,537,492,577
510,509,540,494,579
512,505,532,497,554
513,500,527,507,528
519,498,518,517,495
522,491,501,527,460
523,495,493,533,442
521,495,486,536,435
515,494,480,536,434
510,494,477,532,437
501,494,476,521,461
501,504,487,514,498
501,515,505,505,538
504,523,531,501,567
505,520,537,498,583
507,519,540,498,578
507,513,542,496,581
507,511,539,493,581
511,511,539,494,570
511,499,530,500,549
516,500,520,509,518
521,495,512,519,480
523,493,501,531,451
521,495,492,534,438
521,498,484,535,429
517,496,477,534,432
507,495,476,530,443
500,499,482,519,475
500,510,497,513,512
502,519,516,507,549
506,524,536,499,578
508,518,539,498,583
512,516,544,498,580
512,514,542,494,580
512,510,541,494,573
510,508,536,497,562
511,501,527,500,537
514,496,518,509,506
519,493,507,521,472
523,495,497,529,446
522,495,489,536,437
517,494,482,538,433
515,495,478,534,434
504,495,471,525,453
498,501,486,519,485
497,511,503,515,525
499,520,523,504,555
505,521,538,499,582
504,517,541,497,581
507,516,542,497,576
506,513,542,493,578
506,507,540,493,574
506,503,534,497,552
509,497,523,504,527
517,497,514,516,496
535,496,501,527,453
531,497,495,533,441
525,497,488,535,430
520,494,478,535,436
513,494,477,537,437
505,498,475,524,461
505,504,489,516,495
502,514,509,507,535
501,522,526,501,573
508,522,535,497,584
512,518,538,495,577
512,515,544,498,582
511,512,542,496,572
510,508,539,495,567
512,500,531,500,543
515,495,518,506,518
519,495,509,520,484
521,493,498,526,450
519,495,492,535,438
517,493,483,537,432
508,492,479,533,433
510,492,473,528,438
500,498,480,521,472
499,508,498,514,514
508,517,516,507,545
513,523,533,499,577
511,516,540,498,578
518,516,544,499,574
512,514,546,497,577
506,514,543,495,574
512,506,536,494,563
514,497,526,500,542
518,498,520,511,510
525,497,506,522,470
529,495,495,531,443
522,496,491,537,431
518,495,481,535,432
510,494,478,534,436
501,492,474,527,452
496,501,484,517,490
496,514,503,510,525
496,518,522,502,562
504,524,538,499,585
504,517,539,495,584
506,516,545,496,587
508,513,542,492,581
512,511,540,492,574
513,503,533,497,552
517,499,522,503,525
523,497,515,516,491
526,494,502,525,451
524,493,494,536,434
523,497,491,537,427
510,494,481,532,428
518,496,475,533,434
507,496,477,522,456
497,504,490,517,502
497,515,509,504,539
503,526,529,502,572
501,520,539,497,584
506,515,540,496,580
503,511,542,496,578
509,512,541,491,575
503,507,539,492,571
512,504,532,500,546
525,499,521,508,516
525,497,509,518,482
522,496,498,529,453
520,496,492,533,440
519,496,485,536,432
511,497,478,533,434
517,494,477,531,438
510,498,479,520,476
505,508,494,511,513
507,519,517,506,547
503,524,535,499,581
507,519,541,497,585
511,520,541,496,579
508,514,542,497,579
512,509,541,495,570
510,506,537,495,558
514,501,530,503,538
519,498,519,509,507
525,494,506,521,469
524,494,498,529,445
524,496,489,535,433
516,493,483,536,433
512,494,476,532,434
502,493,474,522,449
498,501,486,517,484
499,513,504,513,521
502,522,524,505,559
509,523,539,501,577
512,517,539,495,577
509,515,543,498,578
509,517,542,495,578
514,512,540,495,572
510,504,531,498,556
514,501,523,504,527
518,498,517,513,496
519,493,500,524,459
517,494,494,531,439
516,495,488,537,430
512,494,481,535,430
512,495,477,532,436
506,495,477,524,462
501,503,489,517,500
507,516,509,508,535
508,524,530,507,571
512,525,542,498,583
512,519,538,495,580
515,514,543,496,581
512,513,543,493,578
512,510,541,494,571
511,501,532,501,547
515,498,522,507,519
524,494,513,520,482
523,490,497,529,452
521,495,494,532,439
518,495,484,534,432
512,495,480,531,435
507,496,477,530,437
500,497,478,522,473
500,509,494,513,509
506,519,520,508,547
507,529,537,500,579
510,519,540,494,579
511,517,541,495,577
508,512,540,495,582
510,511,539,494,579
511,506,534,494,561
514,501,531,504,537
517,496,519,514,508
527,496,508,523,470
527,494,497,534,443
524,496,491,535,435
519,493,480,534,434
513,494,477,532,438
502,493,476,525,454
498,501,486,518,486
496,508,500,511,521
497,522,526,506,559
503,524,539,498,581
503,516,539,495,575
517,515,540,497,580
509,513,544,496,579
507,513,541,498,571
505,504,532,496,559
511,499,523,502,530
516,497,515,515,499
530,496,503,526,458
531,495,495,535,439
531,499,490,541,429
522,496,479,535,430
519,490,475,535,431
512,497,476,527,454
507,506,492,522,487
504,517,511,513,528
503,521,527,500,581
504,521,538,493,592
507,518,542,491,583
508,517,543,495,578
506,512,542,492,579
510,508,539,494,571
512,503,531,495,547
513,498,522,506,518
520,497,513,518,482
522,493,496,527,451
521,498,491,533,441
515,497,486,533,432
510,496,481,534,434
504,496,476,532,439
494,497,480,518,473
492,506,495,513,514
494,516,513,505,549
503,524,536,502,579
517,517,539,494,585
518,517,543,497,585
514,515,543,495,577
513,513,542,494,571
513,503,535,495,560
515,501,530,499,536
522,497,519,511,505
526,498,507,522,471
524,496,499,533,446
518,496,489,537,440
515,496,480,534,435
515,497,474,529,435
503,494,470,525,452
497,502,483,518,487
496,510,500,512,524
499,519,522,503,559
502,521,538,497,582
512,516,538,495,576
521,516,544,497,575
513,512,542,494,572
512,510,538,494,570
509,506,533,498,551
512,502,524,505,528
515,496,513,513,501
520,495,504,528,461
516,496,492,533,445
518,497,485,536,432
512,495,480,532,432
513,497,476,534,438
510,498,475,523,463
510,505,489,518,495
507,514,511,509,534
506,521,530,503,568
513,520,539,499,576
510,517,541,498,578
511,513,543,496,574
509,511,542,490,573
512,509,539,494,566
513,502,529,499,546
516,500,520,507,515
519,497,513,522,486
527,494,499,528,452
522,498,492,532,441
522,499,486,536,434
517,497,478,534,434
510,497,477,533,441
502,498,478,520,474
502,507,496,512,511
502,515,514,506,546
503,522,534,500,579
508,518,538,496,582
512,515,541,496,579
511,513,545,494,578
510,511,543,493,577
510,504,537,494,561
514,501,530,498,534
519,499,519,508,506
525,498,507,525,474
523,498,498,532,442
519,501,491,535,439
517,497,482,530,434
514,497,477,531,436
503,492,472,525,453
499,498,483,518,484
496,508,500,512,523
500,518,522,501,557
506,520,536,499,589
507,515,542,497,583
511,516,542,495,579
508,513,542,492,577
512,508,541,495,573
511,503,533,498,550
513,500,525,505,528
516,498,518,515,500
520,494,502,525,458
524,498,491,532,444
522,501,488,537,434
514,498,480,533,433
509,498,477,533,436
508,496,474,521,460
504,503,487,515,493
500,513,505,507,537
502,523,528,503,572
508,520,538,498,582
510,515,542,495,576
515,512,546,498,576
512,511,543,493,577
506,509,536,494,575
520,508,534,501,547
525,502,524,509,519
519,498,512,516,484
518,492,497,525,458
520,495,486,529,442
518,497,485,532,432
513,496,477,533,432
509,497,473,530,441
499,498,477,519,471
501,504,494,513,508
499,514,513,505,547
502,521,532,500,579
510,516,540,498,583
511,516,543,496,578
513,512,543,495,576
509,509,541,494,571
513,503,536,496,560
513,501,529,502,539
513,497,519,511,511
524,496,508,523,476
520,494,494,531,450
524,499,489,535,435
519,497,479,535,428
510,496,477,531,436
502,495,472,525,450
498,500,481,515,482
496,509,501,511,523
503,515,522,510,557
507,522,539,501,579
512,515,540,498,579
508,513,543,496,575
509,510,541,495,577
513,511,541,495,577
513,504,532,496,553
507,500,525,506,531
509,496,513,510,498
512,492,500,526,465
517,496,495,533,445
517,498,489,537,434
515,495,480,534,436
530,498,474,533,436
516,495,475,523,459
504,504,486,515,494
505,514,508,509,531
510,522,529,505,567
511,520,540,493,582
511,515,542,494,580
507,512,542,498,581
510,510,542,495,580
513,509,539,495,569
511,503,528,498,549
512,499,520,505,521
513,496,511,517,486
516,493,496,528,458
515,499,490,531,443
510,500,487,534,434
498,497,478,533,440
489,493,476,532,446
486,497,477,521,472
482,505,492,512,511
473,514,513,505,540
473,519,532,499,566
475,515,541,498,575
481,512,541,497,577
469,507,540,491,584
481,511,539,494,586
529,513,539,498,567
567,509,532,502,540
551,504,522,510,515
534,499,510,521,479
537,497,496,529,442
542,499,488,535,411
555,498,480,535,408
559,499,473,534,420
542,500,472,529,440
527,501,482,519,475
519,507,500,511,518
505,516,522,507,558
498,522,538,500,590
488,514,535,494,590
486,511,541,494,585
478,510,541,491,580
475,506,539,494,575
472,498,531,492,562
516,502,527,506,532
555,499,516,515,494
555,499,508,526,459
550,500,496,535,434
541,503,492,540,431
535,501,480,533,437
526,500,478,529,451
515,497,473,522,471
505,507,487,516,488
510,516,510,511,505
511,524,529,509,537
511,519,540,503,527
515,516,541,497,514
524,517,542,495,532
527,513,541,496,548
522,509,539,494,562
523,501,527,492,585
524,497,514,501,552
516,493,507,512,503
518,492,496,522,460
520,500,491,533,463
520,499,484,532,458
531,496,475,528,448
526,497,475,531,447
512,498,474,521,471
506,503,492,514,495
512,512,513,508,532
510,520,533,503,575
504,521,540,499,589
508,516,541,497,590
512,513,541,492,574
512,508,537,492,575
513,503,534,495,561
523,505,528,503,534
521,500,517,511,515
515,496,505,515,477
510,494,495,530,446
515,497,489,535,434
512,496,480,537,431
501,495,475,535,436
492,495,468,525,452
489,501,483,518,489
492,513,500,512,523
494,522,522,505,569
498,526,539,502,593
506,519,538,497,590
510,516,541,495,593
514,514,539,492,591
512,510,535,492,570
505,502,529,495,544
498,498,522,503,519
496,495,510,508,489
501,489,497,521,463
514,493,488,529,451
521,495,481,529,442
526,496,476,534,425
523,499,476,535,429
512,494,471,524,448
506,501,484,513,495
505,511,508,510,547
512,517,525,501,569
512,521,537,497,585
507,514,538,497,584
502,517,540,498,582
495,515,541,495,582
491,511,538,492,590
486,506,532,502,573
497,503,521,510,536
526,502,511,522,473
536,496,495,530,425
518,496,484,532,429
518,495,478,531,438
516,497,473,529,438
493,495,469,524,447
478,498,472,517,469
478,504,486,509,495
493,507,503,501,525
495,513,525,501,576
511,517,540,500,585
539,517,536,499,595
536,516,539,495,590
522,512,535,496,587
536,504,529,489,566
539,499,519,495,529
536,495,511,510,463
531,493,501,520,430
521,487,488,530,425
506,491,481,532,432
502,492,477,534,423
486,492,468,533,419
477,490,469,528,432
513,504,477,520,461
524,515,497,511,509
514,516,514,504,550
507,524,530,497,581
493,514,532,495,586
503,510,532,495,593
546,514,535,502,581
528,510,534,496,557
517,503,527,496,526
538,505,522,509,497
526,501,513,514,462
507,490,497,524,438
504,496,490,530,449
497,494,479,529,476
494,486,470,527,488
522,489,465,522,460
537,491,460,520,459
535,505,478,516,481
513,515,501,507,527
499,523,518,500,577
501,526,533,497,588
487,519,534,499,604
514,522,535,497,589
527,518,534,491,583
525,514,531,495,570
528,498,519,494,553
532,495,514,505,517
530,494,502,520,471
529,487,492,528,445
520,488,487,536,442
511,491,481,544,440
508,492,473,535,442
509,492,467,526,430
491,499,467,523,428
485,508,482,513,461
497,521,502,505,514
522,529,520,499,579
517,524,526,496,578
533,519,527,495,587
549,520,533,496,581
523,511,525,493,591
513,501,521,492,558
508,496,515,500,551
496,492,511,508,531
478,487,500,525,505
482,487,488,530,479
489,491,480,533,488
501,489,474,536,477
510,488,467,536,431
530,494,465,536,411
522,504,475,528,458
498,515,494,516,492
503,525,512,509,490
495,529,524,499,580
504,520,525,493,582
507,516,528,492,595
500,516,530,493,597
483,512,525,487,606
509,507,521,491,574
566,503,514,499,511
573,492,503,504,500
536,481,487,520,458
551,485,480,528,429
540,489,476,536,417
505,482,467,531,449
469,487,468,534,451
478,491,468,530,462
499,507,478,520,497
486,517,493,509,542
474,528,515,505,567
457,523,525,500,587
454,521,530,496,592
450,523,535,502,573
450,514,531,496,589
453,502,524,485,588
496,498,522,502,499
514,497,514,508,457
550,491,502,516,466
547,485,488,526,470
530,479,475,532,463
517,487,469,530,476
504,488,465,529,512
536,490,465,536,446
543,495,467,528,417
528,508,480,514,463
531,518,498,500,508
509,528,513,496,528
447,522,528,495,577
469,526,533,499,642
484,523,534,495,629
507,511,528,494,579
528,500,522,497,541
543,497,516,498,539
517,489,504,504,531
508,489,501,527,463
498,489,497,535,455
545,495,486,538,400
521,490,475,534,412
495,486,468,531,456
478,486,465,523,474
497,497,472,515,479
528,513,487,516,525
523,522,506,511,537
539,530,524,505,551
526,520,527,501,546
486,513,523,487,571
477,511,526,486,538
484,518,531,496,537
454,500,521,495,561
458,497,516,505,561
485,499,511,515,538
469,488,493,516,474
434,488,485,521,473
429,475,472,526,497
520,480,468,536,421
540,490,477,551,364
469,487,464,530,441
437,492,470,515,502
458,502,484,508,536
521,515,508,504,581
506,520,521,492,601
468,519,527,489,606
537,523,530,489,633
603,523,534,487,685
508,510,529,493,682
493,499,518,488,588
557,505,516,504,499
507,497,508,533,408
465,493,499,535,438
469,491,491,543,435
479,495,483,545,432
470,496,476,537,409
511,494,469,531,339
518,501,469,519,419
523,509,483,506,532
500,513,496,497,603
451,515,515,497,601
442,513,524,502,578
455,520,534,506,617
460,514,534,502,551
439,502,528,504,501
559,508,523,494,559
622,501,513,493,589
531,485,502,496,555
485,482,493,510,455
504,498,494,529,426
522,505,492,537,402
544,498,477,536,447
471,472,457,525,434
486,478,456,526,385
536,502,482,540,432
503,509,493,510,484
509,532,517,504,561
496,551,539,501,656
446,532,540,503,632
404,516,532,501,667
440,515,533,505,603
497,520,537,527,514
372,481,511,513,537
315,450,481,488,534
286,466,492,507,432
208,455,480,499,456
373,471,481,499,521
713,507,481,536,438
814,523,488,575,352
627,505,481,566,439
428,483,464,548,431
329,490,471,522,407
377,513,491,497,462
508,534,517,489,550
614,530,528,490,592
683,524,524,486,633
644,524,531,491,705
574,522,535,482,773
642,527,537,493,617
658,507,521,500,401
621,492,505,504,323
478,485,502,514,399
352,475,488,514,518
289,469,477,523,513
301,464,467,523,448
366,463,461,523,451
492,477,458,523,519
472,494,466,516,520
328,495,475,496,568
324,518,499,503,530
286,529,524,512,481
339,528,537,513,590
518,526,538,519,507
627,522,536,509,595
514,508,530,497,618
413,507,534,505,641
523,526,540,503,595
585,527,532,521,502
752,520,512,514,463
780,490,485,530,356
691,471,470,536,341
604,472,464,540,381
426,459,456,528,412
423,471,459,532,331
432,487,467,532,358
439,503,488,515,521
511,530,512,501,624
694,556,532,495,632
831,575,544,500,627
700,551,544,492,684
547,517,528,475,697
504,500,524,467,642
566,502,521,489,555
473,483,511,523,508
332,469,497,521,389
402,481,496,526,450
527,484,488,523,520
602,491,482,521,530
597,505,481,531,458
541,510,487,545,371
419,503,474,535,418
395,487,477,518,361
507,502,491,507,425
477,525,523,518,531
272,522,531,504,662
269,504,527,506,556
494,510,524,501,507
727,525,531,513,420
693,512,525,478,654
679,511,519,468,669
612,489,509,490,486
562,481,499,502,481
656,497,501,527,428
629,499,492,532,450
568,485,478,538,477
514,486,473,537,486
477,488,470,527,481
494,497,471,524,455
430,510,484,514,531
417,512,494,500,598
402,509,512,505,666
457,530,533,507,599
546,529,535,494,592
572,529,537,495,705
542,514,530,499,758
535,496,528,518,523
534,490,518,500,361
485,509,530,532,329
412,492,513,526,405
471,476,493,523,427
547,503,489,529,412
529,492,480,537,390
536,479,468,529,400
563,480,457,513,431
522,496,474,508,473
459,513,491,507,539
447,515,503,496,597
531,524,520,493,606
593,539,536,488,542
595,520,531,489,591
627,535,543,498,545
627,528,539,499,525
571,502,522,493,543
480,488,508,491,561
465,490,512,513,514
475,484,502,528,438
548,500,496,536,407
540,497,491,541,406
534,484,480,540,473
535,489,474,539,456
350,455,450,515,523
331,477,470,513,611
320,504,496,515,632
405,520,517,506,525
534,524,527,491,546
506,525,533,486,615
418,527,545,489,619
492,517,535,479,632
563,507,529,492,592
761,525,534,513,444
680,518,535,521,388
623,499,513,508,439
632,481,490,518,434
622,490,487,529,530
575,494,483,535,516
563,489,473,549,343
540,490,472,549,323
532,498,477,524,402
536,506,488,508,434
533,526,510,507,537
520,544,536,506,561
492,550,550,511,590
534,538,549,502,601
525,511,528,483,592
483,488,517,478,538
476,481,520,492,462
465,483,521,517,532
415,480,510,522,505
447,483,502,521,470
472,488,491,509,514
474,499,490,527,514
459,501,488,548,516
513,495,478,537,456
605,501,469,525,471
552,501,481,522,610
373,504,499,529,661
365,510,513,525,516
421,529,542,521,447
587,528,542,494,450
484,508,530,475,634
414,499,527,478,710
469,492,524,478,618
628,494,517,482,454
540,486,514,492,462
470,492,515,514,523
369,479,496,511,455
385,489,489,524,418
564,508,487,538,432
720,506,481,541,421
689,508,480,538,410
641,511,480,539,383
578,514,491,528,491
562,522,503,520,618
557,517,519,512,559
514,516,532,496,453
453,510,533,484,512
416,514,537,483,519
459,513,535,477,634
581,519,540,505,637
607,507,535,519,531
529,497,522,510,536
579,513,524,506,516
639,506,508,526,431
643,512,496,536,389
616,509,489,536,409
529,484,471,528,472
439,475,465,526,475
488,496,477,521,481
467,509,495,518,537
438,498,504,514,539
464,502,519,506,528
295,496,530,497,679
141,488,526,487,789
202,486,530,486,702
616,529,546,498,524
753,531,541,493,419
712,515,526,493,402
594,498,521,518,461
538,492,508,525,429
533,487,494,529,440
543,495,490,531,457
484,491,482,525,432
458,494,479,534,439
465,493,473,529,446
542,497,475,512,480
544,518,501,514,521
493,532,527,509,584
549,551,548,505,592
530,520,537,493,561
412,497,529,488,601
309,494,531,484,576
413,498,540,488,609
728,520,537,497,538
660,512,529,514,503
588,500,518,514,522
587,499,507,529,530
568,495,492,532,433
535,500,489,535,444
559,498,475,537,414
529,495,472,542,366
553,502,479,565,309
555,516,494,539,456
493,514,503,509,517
453,501,510,464,597
511,515,538,485,549
515,513,537,485,604
521,512,538,487,618
498,512,537,490,619
446,504,533,483,612
526,510,536,500,515
482,499,528,513,470
458,505,524,529,540
506,494,504,534,496
490,484,487,525,503
496,487,482,530,451
515,499,482,551,393
519,491,474,556,422
526,503,481,558,378
498,503,484,497,510
551,514,504,480,529
562,522,524,483,614
545,518,536,491,638
519,515,539,489,573
521,522,546,495,536
514,510,545,497,559
489,506,537,493,575
372,486,523,498,569
382,486,513,503,543
497,498,506,518,500
589,502,496,533,428
599,501,490,534,357
514,499,487,535,453
438,493,480,532,467
391,480,461,516,476
604,497,473,518,471
626,521,501,515,518
573,524,517,505,545
502,528,542,503,557
531,519,536,491,582
496,516,537,494,586
514,511,543,508,579
506,509,541,510,507
480,500,534,502,567
460,501,526,498,508
433,501,517,512,545
459,491,500,514,547
595,509,499,538,450
641,511,488,532,370
609,503,480,535,375
545,496,477,536,410
512,494,474,528,416
440,497,483,525,485
338,486,494,501,583
357,494,510,482,641
544,522,533,489,672
616,528,538,490,638
633,540,553,502,656
587,532,548,510,619
508,502,536,509,533
409,483,521,498,436
432,484,516,486,505
560,503,510,509,494
581,496,496,520,435
488,491,487,532,411
491,490,479,536,402
499,499,479,552,350
606,513,483,540,320
555,506,483,531,459
531,509,493,514,497
515,509,508,503,584
515,514,527,489,631
481,510,536,484,619
472,511,538,489,588
486,515,543,492,597
549,511,540,491,568
561,511,537,498,548
541,509,533,501,527
508,497,515,505,513
501,494,507,515,498
541,501,499,533,423
492,498,489,545,398
512,497,485,548,406
457,490,476,529,465
399,489,470,520,483
390,497,480,517,504
496,518,507,523,501
533,529,530,518,597
497,525,539,506,676
535,517,542,502,576
596,519,538,494,474
606,515,533,475,573
594,514,535,478,540
535,498,528,493,567
528,498,525,504,518
537,499,516,508,516
546,502,508,528,467
536,500,501,534,469
532,497,487,525,468
518,497,483,535,458
508,493,477,537,460
480,492,474,532,464
421,487,476,513,474
426,499,499,508,498
393,516,529,515,587
422,517,537,497,631
535,524,540,494,556
571,521,539,492,514
519,504,537,493,568
598,509,535,492,563
554,504,531,495,548
531,506,522,502,531
550,507,518,518,484
578,498,502,530,459
531,497,496,541,432
553,509,490,544,454
531,501,481,535,451
544,503,479,533,426
538,492,475,519,460
487,500,491,513,489
434,504,504,499,574
371,508,522,496,624
379,509,538,498,603
467,513,542,502,517
480,514,546,503,517
340,497,536,488,664
456,515,546,504,529
643,515,538,513,469
641,506,518,502,462
549,491,500,515,459
550,485,486,517,493
555,503,493,535,451
532,505,484,534,454
534,501,483,537,420
568,500,476,536,439
553,505,486,535,475
538,515,501,521,490
538,517,522,505,492
504,513,535,490,527
470,502,536,493,606
489,510,538,487,648
564,522,544,498,597
573,519,547,497,544
508,505,538,493,535
535,505,529,507,562
533,501,520,527,543
534,506,508,527,525
454,492,489,524,431
485,502,489,525,396
518,498,482,531,412
557,504,482,539,417
534,495,476,526,464
454,493,483,519,509
411,499,504,517,529
450,506,518,483,609
600,520,536,492,587
530,519,544,500,591
525,514,543,503,573
540,511,541,499,573
522,506,538,489,561
491,505,531,490,540
451,499,522,498,523
492,500,517,523,479
502,506,505,537,493
478,502,495,537,462
595,491,477,525,440
613,498,478,533,402
564,500,475,537,426
544,500,479,519,501
493,501,489,507,537
472,508,507,505,524
451,510,528,502,559
450,510,536,495,570
508,512,540,505,596
478,506,540,497,565
509,512,541,494,554
555,516,537,491,519
557,508,534,504,496
522,495,519,506,503
551,501,509,522,442
549,506,504,538,453
520,513,500,542,473
464,512,497,543,449
428,504,486,541,477
529,490,466,522,406
543,494,478,523,527
531,497,491,506,496
487,510,514,506,442
427,515,533,489,615
458,505,530,478,620
570,512,539,500,564
505,498,536,500,535
494,502,532,487,605
505,505,535,481,672
514,503,527,505,505
605,513,522,522,458
605,506,507,534,427
561,504,495,536,432
527,496,486,531,450
480,497,483,537,394
466,493,472,532,403
447,486,469,522,474
466,495,483,515,536
526,518,508,515,530
519,527,531,504,561
534,528,547,503,588
510,503,535,495,585
488,504,534,492,587
432,499,533,487,602
471,509,536,489,594
585,511,533,493,556
559,507,527,506,516
505,512,526,525,489
472,497,505,534,447
478,490,492,535,478
504,490,481,542,429
523,489,476,534,375
479,485,472,531,418
472,498,479,523,448
459,502,488,507,556
588,523,512,503,568
566,520,530,496,575
525,512,538,499,580
528,509,536,495,600
482,514,542,495,639
483,507,541,490,640
523,507,536,496,551
573,513,531,501,484
556,501,521,512,458
514,488,505,524,433
496,496,498,531,416
587,504,492,541,386
566,499,483,535,381
555,507,481,541,438
557,501,474,522,462
527,499,479,514,508
509,511,501,515,566
473,513,516,495,642
480,521,534,497,661
494,508,538,494,584
503,508,540,503,506
498,504,540,513,489
496,507,538,494,557
491,505,532,478,564
578,514,528,492,507
580,502,515,505,483
517,493,503,519,483
533,502,496,532,458
538,507,489,535,426
518,496,480,531,430
491,494,477,537,444
473,492,473,517,476
501,497,479,508,528
517,511,507,511,537
512,517,528,508,530
499,520,545,512,539
474,517,545,501,603
472,512,543,489,604
509,505,538,482,561
532,510,537,492,557
528,503,528,495,579
523,502,522,506,526
537,505,515,519,465
534,499,500,525,451
544,501,493,532,437
544,501,484,536,427
525,501,479,534,431
510,501,479,537,431
483,496,479,527,450
472,497,485,513,514
484,508,509,510,551
504,520,531,501,576
491,519,542,501,587
503,513,540,495,579
521,514,542,496,572
525,506,540,494,571
522,507,536,497,545
498,501,530,504,532
472,500,521,515,530
481,508,518,522,493
513,506,504,533,424
516,497,489,533,447
527,500,481,533,435
538,500,474,533,450
566,504,476,535,471
532,502,481,514,479
529,504,498,507,520
488,506,513,503,552
477,511,535,503,602
465,510,541,502,583
502,514,544,495,564
523,513,539,491,584
542,507,538,491,568
530,500,532,497,549
537,502,523,498,531
537,501,517,510,517
524,496,503,526,464
524,502,497,539,437
528,503,489,535,415
538,501,481,536,428
523,499,477,541,432
510,494,473,522,459
484,497,484,517,484
486,506,505,511,514
484,508,521,501,547
514,514,537,499,580
503,511,536,489,607
507,517,543,497,593
533,511,543,495,584
516,505,536,492,578
516,503,532,499,552
511,503,524,508,529
509,501,516,513,506
533,498,502,526,462
548,506,494,533,435
522,499,489,538,415
521,497,482,539,426
516,496,475,531,431
507,498,478,525,471
501,501,491,517,504
504,507,509,505,539
504,517,532,502,571
504,516,541,498,580
519,514,541,496,574
517,513,542,496,571
509,510,542,496,570
510,504,539,496,561
511,500,531,501,545
520,502,522,508,519
526,501,507,521,485
519,502,499,531,454
521,507,495,538,444
521,504,485,539,438
521,500,476,530,445
486,496,477,534,460
446,501,485,523,477
443,504,502,518,524
521,510,516,507,548
543,519,530,489,577
504,507,539,497,587
522,515,543,493,589
512,515,545,495,578
513,511,542,496,580
521,501,532,494,555
528,500,526,503,534
537,505,518,512,499
539,503,508,527,469
534,503,495,532,448
521,500,488,536,443
519,501,480,534,439
518,501,478,533,433
507,495,473,525,459
506,498,483,516,491
504,507,504,509,525
502,514,523,504,566
508,516,539,497,582
513,514,540,498,576
517,515,543,496,570
511,510,541,495,575
511,508,542,493,574
514,504,532,499,551
514,501,522,506,524
519,503,516,515,495
526,500,502,534,463
531,502,493,535,445
524,504,487,538,434
526,500,478,536,431
513,499,475,531,441
502,495,472,520,470
501,501,491,513,507
497,510,511,508,542
496,516,532,503,575
492,517,541,500,581
479,513,540,498,581
488,514,546,496,584
516,509,543,493,585
530,505,534,493,572
530,503,527,498,546
531,503,518,509,518
533,504,511,520,481
533,498,499,532,452
530,500,490,541,440
530,499,482,534,433
511,497,477,533,439
512,498,475,531,443
502,499,481,521,474
495,504,498,515,516
496,511,517,506,553
504,517,535,497,579
507,514,540,494,577
506,509,540,493,580
509,510,541,494,579
512,506,541,493,572
511,505,537,496,562
519,506,529,503,532
521,502,517,512,510
529,501,503,521,468
526,501,498,534,447
524,504,489,536,435
519,502,481,536,433
514,501,477,536,438
502,492,471,528,458
500,497,482,517,492
505,509,504,507,522
507,512,523,503,552
506,518,538,496,577
511,512,538,492,572
510,513,539,494,579
509,510,540,491,582
513,510,539,491,571
516,506,533,499,554
520,502,522,505,524
524,502,513,516,490
524,500,498,526,460
525,502,492,533,444
524,501,484,537,437
521,502,480,535,440
516,504,477,535,441
506,496,475,525,466
499,504,490,515,502
501,512,511,510,544
503,516,529,500,568
505,515,536,496,579
512,512,539,493,574
512,514,542,492,573
511,511,541,493,567
518,509,535,495,557
519,505,531,498,539
522,502,518,507,512
524,502,506,518,481
529,504,498,531,451
526,504,490,535,440
523,502,483,535,435
519,498,474,533,436
514,499,474,531,445
501,498,480,518,474
503,506,498,513,511
502,512,520,507,543
505,518,539,503,573
511,515,543,498,572
510,511,544,496,572
512,510,542,496,573
510,507,539,492,566
510,504,535,495,559
514,501,527,501,533
521,501,518,508,500
526,500,505,523,470
532,501,493,530,443
532,503,488,532,435
524,501,482,536,434
513,499,477,535,439
506,496,474,523,454
501,500,485,518,487
503,509,505,510,523
503,513,526,503,553
508,517,540,497,574
510,514,542,494,572
512,512,542,494,569
514,511,542,493,568
515,509,542,495,563
513,504,535,498,548
517,504,527,506,524
519,507,517,517,496
521,502,505,529,456
522,506,495,534,441
521,507,487,537,432
518,503,482,538,437
513,499,477,536,441
511,497,477,522,462
509,501,494,517,501
508,507,511,507,533
509,514,534,503,564
512,512,541,496,571
514,510,541,491,564
515,508,543,496,562
519,508,544,492,557
520,512,542,498,552
520,506,534,502,540
516,504,522,507,515
524,502,511,517,484
522,503,499,528,457
527,506,494,533,445
524,504,487,536,436
521,503,483,536,436
516,501,478,532,443
498,497,483,523,475
494,504,500,509,518
501,511,522,506,548
508,520,541,502,578
515,514,545,498,573
518,508,543,497,567
512,508,544,495,565
513,509,544,497,562
518,509,542,501,546
516,506,532,502,527
519,504,522,510,502
525,502,509,518,475
526,504,499,529,450
522,504,493,531,442
521,500,486,533,434
520,502,484,535,439
506,499,477,524,459
500,497,489,517,487
501,509,511,510,521
502,514,530,504,560
505,517,549,501,583
508,511,546,496,582
512,513,545,493,581
514,513,546,494,575
515,511,544,490,569
515,506,537,498,552
517,503,527,505,524
525,507,519,516,494
528,501,507,526,460
527,505,500,530,441
524,504,497,536,436
521,507,493,536,435
515,502,489,532,440
503,500,488,524,467
501,503,500,514,497
501,510,520,508,534
506,516,538,501,566
512,517,544,496,578
512,513,543,495,580
514,513,544,495,575
513,511,543,495,572
511,508,541,493,563
515,505,531,499,541
519,504,524,505,511
526,504,516,518,476
530,503,508,529,451
526,502,505,535,436
520,501,497,535,437
517,501,496,535,436
513,500,497,533,443
506,500,499,524,473
505,506,509,515,506
499,512,527,510,546
505,516,539,502,578
512,513,545,498,579
517,514,547,497,573
519,513,546,497,565
517,514,545,500,558
503,507,539,495,556
514,502,531,500,534
520,499,523,504,507
525,502,515,522,471
526,505,513,531,445
523,503,503,535,439
518,503,498,534,437
515,504,495,533,437
506,497,492,522,454
497,499,499,518,487
500,508,515,510,523
504,516,536,506,556
508,519,546,499,576
510,513,546,499,568
510,508,545,495,570
510,513,547,492,576
513,512,545,493,569
511,508,539,497,553
520,503,530,504,522
520,501,523,516,493
523,500,515,528,459
525,502,509,534,443
521,504,505,533,430
521,503,500,534,429
514,499,496,533,435
505,501,497,522,460
499,504,508,515,499
500,508,526,508,537
507,515,542,501,569
510,516,551,496,583
510,512,549,493,584
512,509,551,491,571
514,510,551,494,570
507,505,546,495,566
513,508,540,501,539
514,501,532,505,519
518,501,522,520,488
523,500,514,532,448
526,500,510,538,434
523,504,505,537,433
521,504,501,536,434
510,501,499,530,440
498,500,499,521,475
500,505,518,509,509
502,512,534,504,548
510,517,553,497,580
510,516,556,493,580
510,512,557,494,580
517,510,555,494,573
509,508,553,493,572
510,507,549,497,564
513,508,543,505,533
517,503,529,511,505
524,503,523,525,471
524,503,515,533,444
521,504,507,538,433
522,500,503,538,423
515,501,499,537,433
505,498,495,527,447
500,502,506,516,482
499,508,525,507,525
502,515,542,498,563
505,518,554,494,585
508,514,559,495,584
508,509,557,493,585
509,509,556,493,582
514,511,558,495,574
510,506,546,495,554
520,505,542,504,525
520,503,533,518,491
524,502,518,531,455
527,504,514,537,433
520,505,505,538,428
516,502,498,534,426
518,500,498,533,426
506,497,498,523,456
494,502,511,514,500
500,511,533,507,538
507,517,552,502,571
508,517,559,496,581
506,514,559,497,583
509,510,558,491,582
507,511,559,493,583
509,508,553,494,579
513,506,547,504,547
518,503,536,509,516
523,501,527,522,481
523,500,515,533,445
526,504,511,539,435
520,503,502,538,427
509,502,498,535,432
515,501,498,533,432
502,500,502,516,466
501,506,516,510,510
500,510,537,505,549
506,518,552,498,582
505,517,557,496,586
508,513,554,494,589
509,512,552,492,587
512,507,549,492,579
514,504,548,498,564
518,507,542,506,537
514,502,532,513,509
517,499,522,529,467
522,502,510,537,439
522,502,510,539,428
521,503,503,537,426
511,508,501,537,425
505,499,492,524,445
497,501,504,517,479
499,509,520,509,524
502,513,539,500,561
509,518,554,499,586
509,515,553,494,589
507,512,550,492,590
510,511,550,494,586
510,512,550,495,579
508,505,543,495,560
515,502,535,506,527
518,501,528,520,494
522,503,518,529,453
522,502,511,537,437
518,502,505,539,431
514,501,498,535,425
513,501,498,530,428
506,501,498,524,459
502,505,510,514,496
501,510,526,508,536
504,515,541,499,576
508,511,547,496,594
509,513,549,494,587
510,512,549,491,583
512,511,551,496,584
513,510,547,496,575
513,505,538,504,550
514,502,526,506,518
520,502,526,523,483
522,501,513,534,448
523,504,510,539,431
520,503,505,537,425
516,498,498,536,423
512,500,497,532,434
498,497,498,521,469
497,503,510,508,512
502,510,527,503,551
503,515,544,496,587
508,513,546,493,588
510,513,546,495,587
509,509,546,495,583
510,508,542,493,581
511,503,537,497,569
513,505,533,506,538
518,503,522,513,505
524,504,518,527,468
524,503,512,533,444
525,503,507,538,431
519,502,499,538,425
515,503,498,537,430
507,497,491,526,446
497,500,499,518,483
503,507,516,509,519
508,515,533,503,559
506,516,542,496,590
511,513,545,494,581
507,510,541,495,580
509,509,542,494,582
509,509,541,493,582
512,505,534,497,561
515,501,528,507,530
519,505,523,519,494
521,502,514,531,458
522,504,509,537,438
519,502,503,539,431
516,502,497,537,429
512,500,493,534,432
503,498,494,521,458
500,501,504,512,495
505,508,519,506,535
504,514,535,501,574
507,514,544,493,587
510,509,543,498,584
511,511,545,494,581
510,509,543,493,579
509,508,541,494,570
513,505,536,501,550
516,502,525,509,516
522,502,520,523,482
519,498,506,534,445
523,503,503,535,435
518,501,495,534,428
516,499,491,534,426
514,499,491,533,430
502,495,491,521,466
500,503,505,510,508
500,511,525,504,548
507,517,539,497,578
511,511,544,497,584
510,509,543,496,581
511,515,547,494,584
509,509,542,490,577
507,505,534,495,564
512,503,529,503,538
517,501,522,513,507
519,500,509,527,471
523,501,504,536,443
524,504,500,538,431
519,503,492,537,426
515,498,489,534,427
507,498,486,526,444
505,502,496,514,481
500,506,513,508,523
504,513,528,499,559
510,517,544,493,587
509,512,545,493,584
507,508,543,495,586
511,510,545,493,579
512,508,544,493,573
513,500,535,498,554
511,501,525,505,526
515,505,518,518,496
524,502,507,531,451
523,504,499,537,433
520,503,490,536,427
514,500,483,531,426
512,497,482,532,432
505,497,484,523,456
502,501,496,515,494
500,508,516,504,536
502,513,536,498,574
509,515,547,495,586
509,513,545,494,585
509,511,547,494,582
514,508,546,493,576
512,505,543,496,566
516,503,536,502,544
518,500,526,510,518
525,503,518,523,481
523,502,503,534,445
521,502,496,537,434
517,502,487,537,429
517,501,484,537,426
506,497,481,529,433
502,497,483,519,466
497,504,497,509,509
502,512,522,504,548
508,516,541,496,578
513,512,545,498,583
510,514,546,496,577
511,509,545,495,574
506,509,544,489,585
511,501,537,493,572
517,508,531,504,538
515,502,522,513,506
518,498,509,527,472
521,499,497,534,444
518,502,495,539,431
519,502,485,538,428
512,501,482,535,431
502,497,476,526,445
499,500,487,517,481
498,509,505,509,522
497,517,527,501,557
505,516,542,494,586
511,513,545,495,585
509,510,540,491,586
513,509,545,492,579
516,510,542,494,576
518,506,536,499,557
523,504,527,504,525
522,500,517,519,496
526,498,501,530,457
525,505,496,538,439
531,503,487,541,421
524,500,482,538,425
516,506,480,532,433
511,496,478,522,458
501,502,491,512,494
497,510,513,507,535
497,517,533,498,571
505,516,540,492,588
506,511,545,493,586
507,509,542,491,585
506,509,541,491,581
505,505,541,501,575
508,505,530,500,550
514,502,522,509,518
519,501,512,521,484
529,500,500,531,447
524,502,492,534,434
513,497,484,539,434
516,500,481,536,428
517,499,478,534,436
502,498,478,521,470
492,502,496,511,511
501,513,519,503,546
505,519,536,496,580
506,513,542,495,585
509,510,542,490,581
506,508,543,495,582
511,510,541,494,577
511,505,537,497,562
516,505,531,504,537
517,502,520,511,508
526,501,510,526,469
524,501,496,536,439
522,502,487,539,430
513,499,479,537,432
516,501,479,533,432
506,497,473,525,448
497,500,484,517,484
501,508,504,508,519
503,512,525,502,556
506,518,541,494,585
509,514,543,496,583
507,510,539,491,583
510,512,543,492,580
509,508,542,492,574
512,505,535,501,552
512,507,527,510,525
518,503,517,519,494
519,499,501,530,460
521,501,495,536,443
529,503,485,539,430
519,496,478,536,434
512,499,477,534,437
504,496,474,522,458
501,500,488,512,495
498,507,506,504,534
502,514,530,495,570
504,516,540,496,586
509,512,540,493,583
503,509,538,489,584
504,508,541,494,580
514,509,540,492,569
519,503,530,501,547
519,502,524,509,518
520,501,511,519,482
528,502,499,534,450
526,502,492,537,437
520,501,481,535,430
515,499,479,539,431
513,499,479,534,437
503,499,480,522,465
500,505,497,512,503
499,510,517,509,549
503,514,537,498,582
507,513,541,493,584
512,510,539,493,581
511,508,541,490,578
509,507,544,495,576
509,508,537,498,564
510,503,529,503,540
510,502,518,513,511
521,501,506,524,474
524,501,496,532,448
522,503,491,539,435
515,500,480,536,432
511,501,477,535,432
513,498,475,525,449
504,497,483,519,480
504,505,500,509,518
507,512,519,501,551
505,515,540,499,580
516,516,538,497,578
508,508,540,495,586
504,513,544,491,586
509,504,535,489,580
510,504,532,493,560
514,503,525,508,530
519,502,513,516,499
522,500,501,529,461
527,503,494,536,443
523,501,486,537,433
515,498,480,535,430
516,501,474,533,433
500,496,474,520,458
503,501,488,515,489
497,509,509,507,532
499,515,530,499,573
506,514,539,494,587
509,512,541,493,580
507,508,540,493,584
511,511,541,491,579
508,506,539,494,570
512,502,531,501,547
515,504,522,511,518
521,501,510,522,483
522,498,499,532,450
520,500,491,538,441
517,500,486,538,434
515,499,479,535,435
510,497,475,534,441
502,498,479,525,469
501,507,497,512,510
501,511,516,505,546
506,517,536,496,579
506,513,534,493,584
509,509,539,494,582
510,509,540,495,580
509,508,541,493,576
513,506,537,496,563
516,501,525,503,539
515,499,517,513,508
520,501,507,527,474
524,498,495,534,447
523,502,495,538,436
517,498,481,536,432
513,496,477,534,437
507,495,473,531,448
498,502,484,519,481
498,506,501,510,522
501,513,521,500,557
503,515,538,496,586
508,512,539,495,583
511,509,540,491,580
508,509,539,493,579
509,506,539,493,575
509,503,532,498,559
514,504,526,509,529
520,502,516,518,497
521,498,502,531,461
521,500,495,540,442
522,501,488,540,432
518,499,480,537,427
514,499,478,536,432
503,497,477,523,460
499,501,488,512,497
499,507,508,504,535
505,515,529,497,571
507,513,539,493,584
509,511,540,496,583
510,512,540,492,582
510,509,539,494,575
511,507,537,492,570
514,500,530,500,548
515,502,520,509,520
520,502,512,521,484
526,498,498,532,449
528,502,491,538,436
520,500,483,537,427
513,500,482,537,431
506,497,476,533,438
502,496,477,520,469
498,503,493,509,511
499,509,513,500,548
504,515,536,496,581
510,513,539,492,583
505,509,540,494,583
510,512,541,492,581
511,509,538,491,573
511,504,535,493,560
514,505,529,502,540
517,501,517,512,509
522,498,506,528,473
520,497,494,532,446
524,504,490,537,434
518,499,480,533,431
509,499,479,539,433
504,496,474,528,447
498,501,485,516,483
499,505,502,508,519
499,511,520,502,554
510,517,539,496,579
511,508,538,496,574
512,506,539,494,579
510,506,541,492,581
512,508,536,493,575
508,506,534,501,559
513,502,524,505,526
518,501,513,517,496
525,504,501,530,459
526,504,496,536,438
521,503,488,538,433
519,501,480,533,432
514,501,477,534,432
501,497,475,525,459
500,501,486,513,494
500,506,508,506,530
502,517,529,498,566
506,517,539,495,582
509,512,539,495,583
508,508,540,493,578
513,510,540,495,576
512,507,537,493,566
512,505,528,500,547
513,502,521,509,517
519,501,511,521,486
525,501,497,532,451
521,504,490,536,436
519,500,482,537,430
512,497,478,536,431
512,499,477,531,438
501,498,480,522,468
501,505,496,514,501
499,510,515,503,545
508,518,535,493,577
509,514,539,494,579
508,511,538,494,583
508,510,540,494,578
509,509,539,494,572
511,504,536,497,559
515,504,528,504,539
515,501,517,512,509
522,499,506,525,473
522,499,496,534,446
522,504,491,538,433
520,497,480,534,428
515,499,475,532,430
508,497,473,527,447
499,499,483,518,478
498,506,502,509,517
502,512,523,502,555
509,518,540,495,581
510,512,540,491,577
509,508,538,493,576
508,509,541,494,578
512,510,541,497,571
518,504,534,500,554
518,504,525,509,520
520,501,516,518,495
517,498,503,530,460
522,502,497,535,440
523,501,486,538,428
518,496,480,542,433
509,497,478,538,436
503,496,476,523,454
499,500,487,514,492
496,507,508,504,531
505,515,530,497,566
511,516,539,493,581
510,511,542,495,578
506,510,541,493,579
513,511,544,494,575
508,507,540,492,569
512,506,532,501,550
515,501,522,508,517
520,503,511,522,482
520,499,500,535,451
519,503,493,534,440
515,500,480,535,431
514,500,481,534,431
509,499,474,531,437
501,498,481,521,468
504,505,495,512,504
504,512,516,503,541
507,514,534,498,578
508,514,541,492,583
510,510,540,494,582
514,506,537,492,575
515,508,541,495,573
511,503,534,497,558
514,504,530,501,537
519,500,517,509,511
522,500,508,523,475
525,503,496,533,448
523,503,490,539,436
517,498,481,536,429
514,497,479,535,429
503,496,474,530,444
499,498,480,516,480
497,507,498,508,518
503,515,522,501,559
502,516,536,494,587
500,510,542,493,583
504,509,543,493,582
509,510,540,490,579
512,508,540,491,570
513,503,534,498,553
517,500,525,508,525
526,500,516,519,495
530,501,502,525,461
526,500,490,530,444
524,498,486,538,436
518,498,480,533,431
519,501,479,536,431
509,495,475,521,456
502,499,488,514,493
495,505,507,506,533
500,514,527,498,565
508,513,540,498,584
513,514,542,496,577
513,509,541,493,573
507,510,537,492,580
505,508,539,489,573
514,506,531,496,547
515,498,521,510,520
520,501,512,516,484
525,499,500,529,454
522,503,493,537,441
520,501,484,538,428
516,498,478,538,429
513,498,477,533,434
500,499,480,517,468
498,505,494,510,505
499,509,515,504,541
504,520,535,499,576
510,514,540,496,579
511,515,542,496,578
505,507,538,490,582
510,507,537,490,576
510,506,533,493,564
514,504,527,503,538
517,498,518,512,508
523,500,505,524,470
524,501,498,535,445
520,504,488,536,436
514,498,480,532,433
514,499,475,532,434
506,495,474,525,444
499,496,482,516,479
500,506,501,506,517
500,512,521,503,555
505,517,541,498,577
503,511,540,497,577
501,508,541,494,578
505,510,541,494,578
504,506,539,492,581
508,504,534,498,557
511,504,525,506,529
521,503,515,517,498
532,499,503,529,461
523,501,496,537,442
522,502,490,540,432
519,498,479,535,426
516,501,477,533,429
503,495,473,524,454
498,499,488,518,488
498,508,505,506,528
507,512,524,498,571
506,514,541,492,593
507,510,541,495,588
507,506,542,494,584
508,514,542,494,582
507,510,541,495,573
515,504,531,500,551
523,503,522,507,518
519,503,512,522,481
520,500,497,531,453
522,501,492,539,440
521,501,486,539,430
508,500,483,537,435
506,496,474,532,440
508,497,479,520,466
510,504,493,513,506
507,511,517,505,543
503,514,535,498,578
508,513,541,495,581
513,512,544,495,579
508,508,542,492,581
513,508,541,491,571
518,507,537,495,561
520,505,529,504,536
514,501,519,512,509
522,500,504,522,471
527,501,494,533,441
529,501,489,537,429
516,496,481,534,430
514,496,476,533,437
508,495,474,529,447
503,499,480,516,480
502,503,501,509,521
504,510,519,501,552
507,517,541,498,582
504,512,541,496,581
508,512,539,492,581
509,509,539,490,578
508,509,535,492,575
509,503,533,495,557
513,500,523,504,530
518,501,515,514,500
520,499,502,524,462
523,501,492,534,442
524,500,488,538,430
514,498,476,533,433
512,499,474,532,435
504,498,473,524,455
499,501,487,515,490
499,507,507,505,529
502,513,528,500,566
507,516,539,493,583
512,512,545,498,578
510,509,540,493,578
508,509,540,491,574
512,508,537,494,566
510,503,530,498,550
512,499,521,506,521
518,501,512,517,484
523,498,499,532,451
521,501,494,538,439
522,503,485,538,430
514,501,478,536,432
511,500,479,535,436
505,498,478,523,465
500,503,494,512,505
501,510,511,503,548
505,517,532,497,579
506,514,539,492,586
509,512,545,494,584
508,508,540,493,578
512,509,540,495,574
509,507,536,494,562
513,502,526,503,536
520,500,517,510,511
525,502,508,524,473
520,499,496,535,447
524,502,490,539,433
519,499,479,534,432
516,500,477,535,432
510,498,474,529,444
504,499,482,518,478
502,505,500,514,511
500,512,521,508,549
498,519,533,495,586
507,513,537,490,584
508,510,538,492,578
505,507,539,492,579
508,508,539,494,576
510,505,529,493,558
511,502,525,502,534
516,500,515,515,502
524,500,503,527,464
524,501,493,535,443
524,503,488,537,432
520,497,478,536,430
523,498,476,533,431
508,501,475,526,457
497,504,488,516,493
497,509,506,507,533
502,514,525,499,565
506,516,539,494,587
508,512,541,494,579
509,512,539,492,578
510,511,539,492,577
510,508,538,494,569
513,506,531,499,553
515,501,521,507,522
520,500,512,520,485
526,500,499,531,454
528,501,491,535,439
523,501,484,542,432
512,497,475,534,437
506,497,473,530,445
501,499,476,520,468
504,502,492,512,505
502,508,511,504,542
500,520,532,498,577
505,515,539,492,583
510,513,540,492,579
509,507,539,491,584
509,510,541,492,576
511,505,537,495,566
513,504,527,500,539
515,501,517,509,511
522,497,506,522,477
525,500,497,530,446
523,504,489,536,436
513,497,480,535,435
509,498,474,533,436
507,496,473,526,449
501,502,481,518,479
500,506,501,509,516
501,513,520,502,548
504,517,538,496,576
507,512,537,493,577
509,509,540,497,584
509,509,539,492,580
510,509,540,494,576
511,504,531,495,559
517,502,526,504,530
519,501,519,515,502
524,502,503,527,464
523,502,494,534,442
524,504,491,539,431
516,499,478,537,429
512,500,479,533,438
501,496,473,522,459
498,501,487,515,492
496,506,508,507,534
502,515,527,499,565
509,518,543,498,583
511,516,541,495,580
510,509,542,494,577
511,509,538,491,575
510,507,539,491,568
512,504,532,499,548
514,503,523,505,519
523,502,514,519,484
521,499,498,527,453
524,500,492,532,439
519,501,480,534,432
510,498,478,533,434
511,498,476,532,438
501,496,477,520,467
502,501,493,509,505
505,513,512,502,540
506,518,535,498,570
509,515,540,492,577
513,510,541,494,578
502,506,539,493,581
498,505,539,494,579
505,506,536,494,569
518,505,530,501,540
518,504,519,511,510
520,501,505,520,476
529,502,496,533,447
530,504,490,538,435
525,496,479,536,435
521,497,478,536,432
512,496,475,533,442
506,500,483,520,475
498,507,498,511,519
506,515,521,502,553
505,517,537,495,584
506,510,539,493,584
509,510,542,493,580
509,509,541,493,575
510,510,541,495,573
510,505,533,496,559
513,505,528,504,532
517,502,518,517,499
518,500,503,527,462
527,500,496,536,439
526,500,489,541,427
519,498,480,536,431
517,501,477,529,435
502,496,474,524,460
498,501,487,513,492
502,509,508,506,530
497,512,526,501,565
505,516,541,494,580
505,514,540,495,577
501,508,538,490,577
510,509,540,491,575
517,510,538,494,575
519,505,530,496,549
519,504,523,509,521
526,503,515,522,484
525,502,499,530,451
524,502,490,535,437
519,502,483,535,437
518,498,478,534,431
514,500,477,533,437
501,498,478,522,469
496,502,494,515,508
499,507,515,505,541
502,516,537,500,574
507,515,541,495,576
508,509,541,496,579
507,509,542,494,580
509,511,541,492,575
515,506,538,494,562
517,501,528,502,537
517,499,519,513,510
519,501,509,523,474
520,500,496,534,449
522,502,491,538,437
516,499,481,536,435
514,502,478,534,434
507,496,474,528,447
499,500,483,518,480
499,506,502,510,517
501,516,520,503,550
505,519,537,496,579
507,511,539,495,581
509,510,543,495,577
503,508,540,491,582
511,508,541,494,577
510,504,537,498,556
515,503,526,504,529
519,502,516,516,497
521,499,505,527,466
525,500,495,534,445
522,502,488,539,433
515,498,479,533,432
515,500,476,534,434
504,496,473,525,457
498,498,487,515,491
499,508,508,509,530
503,514,526,497,563
507,515,541,497,579
508,513,541,493,576
509,506,538,491,581
509,509,541,494,574
513,508,540,496,561
516,507,534,500,547
510,499,520,504,522
517,500,510,518,490
525,497,498,530,455
522,501,493,536,440
522,504,482,537,432
512,499,476,536,436
511,501,477,529,435
503,499,479,522,466
501,505,493,515,503
503,511,513,506,539
506,518,534,498,569
506,517,539,496,578
514,516,541,495,573
519,510,540,492,572
504,507,541,494,577
512,511,538,496,561
513,504,528,502,544
516,502,520,513,513
518,501,504,520,479
522,500,497,532,449
521,503,490,535,438
517,498,480,538,436
518,499,477,535,433
500,498,476,531,444
489,498,479,519,481
493,505,498,510,516
497,511,519,504,544
499,515,534,494,581
499,511,537,492,584
508,509,540,493,581
523,511,537,492,577
520,508,540,493,574
518,504,539,498,556
518,502,526,504,530
521,501,515,515,497
528,501,506,528,461
523,499,493,535,444
521,502,488,537,432
517,496,477,536,434
514,498,474,532,436
506,493,473,523,459
500,499,486,515,485
503,508,507,509,525
499,513,530,503,564
496,514,534,494,587
504,511,540,494,573
508,510,540,489,579
508,506,538,490,574
503,505,537,494,578
508,503,532,498,550
512,500,518,504,523
526,501,512,520,489
529,498,499,530,455
523,500,491,539,439
519,501,485,537,429
511,497,477,530,432
507,498,477,532,436
498,496,478,519,466
494,502,492,513,504
500,508,513,506,539
516,517,531,496,571
523,516,541,494,578
519,512,539,493,575
510,506,538,491,580
513,508,542,493,576
512,506,537,499,567
516,500,529,502,541
519,504,519,511,508
523,501,507,521,476
527,501,497,531,445
524,501,489,536,435
517,498,483,538,430
514,499,480,536,436
508,498,473,529,447
502,498,482,520,478
499,504,499,510,515
503,513,517,503,551
505,516,538,498,578
508,512,546,495,580
506,514,542,494,576
512,506,538,493,573
509,507,540,491,569
511,504,533,495,554
513,501,525,503,534
521,502,517,515,501
527,500,505,527,460
527,502,495,536,441
519,503,490,541,433
513,498,476,534,431
508,499,478,531,436
500,494,471,524,457
497,499,485,515,490
496,508,504,505,528
498,513,526,502,567
506,518,541,497,581
514,514,542,498,575
516,514,541,493,575
509,510,539,491,576
511,509,539,492,568
511,505,533,500,549
515,502,520,505,523
520,502,512,518,489
521,499,497,528,454
520,498,491,535,438
525,503,487,539,428
512,498,478,535,436
519,500,476,536,430
504,498,475,521,460
495,504,491,512,499
499,511,510,504,543
501,513,529,496,583
510,513,538,489,585
509,513,539,493,578
505,508,539,492,578
510,509,541,491,575
510,505,536,494,560
511,504,530,501,542
515,503,518,509,512
524,501,506,520,477
523,501,496,531,450
521,501,492,539,434
516,496,481,536,431
511,500,476,535,433
507,497,473,530,445
500,496,481,521,476
498,504,498,512,515
502,513,519,502,552
504,517,536,495,580
506,513,541,495,582
511,512,542,494,579
507,508,538,490,578
508,507,540,496,574
508,504,535,500,558
517,503,525,505,531
521,500,519,514,503
521,499,505,524,466
525,501,492,535,442
521,503,488,539,434
512,497,478,535,434
510,498,477,534,434
502,495,473,523,454
500,499,485,517,490
501,509,505,509,528
495,514,527,501,567
510,516,537,496,581
513,513,537,494,577
510,510,541,494,579
511,509,537,493,577
512,507,540,494,567
514,504,531,500,547
519,502,522,505,518
517,501,510,518,490
523,500,499,527,456
528,502,493,537,440
524,498,486,538,430
511,497,477,534,435
511,501,476,533,438
501,495,477,525,467
500,504,491,515,504
498,508,513,503,541
502,513,530,496,570
505,511,539,493,581
509,511,541,497,576
507,508,540,494,578
515,510,541,495,569
513,503,538,496,558
524,505,532,504,538
515,504,520,510,517
516,498,507,521,483
525,500,496,529,450
523,499,489,537,440
514,498,482,536,439
511,496,475,532,441
509,495,472,527,443
499,498,481,520,476
500,509,500,511,515
500,512,520,503,547
501,518,535,496,582
509,515,541,493,583
511,510,540,493,582
509,505,536,489,583
511,507,540,495,577
509,500,532,495,558
512,505,527,505,532
516,500,517,515,504
518,499,504,526,465
520,500,494,536,444
521,499,489,540,429
514,494,479,536,433
510,498,480,535,440
505,495,475,522,458
502,502,485,517,492
501,508,504,509,529
505,514,525,501,560
506,516,536,497,580
512,511,541,500,578
505,511,546,495,585
508,511,541,491,579
509,509,540,496,572
513,501,531,499,550
519,502,523,506,521
519,502,516,518,490
517,498,500,528,457
524,502,491,537,442
520,502,485,538,437
513,497,473,531,432
509,499,477,534,436
496,496,477,523,469
505,503,493,516,505
514,512,513,508,539
511,516,533,502,573
513,516,544,495,581
513,512,539,495,573
509,509,541,494,580
514,510,541,494,575
518,507,534,496,565
522,504,529,502,542
522,505,521,512,512
522,502,508,523,478
524,500,498,532,451
526,503,493,537,435
521,501,482,537,432
514,499,479,536,435
509,497,475,531,444
502,500,483,519,477
499,507,499,512,516
503,512,520,505,548
504,517,535,495,582
504,514,539,494,585
509,513,545,496,578
511,509,541,494,577
517,507,541,495,566
518,506,531,495,552
509,502,528,506,531
517,505,517,513,509
520,499,503,523,468
524,502,496,533,445
526,503,490,539,432
515,498,479,533,433
515,497,477,533,436
504,497,474,524,456
501,501,487,516,488
507,509,508,511,524
511,513,525,504,561
507,513,536,498,580
504,515,540,493,577
507,511,541,492,574
508,509,540,489,574
507,509,536,492,572
511,505,533,497,552
513,502,523,506,525
518,500,514,519,491
521,498,499,528,458
522,502,488,533,441
519,500,487,538,431
509,497,475,535,436
515,498,473,534,435
501,497,476,519,465
500,503,491,513,505
503,510,512,507,537
503,518,530,499,573
507,514,538,493,580
513,507,539,495,573
509,510,540,493,578
503,510,540,491,578
513,507,538,497,564
509,501,528,499,544
514,500,518,509,514
521,502,509,521,478
521,498,497,532,452
522,502,492,538,438
521,500,480,536,433
514,494,476,534,434
511,498,475,531,440
501,500,479,521,480
499,506,496,511,516
502,512,520,503,547
505,516,537,498,574
504,511,537,494,585
508,512,546,495,578
507,509,539,492,577
510,509,537,493,576
512,505,534,495,558
512,502,525,505,530
516,501,515,510,501
522,500,504,527,467
522,500,495,538,445
519,503,489,541,435
517,500,478,536,431
514,499,479,535,437
504,493,471,524,454
498,498,486,519,490
499,507,504,508,526
504,514,526,500,560
505,515,537,495,587
507,511,540,497,578
510,509,542,496,574
510,508,539,492,579
511,509,539,493,569
510,503,533,498,553
515,501,523,506,526
521,503,514,517,489
522,500,500,527,455
522,501,491,533,439
519,500,485,539,429
507,495,475,534,433
509,498,474,533,441
503,499,476,522,464
502,504,497,514,500
505,510,512,506,539
505,515,532,500,572
507,520,542,497,578
513,513,542,496,578
512,509,538,490,584
511,508,540,497,578
506,507,534,493,569
514,503,531,500,541
520,499,520,512,512
529,503,511,524,477
526,500,499,536,448
524,502,499,539,436
517,500,484,538,435
508,497,475,531,436
506,497,474,526,441
497,498,478,517,477
496,506,499,508,517
501,513,519,503,548
507,519,536,496,581
512,516,542,494,581
509,512,542,494,575
510,512,539,493,575
511,510,541,493,573
512,504,534,497,558
514,502,528,504,533
515,502,514,512,504
520,498,505,527,466
522,502,494,535,441
524,504,488,539,429
515,500,477,533,433
511,500,479,530,439
502,496,474,527,455
503,502,486,515,487
500,509,507,508,528
499,511,524,498,563
502,517,539,496,584
504,512,542,496,581
506,511,544,494,579
505,508,541,492,580
512,508,538,495,571
519,504,530,499,547
517,502,521,505,521
520,501,514,515,488
524,496,500,528,454
522,498,490,535,439
531,503,487,542,428
515,497,479,536,433
515,502,480,530,439
499,495,476,521,469
498,499,490,509,504
497,509,512,501,539
502,520,532,499,572
513,512,537,493,581
514,513,542,495,579
511,511,542,491,581
510,508,538,491,578
508,505,536,494,566
517,505,532,499,543
517,502,520,509,514
521,502,506,521,479
525,498,496,530,450
523,501,488,535,434
522,501,481,534,428
518,499,477,535,433
511,500,475,533,441
502,499,481,519,476
499,505,495,507,513
497,508,515,501,552
504,517,537,497,580
508,514,539,493,581
507,509,540,494,581
505,507,539,491,580
511,507,540,492,576
509,505,534,493,557
512,501,527,505,534
516,500,515,513,503
522,502,508,527,468
524,502,493,533,446
523,503,488,537,431
521,501,480,536,432
515,501,476,534,435
503,497,475,524,455
500,501,484,516,488
500,510,505,507,525
500,512,524,498,561
506,517,541,497,581
508,515,542,494,579
512,513,542,494,577
514,508,539,488,573
513,510,542,497,568
510,504,533,499,554
518,502,523,506,522
517,502,512,520,493
523,501,500,529,457
523,502,492,537,443
520,501,487,539,434
511,495,476,533,435
513,499,475,532,436
503,497,478,524,465
500,501,491,516,502
499,508,511,508,540
501,515,531,500,569
505,513,538,494,585
510,512,541,495,578
508,510,540,491,580
512,509,540,495,578
510,507,538,495,571
510,503,527,499,544
516,501,518,508,514
521,501,512,521,480
524,503,497,534,448
525,502,492,539,433
520,501,483,538,430
512,498,475,534,433
511,496,475,533,438
503,496,482,522,474
499,500,497,512,513
502,509,517,505,552
510,514,534,499,580
506,512,540,496,582
508,513,541,493,579
508,507,538,490,581
507,509,541,494,576
512,506,535,494,559
511,503,530,505,537
518,504,520,516,505
522,501,504,525,472
