CH1,CH2,CH3,CH4,CH5
519,501,498,531,423
511,499,496,524,437
503,498,492,516,468
501,502,502,510,513
499,509,508,503,553
503,513,522,503,587
509,514,526,496,589
511,511,528,498,582
512,508,527,500,581
510,504,524,497,581
510,508,524,499,565
513,502,518,505,540
517,502,518,514,508
522,503,515,525,469
523,503,509,532,439
524,502,510,538,426
519,502,501,534,424
509,499,496,529,430
501,495,491,519,445
500,498,495,514,482
504,505,501,507,521
506,514,515,504,558
508,515,525,502,586
510,511,525,496,584
513,509,525,497,580
509,508,526,497,585
513,506,525,498,571
507,505,525,502,556
511,502,516,506,527
516,505,517,518,494
523,501,513,528,458
521,504,507,532,443
520,505,507,532,431
513,501,500,536,434
507,498,494,528,439
497,495,489,520,461
498,501,491,511,495
505,508,502,503,532
505,512,517,496,567
508,512,524,499,589
510,512,525,498,584
511,511,525,496,581
507,506,524,492,579
506,505,523,496,574
513,504,518,501,549
520,501,519,510,521
521,500,517,519,486
523,503,508,528,452
525,504,510,535,435
523,504,505,535,424
517,499,497,529,426
508,497,492,527,430
502,498,492,515,459
500,502,497,509,501
499,510,510,502,540
500,513,519,499,583
505,517,525,497,598
508,512,527,497,589
505,509,527,498,589
505,506,522,495,586
510,506,523,498,569
510,502,521,505,547
519,501,516,511,515
522,503,515,521,473
527,503,510,533,438
528,504,507,536,424
523,504,503,535,419
515,499,494,529,428
509,498,494,525,437
500,496,492,515,477
495,504,505,508,521
495,511,513,501,554
499,515,523,498,589
505,512,526,495,590
508,512,527,495,582
507,507,525,497,583
514,508,523,496,580
517,505,521,499,564
515,500,522,508,535
519,503,519,514,498
522,502,511,526,461
519,501,509,536,440
520,504,507,537,426
510,499,498,532,426
503,495,494,531,436
495,493,489,522,457
492,497,494,512,494
504,508,505,506,537
515,513,517,500,569
519,514,523,498,587
521,515,527,499,588
515,511,527,499,580
507,503,523,495,582
506,506,525,498,571
506,502,521,502,552
509,502,517,509,526
520,502,516,523,487
537,505,511,530,450
528,499,505,533,435
523,504,505,536,423
523,500,494,531,425
515,498,493,526,434
501,499,489,518,459
495,501,498,510,503
495,506,506,503,539
504,510,518,499,576
505,515,525,498,581
508,513,527,497,574
517,512,526,497,585
522,507,524,492,580
520,506,524,499,571
519,504,525,507,542
518,503,517,512,509
523,504,515,520,475
522,504,510,529,445
520,502,507,536,428
518,504,502,537,418
504,498,495,529,427
499,498,491,525,443
505,497,494,518,474
502,505,499,509,515
498,510,515,503,556
502,516,522,498,589
516,513,524,498,589
526,515,529,499,580
516,510,526,495,582
510,506,520,494,582
512,500,521,500,561
517,502,521,506,533
520,502,518,517,505
525,503,518,530,461
526,503,511,537,433
522,504,508,541,424
519,503,501,534,425
507,498,494,530,436
507,496,491,521,450
500,500,493,510,480
495,505,504,509,524
500,512,513,500,561
503,513,523,499,583
509,511,526,496,583
510,512,528,497,590
511,506,523,495,590
512,508,526,498,580
511,504,521,501,557
513,501,517,514,527
519,502,517,519,488
526,501,511,527,450
520,500,509,532,440
521,505,506,538,431
513,501,500,530,429
504,502,494,528,435
499,497,491,520,463
497,503,496,511,502
498,506,504,505,541
500,513,522,501,580
500,512,525,499,590
503,510,525,498,587
500,511,526,498,585
497,504,521,494,587
502,505,523,499,572
503,501,522,505,547
526,501,518,512,512
534,505,516,525,476
526,505,511,534,447
535,506,508,538,429
540,505,505,537,419
520,501,496,530,426
512,498,493,527,434
504,495,492,518,469
498,503,500,509,511
498,513,512,504,550
503,516,523,500,585
506,513,525,494,584
509,511,527,498,583
518,510,528,499,583
515,509,526,498,583
516,506,524,504,562
518,502,519,508,535
520,498,514,512,502
525,503,513,526,464
526,506,510,535,438
523,505,506,535,430
517,503,499,536,426
512,498,492,528,432
503,495,488,519,447
496,498,491,513,478
489,503,500,505,524
491,511,512,500,568
499,514,526,498,593
502,511,524,497,593
509,511,525,495,587
521,507,525,497,584
522,513,526,499,576
517,507,523,502,551
517,502,518,507,513
519,502,517,518,482
526,502,511,529,445
526,500,507,535,430
524,506,507,537,429
520,502,499,530,434
510,498,493,526,436
499,498,491,521,459
499,499,496,510,490
499,507,503,509,532
497,510,517,499,574
500,514,525,498,587
518,514,526,499,579
511,509,527,500,584
512,507,522,493,586
510,506,524,497,576
508,502,521,502,557
511,503,517,512,530
516,503,516,522,491
517,503,509,527,456
516,501,506,536,440
519,506,504,536,426
514,498,495,529,419
515,500,491,527,426
506,497,491,516,461
500,502,499,510,501
505,509,508,502,540
506,515,522,497,576
510,512,528,499,579
514,511,525,498,583
510,508,525,498,584
505,505,524,497,588
508,504,524,502,560
512,502,520,504,531
514,500,516,511,509
523,499,512,522,471
522,502,510,533,444
521,507,508,536,429
517,502,501,532,422
510,499,492,528,434
504,497,489,522,450
499,496,493,514,480
501,504,500,505,518
509,511,515,501,558
510,515,522,497,584
511,512,525,498,581
515,510,527,498,575
511,505,524,494,581
508,505,525,496,588
506,505,522,499,564
510,504,522,509,529
516,504,516,518,501
522,501,512,529,460
529,505,507,534,435
528,505,506,538,425
518,502,498,532,426
506,499,491,527,437
501,496,488,518,457
494,502,496,512,496
493,506,506,505,537
503,513,519,501,575
511,516,526,494,588
512,512,527,499,582
508,510,525,497,586
502,509,526,495,590
504,511,526,499,578
503,504,523,502,558
520,502,519,515,523
531,501,516,521,483
527,502,512,531,449
527,502,506,534,433
524,503,503,536,426
517,502,496,530,429
512,499,494,526,435
502,499,491,514,472
498,503,498,507,508
501,512,512,503,546
503,512,520,499,581
501,511,525,497,588
505,510,528,499,586
506,510,530,497,581
500,505,522,495,580
505,504,523,495,567
525,507,521,506,534
535,502,519,515,504
531,504,517,527,471
526,505,511,535,438
524,502,505,538,432
521,505,503,533,426
514,501,494,526,434
511,499,492,523,444
503,497,492,516,481
501,508,503,510,522
502,511,514,502,563
507,515,524,496,589
510,512,528,497,587
512,512,527,497,580
507,507,524,496,585
505,508,525,493,579
503,504,525,499,561
509,503,522,508,534
513,502,515,514,501
519,501,513,526,459
523,506,508,535,442
531,506,508,536,428
530,506,502,535,424
516,500,493,528,436
500,495,489,515,454
489,498,495,512,495
490,508,508,506,529
491,513,515,497,569
493,513,525,497,594
514,511,526,497,587
519,508,525,496,577
526,506,524,494,579
524,509,525,499,568
520,503,522,501,548
523,503,518,512,522
523,500,515,521,489
529,505,512,531,443
528,504,506,534,428
528,505,503,538,419
518,501,494,530,426
518,496,492,527,434
504,498,490,516,462
496,500,495,511,511
496,509,509,502,549
500,512,519,496,585
503,513,522,495,593
507,511,527,495,590
516,512,527,498,588
515,506,523,495,580
514,505,525,504,567
507,500,520,506,543
518,499,518,511,511
523,504,515,523,476
526,503,510,533,441
525,506,507,537,423
522,504,502,537,419
513,500,493,528,425
511,498,494,525,436
500,498,492,516,473
496,505,499,508,520
499,509,511,502,552
498,515,523,500,586
498,512,525,496,589
503,512,528,496,576
501,506,526,496,589
513,510,525,497,588
511,505,526,499,572
511,504,520,507,541
511,501,517,516,509
523,503,515,526,470
520,503,510,535,442
521,504,506,536,427
515,502,501,533,424
508,497,492,529,434
511,500,491,521,446
493,500,498,512,486
498,505,504,505,527
507,513,517,501,559
513,519,526,500,589
513,515,530,501,588
502,513,530,499,603
498,509,527,496,599
500,510,525,498,588
503,502,522,498,555
522,503,516,509,507
536,504,518,522,466
534,504,511,530,430
537,505,508,534,420
534,505,506,537,411
524,497,496,532,418
502,495,494,529,446
496,496,489,517,465
491,502,497,512,495
457,502,506,504,548
442,509,518,502,583
446,507,523,496,594
465,506,527,501,585
481,507,528,496,581
483,503,519,491,576
517,505,525,496,561
573,508,521,504,537
579,509,522,513,513
556,505,514,523,483
543,505,512,531,459
536,504,506,535,450
535,504,502,534,430
522,495,494,530,431
524,501,495,527,441
508,500,492,515,476
502,505,505,510,516
500,509,514,507,562
498,518,524,499,620
496,517,529,500,619
491,516,530,502,611
503,510,527,494,621
495,507,525,497,599
493,501,523,499,561
506,503,520,506,522
528,500,515,510,490
541,500,511,525,455
541,508,513,536,438
525,506,510,538,425
514,504,505,535,427
503,498,496,528,441
496,496,492,524,458
513,499,496,518,469
523,506,503,505,489
531,516,517,502,520
539,521,529,503,549
537,513,526,500,547
530,515,529,499,551
510,506,524,495,585
518,509,525,494,606
507,506,522,500,596
499,506,519,511,562
490,505,517,522,537
493,504,514,532,493
506,505,507,534,435
508,498,500,531,417
528,501,497,533,408
524,499,495,526,421
509,497,488,520,440
506,503,497,512,474
497,510,507,508,526
495,516,524,506,579
497,519,529,502,601
517,518,531,501,602
506,513,533,501,596
498,506,524,496,575
520,511,525,496,554
522,505,525,504,522
525,498,515,514,488
548,497,508,525,448
540,497,509,534,419
525,505,503,534,419
526,511,503,535,417
515,507,496,529,454
510,510,499,528,471
485,506,495,516,509
492,509,502,508,534
499,512,509,504,574
495,515,523,507,586
505,507,524,501,568
517,507,526,501,536
522,505,524,499,534
523,502,520,494,545
522,504,522,498,534
520,499,516,504,527
523,503,514,516,497
534,503,512,525,468
540,506,508,536,439
529,506,504,535,457
513,500,498,536,447
508,498,492,530,451
506,494,484,522,469
507,498,488,509,504
509,502,498,505,543
512,512,514,504,579
527,520,527,501,590
519,515,527,504,571
493,515,527,503,553
465,509,523,500,562
458,510,528,498,599
458,509,523,503,600
442,509,524,512,582
453,507,520,523,542
450,503,512,529,454
519,504,506,536,389
511,503,502,540,375
482,501,499,538,370
489,498,495,539,409
465,488,484,516,516
501,492,483,505,520
525,502,498,500,585
535,518,516,497,660
497,518,528,498,674
477,514,528,503,612
525,515,529,504,557
523,509,522,503,549
493,496,522,506,519
479,489,511,499,500
544,502,517,504,505
552,504,516,510,485
545,499,506,527,427
544,500,499,530,391
511,497,497,535,401
464,488,483,529,436
465,491,486,526,431
431,494,487,518,514
391,502,498,514,546
409,506,507,500,573
454,514,517,500,567
481,509,521,493,562
512,515,526,500,587
588,512,526,503,611
553,511,523,504,637
518,511,530,515,555
509,508,526,515,514
522,512,522,516,490
554,501,511,522,449
572,500,503,527,448
573,500,497,532,456
542,493,489,532,438
535,490,485,532,414
557,504,487,532,406
543,502,487,517,449
545,505,500,512,507
538,503,506,498,571
548,517,523,499,578
560,505,521,491,592
549,511,523,491,585
540,511,526,497,585
509,510,525,494,614
498,498,518,494,595
518,494,512,508,551
548,499,510,520,504
542,493,502,525,431
529,496,495,533,377
531,506,499,534,397
505,505,497,535,435
490,502,488,529,503
496,504,485,517,532
488,506,497,517,526
508,508,502,508,506
543,511,511,500,516
545,513,522,494,521
532,511,526,499,545
507,512,523,493,632
494,505,522,492,634
474,507,528,492,604
506,498,519,501,547
537,495,515,509,487
525,500,515,524,479
526,497,504,535,467
520,497,494,535,469
520,500,489,533,418
536,498,481,534,416
492,490,480,526,482
443,483,473,510,520
448,498,490,512,497
478,513,514,516,511
490,517,524,503,543
515,518,529,495,560
529,519,533,500,585
529,514,532,501,572
523,511,530,500,565
517,510,530,496,548
468,501,521,501,545
459,497,517,514,558
454,491,506,519,588
452,496,501,534,552
459,494,493,533,506
477,485,476,524,429
522,490,473,531,348
525,501,481,546,367
555,505,487,536,424
535,511,494,508,501
467,509,516,513,527
426,517,534,506,562
363,501,528,488,649
364,495,524,487,610
375,498,529,484,569
455,511,538,503,499
471,513,538,501,592
493,515,531,508,653
492,506,520,531,564
486,492,503,544,412
490,482,484,547,316
496,487,481,551,333
502,481,470,530,436
566,491,467,512,516
601,486,462,504,505
602,498,474,501,563
492,503,494,503,584
402,511,519,524,566
347,510,532,518,598
338,512,534,498,574
432,509,530,486,486
576,523,542,492,454
612,519,545,503,526
598,508,528,502,601
570,493,509,505,521
563,485,501,519,471
611,495,491,532,430
580,492,487,528,409
524,497,482,531,438
505,498,483,531,510
505,499,483,535,536
443,488,477,537,505
411,492,483,523,480
451,518,509,518,462
454,525,532,512,512
515,523,535,493,551
549,514,532,494,572
606,515,535,505,556
528,506,528,494,616
465,496,522,497,633
506,495,519,507,657
466,501,514,510,608
448,488,497,513,532
512,488,492,533,368
566,500,493,529,350
564,511,494,519,475
503,489,476,510,499
493,485,470,504,496
497,482,474,499,425
498,495,492,510,341
592,532,523,530,426
595,546,545,532,475
585,535,545,532,492
590,522,538,509,533
500,496,516,472,694
522,497,515,469,643
555,497,516,489,546
581,492,505,496,524
561,493,505,515,513
515,493,500,515,500
500,495,498,527,481
467,497,496,533,478
398,503,498,544,564
330,489,488,554,529
281,468,468,524,551
445,481,478,518,499
546,503,494,498,457
556,515,512,485,536
533,518,521,483,571
592,528,532,503,577
598,520,534,512,549
575,520,531,509,523
523,514,532,499,585
486,511,532,517,558
448,502,520,504,550
436,504,510,514,589
489,517,513,525,662
545,513,506,532,606
523,482,481,532,534
536,486,481,547,406
530,482,468,535,294
470,490,482,532,316
452,499,491,491,461
517,512,509,492,501
544,514,516,490,515
587,507,521,512,454
520,510,532,532,471
474,507,534,513,593
484,495,515,484,630
564,503,523,489,517
538,508,526,502,521
515,503,517,519,471
443,509,521,541,534
370,497,503,525,655
319,495,499,523,499
323,476,481,533,361
484,479,466,521,351
687,514,480,522,421
573,527,502,519,563
410,521,515,522,541
333,508,515,518,505
390,483,504,476,609
402,481,514,491,555
503,498,524,497,536
473,501,523,492,522
520,515,529,488,423
632,521,533,495,508
655,520,527,501,609
562,505,511,510,567
414,488,503,523,583
309,473,483,516,429
332,492,493,536,379
463,496,494,558,459
467,481,478,554,448
494,488,474,544,419
512,499,489,513,531
494,503,504,488,592
455,506,514,493,545
456,512,530,489,553
424,503,531,495,521
440,506,532,492,636
542,511,532,490,746
607,514,529,501,556
596,506,527,508,507
536,503,520,513,379
621,503,510,506,382
665,518,510,528,425
604,528,512,547,461
453,510,496,549,466
444,486,473,521,397
484,487,472,514,432
424,493,480,515,495
441,489,484,518,527
547,495,503,520,507
543,514,528,519,523
563,521,541,498,566
639,519,537,479,575
722,525,542,486,561
644,521,543,494,567
494,518,544,497,604
362,495,525,494,646
298,489,508,494,628
365,497,512,529,604
451,485,488,518,543
418,489,485,538,493
375,513,496,569,477
361,499,484,569,500
544,481,461,535,451
742,488,461,491,310
771,502,483,477,474
777,527,511,498,484
653,514,529,492,432
605,515,540,501,499
596,534,554,511,488
589,524,548,509,528
587,504,534,503,529
553,518,543,504,498
447,505,539,528,402
509,501,518,504,469
646,505,503,515,498
602,503,496,531,528
563,495,481,525,494
567,495,475,517,454
586,497,470,519,508
543,494,469,519,508
502,490,472,515,502
418,491,496,511,572
351,505,518,510,524
397,520,536,508,657
576,518,548,526,510
532,517,548,514,523
512,506,534,470,644
564,518,542,493,722
490,496,526,498,589
522,494,515,509,431
509,499,516,508,479
509,493,501,517,451
559,494,485,521,340
517,504,492,542,425
473,503,487,558,493
443,498,483,550,521
456,497,475,521,381
525,496,479,494,355
595,502,495,483,457
536,521,529,501,584
435,507,540,504,611
443,504,539,501,615
504,503,531,488,609
521,494,522,479,613
527,507,535,500,593
547,514,528,501,558
545,505,519,509,490
491,495,508,512,556
441,520,509,533,540
443,524,507,549,551
537,509,489,561,376
452,476,461,520,348
317,468,456,498,479
356,486,471,507,421
543,506,492,510,445
630,515,513,506,521
597,512,527,494,568
566,506,537,503,549
531,512,540,506,589
464,504,541,505,605
453,489,529,503,570
249,480,528,493,694
233,490,523,502,658
347,487,514,535,560
614,513,512,552,314
707,525,504,542,326
692,519,487,510,362
667,504,479,510,470
644,518,482,527,529
508,500,478,530,530
410,488,484,529,458
503,496,493,508,481
521,506,516,499,552
634,523,536,496,475
595,502,531,484,550
622,511,536,491,522
609,512,541,499,519
571,509,543,517,520
539,505,530,495,594
462,511,531,505,557
440,515,521,518,593
480,504,502,515,515
567,516,501,535,451
516,503,491,542,424
516,512,488,545,372
577,508,477,535,355
605,484,461,506,466
541,493,483,509,501
548,501,500,511,509
544,502,519,514,562
518,504,532,506,586
551,517,543,507,512
504,511,542,487,543
477,500,537,482,590
498,502,535,490,632
510,518,538,506,607
566,531,535,515,563
567,520,517,513,439
484,498,501,516,457
423,477,478,520,457
473,487,480,529,417
551,502,474,528,436
536,507,475,528,485
489,499,478,525,541
407,492,486,521,462
455,505,512,514,389
519,517,535,505,530
627,525,545,514,542
587,523,547,497,599
469,510,537,483,685
460,506,539,500,571
477,499,527,494,485
451,494,520,495,544
430,502,527,522,524
370,487,512,528,551
369,486,495,522,480
385,489,484,525,537
558,507,484,542,492
691,508,474,540,405
636,511,481,550,379
589,514,487,516,442
605,510,499,522,488
537,495,503,482,629
512,509,536,496,574
414,496,536,504,577
408,487,527,484,598
455,509,538,487,504
572,530,551,514,456
586,528,546,509,533
594,511,532,509,573
552,500,515,508,500
503,494,501,525,409
558,514,502,538,424
603,531,505,548,481
496,505,486,537,510
426,485,471,530,468
432,472,461,518,438
584,499,478,511,433
568,509,503,498,514
494,506,518,486,623
466,513,535,492,619
537,515,540,496,544
513,522,553,508,520
440,510,545,497,589
440,506,539,498,579
505,493,522,489,590
523,489,506,492,629
575,491,506,517,473
618,502,497,529,407
601,519,499,536,408
484,514,496,537,462
382,489,477,538,463
382,472,465,535,469
469,486,470,516,410
559,507,490,496,506
578,518,512,500,521
528,526,536,505,552
552,517,539,503,563
572,522,545,506,608
507,516,541,499,654
468,501,531,490,548
508,503,537,494,565
520,503,528,509,557
624,516,516,500,503
636,507,506,524,424
543,488,489,524,479
394,485,486,535,408
382,506,496,551,380
490,515,499,543,501
537,515,493,544,490
513,495,480,527,478
529,495,486,498,469
569,509,512,490,617
593,519,534,507,631
518,513,538,510,532
414,508,538,509,445
387,503,534,480,536
387,495,526,463,699
586,509,535,493,562
589,519,531,508,605
540,511,526,534,519
533,505,511,547,394
558,506,500,548,371
552,508,493,524,398
562,491,473,511,427
547,504,483,532,386
515,504,484,521,421
525,496,487,508,479
562,496,488,497,576
546,508,513,492,585
545,514,532,492,623
515,519,540,502,605
527,519,541,506,586
531,507,529,488,652
498,510,537,489,591
473,509,530,498,588
466,492,516,503,548
457,495,511,525,500
474,490,494,530,417
413,493,494,525,475
409,489,491,537,487
433,493,488,561,425
317,490,483,545,412
422,507,486,513,493
476,505,491,498,468
595,520,505,487,478
679,529,530,503,518
577,515,536,502,566
606,518,539,506,583
587,516,539,491,621
575,505,529,497,525
477,493,523,501,521
431,490,521,510,538
433,499,520,519,567
546,513,518,533,419
492,510,506,532,354
502,513,506,529,439
504,511,502,544,447
545,502,487,536,415
602,490,475,515,410
586,487,475,493,498
545,493,491,498,578
517,518,517,508,660
435,517,529,501,663
448,505,530,489,608
512,512,533,501,479
572,518,539,505,516
566,515,528,486,574
533,501,525,486,578
548,500,519,501,499
553,502,517,514,483
558,501,506,522,445
557,505,499,533,422
514,501,501,542,471
500,503,493,535,446
457,497,486,526,443
515,495,480,516,425
559,511,498,524,475
526,521,517,529,656
501,513,521,505,655
512,499,519,481,566
516,508,532,487,549
506,513,536,500,577
493,497,520,485,635
546,502,530,500,516
539,507,528,498,520
511,507,525,505,534
504,509,519,522,491
549,509,508,532,408
574,508,502,539,448
487,501,497,533,459
484,502,495,533,498
508,497,485,530,378
568,496,479,515,415
502,494,489,506,500
483,501,504,504,575
502,517,530,508,543
515,516,535,504,560
512,513,530,497,597
415,494,528,492,614
419,489,525,489,582
519,515,537,501,621
501,507,529,512,559
506,497,521,523,516
521,498,515,527,449
488,500,505,540,427
454,500,494,531,438
522,512,495,539,439
569,509,492,540,399
595,502,485,524,412
519,487,483,511,424
481,499,496,499,506
488,507,511,502,578
540,513,528,505,620
528,511,533,496,607
528,521,540,498,605
461,523,547,510,562
422,516,541,517,512
446,506,528,502,542
589,508,520,494,523
570,487,504,494,487
521,495,503,517,525
504,502,505,529,497
535,517,504,539,416
539,508,499,550,390
472,493,485,542,428
439,483,479,531,433
410,486,483,518,480
451,495,502,506,486
533,518,520,506,554
488,531,538,504,604
444,508,529,487,587
523,516,529,492,569
557,513,533,494,565
569,508,531,501,523
607,510,525,504,565
576,504,521,501,545
561,505,513,502,489
544,505,511,526,454
532,509,505,539,462
537,509,502,550,456
564,501,481,533,445
551,497,480,522,395
549,510,489,517,447
565,510,492,502,528
505,493,501,508,555
408,483,509,499,585
425,493,521,495,519
464,508,529,495,544
588,529,540,495,548
577,521,535,503,621
509,507,535,507,685
474,508,525,498,610
447,506,517,502,469
525,513,518,523,410
501,507,512,531,440
543,506,503,537,448
527,498,493,536,430
512,494,486,532,441
512,497,487,534,432
520,493,480,516,449
545,499,490,498,490
564,515,514,510,493
529,516,526,500,583
525,506,525,491,623
541,507,530,491,625
538,507,530,493,629
518,507,528,497,559
498,505,527,504,513
481,505,530,523,511
505,503,518,526,494
501,491,500,526,457
497,500,501,519,508
494,503,502,534,523
555,508,495,537,481
540,509,488,539,427
514,500,483,525,343
485,495,488,505,508
481,515,512,520,538
453,518,526,514,552
478,505,526,493,543
474,502,524,488,622
519,511,527,495,595
539,506,526,498,525
499,503,529,497,517
509,509,529,503,538
496,504,525,521,551
463,489,508,525,510
542,510,512,533,446
540,517,510,532,434
499,504,500,526,427
402,484,482,509,475
552,499,482,523,422
566,500,485,522,455
518,500,493,516,471
528,511,510,507,492
531,513,519,498,540
538,516,532,501,515
525,510,533,499,573
539,512,536,497,580
506,506,527,491,624
450,500,527,493,646
496,507,526,500,646
520,509,521,508,558
524,510,511,518,423
556,510,510,529,426
551,517,508,537,438
525,509,499,536,428
453,492,483,530,444
439,487,482,529,458
429,487,480,521,453
577,506,494,510,452
614,512,506,500,538
588,515,525,497,591
530,509,528,493,596
446,505,532,495,576
449,514,535,497,567
530,522,535,511,557
559,520,534,510,560
499,491,517,491,580
479,488,510,506,551
511,503,506,525,489
520,507,506,526,491
571,520,511,548,524
557,512,501,550,399
550,495,484,537,331
532,493,478,521,361
490,492,483,494,501
455,501,499,500,523
446,512,517,502,550
448,506,529,499,586
496,494,522,490,599
487,495,521,490,584
502,500,527,499,557
538,517,529,503,552
534,516,528,503,556
529,507,526,513,517
536,508,519,519,479
514,510,514,529,480
562,512,510,539,473
574,514,506,537,477
555,504,489,522,466
508,486,479,518,421
496,487,478,514,468
489,496,488,512,490
530,514,508,513,513
569,518,523,504,546
531,516,528,493,534
495,513,528,497,551
471,510,529,500,640
452,500,526,496,603
496,507,527,492,552
542,503,525,507,526
528,497,515,516,589
527,501,512,516,548
554,504,506,531,384
565,500,499,530,394
554,511,510,548,372
535,506,492,539,442
507,499,491,531,460
476,489,481,518,461
473,498,494,510,463
485,501,503,498,515
500,511,518,495,594
480,516,530,498,601
442,517,539,504,588
393,500,529,497,602
391,492,519,494,566
587,514,530,500,558
639,511,527,513,560
600,500,518,522,528
559,505,512,524,448
534,502,500,530,450
518,503,499,533,386
450,505,500,548,400
356,491,486,531,427
367,486,479,518,484
619,514,493,515,512
640,524,506,517,540
527,515,517,505,518
534,511,528,506,591
536,498,522,493,619
532,502,525,488,590
520,499,527,490,540
520,503,528,493,540
492,504,528,505,578
494,513,529,506,546
510,510,522,519,492
559,503,514,532,436
568,513,508,543,399
562,517,501,528,406
504,497,490,531,439
526,496,488,527,424
516,492,480,518,426
509,494,488,509,451
499,498,500,504,571
518,507,518,510,570
495,509,526,494,569
485,506,527,490,589
530,509,532,498,578
517,515,533,490,630
505,516,534,494,628
499,502,531,505,576
520,505,524,518,468
517,506,515,518,467
534,505,510,533,434
544,507,504,534,438
544,506,502,538,432
526,506,493,524,428
513,497,487,525,439
507,493,479,514,457
521,499,493,523,475
511,508,510,517,528
476,511,521,494,631
477,525,542,503,645
486,519,539,504,627
466,512,534,499,582
512,503,522,492,559
545,502,523,493,563
532,499,522,499,508
504,501,517,509,508
498,507,514,518,474
531,501,502,526,470
553,505,500,540,437
547,506,492,536,430
519,498,487,532,448
500,501,495,538,426
502,494,483,514,459
499,500,495,516,493
506,504,512,500,544
502,514,529,496,579
512,513,531,499,567
502,513,533,499,565
511,508,531,497,578
516,509,530,495,605
520,510,530,502,585
526,504,523,502,542
539,501,511,507,474
540,506,511,526,484
509,508,504,534,447
517,507,501,538,439
531,506,492,533,436
526,499,487,531,429
493,494,482,527,442
495,494,488,515,472
494,501,498,507,510
488,510,516,498,546
496,511,528,494,588
516,512,532,494,591
520,513,535,498,585
505,504,529,493,588
504,508,532,496,578
528,505,528,503,539
521,503,518,506,524
521,506,519,522,476
530,510,511,532,439
530,505,503,534,454
543,505,500,536,439
520,499,487,529,430
500,495,482,526,435
492,493,484,519,457
507,500,491,512,499
497,509,513,509,538
464,517,529,505,589
467,515,541,504,582
522,507,535,498,545
538,508,531,493,578
508,509,536,498,616
495,514,538,509,573
501,501,524,499,544
524,497,513,504,532
561,507,513,522,489
547,504,505,533,438
554,508,501,541,404
542,503,492,532,439
506,496,486,530,453
507,498,483,527,445
504,497,486,515,479
486,500,497,509,522
499,507,513,509,547
477,512,529,503,563
483,510,532,500,577
520,512,534,496,591
482,500,529,497,587
495,501,528,495,574
507,502,526,496,549
527,507,523,508,535
555,505,517,513,499
554,502,509,525,458
545,504,504,536,442
530,505,500,535,442
516,502,492,537,434
508,497,487,532,430
504,495,483,531,447
515,498,489,513,482
504,498,502,511,528
492,504,515,502,557
517,518,532,494,579
513,511,531,495,574
494,512,534,499,573
507,508,531,493,577
519,506,531,494,587
516,503,527,496,563
518,504,522,507,534
533,504,514,516,509
544,507,507,527,472
545,506,500,532,451
517,504,497,533,434
500,500,491,536,419
509,500,486,526,437
508,496,481,520,458
493,499,492,514,492
497,507,506,507,531
498,513,521,499,570
494,518,536,499,588
499,515,534,498,580
507,511,533,497,574
498,501,531,498,581
521,509,527,490,570
525,503,524,498,550
520,505,518,508,518
521,508,514,521,484
523,504,506,530,453
525,504,497,536,439
524,508,495,532,434
513,501,487,530,436
507,503,486,528,445
482,497,486,520,477
469,504,498,512,513
485,512,515,507,547
523,514,527,500,574
524,510,531,492,587
527,513,534,498,581
523,509,532,495,577
514,505,528,492,578
516,503,528,497,567
517,503,523,501,540
533,503,517,509,512
532,502,509,524,476
528,503,504,532,448
531,507,502,535,435
527,502,491,536,430
518,498,486,531,440
511,501,486,527,450
495,496,487,510,483
496,502,501,507,519
506,509,517,501,548
502,513,530,500,585
505,512,531,494,584
508,510,533,494,576
504,505,530,496,582
509,510,533,498,572
508,507,528,501,557
521,502,521,508,527
520,503,515,512,496
531,503,508,527,454
525,504,501,533,442
525,508,500,534,437
526,503,493,533,439
522,503,489,533,440
505,496,485,523,462
495,501,491,513,494
501,505,503,503,533
497,510,519,495,574
504,515,531,498,591
509,513,532,498,586
510,510,533,498,587
509,507,527,492,585
515,508,530,495,579
509,505,525,497,557
516,507,520,509,526
524,506,511,518,489
529,506,504,529,451
527,505,503,538,438
528,508,497,537,428
514,501,489,530,435
514,501,487,528,438
501,494,486,519,467
501,501,493,511,499
502,504,506,504,537
504,513,522,498,572
508,511,529,496,585
511,514,532,497,585
515,513,531,497,572
511,508,528,492,575
515,509,529,499,565
519,506,523,504,547
517,504,514,507,523
526,509,512,523,475
529,507,506,530,444
529,507,503,536,436
529,505,496,535,423
525,504,489,530,436
511,501,490,528,442
498,499,487,513,473
495,503,501,509,516
494,510,511,500,557
499,516,526,498,582
501,512,531,498,584
505,515,533,499,574
514,510,527,495,579
518,506,524,494,571
526,502,521,497,557
520,504,517,502,532
523,502,516,515,499
529,505,511,526,461
533,507,506,531,438
530,508,502,534,428
525,507,497,534,425
514,499,490,528,433
507,498,490,523,452
504,501,490,514,482
503,506,504,507,521
504,511,519,501,560
505,516,528,499,584
505,512,531,499,575
501,510,528,500,583
503,507,525,493,575
506,508,529,496,573
504,507,525,499,555
509,506,522,509,524
524,504,516,516,489
550,504,505,526,450
543,506,505,534,428
541,508,504,535,421
521,500,491,527,433
518,498,492,528,433
510,494,488,520,463
499,500,499,510,499
502,508,507,505,532
511,513,522,504,568
513,514,530,500,581
513,511,530,499,579
514,509,527,494,582
509,506,524,492,579
512,507,526,498,573
513,503,520,501,547
519,505,519,507,515
525,505,515,522,479
534,506,510,531,442
527,507,507,534,432
524,510,503,537,427
518,502,492,530,432
519,503,492,528,432
509,500,492,520,463
501,502,498,510,510
497,511,511,504,547
504,514,523,495,584
506,512,528,497,588
514,514,532,497,580
515,508,525,494,579
506,506,526,496,579
517,507,525,498,558
518,506,522,506,535
521,503,514,513,501
524,506,512,527,460
531,509,510,535,429
530,508,505,536,421
522,505,503,535,429
516,500,495,529,432
510,499,493,523,451
499,499,492,512,488
503,502,502,505,525
504,508,515,500,559
505,511,526,499,589
510,512,528,497,587
515,507,526,497,582
514,506,526,494,579
516,508,525,496,572
505,503,524,500,561
516,504,520,507,530
524,505,517,516,497
528,505,514,526,456
529,508,510,535,436
528,509,507,536,425
520,503,499,533,427
516,503,497,531,428
500,497,488,521,459
501,501,496,510,497
504,504,507,504,538
501,511,520,500,569
509,512,528,496,583
514,512,529,498,576
513,512,533,499,580
511,510,527,496,577
515,510,527,498,569
511,509,524,503,548
516,503,515,507,517
526,505,518,520,473
528,506,512,534,441
531,510,510,534,430
527,510,507,536,425
514,500,494,527,427
511,502,494,526,434
503,500,497,516,469
498,502,502,507,506
501,507,512,505,548
509,515,525,497,581
508,512,528,498,584
509,511,530,498,580
509,510,529,496,579
510,507,527,498,579
511,503,525,498,568
513,507,522,504,535
521,503,519,513,506
527,505,514,524,469
530,507,512,534,442
532,510,511,539,423
521,510,506,536,423
513,503,496,529,430
508,502,494,524,443
501,501,496,515,479
504,506,508,508,517
512,511,519,506,553
503,514,527,499,584
510,509,528,497,586
514,510,530,499,578
509,507,524,494,581
512,508,528,496,570
514,503,522,500,555
517,504,523,509,529
519,505,520,517,499
527,508,518,528,457
525,507,512,533,436
525,509,510,535,423
521,505,502,532,422
514,502,499,531,424
501,498,492,518,452
498,507,499,513,493
498,507,509,504,531
504,512,517,499,566
509,512,529,500,585
510,513,528,498,585
512,512,530,500,579
509,508,527,496,582
514,511,530,500,571
515,509,526,505,549
516,501,521,511,522
525,506,516,518,478
527,505,516,533,440
526,507,512,536,425
522,508,507,534,427
522,504,498,529,425
511,499,498,529,433
503,498,496,520,461
505,503,502,510,501
502,507,511,501,544
506,513,525,503,581
500,515,529,495,587
508,514,532,497,578
504,508,529,499,581
503,507,528,495,585
506,508,526,496,578
514,507,523,502,544
515,507,522,513,514
519,506,521,525,475
525,509,518,532,440
525,509,510,535,426
522,508,507,534,420
514,501,499,530,424
510,504,497,525,437
498,499,498,514,476
498,507,506,507,518
501,508,516,503,554
508,517,530,501,585
509,513,534,498,584
508,511,530,496,584
507,509,534,496,587
509,510,531,496,578
513,508,529,497,561
513,503,525,507,534
523,507,522,515,499
522,508,520,529,460
525,508,516,533,432
526,510,514,539,425
519,506,506,532,421
513,502,502,531,426
503,497,497,521,452
497,500,500,510,494
498,505,511,507,529
504,509,522,501,567
508,515,531,497,587
514,511,530,497,584
509,513,534,497,585
506,507,530,492,582
513,508,532,501,575
513,507,528,504,552
514,504,524,508,520
519,507,524,520,484
525,503,516,529,446
528,512,516,535,427
524,506,514,535,423
514,501,505,531,425
507,503,501,527,433
505,498,499,517,464
501,501,505,511,499
501,508,517,507,537
501,513,526,499,588
504,512,530,495,592
509,511,535,496,585
510,507,533,497,584
512,507,529,496,579
513,509,533,499,565
510,507,528,503,541
515,506,526,511,513
526,507,524,522,477
527,509,522,531,435
521,510,520,537,432
521,507,512,533,424
511,499,505,528,433
507,503,503,526,437
501,501,505,514,474
497,505,511,506,516
505,506,521,503,556
503,510,531,500,591
511,511,535,497,586
509,510,538,499,587
509,506,533,495,583
510,509,537,499,580
512,507,533,498,562
513,503,530,508,534
517,503,527,513,501
521,506,526,526,462
526,508,524,536,431
528,511,522,538,420
523,508,515,531,422
512,502,509,528,429
502,498,503,519,450
498,498,506,511,489
498,505,518,507,529
505,511,529,503,564
504,513,537,499,589
509,512,538,499,587
509,509,539,499,585
506,506,536,496,587
514,508,538,498,577
512,505,534,503,552
512,504,530,509,524
519,506,531,514,489
526,504,526,525,453
524,509,526,533,432
523,509,522,538,419
513,502,511,529,427
509,502,510,528,430
502,498,505,519,460
498,499,511,507,503
497,507,523,503,541
502,512,535,501,585
507,513,536,496,594
510,513,541,498,588
509,510,539,495,586
506,507,539,497,586
510,509,537,499,572
512,505,536,501,544
516,505,531,513,515
521,507,531,523,479
525,504,523,530,443
524,509,525,535,430
521,508,524,536,424
514,502,514,529,429
513,504,513,530,433
502,503,508,517,468
499,504,517,505,514
497,508,526,502,556
503,513,536,495,588
510,510,538,499,588
511,510,540,498,579
507,507,540,497,586
511,508,538,497,579
507,505,536,500,561
514,503,532,505,536
518,508,531,515,501
522,506,528,522,463
527,509,528,534,435
526,510,524,536,425
518,505,520,534,426
513,500,513,530,430
508,498,508,522,442
500,498,508,511,481
499,501,517,504,533
501,509,528,498,569
504,509,537,498,595
512,510,538,497,585
512,512,541,499,582
508,504,534,496,585
510,509,539,499,576
512,508,536,502,551
520,504,533,510,522
515,504,531,517,492
524,505,527,525,451
528,510,524,533,432
521,511,524,538,423
515,504,514,529,427
511,502,511,529,434
504,498,507,516,457
497,501,512,510,502
498,506,520,501,543
502,509,530,501,581
509,512,532,497,592
518,512,536,500,586
509,508,537,496,588
503,508,535,496,583
512,509,537,498,569
513,502,531,501,552
513,503,530,508,521
522,505,528,522,479
526,505,525,532,443
523,506,521,534,433
522,507,519,533,423
512,499,509,529,430
510,500,508,526,434
502,500,507,516,469
499,503,511,506,512
502,505,521,502,552
503,511,534,499,590
508,510,533,496,590
512,513,537,499,587
508,507,533,493,587
509,507,537,498,584
512,505,534,499,567
514,507,532,506,538
516,506,529,514,508
527,507,527,526,467
528,507,525,534,436
523,508,521,536,426
517,505,513,533,423
509,499,509,528,432
508,498,504,524,444
500,499,504,515,480
501,505,514,505,525
501,509,525,500,565
502,509,533,501,595
509,509,532,496,590
511,508,535,496,588
509,507,529,495,587
511,507,532,496,577
508,503,529,500,559
515,504,530,507,528
520,502,527,518,494
522,506,523,528,455
525,507,519,533,433
522,507,519,536,422
517,502,511,533,427
516,502,507,529,430
504,499,502,519,456
500,499,505,508,493
500,506,517,504,538
500,510,526,499,575
508,515,533,499,592
511,508,534,500,586
512,509,533,499,586
508,504,528,496,583
511,505,533,499,575
512,504,528,502,552
519,502,525,510,520
522,503,523,521,477
528,507,525,533,441
523,507,520,536,433
523,508,518,537,424
514,502,506,527,434
514,499,505,527,434
503,497,502,517,468
495,500,505,503,511
498,507,516,502,550
502,510,526,500,584
508,508,530,498,589
510,510,530,499,588
511,508,531,500,586
510,507,527,495,579
515,506,530,501,567
515,504,528,508,537
516,504,522,513,502
519,503,520,525,469
523,506,519,533,435
524,507,516,535,432
521,502,509,533,424
514,500,505,529,429
512,500,501,524,439
498,498,502,513,477
498,502,511,506,519
507,508,519,500,555
509,510,528,498,586
508,511,528,498,585
512,508,531,499,579
510,505,527,496,585
511,505,530,500,575
515,505,528,500,557
513,504,526,508,532
518,503,523,517,499
526,505,520,525,458
527,506,514,533,435
525,508,516,535,419
525,504,507,530,419
516,502,505,528,427
500,497,497,517,452
498,498,499,508,489
499,505,511,504,529
501,509,521,500,569
508,512,528,500,587
515,513,531,500,585
515,512,528,499,579
516,509,528,498,576
515,511,529,501,567
513,504,526,502,552
510,504,523,505,524
517,502,520,520,487
522,505,518,528,445
523,507,513,533,433
522,507,512,532,419
513,501,502,530,428
511,502,499,528,429
501,500,496,517,463
501,501,504,508,502
501,505,514,505,542
505,512,526,500,579
505,511,524,496,594
506,509,530,497,584
508,507,527,495,585
508,506,528,497,582
512,506,525,500,570
513,506,525,505,544
515,503,521,513,514
523,502,517,524,474
533,509,517,535,439
527,511,517,535,430
520,504,509,535,422
511,502,500,528,426
510,500,497,523,437
500,498,496,515,474
502,504,505,508,514
508,508,516,505,551
504,512,525,499,584
499,507,526,496,594
510,510,527,497,586
505,504,524,494,591
511,508,528,496,581
508,504,525,499,560
513,504,524,507,534
520,505,519,517,499
522,504,518,525,457
525,509,516,534,433
524,509,514,537,426
519,502,505,531,427
510,500,501,527,426
506,495,492,519,447
501,498,497,511,486
497,503,504,505,531
502,509,519,500,573
507,511,525,496,590
508,509,525,499,589
511,509,526,498,585
504,505,521,494,588
511,507,527,499,572
512,504,524,501,553
512,502,520,509,525
520,505,520,520,486
527,503,515,530,449
528,506,512,535,432
525,505,511,537,422
514,503,502,530,426
514,502,501,532,427
504,497,498,519,458
504,500,499,511,497
498,506,506,503,537
503,508,519,503,576
508,507,525,499,587
512,510,527,498,580
510,506,526,496,588
504,505,522,492,584
514,504,525,500,567
515,505,523,504,544
512,502,519,513,516
519,504,517,520,481
522,505,512,531,444
524,507,513,535,433
523,502,506,531,425
513,500,500,528,428
513,500,500,527,428
503,498,496,516,464
499,500,501,504,507
507,506,510,497,555
505,510,523,497,589
507,508,524,498,592
511,508,527,498,584
506,505,522,495,590
505,505,525,494,581
508,504,522,498,563
515,504,521,505,532
519,503,519,516,500
520,505,514,523,465
526,505,513,534,433
526,509,511,534,427
517,503,504,530,428
513,501,502,527,429
505,497,493,518,443
500,499,496,509,484
502,501,504,505,529
506,507,515,498,565
508,513,524,497,589
507,509,525,496,586
509,511,527,499,582
510,504,523,494,582
508,504,525,501,578
513,503,522,502,555
513,503,521,510,523
518,503,517,518,488
525,506,516,531,448
522,505,513,535,436
522,506,506,532,428
520,502,501,528,427
516,501,497,528,427
504,498,491,515,457
498,500,499,510,499
495,503,507,503,542
505,508,518,500,573
505,509,525,499,587
511,513,528,500,581
509,508,522,493,588
508,504,524,495,583
510,508,524,498,570
515,502,522,503,545
517,503,518,514,516
519,506,517,523,482
526,507,512,531,442
524,507,510,533,431
523,505,506,536,424
515,501,500,528,428
508,499,495,525,432
504,496,493,515,467
499,499,499,506,512
502,507,509,502,546
507,516,523,500,585
510,509,524,495,595
508,508,525,496,590
502,503,523,495,593
505,508,525,494,585
507,505,523,497,564
514,502,521,506,533
517,502,515,515,504
522,504,516,525,471
522,503,511,532,443
521,506,509,536,432
521,503,501,532,419
515,499,498,528,426
509,498,492,521,443
501,497,496,513,482
504,501,503,507,518
503,507,514,502,559
507,511,524,501,590
509,513,524,498,586
509,508,525,498,585
506,506,522,494,586
511,507,523,497,579
512,504,521,501,558
515,503,520,508,529
517,503,515,517,495
524,504,513,528,454
529,506,511,533,430
523,508,509,538,427
516,502,500,531,422
513,498,497,529,432
502,493,491,518,460
500,500,496,510,494
497,504,508,505,538
503,510,517,497,575
506,510,523,494,588
510,507,526,499,586
511,507,525,499,584
511,505,524,497,585
507,507,525,502,569
514,506,520,505,550
519,505,519,509,521
516,506,515,520,485
521,504,511,530,448
522,505,509,535,432
523,508,507,538,422
510,500,497,528,427
508,500,497,531,433
499,497,491,516,466
503,501,501,509,510
508,507,508,505,547
512,510,522,503,582
508,511,525,499,582
505,508,524,496,588
506,506,524,494,587
513,505,523,496,579
512,506,521,498,574
514,503,521,505,540
514,503,518,511,508
525,503,514,524,474
522,506,511,533,443
522,508,508,534,428
522,504,504,532,426
508,499,496,529,427
508,499,491,522,438
501,500,495,512,477
498,504,501,507,522
499,508,512,499,561
509,514,525,499,594
512,508,524,497,589
509,509,527,496,584
506,506,523,495,586
513,508,525,497,580
513,507,522,501,558
516,505,521,510,531
519,502,517,517,499
523,504,512,529,459
528,506,511,535,435
524,506,506,538,425
519,503,500,533,424
508,501,498,528,430
502,496,489,517,450
500,500,499,514,491
496,504,506,503,533
501,509,514,498,571
508,512,525,498,593
509,509,526,494,588
510,508,527,497,588
507,501,522,494,587
509,505,524,498,579
512,502,521,502,556
513,502,519,511,520
522,504,517,522,487
527,505,513,531,448
525,506,510,538,432
526,508,504,537,421
519,500,498,532,425
511,502,498,528,433
505,499,495,516,466
498,501,499,507,505
497,508,509,504,547
505,514,520,500,580
505,509,524,498,592
511,511,526,495,588
508,506,521,491,586
507,506,524,494,583
508,507,525,500,566
515,506,521,506,543
517,504,518,511,511
523,505,515,521,473
522,506,511,534,444
525,508,509,538,428
520,508,504,535,428
513,501,498,529,434
507,503,493,525,446
496,499,495,516,483
495,503,501,508,518
502,508,513,502,554
507,514,521,498,581
503,511,524,496,586
510,512,525,496,582
508,505,523,495,585
514,503,525,500,571
515,503,521,501,552
515,503,517,505,530
513,502,515,515,503
525,505,518,527,466
531,508,511,533,437
529,509,509,536,421
522,503,500,529,427
514,501,493,525,432
502,496,489,514,453
502,500,496,512,490
499,506,506,504,529
498,507,513,499,568
506,511,525,497,589
513,508,525,499,586
505,508,526,502,587
508,506,523,493,590
511,506,524,492,577
514,504,522,498,555
515,502,518,506,522
519,504,516,517,490
523,502,511,530,453
524,506,510,536,433
524,507,506,534,428
509,497,496,529,432
511,504,497,529,432
502,500,492,516,464
498,500,496,508,502
501,505,508,502,540
507,510,520,499,578
505,511,525,496,588
509,512,526,499,584
506,506,522,496,583
507,507,523,493,585
510,505,522,497,572
510,503,519,505,545
511,503,518,514,514
519,505,515,522,479
527,509,513,532,443
525,506,511,536,428
521,504,502,535,420
512,502,496,530,429
511,503,495,526,433
506,500,493,513,472
502,501,502,507,515
505,507,510,501,550
507,513,522,498,586
506,508,525,497,589
514,511,525,498,586
510,506,523,496,585
512,507,525,498,574
508,503,522,497,567
510,501,520,506,537
520,503,518,513,501
523,506,513,523,464
527,508,510,533,438
527,505,506,535,426
521,503,501,532,424
511,501,495,529,428
500,495,491,519,450
497,499,494,511,485
502,503,505,506,526
502,510,515,500,567
505,512,521,497,589
506,509,525,499,586
513,510,527,499,580
512,508,524,495,588
514,509,526,496,578
509,503,522,501,559
515,502,516,507,526
521,507,516,518,490
521,502,512,527,453
526,505,509,535,434
524,511,508,537,425
514,501,498,531,427
507,500,494,527,432
498,495,490,518,462
494,499,496,509,501
496,503,508,504,539
504,512,518,500,577
505,509,523,503,591
510,508,527,500,583
504,508,525,497,590
506,510,526,497,585
520,508,525,500,568
518,505,521,501,543
516,499,516,510,517
521,504,515,521,483
529,502,512,531,443
528,507,508,535,430
526,505,504,536,422
514,496,495,529,430
516,501,496,529,432
503,496,493,515,469
499,504,502,508,512
506,510,514,506,548
512,511,523,499,582
507,507,525,497,588
506,510,525,494,587
512,510,526,497,587
510,508,527,499,580
509,505,525,504,568
515,505,522,508,538
514,503,516,512,508
521,502,512,523,470
524,506,511,533,440
525,509,511,539,426
515,505,500,533,430
511,502,498,530,435
505,497,491,521,448
499,499,500,515,484
501,502,505,507,520
501,507,516,497,561
504,513,525,497,591
512,508,522,495,587
513,509,528,498,583
505,504,523,492,588
510,505,526,498,578
515,504,524,503,558
515,506,521,510,526
514,501,516,518,499
525,504,515,529,455
525,507,509,535,436
522,506,505,535,422
517,503,499,531,427
514,499,497,529,430
498,495,492,516,458
501,500,498,511,497
501,505,506,504,536
502,509,519,505,579
509,513,525,499,586
508,511,527,500,585
507,508,527,498,583
503,505,524,494,588
509,507,525,497,577
513,504,521,502,550
514,502,519,512,517
517,504,516,521,485
522,504,513,531,446
525,504,505,535,431
523,506,505,536,421
511,500,497,530,427
509,498,495,530,430
502,494,491,516,469
500,501,500,512,509
499,507,510,504,550
505,514,526,500,583
507,508,525,500,587
510,510,528,496,584
506,505,524,495,586
508,507,522,494,583
509,502,523,500,570
512,501,521,507,542
516,503,517,514,510
523,508,514,525,469
523,503,511,537,443
526,507,508,537,427
519,502,501,535,428
514,502,497,530,433
508,498,493,523,444
498,497,492,514,481
495,506,502,507,525
500,509,516,504,562
505,515,523,499,592
509,508,524,498,585
514,510,526,497,582
508,506,522,493,582
511,505,525,500,579
509,505,525,501,560
515,503,516,506,530
520,506,519,518,497
525,506,512,529,457
525,505,509,536,436
527,508,508,540,421
518,500,499,535,425
515,503,495,531,431
502,497,490,520,453
497,500,497,514,492
496,504,506,505,534
501,509,514,496,573
505,515,525,499,589
510,512,525,499,584
506,507,525,496,589
506,505,524,495,585
512,507,525,497,573
513,504,519,501,549
521,504,516,512,519
527,506,516,523,477
525,505,511,530,445
522,503,506,535,434
523,505,500,535,422
515,502,497,531,424
520,502,493,531,423
499,499,490,518,461
493,500,497,506,511
497,504,511,502,547
499,511,521,498,583
504,510,524,496,585
510,510,525,499,585
510,507,524,494,584
507,503,524,498,583
510,508,525,501,567
517,508,521,505,539
520,502,515,512,508
519,504,512,523,474
523,507,509,533,441
526,508,509,537,430
523,501,497,531,426
513,500,494,529,430
510,500,491,524,438
502,495,492,515,476
501,504,502,508,518
506,512,516,503,555
505,513,523,496,587
507,509,525,493,584
511,509,525,496,584
508,509,524,496,585
507,507,525,497,574
512,504,522,496,562
516,503,519,506,531
519,505,516,517,502
523,505,513,528,461
524,505,511,536,439
524,507,504,537,428
512,506,499,533,433
511,502,495,529,431
501,498,488,519,449
497,501,495,512,483
500,504,501,503,525
503,510,516,498,566
510,514,525,497,587
510,508,526,497,581
512,509,525,498,584
507,507,522,496,583
511,507,523,498,575
511,503,520,502,553
517,502,518,510,519
522,505,517,522,485
529,505,509,530,443
526,507,507,535,431
526,509,506,538,420
515,499,496,530,423
512,500,495,527,429
502,497,489,516,459
501,499,498,510,501
500,506,505,502,541
501,511,518,499,580
504,511,525,496,588
509,509,526,498,583
512,504,524,495,585
513,507,526,499,580
511,508,525,498,570
513,504,519,505,546
514,505,516,513,510
521,504,517,524,475
524,505,507,532,442
522,506,508,534,430
518,503,499,534,425
509,497,494,529,430
512,500,494,525,434
502,502,495,518,469
502,503,502,510,512
506,510,514,503,551
505,511,521,494,589
510,509,525,497,588
514,512,526,499,579
509,506,520,495,584
511,504,528,499,581
510,506,522,498,565
509,507,521,509,534
515,504,518,515,500
523,506,511,529,464
527,506,507,534,437
527,506,506,539,420
518,501,495,532,425
515,502,498,530,430
505,496,491,521,447
496,497,494,513,488
503,505,506,507,526
506,510,517,500,558
509,513,531,500,585
505,508,524,498,579
508,508,526,499,585
506,507,524,495,586
509,505,525,499,576
511,502,518,501,556
517,504,519,509,521
516,505,516,519,496
524,503,509,530,451
522,503,508,539,434
525,507,503,537,423
514,501,495,531,429
510,498,494,529,433
502,494,489,518,464
497,500,496,509,501
501,506,507,506,540
507,513,521,502,576
506,510,523,496,588
508,511,528,499,587
509,508,524,495,588
507,507,523,495,584
509,504,524,500,576
510,503,519,503,548
516,502,515,512,516
524,507,515,524,477
528,504,510,533,445
523,507,510,538,432
520,505,502,534,424
512,495,493,529,434
513,500,498,529,437
504,496,491,516,472
501,503,500,511,509
497,506,514,504,551
505,515,524,499,586
509,511,526,499,585
510,510,526,497,580
508,504,521,494,586
504,505,524,495,582
505,504,523,499,567
508,502,519,506,540
510,502,515,514,505
520,505,517,527,465
525,504,509,535,439
523,506,509,536,429
518,501,498,533,427
524,502,497,531,422
507,496,491,523,445
493,500,494,514,483
502,504,505,507,522
503,508,514,503,562
505,513,525,499,589
508,506,521,496,586
511,508,526,498,588
507,504,520,492,589
508,507,526,496,575
509,504,521,500,557
512,507,518,509,526
517,502,517,520,494
520,500,511,529,451
522,503,506,534,436
535,507,506,538,424
523,502,498,531,428
516,501,492,528,431
504,497,489,517,456
499,500,496,508,496
497,504,504,503,538
505,511,519,503,577
512,512,525,499,589
509,507,525,498,586
511,509,525,494,585
513,508,526,497,578
510,506,525,503,576
510,502,521,504,549
516,504,516,508,516
526,503,515,523,478
526,504,510,534,450
526,505,507,536,433
524,507,504,537,422
515,501,493,529,428
511,501,498,528,436
497,496,491,514,472
500,503,500,511,512
500,506,510,502,547
509,513,523,500,587
507,510,526,499,586
510,509,531,500,586
509,507,528,495,586
510,506,524,494,577
511,502,523,499,566
515,500,519,506,541
515,503,516,515,507
524,504,514,526,467
526,506,510,535,439
525,507,505,536,426
519,504,501,533,427
514,501,493,530,427
508,500,493,524,439
499,498,495,518,479
496,502,502,505,524
502,509,515,502,560
505,516,526,500,592
507,511,527,496,592
507,511,528,500,590
502,507,523,495,593
509,511,528,500,578
510,504,520,500,558
515,507,520,509,524
526,505,520,520,490
531,506,514,529,455
529,505,511,535,435
522,505,506,535,422
512,506,499,531,430
512,501,496,528,428
500,496,492,517,451
500,501,498,511,488
505,506,507,503,527
499,509,518,501,572
506,511,525,496,587
502,507,524,495,592
507,507,524,495,589
507,505,523,494,586
510,506,528,498,577
518,504,523,504,549
515,504,518,510,522
522,503,515,521,481
524,504,512,531,446
525,501,504,533,433
520,503,502,536,421
512,501,496,528,430
515,501,495,527,433
503,499,492,516,463
495,500,499,509,509
500,508,511,501,543
503,513,526,500,584
509,510,523,496,587
513,513,528,499,586
505,508,525,492,588
509,509,528,498,581
510,504,525,499,570
514,505,524,505,539
514,503,518,512,512
522,506,516,523,474
523,505,508,531,444
525,508,506,537,430
523,504,501,535,425
519,499,496,531,426
509,494,491,522,438
500,498,490,511,474
498,505,504,505,518
499,509,514,499,560
503,514,525,498,592
508,507,525,497,587
511,508,527,495,585
506,506,527,497,586
509,507,526,497,580
507,503,523,503,566
514,504,524,511,533
517,503,516,519,501
528,507,514,529,459
525,506,510,537,436
523,507,510,540,426
517,502,497,530,428
510,501,496,530,430
503,497,493,519,453
498,499,496,512,494
498,504,506,506,533
499,510,518,500,572
504,511,526,501,591
506,509,527,497,584
506,507,525,496,587
507,506,525,495,583
508,507,527,500,580
517,503,522,503,553
518,504,519,513,522
523,505,517,522,481
522,506,514,533,450
521,502,505,534,435
525,506,505,536,421
520,505,497,532,429
513,503,499,530,429
504,498,492,517,467
498,501,498,507,507
501,507,511,503,543
507,513,521,499,580
506,510,526,500,590
511,510,527,498,584
507,503,523,496,582
509,508,528,499,581
510,507,525,505,570
512,504,521,504,548
514,498,513,512,515
525,502,513,525,476
526,507,511,534,447
522,510,507,537,435
519,505,502,537,427
508,500,493,529,430
504,499,493,524,441
498,496,489,514,473
502,503,502,507,514
501,507,512,502,554
509,514,526,498,587
513,509,526,502,587
518,513,527,501,577
511,505,524,494,584
511,509,526,498,581
514,505,522,500,561
510,503,521,510,536
514,501,513,513,503
524,500,511,527,460
527,505,508,535,436
523,505,505,537,424
514,501,498,533,423
518,499,494,531,425
508,498,489,522,451
505,500,493,510,482
502,501,504,508,529
506,506,516,502,564
508,512,525,495,588
511,515,528,499,589
510,506,521,493,585
510,505,522,495,580
509,508,526,497,571
512,503,520,501,552
515,502,518,506,524
524,505,516,518,491
526,505,511,532,448
528,507,511,536,434
523,507,507,537,426
514,500,492,527,427
515,500,495,530,429
505,497,495,520,457
500,500,496,509,500
499,508,509,504,540
495,510,519,499,575
506,512,522,496,590
507,509,524,496,588
509,510,525,496,592
506,506,525,492,577
508,502,522,498,570
511,504,518,502,545
516,502,517,512,515
524,504,516,523,475
523,503,509,532,443
523,507,508,537,431
523,507,503,535,423
511,499,495,528,426
508,499,492,526,435
497,497,493,515,469
505,502,501,509,509
499,508,512,501,555
499,508,522,498,587
508,510,525,495,586
511,510,527,497,581
507,508,525,497,586
507,507,525,495,577
508,504,519,496,566
511,503,520,505,534
514,502,517,515,505
524,505,514,526,465
525,503,507,534,434
526,507,508,535,423
515,503,499,532,425
513,501,494,526,426
503,495,490,525,445
499,499,492,514,481
497,508,505,508,525
502,509,516,501,560
505,511,522,495,593
510,510,525,497,585
515,509,523,496,589
511,506,523,495,583
508,505,523,496,576
506,502,520,499,555
517,501,514,506,527
522,502,515,519,491
524,502,508,528,454
526,506,508,534,434
527,509,507,540,422
515,498,493,529,427
513,505,496,529,434
500,496,491,517,461
495,497,493,507,500
500,505,506,505,537
503,510,519,504,572
506,511,525,495,589
508,509,525,498,583
511,509,525,497,587
509,508,523,496,587
514,507,525,498,571
512,504,520,505,548
514,503,520,511,521
518,503,513,522,481
523,504,511,532,442
524,507,507,538,431
521,507,503,533,425
512,502,496,530,429
511,500,496,526,433
496,496,491,515,471
498,502,502,508,510
502,508,511,502,552
501,511,520,497,589
502,507,523,497,587
505,510,526,499,581
509,508,525,497,579
509,508,526,494,576
503,501,520,495,568
509,503,521,504,537
525,504,518,515,505
533,505,515,523,468
529,504,510,532,439
528,508,509,534,425
518,504,500,531,426
512,501,497,531,427
506,497,489,520,443
499,499,494,512,480
498,502,503,508,523
503,508,516,504,561
511,513,525,497,587
506,507,525,499,586
515,508,526,498,580
513,505,523,494,582
518,512,528,498,575
510,505,523,500,562
513,502,519,505,529
513,500,515,516,496
523,504,514,527,454
525,503,509,534,433
524,511,507,537,423
516,500,498,530,426
515,502,494,529,428
500,498,489,517,459
495,498,495,511,498
501,503,507,504,536
501,511,517,496,576
506,508,523,499,593
509,510,528,499,587
507,509,525,498,588
510,509,527,498,581
514,505,525,499,570
509,502,521,501,546
515,504,516,510,518
524,505,516,523,479
526,505,513,529,447
524,506,509,535,433
526,508,502,535,422
517,500,497,530,428
512,501,496,527,430
502,497,493,516,465
495,504,499,508,510
497,505,509,502,545
509,511,521,501,581
512,508,523,498,588
510,509,527,499,583
505,504,525,500,586
512,510,526,497,579
510,504,525,497,565
510,503,521,504,537
511,505,516,513,510
521,504,513,525,471
526,503,510,533,440
521,506,507,538,433
521,502,501,533,428
510,502,494,529,429
508,497,493,522,444
498,497,493,514,479
498,501,501,510,523
502,507,512,500,559
503,512,524,497,590
510,511,524,499,587
509,512,526,499,587
505,506,524,494,586
509,506,523,494,578
509,502,521,501,565
513,501,518,508,536
518,507,515,518,497
523,504,513,528,460
524,506,508,534,439
527,505,508,538,425
514,500,498,535,430
515,504,497,529,429
503,497,489,518,452
499,497,494,510,495
499,505,506,504,534
505,510,517,497,566
506,510,524,499,588
511,511,525,499,584
508,507,522,495,585
508,507,524,498,585
516,509,526,496,574
514,505,519,503,552
514,500,517,512,524
521,505,516,522,484
525,503,510,531,446
523,506,510,537,432
517,507,504,535,432
515,500,497,532,430
512,500,496,530,430
502,498,491,516,464
501,499,498,509,505
499,506,510,504,543
505,512,521,500,582
510,512,526,498,589
511,509,525,499,588
507,506,523,494,588
507,504,523,496,583
511,510,525,501,570
512,506,522,507,544
515,500,515,513,512
521,504,512,525,473
527,507,507,534,442
526,507,512,538,427
523,502,499,534,422
521,501,496,531,427
508,497,490,524,435
500,497,493,514,469
491,503,503,506,517
497,509,514,503,553
502,512,523,498,587
502,507,523,496,591
514,512,525,497,585
506,503,522,494,591
510,505,525,499,582
510,504,523,499,561
520,506,520,509,533
521,504,517,517,501
524,505,513,528,461
528,505,509,534,435
526,509,508,538,426
518,505,500,534,427
515,501,492,528,426
504,493,489,520,454
498,499,496,511,493
498,504,505,505,536
499,509,518,500,574
503,510,525,499,593
510,512,525,499,584
507,508,524,497,577
509,507,525,498,581
511,506,525,496,577
512,504,522,502,546
516,501,516,508,522
524,508,517,522,486
530,504,511,533,447
526,508,510,534,430
522,507,505,537,425
511,499,493,529,426
509,501,496,527,431
498,496,490,515,463
494,498,498,509,505
500,506,509,501,544
508,512,519,500,579
509,510,524,499,586
515,514,528,500,585
509,507,523,494,584
506,506,523,497,582
511,507,525,504,571
517,504,524,506,542
512,505,517,515,511
521,506,516,524,471
530,505,510,532,445
525,505,507,535,430
524,507,502,534,425
513,502,496,530,424
509,498,492,524,439
497,496,490,511,475
498,503,500,504,515
500,509,512,501,554
504,511,521,497,588
506,511,527,497,588
507,510,527,499,583
502,506,525,494,588
510,508,526,500,580
511,505,522,500,565
511,504,521,510,534
515,502,516,515,503
536,507,513,526,462
533,510,511,535,438
526,505,504,535,425
521,504,499,533,428
513,501,497,530,431
502,496,491,515,447
500,499,495,513,487
501,504,505,504,525
501,509,516,499,566
509,516,525,499,589
511,509,523,495,585
512,509,526,498,586
509,505,525,497,584
512,508,524,498,575
508,503,518,500,555
515,503,517,509,529
516,507,517,518,495
525,505,512,528,451
525,506,510,535,435
523,508,505,535,425
514,502,498,531,429
515,504,497,529,432
506,498,492,517,459
498,501,496,508,498
499,506,505,503,542
502,511,519,500,578
508,511,525,496,590
512,508,527,503,586
511,505,524,496,586
509,509,527,498,581
511,507,524,497,570
514,503,520,503,546
517,503,517,512,517
521,503,516,523,477
526,504,511,531,441
526,508,508,536,428
519,504,504,534,425
511,500,496,529,427
509,500,494,527,430
501,497,490,514,468
508,505,502,511,509
502,508,513,507,550
502,512,522,495,587
505,510,522,496,591
509,510,527,498,584
505,505,522,495,584
507,506,525,501,580
511,505,524,496,565
510,505,522,507,538
513,505,514,515,507
518,504,513,526,474
524,506,509,533,442
522,506,506,537,431
519,502,499,532,422
514,502,497,532,427
504,496,489,522,446
497,497,496,511,482
502,503,502,505,522
501,509,514,499,559
506,512,521,497,588
505,509,524,497,588
508,509,525,497,586
507,503,524,497,587
512,507,527,502,576
511,503,520,500,560
514,502,520,508,529
525,504,517,520,493
532,506,511,529,454
528,506,510,535,436
529,505,506,538,424
516,500,496,531,424
510,500,495,530,432
498,496,488,517,463
499,499,496,510,498
499,504,511,505,539
503,508,519,499,575
510,509,524,497,585
523,512,529,498,579
511,507,523,495,583
512,509,525,496,587
510,505,525,498,572
512,505,522,503,549
516,504,516,508,515
519,504,516,522,477
523,504,512,534,444
522,504,504,533,430
517,506,502,534,427
508,497,491,527,430
513,499,493,528,432
505,498,494,517,467
501,502,500,507,506
502,508,511,505,550
506,513,520,499,586
506,511,525,497,589
506,507,524,498,583
504,506,522,493,589
507,508,528,495,587
511,504,524,501,573
510,505,521,506,538
520,505,518,516,506
529,503,511,522,470
525,502,510,535,441
526,508,506,535,427
519,505,501,532,424
513,503,496,528,427
503,498,492,522,445
501,497,493,514,482
505,505,504,508,521
506,511,515,503,557
506,508,522,497,588
505,511,524,496,587
511,510,529,499,586
512,505,523,495,584
508,506,525,498,581
512,508,524,503,560
510,503,517,510,536
514,504,513,516,497
518,504,512,524,459
522,508,510,534,441
521,506,506,537,424
511,502,498,528,427
516,502,498,527,430
509,497,490,520,454
504,500,496,510,488
502,505,507,504,533
505,511,518,499,571
508,509,524,497,591
513,512,526,498,584
509,509,523,497,588
516,509,527,501,580
513,506,524,498,571
511,500,518,501,550
516,505,516,510,520
524,506,518,522,484
525,506,511,528,449
526,507,508,533,434
521,504,504,537,426
513,501,497,528,431
511,500,496,528,431
506,497,491,518,462
495,500,499,509,509
503,507,510,505,546
498,513,521,499,581
503,508,522,494,587
509,508,527,498,586
503,508,525,495,585
508,508,525,498,583
514,505,523,500,569
515,502,519,505,541
518,502,514,512,506
522,503,514,528,470
524,504,510,531,438
527,505,508,538,420
519,503,504,533,421
509,500,495,530,428
506,502,493,524,438
497,497,493,513,474
500,504,499,507,518
504,509,513,503,560
502,511,524,498,592
509,509,525,499,587
511,509,528,500,585
509,504,522,496,585
510,506,528,499,581
508,502,522,501,560
511,506,520,509,530
519,502,517,521,500
526,505,512,527,459
521,504,509,538,438
523,506,505,536,423
518,501,499,534,425
512,499,496,532,427
507,497,490,522,450
498,496,492,511,489
498,504,504,504,535
500,509,518,499,570
505,514,525,498,591
509,508,526,496,583
508,505,523,497,585
512,506,524,498,580
511,506,523,498,573
509,503,518,502,551
513,502,518,510,518
522,505,515,522,486
520,504,509,530,452
520,504,506,535,437
519,505,501,535,427
514,502,496,533,427
508,500,495,527,429
500,498,489,517,459
494,497,496,511,504
503,506,507,503,545
508,514,518,499,586
509,506,523,496,591
509,509,525,499,588
509,509,525,497,587
510,510,525,498,585
510,503,522,499,575
512,505,517,504,547
518,500,515,514,513
525,503,511,524,473
523,504,508,533,444
524,507,508,538,425
517,502,500,532,424
512,502,494,530,427
507,499,491,522,436
498,497,491,513,468
499,503,500,508,515
502,508,511,501,549
501,513,524,501,585
508,512,525,499,589
515,507,525,502,584
517,506,523,494,579
518,503,522,497,568
521,503,522,502,558
515,500,519,508,537
522,503,512,514,505
528,504,512,527,463
526,507,509,535,434
529,510,506,537,429
519,502,496,530,427
513,503,493,531,431
499,495,488,520,451
499,499,493,512,483
499,506,503,505,527
504,511,517,498,570
503,510,522,497,592
513,512,526,499,591
509,506,524,494,584
507,507,522,496,585
513,506,526,499,583
513,502,521,503,557
510,501,515,508,529
515,504,517,520,492
519,503,510,530,452
514,504,506,534,433
510,508,505,538,426
498,499,493,530,426
501,498,491,527,430
499,497,492,515,458
489,501,496,509,504
500,504,504,503,545
523,513,519,499,581
513,509,523,497,591
528,512,525,499,580
515,507,523,497,590
514,511,527,499,582
516,508,524,500,569
521,506,523,504,542
522,504,515,513,515
523,503,511,520,481
532,507,512,532,446
527,503,504,535,431
524,505,499,535,426
510,497,493,535,427
512,501,492,531,440
504,500,493,512,470
501,505,499,506,514
502,503,509,506,551
501,506,519,499,593
508,509,522,492,594
510,513,527,498,588
493,500,524,498,586
511,506,523,498,578
521,509,521,497,561
522,507,518,507,534
518,498,511,519,505
520,502,511,526,464
527,510,508,533,434
524,507,506,537,425
519,501,498,532,424
512,502,498,533,428
495,493,488,521,449
495,501,493,513,487
497,505,508,504,524
493,507,522,504,569
499,511,532,500,588
502,508,528,498,597
511,511,524,494,587
511,507,518,495,583
513,507,523,498,576
514,504,521,501,551
511,501,517,508,523
521,505,516,520,488
522,503,511,531,454
518,506,509,533,440
516,510,507,538,438
508,504,501,535,444
510,504,499,529,426
508,499,489,517,432
500,499,497,514,483
499,503,496,504,522
509,508,518,499,554
509,511,523,498,572
511,502,521,500,562
512,503,522,499,567
520,508,524,496,589
519,504,522,493,578
518,502,518,498,546
518,504,518,509,525
518,505,518,522,494
521,507,512,532,450
517,506,507,538,433
513,506,507,541,426
509,503,500,530,428
510,501,497,533,434
492,495,491,518,479
485,501,494,499,529
501,513,513,499,557
510,515,521,497,583
511,510,526,499,589
509,510,528,500,580
510,508,522,497,571
515,506,524,497,569
511,504,521,497,560
504,508,522,507,538
510,503,516,519,503
513,501,513,528,478
527,505,509,529,446
531,505,506,535,428
520,498,498,535,431
504,501,496,523,418
493,496,490,526,434
476,493,490,513,476
473,498,499,506,517
475,504,510,503,560
489,513,523,495,590
509,513,524,495,576
517,512,524,496,573
520,509,525,496,565
524,510,524,496,574
524,504,521,497,558
534,504,516,507,524
536,501,512,518,491
532,505,512,528,449
544,506,508,535,424
552,508,504,533,417
538,501,493,530,417
526,503,493,529,426
510,497,487,518,454
502,497,494,511,494
499,505,507,505,536
494,509,519,504,587
514,512,523,495,596
511,512,526,498,592
483,507,521,495,599
482,511,525,499,592
485,506,521,499,580
504,503,520,501,545
513,502,516,515,515
533,504,515,529,479
556,509,510,537,436
544,509,504,530,427
530,503,500,530,419
510,499,493,531,429
509,502,493,528,435
507,500,487,515,472
513,502,497,514,503
514,507,505,503,551
516,510,518,501,589
521,506,517,503,592
524,507,523,495,584
514,505,521,489,597
500,505,526,497,590
504,501,521,500,568
517,505,519,504,523
513,498,511,515,489
521,498,508,525,452
529,506,511,529,432
527,508,508,540,420
515,506,502,535,425
502,505,496,529,450
485,498,491,526,467
461,492,491,522,499
462,499,499,502,529
466,506,509,496,559
472,508,518,496,587
493,513,521,492,574
490,507,519,496,569
505,507,524,504,600
547,519,529,500,591
552,515,524,503,554
526,505,514,504,514
500,501,512,516,496
500,504,511,534,457
510,502,505,540,431
516,503,500,536,417
496,485,481,528,410
491,486,482,528,393
522,495,483,515,440
511,497,490,509,486
498,501,501,501,543
483,509,513,500,593
516,514,523,501,587
529,514,524,501,572
516,512,527,498,566
512,511,522,497,569
502,509,521,499,556
484,500,517,503,550
470,499,513,510,522
465,497,509,521,487
458,498,506,532,461
477,501,500,538,409
510,498,499,546,361
505,495,487,535,400
530,503,489,529,426
585,507,488,513,459
570,505,494,501,510
561,511,505,496,561
542,514,520,499,598
530,516,526,500,606
533,516,525,501,607
518,512,525,498,596
509,507,521,496,560
530,504,521,498,544
559,496,513,504,522
554,501,509,511,513
528,500,509,525,513
535,507,505,530,491
554,506,501,537,457
538,498,491,528,430
528,498,490,529,436
526,499,488,526,427
516,500,492,513,478
502,503,499,507,519
503,513,515,502,563
514,521,527,502,587
514,514,526,501,584
508,515,528,501,576
489,506,523,497,582
474,505,525,500,567
478,500,521,501,514
474,497,512,506,534
450,497,509,518,552
450,500,508,535,499
471,507,505,533,454
477,505,500,540,416
477,494,488,533,396
541,496,484,523,368
554,491,480,522,425
546,498,484,514,488
539,503,497,503,539
541,509,511,502,583
543,518,521,501,608
527,513,524,495,597
533,517,523,492,592
527,510,523,497,561
523,502,520,496,531
528,498,514,498,515
546,501,510,506,537
540,499,505,517,545
527,501,503,531,509
524,507,501,535,467
527,506,497,538,445
509,501,486,527,435
511,502,486,532,413
471,490,484,526,483
440,496,490,514,539
430,510,507,512,535
464,518,523,506,538
480,512,524,501,592
493,507,523,497,591
527,507,522,492,620
544,516,526,496,632
523,510,524,500,600
512,495,515,503,559
540,495,505,508,499
555,497,503,522,423
551,503,500,532,439
536,507,498,540,468
515,499,488,534,478
512,495,480,524,416
492,489,479,538,351
461,495,482,515,440
475,506,500,531,512
472,517,512,496,545
423,513,520,491,607
397,504,521,490,617
391,488,514,485,620
398,494,515,485,579
429,498,519,493,580
549,504,517,498,563
568,508,516,502,557
580,508,512,518,519
603,506,505,530,464
575,505,496,538,388
542,499,489,538,383
548,507,489,536,399
529,504,485,534,433
501,501,480,528,453
469,505,487,519,479
433,499,494,509,506
442,504,513,504,576
498,507,523,493,601
516,499,520,493,556
467,498,517,489,533
459,507,523,495,512
465,500,524,500,552
400,489,509,501,611
417,488,503,503,587
456,494,503,522,551
512,506,500,533,532
505,514,497,537,532
484,509,492,540,491
483,489,473,529,489
544,484,462,511,455
602,492,465,510,460
591,512,494,508,528
497,512,509,502,601
451,510,524,497,559
420,514,531,501,552
482,514,537,509,599
562,503,532,508,596
571,512,532,493,561
555,515,538,510,533
462,501,528,520,541
441,490,509,515,476
435,485,493,514,429
451,485,477,519,373
507,492,473,528,430
532,496,475,551,439
493,496,473,556,431
501,492,465,536,390
484,482,464,518,362
422,488,480,503,480
432,499,500,481,562
394,516,530,490,614
329,511,532,494,675
378,513,534,501,668
383,508,533,499,624
435,499,530,486,550
682,516,527,501,481
750,522,530,509,545
736,512,511,512,519
671,512,500,531,429
656,499,487,539,385
623,494,485,548,452
569,505,478,533,476
535,501,474,527,407
497,493,468,521,430
488,498,476,509,461
511,509,499,496,520
521,514,511,492,576
485,511,529,503,567
475,506,534,513,529
432,493,525,502,609
413,490,523,506,572
404,490,527,507,603
437,491,514,471,642
478,498,516,492,581
528,511,519,525,525
641,523,509,545,446
661,516,492,549,346
563,510,485,540,404
460,493,471,510,493
419,499,475,520,541
420,505,478,545,562
390,491,480,534,556
456,490,494,526,550
500,484,499,490,478
524,502,519,473,453
522,525,540,487,520
465,516,539,488,556
417,511,543,503,620
375,510,541,501,603
462,507,525,502,578
533,501,515,511,608
534,495,503,514,572
569,496,492,522,489
634,492,474,526,383
547,488,465,527,349
489,504,481,543,345
458,484,463,526,429
424,475,459,512,457
468,484,477,506,500
537,514,513,518,466
589,540,540,514,543
554,541,551,526,479
515,516,537,519,589
443,485,518,493,695
347,476,520,498,556
273,472,512,488,594
298,479,508,488,673
374,486,507,522,560
459,496,494,518,537
653,505,490,524,391
747,526,497,560,379
667,512,478,528,532
534,503,475,525,464
487,497,468,517,363
386,495,483,519,420
358,494,492,509,496
365,503,516,513,555
450,523,533,500,594
506,513,528,487,609
539,512,534,502,591
592,519,535,488,589
697,528,540,501,494
667,502,516,484,482
607,507,518,510,531
538,513,521,528,561
528,505,505,536,476
617,499,487,525,370
621,493,481,535,385
459,479,468,525,557
408,478,458,526,523
380,471,446,487,547
461,492,473,503,476
362,505,504,517,436
331,507,519,500,579
245,492,520,496,615
315,472,509,482,641
603,531,542,498,547
605,548,555,531,430
499,522,540,511,448
496,482,511,501,461
597,494,511,488,572
490,497,511,512,606
508,509,505,538,611
443,497,496,552,538
672,511,488,566,443
797,518,470,538,447
759,510,472,515,433
577,503,476,511,439
502,504,488,493,594
418,499,499,492,611
432,516,525,501,490
486,521,534,510,485
477,503,530,516,448
654,505,532,510,426
668,509,535,502,579
656,524,542,502,625
568,503,527,515,611
485,493,511,509,528
525,490,497,509,380
493,486,488,515,470
435,481,475,512,524
367,479,468,517,621
401,507,482,550,508
296,511,488,551,525
215,489,480,529,503
335,488,487,511,494
525,521,515,509,433
667,517,517,479,518
620,501,519,480,524
730,526,536,494,517
610,507,531,493,516
609,513,536,498,573
544,513,535,504,583
502,511,530,525,493
538,511,517,528,427
623,520,516,546,397
539,508,496,536,422
509,514,491,525,488
494,493,473,517,442
450,468,455,518,464
495,474,457,506,500
564,510,483,505,622
601,506,497,500,583
547,491,510,513,542
408,475,509,489,508
350,498,524,482,601
461,519,541,494,540
575,511,532,481,602
553,514,539,501,504
506,511,537,514,562
433,506,527,524,546
441,489,508,525,408
410,496,501,537,349
328,494,492,546,508
405,505,484,532,523
573,509,476,523,492
764,529,478,527,385
603,495,466,493,484
576,488,485,529,557
556,498,509,537,475
584,509,520,502,464
609,524,539,490,568
611,526,543,504,637
566,517,536,500,656
577,507,534,497,555
518,496,528,493,537
488,508,531,507,514
461,504,521,518,500
532,509,512,521,525
617,514,500,528,411
597,499,481,522,408
498,480,467,514,495
325,465,460,513,576
427,480,466,519,520
447,495,480,535,436
496,509,500,534,473
528,509,518,526,441
474,522,540,518,458
501,531,546,497,485
522,515,539,480,565
541,515,536,488,571
489,513,536,500,594
575,519,539,505,567
611,504,520,500,545
576,493,509,515,572
575,499,493,514,454
545,500,492,531,413
537,504,489,524,512
511,487,474,531,501
492,494,475,546,338
556,502,477,551,310
513,502,480,505,499
448,488,483,465,609
452,517,526,498,545
428,503,538,509,580
421,486,530,490,610
417,492,529,487,604
296,496,533,508,658
555,533,544,513,607
727,531,536,500,581
680,515,527,514,437
525,488,504,508,413
386,471,479,500,381
413,489,485,526,420
647,512,486,539,434
685,510,474,528,470
605,509,482,526,486
525,504,487,541,522
465,498,490,522,510
502,496,502,511,543
543,524,531,498,601
461,505,531,488,640
445,508,535,495,508
466,514,542,504,497
561,505,533,492,497
560,499,521,481,554
428,487,512,489,595
468,499,517,511,536
464,500,515,539,469
525,499,496,535,385
601,514,494,543,401
666,522,487,532,434
596,507,478,528,415
552,487,464,520,428
508,489,478,526,477
526,503,496,510,540
483,514,517,495,546
407,513,535,494,634
411,504,539,498,668
458,514,545,512,717
423,506,536,507,677
463,503,531,508,621
499,495,525,488,487
593,505,525,494,405
548,498,513,502,433
640,513,504,517,464
677,514,497,540,403
499,482,483,534,420
250,452,454,513,466
282,489,476,529,416
445,518,492,540,418
486,505,495,531,483
543,506,505,514,478
613,529,522,502,526
551,519,536,502,628
606,521,543,505,592
578,520,546,509,510
540,521,546,494,518
535,505,537,497,584
535,497,524,496,558
440,496,520,499,542
486,493,508,503,538
538,488,496,537,581
543,493,497,565,544
561,501,476,518,384
550,506,474,519,351
419,500,483,525,438
426,505,482,514,516
513,515,495,512,489
597,512,509,506,457
572,515,530,503,566
480,494,522,482,635
524,494,529,493,545
546,516,539,494,524
473,509,537,485,547
533,507,531,484,608
579,501,521,495,541
629,508,518,514,495
593,514,521,540,478
544,505,503,552,426
525,504,496,548,418
543,501,479,525,429
516,498,477,513,473
508,502,479,519,538
446,505,486,528,528
473,517,500,519,483
474,513,516,504,459
475,502,526,491,549
453,484,520,478,580
500,504,532,491,547
500,505,528,489,571
453,503,530,487,629
481,502,529,493,560
449,499,526,504,536
408,511,523,529,491
389,504,505,539,480
539,504,494,546,418
733,518,491,544,390
602,506,481,523,451
591,507,481,524,430
571,494,471,517,404
546,500,484,505,463
534,504,499,500,528
531,500,512,492,563
538,513,537,498,599
536,507,537,505,545
522,520,542,505,594
520,518,540,498,597
510,507,536,502,599
504,494,521,495,537
473,505,521,503,578
536,509,517,512,591
562,509,502,522,492
540,505,498,537,452
488,503,492,542,412
451,501,488,552,433
442,509,492,556,421
475,496,479,532,483
543,498,486,510,415
512,492,498,497,490
522,504,523,500,557
432,492,523,488,634
396,505,533,490,601
371,504,532,482,622
559,527,543,495,581
681,521,541,510,505
564,511,534,515,470
532,510,527,514,492
537,503,514,530,425
511,498,497,529,417
551,514,500,539,471
559,509,487,529,490
468,496,477,518,483
449,491,467,514,456
507,494,476,507,454
560,505,491,502,547
434,494,507,513,589
523,505,526,516,559
591,525,545,501,548
550,511,539,501,540
347,486,526,475,589
286,493,530,484,558
374,496,531,492,567
541,519,536,509,532
620,520,527,522,496
615,506,507,536,475
529,503,498,535,444
612,526,502,532,435
575,513,490,530,411
567,510,481,537,281
511,482,467,521,350
496,491,479,513,492
533,507,496,501,577
498,508,519,493,573
487,516,536,498,680
524,532,546,508,653
509,517,544,513,671
447,490,524,485,616
525,503,535,487,494
453,492,524,499,513
570,504,521,504,546
585,508,517,519,491
601,512,508,533,443
574,514,500,539,392
528,504,491,538,412
488,498,479,532,447
484,504,479,528,427
533,496,474,518,459
545,505,489,514,507
544,509,503,513,544
515,511,525,503,576
523,517,538,502,569
503,513,543,503,580
500,513,546,501,558
515,513,538,498,576
506,505,530,491,585
517,496,521,493,551
491,491,512,504,529
507,498,506,514,476
588,516,502,527,451
530,508,493,536,449
514,500,486,536,424
500,498,480,532,439
501,501,483,529,456
475,499,481,520,455
408,502,495,522,479
343,490,511,516,566
377,497,529,507,607
428,501,531,489,628
552,520,541,493,616
554,513,539,494,611
554,510,541,498,524
529,515,543,500,520
578,516,534,502,550
602,509,521,509,527
578,510,509,528,487
507,497,496,528,438
537,505,494,546,366
529,495,480,538,363
524,496,479,544,344
533,489,469,521,470
444,491,481,519,572
343,494,492,498,680
361,494,507,510,609
497,503,531,507,620
628,522,542,503,407
466,513,542,485,528
471,510,538,488,569
559,513,538,496,557
585,521,539,499,544
634,523,530,508,535
587,507,515,515,543
574,512,509,531,414
579,510,499,538,347
550,501,485,529,449
538,491,473,525,455
537,501,474,523,378
511,493,469,514,400
467,494,487,512,481
467,502,501,504,583
504,513,522,494,622
545,521,541,499,577
543,525,543,500,598
570,526,546,502,574
504,508,537,493,599
415,487,527,501,602
426,489,522,504,550
460,493,520,506,465
488,503,509,515,500
497,496,494,525,525
449,497,487,533,456
434,501,489,546,383
604,505,484,534,406
591,506,481,531,435
539,504,480,513,481
526,508,496,506,510
506,510,512,501,542
498,506,524,494,581
486,498,527,489,608
414,491,529,497,567
373,490,528,498,551
427,501,532,500,595
607,526,545,499,589
640,517,531,499,527
583,517,527,507,508
533,512,516,529,509
504,497,494,543,439
537,488,481,530,378
506,499,483,531,458
413,491,480,532,488
484,507,482,528,428
581,509,484,513,490
556,505,495,508,549
542,504,514,500,589
474,503,524,494,605
445,509,537,505,575
489,518,541,497,475
605,531,544,493,492
565,507,535,490,571
565,504,528,500,566
548,517,532,512,538
478,523,533,530,479
426,500,509,525,489
490,500,497,529,503
583,501,485,530,433
537,505,486,534,429
522,498,480,520,478
542,489,470,513,491
603,494,478,513,477
509,501,500,508,501
514,507,524,496,552
539,511,538,503,557
518,503,532,483,579
489,508,536,491,530
495,506,538,494,564
510,503,537,501,579
482,503,529,500,555
491,495,517,506,531
521,498,510,507,492
556,513,507,533,436
544,512,502,537,405
547,512,491,535,442
527,496,478,539,435
512,502,480,529,480
492,497,476,517,489
469,490,481,505,501
507,508,509,505,530
523,516,528,502,571
498,519,542,505,573
472,518,547,505,553
472,500,532,495,547
482,501,531,487,578
443,497,527,489,605
513,499,526,516,583
626,515,520,510,510
519,505,514,521,529
480,508,507,538,535
479,511,497,535,550
472,491,475,528,393
548,501,477,528,414
523,497,479,531,383
496,502,482,517,453
459,507,498,505,564
514,518,519,506,621
517,511,532,504,589
490,489,525,497,489
480,502,530,476,539
513,510,543,500,575
547,515,546,506,551
545,509,531,493,538
556,507,522,503,520
580,505,515,509,529
559,506,502,526,486
552,503,495,536,443
561,506,492,542,391
513,497,478,532,401
413,486,473,527,463
338,473,467,512,516
413,491,478,510,472
599,521,511,514,495
542,518,527,507,532
592,528,544,506,525
572,522,543,502,540
519,508,537,492,621
529,508,538,492,598
503,507,537,502,528
467,503,528,498,514
475,500,518,501,551
529,504,512,512,530
588,509,508,534,439
567,506,498,543,425
540,513,494,536,426
513,508,482,528,453
519,506,479,533,451
481,488,476,526,475
452,486,481,507,522
458,510,504,500,509
495,516,523,499,593
526,521,537,498,593
524,523,547,511,555
523,516,540,503,556
538,503,528,489,564
525,504,532,498,526
470,498,525,493,565
501,505,523,511,526
552,519,518,528,501
494,502,498,532,489
463,486,484,532,481
568,498,484,530,425
588,499,481,528,394
541,496,474,522,454
531,497,480,523,477
511,496,491,512,480
508,501,511,511,530
517,516,531,485,597
511,518,538,491,580
515,517,536,495,589
536,514,537,490,564
528,511,537,498,541
497,512,536,504,520
500,506,528,504,555
526,503,518,509,536
523,500,508,522,493
542,504,497,527,422
543,506,495,537,435
530,507,488,536,459
527,506,484,536,485
504,500,479,534,511
474,497,481,529,508
472,509,498,516,448
505,520,523,503,489
512,508,530,486,529
512,504,533,486,607
481,496,532,496,583
517,510,538,495,594
515,506,536,493,581
513,506,533,500,549
497,500,524,519,541
488,507,517,515,555
469,504,506,532,458
440,496,490,533,484
549,508,488,530,426
559,506,479,522,413
537,500,477,538,400
496,492,472,522,480
496,497,483,504,489
530,504,501,491,528
537,515,524,498,540
513,517,539,499,566
508,515,542,503,569
508,511,537,498,578
516,512,538,496,590
521,507,534,491,557
523,502,524,504,514
540,506,521,512,490
546,510,515,522,516
551,513,506,535,491
541,503,490,537,442
504,509,491,545,379
476,503,486,542,411
475,498,476,528,449
543,504,477,507,482
572,512,493,508,488
535,507,507,500,573
486,505,527,500,593
482,504,534,503,548
522,511,541,507,555
485,507,537,493,558
483,502,535,495,586
541,504,531,490,553
524,508,531,504,530
524,507,523,522,502
523,504,510,526,465
528,506,501,526,460
520,506,495,539,444
525,504,485,534,429
511,494,476,537,429
487,495,472,529,446
500,497,477,498,483
497,506,498,504,534
493,510,517,505,556
523,518,535,504,563
509,514,537,495,573
517,505,536,497,573
512,504,535,491,589
512,507,537,494,569
511,503,528,496,550
513,506,522,506,527
514,503,517,525,505
538,508,507,528,456
546,507,497,534,439
518,511,490,538,434
497,501,482,529,436
495,498,478,531,435
485,488,471,517,470
494,498,487,514,493
483,502,500,504,536
517,518,522,500,559
512,520,539,500,586
522,508,537,498,566
522,505,532,490,583
528,509,534,492,588
517,507,537,497,586
514,503,529,502,562
504,499,518,506,512
530,507,513,519,482
529,504,504,531,454
525,508,497,536,446
527,506,488,534,441
520,499,480,534,433
514,498,478,533,438
502,495,477,517,467
504,500,491,512,508
503,506,511,506,540
502,514,533,503,576
497,514,538,501,583
498,514,540,496,578
496,507,534,495,588
511,510,540,498,579
517,507,536,500,556
522,502,527,507,534
530,501,516,511,514
529,504,511,523,482
532,505,502,533,451
534,512,495,539,433
525,506,486,537,433
511,501,479,532,438
504,499,478,526,456
491,500,481,519,486
484,506,495,510,520
494,513,520,503,555
498,515,535,497,586
494,511,538,499,589
502,507,538,497,571
517,505,537,495,566
513,503,535,493,585
527,500,526,496,558
530,500,521,504,530
532,504,517,515,501
530,505,503,527,468
535,506,497,536,441
528,508,492,539,428
520,502,480,535,425
516,500,475,528,429
505,493,473,520,448
505,498,485,513,495
505,505,502,503,531
499,511,522,500,565
504,513,535,496,588
511,509,537,494,580
504,509,538,496,586
509,510,538,495,584
511,510,540,496,577
513,506,531,499,557
521,504,523,508,530
524,506,513,517,495
529,505,503,532,459
531,505,495,536,444
528,507,488,536,437
518,501,480,530,437
513,501,477,528,445
507,498,476,516,475
506,501,489,509,510
508,508,512,503,550
503,515,532,501,579
495,513,538,499,582
502,511,540,501,559
514,508,534,496,567
509,509,541,497,577
511,507,536,497,571
512,502,528,500,547
521,504,518,511,515
526,504,510,524,478
535,507,501,534,445
533,503,493,542,429
519,503,486,539,433
523,501,480,537,434
519,499,476,529,442
508,499,478,518,476
494,500,494,509,508
495,509,515,500,548
500,514,534,491,583
509,512,538,492,589
508,510,538,492,576
506,509,538,496,577
514,511,536,495,575
508,502,528,493,571
517,504,525,506,537
520,505,518,512,506
527,506,508,529,472
532,508,497,534,448
531,508,490,535,444
531,501,481,532,438
516,502,480,531,442
504,499,477,522,454
494,500,487,516,490
486,505,504,507,528
504,512,522,499,560
510,516,536,498,585
515,511,535,493,593
515,509,535,494,580
510,507,536,494,585
511,509,536,495,580
513,505,529,496,556
520,504,525,506,529
525,505,514,513,496
534,505,502,527,458
534,508,495,534,449
529,508,491,538,440
515,503,480,532,438
514,503,478,530,437
505,499,477,519,465
495,500,487,510,501
501,506,506,504,541
507,510,527,500,570
510,514,536,496,584
517,513,539,499,579
517,511,539,496,575
513,514,539,498,571
514,510,537,496,565
515,505,528,500,545
514,501,519,509,520
525,508,509,522,483
525,506,501,530,454
522,506,494,539,444
525,505,484,534,434
520,502,478,531,435
519,503,476,529,440
502,500,478,515,474
497,500,497,510,515
502,509,515,502,543
507,514,531,498,570
510,514,539,496,579
517,510,537,499,575
511,507,536,497,575
513,504,534,495,567
511,499,529,496,555
515,506,522,505,533
516,501,512,511,508
524,504,502,524,469
532,507,497,534,446
528,508,492,536,438
522,509,488,534,435
523,512,487,533,436
511,499,478,521,449
503,497,488,515,486
499,506,501,505,524
502,507,522,504,554
504,516,532,499,578
509,510,531,496,573
518,508,530,497,576
517,509,533,494,576
516,511,531,496,565
516,506,526,499,551
525,507,522,509,522
523,506,513,520,494
530,506,507,530,458
532,507,501,533,442
531,507,498,537,432
522,501,488,532,432
521,501,486,530,430
504,497,480,518,459
502,501,492,514,492
500,508,506,502,530
502,513,522,499,568
507,515,533,496,585
511,512,531,498,566
517,509,527,495,564
514,507,530,498,568
512,507,528,497,566
509,501,519,498,548
520,502,516,506,518
528,502,511,521,486
529,505,507,535,456
529,513,504,538,441
526,506,497,537,429
522,502,491,535,430
514,502,489,532,435
499,498,488,518,470
500,503,497,508,511
505,508,511,506,548
506,519,527,500,577
511,512,530,496,577
519,513,531,498,577
519,506,526,495,570
519,508,528,495,565
513,508,524,499,553
513,507,522,506,536
517,501,514,514,510
528,505,511,526,473
531,507,504,531,446
528,507,503,539,437
522,505,495,534,432
519,502,493,532,432
510,499,489,525,448
500,501,490,515,480
501,505,500,508,518
503,513,517,503,557
506,516,527,498,583
510,512,529,496,579
517,506,526,496,577
513,506,528,498,577
515,512,530,499,572
517,506,523,500,554
518,503,521,508,529
526,508,516,517,493
529,509,509,529,458
529,508,508,535,440
530,507,504,537,429
521,502,492,531,431
516,502,494,530,434
508,499,489,520,456
501,500,495,515,492
504,508,508,504,531
508,513,520,502,564
517,516,528,500,578
518,513,528,499,578
506,509,532,497,581
516,512,531,497,574
511,508,528,497,572
516,507,524,501,548
519,504,519,510,518
528,506,516,522,482
535,506,512,530,447
526,508,508,536,438
523,508,503,535,429
519,504,499,531,432
515,502,494,529,433
504,500,492,519,467
503,504,500,510,504
505,510,511,504,541
504,516,524,499,575
510,512,530,502,581
516,514,531,500,578
511,510,526,495,576
520,505,526,498,567
520,506,528,504,557
511,509,523,506,537
515,505,516,513,512
526,506,513,519,474
526,505,509,532,446
525,510,508,539,432
520,502,500,532,429
517,503,495,530,432
512,501,492,525,441
500,501,495,516,478
499,506,504,507,514
506,511,517,500,553
509,517,529,498,584
510,512,528,497,579
512,511,531,498,575
513,512,529,498,574
512,507,528,498,571
512,504,525,498,559
517,507,526,507,530
519,506,520,516,503
527,509,516,529,463
531,510,513,537,435
530,510,508,537,426
521,502,498,532,427
518,506,499,533,431
504,500,497,525,449
500,501,499,514,482
498,505,506,503,534
501,508,518,496,574
504,511,527,494,586
508,512,528,497,584
515,513,530,494,580
518,510,530,496,573
517,505,529,498,570
509,504,526,505,549
516,507,524,512,514
516,507,521,521,488
526,507,515,530,458
528,507,509,533,438
526,509,507,535,430
520,505,501,531,428
512,505,500,527,435
504,503,497,519,463
502,504,504,511,501
498,508,513,504,545
501,515,526,500,577
507,513,533,497,586
509,510,529,496,580
508,507,531,498,581
511,511,531,498,575
509,511,530,497,568
513,504,527,502,542
519,505,523,511,511
525,507,520,524,476
527,505,516,532,443
528,509,515,537,431
520,505,505,533,429
515,502,503,534,431
510,499,500,529,439
501,500,500,516,469
496,505,507,508,516
509,512,523,504,549
508,512,530,496,577
509,508,532,499,585
512,516,534,496,584
503,508,532,492,581
507,508,533,497,577
512,503,530,500,560
513,504,529,511,532
522,506,524,515,498
519,506,522,527,467
527,509,519,532,436
522,510,517,539,427
514,504,508,532,425
512,503,504,530,434
503,492,497,519,452
499,501,505,511,490
502,504,513,506,525
504,512,524,501,561
506,509,533,500,586
514,510,537,502,578
513,509,537,502,574
506,506,535,497,580
507,508,535,496,583
508,503,532,499,558
514,502,526,506,526
525,504,527,520,490
524,507,521,531,448
521,509,522,536,434
524,506,516,537,427
518,508,511,534,424
512,503,508,529,439
503,497,502,515,464
504,504,510,513,496
503,506,518,505,537
509,515,535,505,567
511,514,534,500,579
508,507,536,495,577
505,504,537,494,588
508,506,533,494,585
506,506,534,494,571
510,506,531,500,546
513,506,530,510,517
518,509,529,523,484
524,506,523,532,446
523,508,522,536,436
521,505,515,532,427
515,504,508,528,430
509,501,508,525,436
500,505,507,517,472
499,505,511,507,511
501,509,523,500,548
504,514,536,496,585
508,516,537,498,589
507,509,536,497,581
507,509,536,497,583
510,507,537,498,574
510,506,532,498,561
513,507,531,505,535
517,506,530,517,504
524,506,527,527,465
525,511,525,535,438
525,508,520,537,429
519,505,512,532,427
514,504,510,528,429
506,499,504,520,445
499,500,509,514,481
499,503,517,504,523
503,507,527,501,560
507,512,539,499,588
508,509,537,497,586
511,509,539,498,582
512,509,540,498,575
511,505,538,501,575
507,502,533,504,552
516,504,531,509,524
518,506,531,520,491
525,506,527,529,456
523,509,525,533,434
525,510,522,536,426
518,504,513,529,426
511,502,509,527,432
503,496,505,518,458
498,498,509,510,497
504,504,520,504,532
503,512,532,500,569
506,512,540,497,587
512,509,539,500,579
504,504,537,496,586
510,507,539,499,576
510,508,540,500,570
512,505,535,503,549
515,505,529,511,518
521,505,527,522,482
523,507,525,532,450
528,508,524,535,430
525,507,517,536,426
515,503,514,535,426
510,504,511,530,435
504,496,505,518,465
495,501,513,505,512
500,507,522,503,551
506,509,532,497,585
509,511,540,499,587
504,510,538,496,585
504,507,536,495,583
510,511,536,497,579
510,506,533,498,566
514,503,533,505,541
519,507,528,515,510
525,506,528,524,467
524,507,523,533,440
529,509,522,536,429
518,501,512,532,429
518,504,511,531,428
512,498,505,523,440
497,499,507,515,480
502,502,515,507,521
502,508,526,499,561
503,512,533,499,587
513,513,539,500,583
511,509,535,499,577
510,507,536,501,573
515,507,536,501,565
514,504,532,502,555
510,503,529,505,536
515,503,525,514,503
522,505,524,528,461
526,507,522,533,437
523,506,518,536,427
513,501,507,529,430
512,501,508,528,433
503,496,500,517,458
499,502,506,510,498
498,504,516,504,534
502,509,528,497,571
510,512,535,501,587
510,507,533,497,583
514,511,534,496,586
510,509,533,495,577
505,504,535,500,577
509,504,531,504,552
519,504,525,510,517
526,505,524,522,483
522,507,524,531,449
522,508,518,532,436
522,506,515,534,429
517,503,507,532,428
513,502,507,529,434
500,499,501,518,468
500,503,508,508,506
499,506,518,505,546
509,512,530,500,577
512,506,530,496,585
508,511,535,501,580
510,511,534,498,583
508,507,533,499,583
509,505,531,499,573
511,502,531,503,545
515,502,521,514,511
526,503,522,523,477
523,505,518,532,445
526,507,516,534,432
517,503,508,532,430
513,499,505,531,432
507,499,499,523,443
502,499,500,514,478
499,503,510,508,518
504,510,520,502,554
502,509,530,499,585
510,510,531,498,583
512,509,530,497,588
507,506,530,494,587
510,505,532,493,575
509,501,527,500,558
517,503,526,509,529
524,504,523,518,499
526,505,521,529,463
527,510,519,536,437
518,505,512,533,430
520,502,506,532,429
514,503,505,531,431
501,497,497,519,455
496,499,501,511,490
499,505,513,505,534
502,507,522,500,571
509,511,530,498,589
511,509,532,496,585
508,507,530,495,584
508,507,531,495,576
506,508,527,498,579
510,503,525,501,552
515,502,524,510,522
521,505,523,521,487
521,508,518,531,450
525,507,517,536,437
522,506,507,534,428
513,502,507,533,430
518,503,504,530,432
510,498,499,521,460
504,503,502,512,497
499,504,513,505,543
504,509,522,498,577
504,510,528,495,587
509,510,531,498,586
509,509,529,496,586
508,507,528,495,578
508,504,530,499,571
512,505,526,506,544
515,504,523,512,512
518,504,520,525,476
524,505,520,533,448
524,506,515,536,431
520,504,507,534,431
514,502,504,530,431
510,500,499,524,441
498,496,498,513,477
499,502,505,507,516
504,506,517,504,551
507,511,527,498,586
511,507,528,497,587
510,509,529,497,583
508,506,527,498,580
512,507,530,501,579
511,505,527,501,559
515,507,525,507,531
519,505,521,515,504
524,505,516,526,466
524,505,515,533,442
524,510,512,537,430
516,499,502,531,431
515,504,504,532,432
505,497,495,522,453
500,495,493,510,488
499,504,506,504,531
499,510,520,499,564
504,513,529,500,588
505,509,527,496,583
511,508,527,497,583
507,504,528,497,580
508,509,529,498,572
512,506,526,503,551
516,506,522,511,524
522,503,518,520,492
528,507,517,528,454
519,509,511,533,442
523,507,509,534,427
520,506,504,534,429
516,501,501,527,430
493,496,494,517,465
502,503,503,510,500
501,505,512,503,537
505,508,519,498,576
507,511,526,495,588
509,509,526,495,580
507,505,528,497,586
511,507,528,497,578
508,508,525,498,570
511,506,523,504,544
515,505,525,512,515
520,502,517,522,480
525,507,511,532,446
523,506,509,534,431
519,504,506,533,427
516,500,501,531,428
509,501,499,527,435
500,498,499,517,474
500,502,503,508,513
502,506,515,504,549
503,510,523,497,586
506,509,526,495,585
507,506,527,498,584
509,511,528,497,582
510,507,527,497,577
511,504,524,501,561
516,504,523,507,532
519,503,519,517,504
521,504,515,525,469
525,506,515,532,441
528,508,511,538,427
517,505,501,532,428
511,500,501,528,429
502,495,492,520,448
502,499,494,513,482
503,502,504,508,520
504,511,516,502,557
502,510,523,497,591
510,506,524,497,583
509,507,523,497,579
510,508,528,498,572
510,505,525,497,573
508,503,519,498,559
516,503,519,509,526
516,503,518,518,491
524,504,514,531,453
522,505,511,533,436
522,503,506,536,430
517,504,501,533,425
515,500,498,530,429
500,496,492,514,462
500,498,496,505,495
503,506,510,505,537
501,511,520,499,575
509,509,525,497,582
504,509,524,497,585
504,506,525,495,586
511,508,525,496,578
507,506,525,497,568
517,503,522,505,545
513,503,520,512,518
519,503,517,525,482
526,503,515,533,448
524,506,510,534,431
522,503,504,536,427
517,503,503,532,428
514,502,498,527,431
504,498,493,515,467
495,499,499,507,512
496,504,510,499,552
501,509,521,498,586
509,510,524,496,586
508,508,522,495,583
507,506,525,501,584
508,508,525,498,579
511,506,525,501,564
516,505,523,509,537
517,504,518,516,508
523,509,516,527,469
524,506,511,535,442
527,506,509,536,432
515,501,501,535,431
514,502,500,531,430
505,496,493,521,449
497,497,491,507,483
496,501,503,507,524
500,508,514,500,559
502,510,523,500,589
508,508,524,498,586
511,507,524,496,584
510,507,524,495,579
512,504,524,495,577
510,507,521,502,557
513,504,521,507,528
519,505,516,520,498
526,505,514,530,460
524,506,510,535,437
521,506,507,539,429
517,505,501,534,431
514,502,498,529,433
503,496,491,520,458
501,500,496,512,493
503,502,504,504,532
503,508,517,499,567
506,512,524,499,588
508,512,526,499,584
513,509,524,495,580
511,508,525,499,574
507,506,524,495,573
508,504,521,503,554
510,507,518,512,523
516,504,513,521,486
524,505,516,533,449
527,505,508,536,436
519,503,504,538,430
519,504,501,534,429
517,502,498,526,433
501,497,493,520,469
500,502,500,507,508
504,506,508,503,543
499,511,519,499,582
506,510,522,497,590
511,508,525,498,587
508,509,525,495,584
510,506,525,498,582
511,503,525,502,569
516,503,523,506,538
517,504,518,515,508
519,504,516,528,472
526,507,513,534,440
523,505,507,535,431
518,506,503,535,427
516,505,498,532,428
510,499,491,524,442
501,496,495,517,478
496,503,504,507,520
504,509,516,504,557
507,514,526,497,584
507,510,526,500,585
505,509,525,495,587
507,507,525,494,585
506,506,525,496,577
509,503,523,500,557
513,505,521,511,533
515,503,517,517,499
524,503,513,530,458
524,507,513,536,435
522,505,507,534,427
514,501,500,530,430
512,501,496,529,430
504,497,491,518,454
498,499,497,513,493
502,505,508,505,530
501,509,515,499,571
506,511,524,499,587
508,508,525,498,582
506,504,524,497,585
512,511,528,499,579
515,508,525,497,575
512,503,521,500,553
515,501,518,509,520
525,506,516,523,482
524,508,512,530,446
522,506,510,537,438
518,505,503,532,433
514,503,501,530,434
511,502,496,529,438
501,498,493,519,471
501,503,499,511,508
500,507,507,503,542
506,507,519,500,577
510,508,525,499,581
517,509,526,497,575
507,510,525,498,577
510,507,522,494,578
505,504,524,501,573
514,503,521,505,546
515,502,517,513,515
520,504,515,524,477
523,506,512,533,444
521,506,506,537,435
519,502,502,536,428
517,503,498,531,429
510,499,494,527,443
501,499,491,514,475
498,502,502,509,520
506,509,512,501,552
513,512,523,501,580
511,509,524,500,575
509,509,528,499,582
512,509,525,497,581
508,508,525,496,580
510,505,523,503,562
516,502,519,508,535
516,504,518,517,506
520,504,513,525,466
525,507,509,535,442
525,507,505,538,432
517,503,499,533,429
515,503,497,529,431
503,500,490,522,451
498,498,494,513,485
498,505,503,507,525
503,508,516,502,563
513,510,525,505,580
501,510,527,500,585
509,508,524,497,583
511,507,525,496,581
509,504,524,497,576
512,504,522,503,555
514,502,519,507,525
517,503,516,523,492
527,503,512,532,454
523,507,514,538,436
522,506,506,540,427
514,501,497,531,433
516,501,496,525,433
500,493,490,518,463
497,500,499,511,502
499,507,508,504,541
505,513,520,499,574
510,510,525,497,586
508,508,525,495,580
509,507,522,495,581
507,508,526,497,581
511,502,523,498,574
512,503,521,502,543
514,502,518,515,516
521,505,515,525,478
525,505,509,531,445
524,507,508,538,435
519,504,501,538,430
517,501,496,531,430
513,501,492,526,438
501,499,492,518,473
502,504,502,508,513
499,505,511,500,554
502,510,523,497,586
505,508,526,497,587
508,508,524,497,585
509,510,527,498,584
508,508,526,497,578
508,504,523,500,562
512,503,520,506,539
520,505,518,516,505
523,504,513,528,468
530,506,510,536,439
527,504,505,539,429
513,505,499,534,431
517,504,498,531,429
511,497,490,521,443
498,500,497,514,483
506,505,504,504,527
500,508,514,499,563
504,511,526,497,586
503,509,525,497,585
505,508,523,495,583
507,510,525,497,577
507,506,526,498,577
509,504,520,501,556
519,503,521,511,523
520,506,517,522,493
529,504,512,533,454
529,506,508,537,434
522,505,504,539,427
513,501,498,535,429
512,501,496,531,435
499,497,489,514,463
494,499,496,510,502
498,508,507,502,541
500,512,521,498,575
506,512,525,496,588
511,508,526,498,582
507,507,526,492,582
508,507,524,496,577
512,503,524,499,575
511,503,522,502,549
515,503,521,511,519
521,504,515,520,481
526,505,510,534,447
523,506,506,535,434
519,502,501,535,430
514,504,498,533,430
514,498,495,530,436
500,497,493,516,469
495,500,500,508,512
501,508,513,503,546
505,511,523,499,579
508,509,526,496,584
507,510,524,498,579
509,507,526,497,581
509,506,527,502,577
508,502,524,504,566
512,501,521,505,536
515,501,514,516,509
523,502,511,525,471
526,505,511,536,443
525,503,507,539,430
519,502,497,533,427
515,498,496,533,430
505,496,488,522,447
496,497,491,512,489
503,504,504,505,523
498,506,514,501,563
504,510,525,499,588
509,509,526,498,583
511,508,525,495,583
512,508,525,498,579
508,510,526,498,578
511,505,523,500,562
512,502,520,507,531
522,505,515,519,495
526,505,511,529,457
524,506,507,532,436
522,503,504,536,427
516,501,497,536,429
513,500,496,529,435
502,496,490,519,458
500,500,494,509,494
500,505,507,504,536
501,506,517,499,571
505,507,525,498,587
510,511,527,498,581
509,507,526,496,583
512,508,526,497,577
511,507,527,498,570
514,504,523,501,551
515,501,517,509,521
526,504,514,522,483
528,505,511,533,444
530,504,506,537,429
529,506,504,539,421
515,503,497,531,426
503,501,493,522,437
500,498,489,515,469
497,500,499,505,509
499,508,512,502,547
503,512,523,497,580
509,511,525,496,585
508,507,527,497,581
508,511,527,496,578
508,507,526,496,578
514,505,521,496,564
513,508,521,504,540
513,501,516,512,510
523,505,513,524,473
524,506,509,531,442
523,505,507,539,432
518,501,500,534,429
518,503,500,533,427
506,499,492,524,444
503,498,491,514,475
500,503,501,508,518
498,509,516,499,557
502,514,523,494,586
506,507,525,496,583
506,507,526,499,585
509,509,527,497,581
511,505,528,498,575
509,505,523,500,561
511,506,518,506,530
517,508,518,518,501
522,503,513,528,462
527,508,511,534,439
522,508,505,537,428
518,500,496,532,428
514,501,496,530,436
503,493,489,520,453
501,501,496,512,490
499,505,505,502,528
501,509,517,498,561
510,512,528,500,580
515,512,528,501,570
508,508,523,496,587
506,504,526,495,581
507,507,526,496,575
513,502,523,501,551
512,502,517,508,524
521,503,513,519,489
523,503,511,530,449
521,502,506,534,437
525,507,506,534,429
516,503,497,529,427
510,502,492,526,434
503,499,491,515,466
498,499,499,505,505
500,508,509,502,542
504,513,521,498,577
507,511,522,495,583
507,509,525,495,583
507,507,527,494,582
509,507,528,497,579
510,505,527,499,569
514,502,522,505,542
522,506,517,514,509
523,505,515,523,474
524,505,512,534,444
526,506,507,533,434
517,504,501,533,432
516,503,495,531,430
511,499,492,523,441
500,497,492,513,476
497,502,502,506,517
503,508,516,502,549
504,513,526,495,580
508,506,524,494,578
512,508,525,496,576
515,507,531,498,579
513,509,527,498,577
506,504,525,501,568
512,509,520,508,537
518,504,518,518,509
520,505,516,529,469
527,508,512,535,440
524,506,502,535,426
513,502,500,535,427
513,501,496,531,427
501,493,488,520,453
502,500,495,508,485
498,505,506,504,527
504,510,518,498,564
506,511,526,496,583
509,507,527,498,582
510,508,529,497,583
512,511,529,497,582
508,508,528,499,575
512,504,524,503,554
513,505,517,509,522
523,504,518,519,490
529,504,512,530,453
522,502,505,533,438
522,503,507,537,429
517,503,499,533,429
513,504,496,529,434
500,495,490,516,463
499,498,498,510,501
504,505,507,503,540
504,512,521,497,578
504,509,526,494,585
506,506,525,495,581
507,507,528,497,584
511,508,526,496,580
514,502,525,500,565
516,501,522,502,544
517,506,520,512,514
520,502,513,522,479
522,505,507,531,447
523,506,508,537,434
520,503,499,533,428
514,502,496,528,429
508,498,493,525,444
501,499,494,515,477
497,502,502,504,514
502,508,512,501,553
503,512,525,497,583
506,510,525,496,584
509,508,526,497,584
512,507,528,497,580
519,505,526,497,572
517,503,525,502,556
510,511,525,509,534
513,505,518,512,507
524,503,513,526,468
522,505,508,531,443
520,504,506,536,434
516,504,500,534,431
514,502,497,529,431
505,497,492,521,450
501,496,494,513,486
498,508,506,506,522
500,510,521,502,560
505,514,529,496,589
508,509,528,494,581
508,507,526,497,585
510,508,532,496,582
511,507,527,498,575
510,503,522,505,555
516,502,519,506,525
512,506,517,519,497
523,504,511,530,457
524,507,509,536,438
521,505,504,536,429
517,502,496,531,429
511,499,494,529,432
502,497,489,516,461
499,501,497,510,500
498,505,508,504,538
503,510,520,498,575
508,510,527,498,585
508,511,527,497,581
507,507,524,494,582
506,506,527,496,580
513,506,526,500,569
510,504,524,504,549
515,503,518,513,514
526,506,516,523,478
527,503,510,531,443
534,507,509,538,433
527,503,500,533,425
510,501,496,530,429
507,502,494,528,437
499,497,492,515,473
498,501,497,505,511
504,509,512,500,547
504,515,523,497,583
507,508,524,495,586
508,507,526,494,582
507,509,527,497,582
508,511,528,497,581
512,506,520,498,562
512,505,524,509,538
516,503,516,516,504
523,505,514,528,471
527,506,508,533,444
524,503,504,536,431
519,500,499,533,426
512,502,496,529,433
506,497,489,522,450
499,498,492,513,481
499,506,505,508,524
498,509,515,501,562
508,516,527,500,587
510,508,526,497,579
508,507,522,494,583
507,506,526,498,585
510,511,527,498,576
516,506,524,498,557
514,503,523,509,527
519,504,517,521,492
522,503,511,528,451
526,507,509,538,434
519,505,504,534,433
513,499,495,533,432
512,499,494,528,434
501,492,488,517,460
501,501,497,514,494
498,506,507,502,537
504,513,519,500,574
505,512,527,497,585
509,508,527,498,579
510,507,525,494,583
514,508,527,496,582
509,506,526,498,574
513,502,520,502,550
521,502,519,513,518
520,506,514,523,483
524,505,513,532,453
524,505,504,534,438
520,503,497,533,430
513,499,496,534,432
513,502,494,529,437
499,499,489,515,469
498,502,502,510,510
501,507,511,502,546
501,511,522,498,578
511,508,527,498,588
510,508,526,497,583
510,504,526,496,579
509,505,527,497,579
513,509,524,497,569
517,502,520,504,542
520,503,517,512,509
521,504,515,526,474
525,506,510,530,444
523,506,505,537,431
515,500,496,532,428
514,500,495,531,432
511,497,490,523,449
501,499,491,514,480
499,502,504,507,519
501,510,514,501,557
505,514,526,495,585
506,512,526,498,585
507,507,526,497,582
514,510,528,495,581
510,505,527,498,577
514,505,523,501,557
516,503,521,509,532
519,503,515,513,499
523,503,512,529,458
521,504,506,534,441
521,505,503,538,432
519,503,499,533,428
511,500,495,531,429
504,497,489,519,457
497,500,494,511,493
499,505,507,506,532
501,510,523,500,570
508,510,528,500,585
513,506,527,497,579
509,505,526,496,577
509,505,526,497,574
509,506,527,502,574
508,501,522,500,551
520,501,518,511,519
520,504,518,522,489
525,505,511,534,449
523,506,506,534,436
520,506,502,536,427
518,502,497,532,428
512,500,495,528,432
501,498,491,516,466
498,500,500,508,503
500,507,511,503,544
506,513,524,498,579
507,509,523,495,585
508,509,529,498,583
509,509,528,497,580
511,509,526,497,576
510,505,525,497,564
515,503,521,505,540
517,501,518,517,511
522,507,512,525,471
522,507,513,536,445
524,510,506,538,427
515,502,498,535,431
513,505,497,532,434
508,500,492,524,444
498,496,490,513,478
499,502,501,504,518
503,508,514,500,552
507,512,525,498,586
512,511,526,497,585
512,508,524,493,580
516,508,529,497,577
517,508,527,500,571
515,506,524,501,554
513,502,520,507,533
516,502,515,510,503
523,505,513,527,461
527,507,509,534,441
522,506,504,536,429
515,503,497,533,429
511,501,495,533,435
499,493,487,518,458
499,502,495,512,492
505,505,506,503,528
498,511,519,496,568
502,512,527,497,588
508,511,529,497,581
507,509,523,493,580
507,504,525,495,575
510,504,526,500,573
516,502,520,503,547
520,505,520,510,521
523,502,515,522,487
521,504,510,536,451
527,508,509,535,438
521,506,503,534,430
512,501,496,531,432
509,500,491,528,437
501,496,488,517,465
499,501,496,511,504
503,505,509,503,542
506,512,523,498,573
505,510,524,499,586
508,510,528,495,585
508,510,528,492,579
509,507,527,498,580
513,507,526,499,569
511,503,522,504,545
513,504,516,511,514
520,504,515,523,476
526,503,509,530,444
525,508,509,536,434
516,501,497,533,435
514,501,496,532,432
508,498,492,526,441
499,494,490,515,474
500,504,502,509,515
501,510,511,500,552
504,513,523,498,586
508,507,527,497,582
510,510,529,496,581
509,509,528,494,577
509,509,525,497,573
510,503,524,503,562
516,501,520,507,536
519,504,516,517,503
525,505,513,530,466
522,505,508,536,437
520,503,504,540,430
522,504,497,535,425
512,501,494,531,431
503,497,487,519,458
499,497,493,512,490
498,505,506,506,527
501,509,523,501,562
508,513,526,497,583
509,509,527,498,578
507,507,527,497,583
511,508,527,495,580
509,506,525,497,574
511,501,523,504,556
514,501,516,508,525
519,504,515,520,493
525,503,511,529,453
528,508,508,536,438
520,502,501,537,428
521,503,498,536,426
512,502,496,531,436
501,499,490,519,465
499,499,496,510,501
502,504,508,505,540
505,511,523,497,573
504,510,527,499,581
509,509,527,500,578
500,508,529,497,584
506,507,527,491,578
506,504,522,494,573
509,501,520,501,549
517,501,516,510,518
524,504,516,523,480
526,505,511,534,448
522,506,507,536,433
517,501,500,537,433
513,505,497,533,430
513,501,494,525,438
500,498,489,519,474
499,502,500,506,514
499,507,513,506,551
508,515,527,499,584
507,510,528,497,584
506,506,527,497,586
509,512,529,497,583
512,506,528,497,578
511,504,525,499,558
517,503,524,508,533
518,502,517,519,505
525,504,514,530,469
528,506,511,534,443
524,505,505,535,433
520,502,500,536,427
517,502,496,533,427
502,496,489,520,452
499,500,493,512,487
503,503,505,506,525
505,511,518,500,560
506,511,526,498,587
512,512,529,497,583
508,505,523,493,584
508,506,528,496,578
511,506,528,496,572
514,503,522,499,556
510,502,520,508,529
516,502,518,520,498
524,506,512,530,460
525,505,508,531,437
520,503,503,540,432
518,502,496,533,429
512,500,495,529,430
501,497,489,519,459
497,498,496,510,498
500,505,509,505,539
506,514,522,501,575
510,510,527,498,582
507,507,527,498,585
513,506,528,497,584
516,507,529,496,574
517,508,526,502,568
512,504,524,507,547
518,507,520,514,512
521,503,516,521,479
520,500,509,531,454
522,508,506,535,439
519,501,498,530,434
514,498,496,531,434
510,499,494,527,439
499,496,491,514,473
501,503,502,509,510
502,508,514,506,549
505,511,525,500,578
509,513,528,497,584
509,508,525,495,585
510,509,529,494,581
511,507,528,497,574
511,502,523,494,562
518,500,521,505,537
516,502,517,513,508
522,503,513,525,472
525,508,511,532,445
520,507,506,535,432
518,501,498,535,427
515,504,498,531,431
508,497,490,524,444
496,498,493,514,482
497,503,502,506,521
500,509,516,501,555
504,510,527,494,586
512,512,528,494,583
506,510,526,495,579
509,507,526,495,579
509,511,529,498,577
510,505,527,500,559
514,503,520,506,528
517,501,516,520,496
525,505,513,530,457
527,506,508,534,434
523,505,505,537,430
521,505,496,533,425
518,499,493,530,432
503,495,489,519,459
498,499,495,510,494
499,504,507,505,533
504,509,520,500,570
507,510,525,496,584
509,509,528,496,581
508,508,527,493,579
510,508,530,496,579
511,507,524,496,573
515,502,522,502,548
517,505,519,511,518
522,503,516,525,483
529,505,510,533,447
527,502,504,535,434
524,505,501,536,429
516,502,493,531,428
505,498,493,530,439
495,495,489,516,469
497,502,497,508,507
498,507,511,503,545
504,512,524,498,576
509,509,526,497,583
511,509,524,497,581
514,508,529,494,583
513,507,527,497,580
512,506,525,498,566
516,504,522,504,540
519,502,520,515,511
523,503,513,527,472
528,504,509,535,441
520,503,504,535,436
521,502,500,533,429
517,502,493,532,435
505,496,490,526,445
503,500,489,514,473
501,502,503,508,519
499,507,515,502,557
505,512,526,497,588
508,510,526,497,589
512,509,528,495,583
506,505,525,495,580
508,506,528,499,575
511,506,525,501,558
514,503,522,511,529
518,500,515,514,503
524,505,513,524,463
526,506,508,532,437
527,509,505,537,429
527,503,497,536,419
516,503,495,533,432
499,497,490,520,459
498,500,490,510,489
499,504,507,505,532
503,510,519,500,570
507,513,525,496,584
508,510,531,497,584
507,508,526,495,583
508,509,528,495,579
512,507,529,498,577
512,506,523,503,552
510,502,517,508,523
522,504,516,521,487
530,501,506,531,448
528,507,506,538,433
523,504,505,537,429
509,505,498,534,432
512,498,493,528,436
503,498,492,516,465
496,499,496,507,505
500,508,508,503,542
503,513,523,496,575
505,511,527,498,587
508,506,528,498,579
511,508,527,497,579
511,506,526,496,573
509,506,527,499,567
509,502,521,501,546
520,499,517,512,510
527,505,514,524,473
529,505,508,534,441
529,510,506,538,431
518,503,498,535,429
516,504,497,533,425
505,498,490,520,444
502,500,491,514,478
498,501,500,505,519
500,509,514,499,554
504,513,528,498,585
505,510,527,497,579
507,507,527,497,582
511,509,524,495,578
512,508,527,496,573
508,501,521,498,559
514,503,520,507,530
518,503,519,518,503
524,505,511,529,465
524,504,508,535,439
521,505,501,537,432
518,503,497,534,429
513,502,495,529,429
504,496,488,519,450
497,502,494,513,487
498,505,505,501,526
503,509,517,500,564
504,511,527,501,587
509,509,527,498,581
509,507,527,496,582
507,507,526,496,577
513,507,528,499,571
511,507,523,502,553
517,501,517,509,528
520,504,517,522,488
523,503,510,532,455
526,506,508,537,435
523,506,498,536,430
518,501,496,533,428
511,503,495,531,433
501,499,490,519,462
498,502,496,508,500
502,507,509,503,539
506,512,523,500,573
507,508,522,495,584
514,510,528,496,581
509,509,528,495,578
511,509,527,498,579
512,507,524,498,570
511,506,522,506,541
517,505,519,513,512
524,503,515,525,476
528,504,508,533,450
526,507,505,538,435
519,505,500,534,431
518,503,496,531,429
512,498,491,528,439
502,499,490,516,473
497,502,499,507,513
500,508,512,502,548
502,511,524,500,581
509,511,526,498,583
510,508,522,495,581
510,510,528,498,580
511,508,525,497,575
507,503,523,500,566
516,502,520,506,539
517,504,513,516,506
525,506,514,528,466
527,506,507,533,439
522,507,505,537,433
518,503,495,531,428
513,502,497,534,432
507,499,488,522,455
506,496,491,513,484
504,505,503,508,518
501,510,518,501,559
506,513,524,496,583
509,513,528,499,580
509,508,526,492,581
507,506,529,497,581
510,505,525,498,574
512,502,522,501,554
522,506,520,512,522
525,508,518,520,492
522,504,506,529,458
522,505,502,534,439
523,506,501,534,431
517,503,498,532,429
508,501,493,532,434
502,500,490,519,461
498,500,493,508,500
502,507,508,504,535
507,514,521,499,571
511,513,527,498,582
508,510,526,499,579
511,510,530,498,580
505,506,526,493,584
511,505,526,496,575
513,504,521,502,547
512,501,517,514,519
522,501,514,524,482
527,506,507,534,446
521,503,503,535,435
521,505,500,535,430
514,502,493,532,431
510,501,495,529,439
499,497,488,519,472
501,502,498,509,511
496,506,512,507,551
509,515,526,498,581
508,511,527,496,582
507,507,524,497,585
516,508,528,499,575
511,509,526,499,572
508,504,522,497,560
515,504,521,504,536
519,504,518,515,509
527,502,513,527,471
531,503,507,535,441
523,505,506,540,433
522,504,500,536,424
513,502,494,530,431
504,494,487,521,450
497,497,492,512,482
497,503,504,506,526
498,508,517,503,561
506,513,525,497,586
508,510,528,496,581
506,508,527,497,585
515,509,528,494,580
511,508,525,497,572
512,503,524,500,557
517,502,522,508,528
517,505,515,519,495
526,506,512,530,458
525,506,505,536,440
522,506,504,539,434
519,504,499,533,428
512,502,492,529,433
501,499,490,520,458
497,500,496,511,493
499,505,506,504,535
504,507,517,499,569
509,512,525,498,586
509,512,528,497,586
509,508,527,496,583
510,507,524,494,577
510,506,524,498,574
511,503,522,502,548
516,504,518,512,519
521,502,512,519,488
525,505,508,529,452
524,505,506,538,439
525,505,502,534,427
516,504,495,533,429
511,501,496,527,435
498,495,491,514,469
496,501,500,509,507
504,508,510,503,543
508,512,523,500,572
506,510,528,497,582
508,506,524,494,583
509,506,528,500,581
511,508,529,498,577
514,505,526,500,560
512,502,519,505,542
516,503,517,513,508
523,501,513,526,474
522,503,509,533,447
527,508,507,535,433
520,501,499,535,430
520,500,493,530,429
505,495,486,521,446
503,499,493,515,480
497,506,503,507,521
502,509,515,499,555
508,512,527,496,581
511,509,527,499,580
506,508,527,493,584
508,509,528,493,580
514,507,525,495,578
510,506,524,501,558
514,504,521,509,527
518,504,514,518,495
528,505,512,530,456
524,506,509,533,436
523,505,501,534,431
517,502,495,531,432
512,500,493,528,433
502,495,488,519,455
499,499,491,512,491
500,501,504,505,532
504,510,520,497,565
508,509,525,497,583
508,507,527,495,579
509,505,527,497,582
510,511,528,497,581
508,506,526,500,575
514,501,521,503,552
516,502,515,510,521
525,504,515,521,486
528,505,510,534,450
532,505,503,536,432
529,505,502,538,423
521,505,496,533,424
506,499,490,524,439
495,499,487,514,471
495,501,498,505,506
498,507,513,504,546
504,514,527,501,580
503,512,528,496,591
508,508,526,496,578
509,510,526,497,581
509,506,527,497,580
508,504,525,500,565
511,503,520,504,542
516,503,513,512,511
521,502,513,526,476
523,506,509,536,441
527,508,505,540,428
518,503,497,535,427
515,502,494,530,430
507,498,489,523,444
502,499,491,517,478
502,505,502,507,517
501,508,516,503,554
507,513,529,499,585
510,510,528,496,581
513,506,526,496,583
509,507,527,496,581
509,506,524,496,577
512,504,522,502,559
515,502,519,508,534
516,506,516,517,501
519,502,511,528,468
524,505,506,535,444
526,507,504,539,432
516,504,497,534,431
515,504,493,531,430
506,498,489,521,451
500,499,493,513,489
501,505,502,503,530
503,509,517,499,564
507,512,528,496,586
510,508,525,497,585
509,505,525,496,580
511,510,526,495,573
509,509,527,496,570
505,503,524,502,553
515,501,518,512,520
519,504,517,522,490
520,502,508,531,452
528,506,506,539,432
529,505,499,537,425
518,502,495,531,422
510,500,492,529,432
499,502,488,517,467
500,500,493,506,505
500,506,507,501,540
503,513,520,496,574
510,512,528,497,587
515,510,527,494,582
512,508,526,496,580
511,509,528,493,575
506,509,524,498,568
515,503,521,504,542
518,506,516,513,511
521,503,513,522,480
526,505,508,533,447
525,508,508,537,435
520,504,497,535,427
513,501,493,529,432
510,500,491,526,440
500,498,490,513,474
499,504,499,506,514
504,505,515,503,552
510,511,524,499,585
507,508,526,496,586
504,507,526,495,585
510,511,528,498,579
515,509,527,495,575
509,505,521,499,563
515,504,520,502,532
518,502,515,517,504
523,503,510,526,465
526,505,508,534,443
526,504,503,537,431
518,504,497,533,428
516,500,493,531,428
504,498,487,522,450
498,500,493,510,483
498,503,504,506,526
502,509,515,498,564
503,510,525,498,584
504,508,526,500,585
507,509,528,496,585
508,510,528,496,579
510,505,526,496,577
512,505,521,499,556
513,501,518,506,527
523,506,514,519,494
526,505,510,531,454
523,505,503,534,436
521,502,501,535,429
517,501,496,533,430
513,501,493,532,434
507,497,493,520,462
501,501,497,509,497
501,505,508,504,533
504,512,521,501,575
509,511,523,496,586
504,510,526,497,588
507,509,527,496,585
508,508,530,497,583
507,506,529,499,572
510,504,519,504,542
515,507,518,511,518
520,504,513,518,481
525,505,509,529,449
524,505,505,538,438
522,504,500,532,430
515,502,495,531,431
512,500,492,527,438
501,497,491,517,474
498,505,501,508,514
500,506,512,501,551
506,513,525,499,580
510,511,526,497,583
513,508,527,497,580
509,509,528,494,585
505,506,527,495,582
512,504,525,499,563
513,502,518,506,538
518,500,515,514,503
524,505,511,525,468
526,505,509,534,441
521,502,502,535,436
521,506,500,533,427
515,503,495,532,433
502,495,488,525,453
498,499,494,514,485
502,505,506,506,526
506,510,517,501,561
508,514,529,498,588
508,509,528,496,582
509,508,525,495,582
509,505,527,497,583
507,506,527,497,579
506,503,522,500,555
509,503,520,511,527
514,503,515,515,493
523,504,509,529,450
528,504,505,534,432
524,505,503,537,430
523,503,498,533,431
519,503,495,528,436
508,495,489,520,462
502,500,493,508,497
507,507,503,503,534
508,512,520,499,572
509,509,527,500,587
518,510,530,497,577
518,511,531,496,576
514,506,526,494,575
512,505,523,500,570
513,501,520,502,544
517,503,520,514,518
527,502,512,522,481
525,501,507,530,450
522,505,505,536,438
522,504,500,533,427
514,501,496,530,426
511,500,491,529,433
500,495,490,517,471
493,498,497,507,513
489,505,510,499,549
500,511,523,498,585
510,512,528,494,586
514,509,527,498,582
513,511,529,496,578
511,508,527,494,585
512,505,526,497,572
515,504,522,502,544
515,500,515,511,513
522,504,512,525,475
525,506,505,532,443
528,507,503,537,431
524,503,498,533,423
514,501,492,529,431
506,498,486,522,445
498,499,492,515,481
500,506,502,506,522
507,512,517,500,557
508,514,526,499,585
508,509,523,496,586
505,507,526,497,587
516,510,530,492,578
511,507,528,499,580
512,504,524,501,557
515,503,520,508,535
517,503,513,514,499
519,504,512,530,467
517,506,508,537,452
510,506,503,537,439
509,504,496,535,437
505,499,492,532,436
495,495,488,518,457
504,499,495,512,490
515,508,507,504,528
511,514,520,501,562
513,512,526,497,580
514,507,524,494,581
512,509,529,497,584
511,509,528,497,578
514,508,526,499,568
514,504,523,503,549
518,499,516,511,521
524,504,513,521,487
528,504,509,531,453
525,505,503,535,434
521,504,497,538,429
516,502,497,534,425
513,501,497,529,430
504,496,491,517,463
501,502,499,509,501
502,509,509,504,545
501,511,520,499,593
502,511,526,496,606
504,508,525,495,594
504,506,526,495,584
507,506,526,496,574
508,503,521,499,561
511,502,518,502,535
514,501,516,514,505
522,503,514,526,471
524,506,509,534,442
529,507,506,538,436
518,505,497,533,433
512,502,495,530,440
515,499,490,522,444
511,501,494,514,477
501,505,501,505,522
497,510,513,501,557
500,512,525,499,591
507,512,529,498,587
501,509,527,493,588
500,510,529,499,590
508,509,529,500,588
518,504,522,500,556
518,499,517,509,529
523,501,514,517,500
529,500,509,529,460
532,503,504,536,432
529,504,502,538,422
520,503,496,536,421
525,501,493,530,425
512,494,490,518,453
497,499,496,512,495
504,506,505,509,532
501,510,519,501,575
502,512,526,497,598
505,510,524,496,595
500,506,524,495,590
503,506,524,495,581
510,506,525,499,575
520,502,522,502,550
520,507,518,510,522
529,504,518,523,490
533,503,512,534,448
535,507,507,537,429
525,501,499,536,431
517,503,495,528,433
524,503,494,527,433
509,499,490,521,462
494,499,494,508,498
487,505,505,501,542
486,507,522,497,586
489,510,523,495,591
491,508,524,494,588
484,508,525,495,592
483,509,524,496,588
506,510,524,500,572
523,510,524,507,541
523,507,520,515,515
558,507,513,521,475
548,501,504,533,439
542,505,503,535,419
537,506,499,537,431
525,503,496,533,436
515,499,491,526,451
499,500,490,515,495
498,506,501,508,526
503,511,515,505,552
505,515,526,501,574
520,509,523,497,550
516,505,522,495,565
513,508,524,493,584
513,507,528,498,589
514,507,523,500,566
518,502,518,507,531
526,503,512,515,497
519,502,508,530,466
521,505,503,535,443
516,504,498,534,439
512,501,495,534,434
504,502,493,533,436
489,496,485,524,453
482,500,495,513,491
478,504,502,503,538
480,506,513,502,585
473,506,519,501,623
489,510,522,498,602
516,516,528,497,579
515,511,525,495,575
509,505,524,495,563
511,503,520,501,546
513,501,512,508,507
518,506,513,520,485
526,505,508,530,457
540,510,503,533,436
545,506,497,535,426
542,502,491,531,411
530,503,490,529,421
532,496,485,521,449
528,500,492,513,470
520,507,505,509,503
525,513,521,502,554
520,510,522,496,591
517,508,524,490,603
516,511,527,493,612
509,506,526,495,606
510,508,525,495,579
505,500,518,505,543
511,502,514,513,504
522,505,510,527,471
524,506,504,535,450
520,510,502,535,440
513,504,497,533,428
510,497,488,528,425
511,498,488,526,444
504,498,487,511,485
491,503,494,505,530
494,508,506,503,550
501,513,519,498,575
496,508,522,493,572
481,506,524,494,564
484,504,527,498,570
479,505,528,501,579
487,509,524,501,580
525,511,521,508,541
550,508,511,516,499
536,503,505,525,476
546,503,499,533,446
539,505,497,537,425
522,500,490,535,434
503,500,487,532,432
497,496,481,522,436
501,500,488,513,463
507,504,500,507,502
512,514,514,502,536
527,513,518,495,589
525,509,522,491,615
519,511,522,495,618
519,508,527,498,591
523,507,522,497,570
514,504,518,497,552
518,504,515,507,522
520,505,511,521,481
508,503,505,529,463
498,505,500,533,447
507,504,493,530,440
514,502,486,528,428
518,501,480,529,440
522,492,479,523,441
525,493,485,515,456
519,503,505,511,519
524,515,523,505,575
506,514,529,501,612
501,504,522,496,609
513,508,523,490,572
511,505,523,490,559
505,504,520,495,557
500,500,517,503,547
483,499,510,510,548
496,501,510,525,481
496,496,500,536,443
505,499,493,534,431
527,499,487,538,419
547,501,489,533,422
539,506,484,526,436
517,506,486,518,463
506,511,497,512,504
504,518,515,510,522
489,516,528,505,552
486,506,524,495,550
495,505,525,493,575
480,502,523,494,593
475,500,520,493,595
483,496,517,499,577
466,497,514,505,549
480,502,510,516,532
503,500,500,524,495
495,498,493,527,479
523,506,493,532,467
564,508,488,535,435
567,505,485,531,417
540,500,478,525,442
515,500,485,519,493
498,503,498,507,533
502,511,512,500,580
531,518,531,504,592
547,512,527,498,579
547,511,524,495,613
530,509,523,491,617
523,504,525,495,566
531,503,518,502,539
514,503,516,512,498
498,501,508,514,473
503,502,502,529,442
485,503,493,535,432
469,503,486,537,439
481,502,482,533,462
491,498,476,523,468
512,498,475,519,482
516,505,488,512,487
512,505,497,498,523
530,512,518,496,532
519,510,527,498,550
503,503,524,498,552
494,501,524,497,589
525,504,527,498,535
532,505,526,497,536
538,502,518,501,542
527,501,514,511,571
528,509,508,524,518
488,508,501,537,497
482,514,497,539,463
491,508,484,536,400
500,498,475,530,382
514,496,467,524,388
493,486,460,506,471
498,494,477,500,528
478,499,500,496,578
464,501,519,492,620
488,503,528,497,604
560,512,531,499,591
544,512,535,502,587
516,510,536,501,584
511,507,535,504,579
495,499,521,503,553
516,503,514,520,480
523,498,501,528,438
527,504,493,537,379
508,506,484,535,413
480,498,472,522,469
478,497,469,527,470
445,487,465,521,478
475,498,477,516,525
530,510,498,512,532
501,511,517,511,569
522,520,534,497,582
527,514,533,494,549
