CH1,CH2,CH3,CH4,CH5
524.0,514.0,519.0,518.0,512.0
526.0,514.0,519.0,515.0,505.0
524.0,519.0,520.0,514.0,503.0
519.0,516.0,511.0,507.0,506.0
507.0,510.0,506.0,504.0,509.0
506.0,505.0,502.0,498.0,511.0
501.0,502.0,504.0,500.0,515.0
502.0,500.0,502.0,504.0,518.0
502.0,502.0,512.0,513.0,522.0
508.0,500.0,513.0,517.0,526.0
515.0,504.0,519.0,523.0,521.0
514.0,503.0,517.0,523.0,522.0
510.0,500.0,515.0,521.0,525.0
509.0,503.0,511.0,522.0,524.0
513.0,503.0,515.0,520.0,521.0
518.0,504.0,515.0,517.0,516.0
517.0,509.0,516.0,515.0,512.0
519.0,514.0,517.0,514.0,509.0
524.0,515.0,512.0,512.0,503.0
521.0,517.0,515.0,507.0,504.0
517.0,513.0,510.0,506.0,505.0
509.0,509.0,503.0,504.0,510.0
504.0,505.0,503.0,498.0,520.0
502.0,498.0,498.0,498.0,520.0
504.0,499.0,498.0,505.0,520.0
511.0,501.0,514.0,514.0,518.0
514.0,504.0,516.0,522.0,517.0
517.0,503.0,519.0,524.0,519.0
518.0,505.0,518.0,524.0,522.0
514.0,503.0,516.0,525.0,528.0
513.0,506.0,519.0,523.0,528.0
517.0,505.0,517.0,519.0,525.0
517.0,508.0,516.0,517.0,520.0
519.0,511.0,518.0,517.0,518.0
527.0,518.0,524.0,517.0,509.0
527.0,521.0,518.0,513.0,505.0
517.0,517.0,515.0,508.0,502.0
510.0,511.0,509.0,504.0,502.0
501.0,507.0,506.0,500.0,505.0
496.0,501.0,501.0,498.0,510.0
497.0,499.0,500.0,501.0,520.0
500.0,502.0,508.0,514.0,518.0
509.0,501.0,513.0,519.0,519.0
517.0,503.0,516.0,522.0,517.0
520.0,505.0,520.0,524.0,519.0
523.0,505.0,518.0,524.0,516.0
522.0,505.0,517.0,522.0,520.0
514.0,510.0,518.0,521.0,520.0
512.0,506.0,515.0,518.0,518.0
515.0,512.0,516.0,519.0,516.0
518.0,514.0,519.0,516.0,511.0
523.0,518.0,521.0,519.0,503.0
520.0,520.0,520.0,513.0,495.0
520.0,517.0,513.0,507.0,486.0
516.0,511.0,507.0,504.0,493.0
506.0,507.0,503.0,504.0,501.0
501.0,502.0,499.0,500.0,516.0
501.0,499.0,502.0,500.0,522.0
508.0,503.0,509.0,512.0,524.0
513.0,503.0,514.0,517.0,523.0
517.0,504.0,518.0,522.0,522.0
517.0,504.0,521.0,524.0,522.0
519.0,507.0,519.0,525.0,521.0
516.0,501.0,515.0,520.0,522.0
515.0,503.0,514.0,519.0,521.0
522.0,509.0,517.0,519.0,518.0
522.0,508.0,516.0,517.0,521.0
525.0,517.0,519.0,516.0,508.0
525.0,518.0,522.0,515.0,503.0
520.0,518.0,515.0,509.0,501.0
513.0,514.0,510.0,503.0,499.0
506.0,507.0,502.0,499.0,505.0
499.0,502.0,499.0,496.0,512.0
504.0,501.0,498.0,499.0,515.0
503.0,500.0,503.0,506.0,520.0
504.0,501.0,509.0,511.0,521.0
514.0,506.0,517.0,521.0,520.0
514.0,507.0,518.0,525.0,521.0
510.0,502.0,517.0,522.0,517.0
513.0,502.0,516.0,524.0,519.0
507.0,501.0,516.0,520.0,525.0
514.0,503.0,514.0,519.0,518.0
515.0,508.0,514.0,512.0,516.0
516.0,511.0,518.0,516.0,511.0
523.0,513.0,518.0,516.0,508.0
517.0,517.0,517.0,516.0,502.0
517.0,516.0,518.0,510.0,498.0
508.0,510.0,510.0,503.0,505.0
508.0,505.0,502.0,499.0,507.0
503.0,500.0,497.0,494.0,513.0
502.0,499.0,500.0,502.0,514.0
504.0,500.0,499.0,508.0,517.0
511.0,501.0,515.0,515.0,527.0
516.0,503.0,515.0,522.0,526.0
517.0,506.0,523.0,528.0,527.0
513.0,504.0,520.0,530.0,526.0
516.0,503.0,517.0,518.0,523.0
513.0,503.0,517.0,519.0,523.0
517.0,508.0,515.0,521.0,518.0
516.0,509.0,517.0,517.0,506.0
518.0,512.0,519.0,516.0,500.0
520.0,516.0,520.0,516.0,498.0
520.0,517.0,514.0,512.0,500.0
514.0,516.0,511.0,506.0,502.0
509.0,509.0,506.0,504.0,505.0
506.0,506.0,504.0,501.0,505.0
503.0,503.0,499.0,500.0,510.0
500.0,498.0,501.0,506.0,513.0
503.0,500.0,506.0,512.0,518.0
506.0,506.0,513.0,521.0,522.0
514.0,505.0,519.0,521.0,522.0
518.0,504.0,523.0,525.0,520.0
512.0,506.0,520.0,524.0,523.0
513.0,505.0,513.0,518.0,524.0
514.0,505.0,515.0,516.0,522.0
520.0,509.0,516.0,513.0,519.0
517.0,512.0,518.0,518.0,514.0
518.0,514.0,518.0,517.0,512.0
523.0,518.0,518.0,512.0,509.0
521.0,518.0,518.0,509.0,511.0
516.0,513.0,507.0,504.0,513.0
512.0,509.0,505.0,501.0,510.0
506.0,505.0,505.0,498.0,515.0
500.0,501.0,500.0,501.0,520.0
501.0,501.0,506.0,507.0,520.0
506.0,503.0,509.0,514.0,520.0
512.0,508.0,520.0,527.0,515.0
513.0,504.0,517.0,524.0,518.0
516.0,510.0,523.0,526.0,521.0
513.0,503.0,520.0,523.0,525.0
513.0,503.0,514.0,522.0,524.0
513.0,506.0,517.0,517.0,522.0
515.0,508.0,517.0,522.0,515.0
519.0,512.0,518.0,517.0,511.0
526.0,519.0,522.0,516.0,505.0
522.0,519.0,519.0,512.0,507.0
520.0,519.0,516.0,511.0,507.0
512.0,514.0,510.0,503.0,507.0
502.0,509.0,506.0,501.0,502.0
492.0,500.0,500.0,501.0,513.0
490.0,498.0,499.0,499.0,524.0
495.0,498.0,504.0,504.0,527.0
506.0,502.0,512.0,515.0,527.0
514.0,505.0,518.0,519.0,518.0
525.0,506.0,521.0,526.0,511.0
525.0,505.0,519.0,522.0,512.0
518.0,502.0,516.0,522.0,520.0
512.0,503.0,514.0,518.0,522.0
513.0,505.0,516.0,518.0,515.0
515.0,508.0,517.0,517.0,513.0
526.0,511.0,519.0,516.0,511.0
524.0,518.0,520.0,513.0,506.0
522.0,517.0,517.0,510.0,503.0
514.0,514.0,510.0,506.0,503.0
512.0,510.0,506.0,500.0,505.0
504.0,507.0,502.0,499.0,511.0
500.0,503.0,501.0,499.0,513.0
501.0,501.0,503.0,504.0,521.0
510.0,505.0,516.0,515.0,518.0
508.0,502.0,514.0,519.0,520.0
518.0,507.0,518.0,524.0,518.0
520.0,506.0,520.0,527.0,519.0
518.0,503.0,517.0,523.0,522.0
514.0,504.0,517.0,525.0,521.0
519.0,505.0,516.0,519.0,522.0
518.0,508.0,516.0,522.0,517.0
522.0,510.0,518.0,516.0,513.0
525.0,510.0,520.0,517.0,511.0
525.0,518.0,522.0,515.0,502.0
520.0,519.0,517.0,511.0,505.0
514.0,514.0,511.0,507.0,505.0
506.0,508.0,506.0,503.0,508.0
502.0,504.0,502.0,500.0,509.0
501.0,504.0,500.0,501.0,510.0
503.0,499.0,503.0,506.0,518.0
509.0,502.0,511.0,513.0,520.0
520.0,506.0,520.0,523.0,519.0
519.0,505.0,520.0,524.0,521.0
518.0,506.0,522.0,524.0,522.0
517.0,503.0,517.0,522.0,523.0
513.0,501.0,513.0,517.0,523.0
517.0,504.0,515.0,518.0,524.0
517.0,508.0,520.0,515.0,519.0
515.0,511.0,514.0,517.0,513.0
523.0,518.0,518.0,515.0,506.0
525.0,519.0,520.0,512.0,503.0
519.0,517.0,516.0,508.0,502.0
512.0,513.0,507.0,503.0,509.0
506.0,506.0,507.0,501.0,511.0
501.0,502.0,501.0,498.0,512.0
503.0,503.0,502.0,503.0,514.0
504.0,501.0,504.0,506.0,519.0
508.0,502.0,514.0,514.0,517.0
516.0,504.0,516.0,520.0,515.0
518.0,508.0,518.0,524.0,516.0
519.0,505.0,520.0,529.0,518.0
513.0,502.0,515.0,526.0,523.0
517.0,501.0,514.0,518.0,521.0
515.0,504.0,515.0,519.0,515.0
518.0,509.0,518.0,516.0,511.0
520.0,514.0,519.0,519.0,508.0
526.0,521.0,521.0,521.0,498.0
520.0,517.0,517.0,513.0,500.0
515.0,513.0,512.0,508.0,504.0
507.0,510.0,506.0,502.0,508.0
504.0,507.0,503.0,499.0,509.0
500.0,501.0,499.0,498.0,517.0
498.0,499.0,499.0,500.0,524.0
505.0,505.0,507.0,513.0,523.0
513.0,504.0,515.0,517.0,528.0
516.0,507.0,518.0,524.0,524.0
520.0,504.0,520.0,524.0,522.0
517.0,504.0,516.0,524.0,517.0
511.0,502.0,515.0,521.0,522.0
510.0,503.0,513.0,517.0,522.0
510.0,505.0,517.0,517.0,515.0
511.0,506.0,514.0,515.0,501.0
518.0,518.0,519.0,515.0,495.0
520.0,513.0,517.0,512.0,499.0
516.0,515.0,515.0,510.0,504.0
514.0,513.0,511.0,510.0,514.0
503.0,508.0,505.0,503.0,516.0
506.0,508.0,506.0,503.0,512.0
504.0,508.0,503.0,507.0,512.0
505.0,500.0,506.0,508.0,508.0
509.0,503.0,511.0,517.0,516.0
517.0,506.0,518.0,525.0,519.0
512.0,504.0,517.0,523.0,519.0
509.0,503.0,518.0,523.0,528.0
512.0,502.0,518.0,518.0,529.0
509.0,502.0,514.0,518.0,528.0
515.0,504.0,514.0,516.0,507.0
524.0,512.0,518.0,516.0,507.0
519.0,511.0,517.0,515.0,509.0
524.0,515.0,515.0,515.0,500.0
523.0,519.0,520.0,511.0,499.0
520.0,517.0,514.0,508.0,498.0
518.0,513.0,508.0,503.0,503.0
510.0,507.0,501.0,501.0,505.0
499.0,501.0,499.0,496.0,517.0
501.0,503.0,500.0,501.0,519.0
503.0,504.0,505.0,507.0,519.0
510.0,504.0,511.0,516.0,520.0
512.0,505.0,517.0,521.0,519.0
518.0,504.0,521.0,525.0,519.0
518.0,506.0,521.0,527.0,522.0
513.0,502.0,516.0,521.0,524.0
512.0,503.0,516.0,519.0,519.0
513.0,509.0,517.0,517.0,518.0
515.0,508.0,516.0,517.0,515.0
521.0,517.0,520.0,512.0,506.0
522.0,516.0,522.0,517.0,505.0
519.0,517.0,517.0,510.0,500.0
516.0,517.0,512.0,513.0,501.0
512.0,514.0,510.0,509.0,504.0
505.0,508.0,508.0,504.0,509.0
497.0,502.0,505.0,501.0,520.0
506.0,499.0,503.0,504.0,518.0
513.0,501.0,510.0,512.0,515.0
515.0,503.0,514.0,519.0,521.0
518.0,510.0,519.0,525.0,518.0
521.0,508.0,521.0,527.0,513.0
515.0,503.0,518.0,524.0,516.0
512.0,501.0,516.0,521.0,520.0
515.0,507.0,516.0,523.0,519.0
514.0,504.0,516.0,517.0,525.0
515.0,507.0,517.0,517.0,512.0
517.0,515.0,521.0,519.0,510.0
521.0,519.0,520.0,514.0,504.0
517.0,517.0,517.0,512.0,503.0
512.0,513.0,512.0,508.0,504.0
502.0,511.0,501.0,499.0,509.0
501.0,504.0,498.0,498.0,512.0
497.0,504.0,499.0,502.0,520.0
503.0,501.0,503.0,509.0,522.0
505.0,502.0,514.0,515.0,525.0
515.0,504.0,515.0,519.0,524.0
519.0,504.0,519.0,523.0,529.0
512.0,505.0,515.0,524.0,528.0
513.0,502.0,517.0,524.0,521.0
511.0,502.0,513.0,519.0,518.0
517.0,506.0,520.0,520.0,516.0
514.0,509.0,518.0,517.0,517.0
518.0,510.0,517.0,515.0,512.0
525.0,515.0,519.0,515.0,506.0
526.0,519.0,521.0,512.0,502.0
523.0,521.0,519.0,510.0,499.0
513.0,515.0,510.0,505.0,503.0
507.0,510.0,507.0,503.0,509.0
504.0,503.0,500.0,499.0,516.0
502.0,505.0,503.0,504.0,521.0
504.0,502.0,505.0,507.0,522.0
510.0,505.0,513.0,516.0,522.0
518.0,506.0,519.0,521.0,519.0
519.0,507.0,521.0,527.0,518.0
513.0,505.0,520.0,523.0,523.0
513.0,502.0,517.0,521.0,523.0
513.0,505.0,516.0,523.0,519.0
512.0,505.0,515.0,520.0,516.0
518.0,513.0,517.0,522.0,508.0
520.0,518.0,520.0,518.0,504.0
526.0,518.0,523.0,517.0,495.0
523.0,519.0,520.0,512.0,494.0
518.0,521.0,515.0,512.0,499.0
512.0,517.0,510.0,506.0,504.0
503.0,508.0,503.0,505.0,512.0
500.0,502.0,500.0,498.0,519.0
499.0,502.0,504.0,502.0,517.0
506.0,502.0,504.0,512.0,517.0
508.0,504.0,513.0,524.0,519.0
515.0,506.0,520.0,524.0,519.0
517.0,507.0,520.0,529.0,518.0
516.0,505.0,518.0,523.0,522.0
517.0,503.0,516.0,520.0,521.0
513.0,505.0,516.0,526.0,524.0
521.0,510.0,517.0,517.0,522.0
518.0,511.0,520.0,516.0,517.0
519.0,518.0,519.0,511.0,511.0
527.0,519.0,522.0,515.0,503.0
524.0,520.0,517.0,508.0,503.0
517.0,519.0,514.0,506.0,508.0
507.0,511.0,507.0,500.0,509.0
500.0,508.0,503.0,500.0,507.0
500.0,503.0,501.0,499.0,515.0
501.0,501.0,504.0,506.0,516.0
507.0,504.0,510.0,514.0,521.0
513.0,503.0,515.0,516.0,517.0
521.0,502.0,518.0,523.0,517.0
518.0,504.0,519.0,524.0,517.0
515.0,503.0,518.0,526.0,520.0
516.0,503.0,515.0,519.0,522.0
512.0,503.0,518.0,519.0,522.0
513.0,508.0,517.0,519.0,515.0
516.0,511.0,520.0,518.0,514.0
523.0,516.0,520.0,521.0,505.0
522.0,519.0,522.0,514.0,503.0
517.0,516.0,515.0,508.0,506.0
509.0,511.0,509.0,503.0,508.0
503.0,506.0,507.0,500.0,514.0
498.0,501.0,499.0,498.0,509.0
499.0,503.0,500.0,501.0,513.0
501.0,501.0,504.0,509.0,519.0
506.0,507.0,513.0,516.0,519.0
512.0,503.0,516.0,522.0,518.0
517.0,507.0,522.0,524.0,519.0
515.0,503.0,519.0,524.0,518.0
515.0,505.0,518.0,523.0,517.0
513.0,501.0,510.0,517.0,518.0
514.0,505.0,515.0,516.0,520.0
513.0,510.0,515.0,514.0,514.0
521.0,517.0,521.0,522.0,508.0
522.0,518.0,521.0,516.0,501.0
506.0,508.0,505.0,499.0,513.0
502.0,503.0,502.0,495.0,512.0
492.0,500.0,494.0,491.0,515.0
492.0,497.0,490.0,486.0,517.0
527.0,513.0,530.0,535.0,513.0
535.0,518.0,542.0,540.0,508.0
531.0,516.0,538.0,541.0,511.0
536.0,512.0,535.0,535.0,513.0
532.0,516.0,534.0,536.0,512.0
538.0,519.0,534.0,533.0,508.0
538.0,521.0,533.0,531.0,501.0
539.0,526.0,533.0,529.0,498.0
540.0,529.0,535.0,529.0,499.0
534.0,526.0,528.0,526.0,499.0
528.0,522.0,525.0,516.0,501.0
520.0,518.0,522.0,513.0,500.0
518.0,514.0,513.0,510.0,497.0
514.0,509.0,510.0,512.0,503.0
516.0,511.0,515.0,521.0,509.0
521.0,511.0,521.0,528.0,511.0
530.0,511.0,526.0,532.0,512.0
530.0,512.0,532.0,535.0,510.0
531.0,512.0,530.0,535.0,505.0
528.0,510.0,529.0,532.0,508.0
524.0,509.0,525.0,523.0,508.0
524.0,513.0,527.0,527.0,510.0
526.0,514.0,526.0,525.0,510.0
530.0,519.0,530.0,527.0,504.0
533.0,525.0,536.0,527.0,498.0
530.0,521.0,524.0,515.0,497.0
524.0,521.0,521.0,517.0,498.0
523.0,516.0,514.0,512.0,501.0
518.0,510.0,509.0,507.0,504.0
507.0,504.0,509.0,503.0,517.0
507.0,507.0,506.0,505.0,513.0
515.0,505.0,513.0,516.0,517.0
518.0,510.0,523.0,525.0,516.0
523.0,511.0,524.0,526.0,517.0
524.0,510.0,531.0,531.0,523.0
522.0,508.0,527.0,528.0,521.0
518.0,507.0,524.0,526.0,525.0
520.0,507.0,525.0,523.0,520.0
520.0,510.0,521.0,518.0,517.0
526.0,511.0,520.0,520.0,514.0
528.0,517.0,525.0,522.0,505.0
530.0,524.0,526.0,522.0,495.0
526.0,521.0,522.0,517.0,498.0
518.0,516.0,516.0,510.0,502.0
515.0,511.0,515.0,505.0,493.0
509.0,507.0,500.0,502.0,503.0
504.0,506.0,505.0,503.0,509.0
507.0,505.0,509.0,508.0,517.0
509.0,506.0,513.0,515.0,519.0
513.0,508.0,525.0,525.0,516.0
517.0,506.0,524.0,528.0,518.0
524.0,510.0,528.0,531.0,517.0
522.0,507.0,519.0,528.0,512.0
517.0,505.0,521.0,528.0,520.0
517.0,507.0,519.0,523.0,515.0
519.0,509.0,523.0,522.0,509.0
521.0,511.0,521.0,524.0,503.0
528.0,517.0,523.0,522.0,501.0
522.0,518.0,522.0,519.0,500.0
524.0,518.0,517.0,514.0,497.0
517.0,511.0,512.0,509.0,503.0
514.0,508.0,506.0,503.0,510.0
505.0,503.0,503.0,501.0,513.0
504.0,501.0,503.0,506.0,520.0
506.0,504.0,509.0,514.0,525.0
513.0,505.0,514.0,519.0,526.0
517.0,506.0,520.0,530.0,523.0
522.0,506.0,523.0,527.0,515.0
524.0,505.0,528.0,528.0,509.0
521.0,504.0,522.0,525.0,508.0
518.0,503.0,518.0,522.0,506.0
521.0,506.0,521.0,521.0,511.0
521.0,508.0,520.0,519.0,517.0
521.0,511.0,523.0,518.0,518.0
523.0,515.0,524.0,520.0,508.0
523.0,516.0,524.0,515.0,504.0
518.0,518.0,515.0,511.0,505.0
511.0,512.0,510.0,506.0,507.0
507.0,508.0,502.0,502.0,508.0
510.0,501.0,501.0,502.0,514.0
502.0,502.0,500.0,504.0,518.0
509.0,503.0,507.0,516.0,515.0
513.0,508.0,514.0,522.0,515.0
518.0,505.0,521.0,524.0,518.0
521.0,509.0,521.0,531.0,519.0
519.0,501.0,522.0,527.0,524.0
513.0,503.0,520.0,524.0,523.0
516.0,505.0,520.0,525.0,520.0
519.0,508.0,518.0,521.0,514.0
517.0,507.0,517.0,516.0,512.0
522.0,514.0,519.0,517.0,509.0
525.0,514.0,515.0,514.0,506.0
523.0,518.0,515.0,512.0,506.0
517.0,514.0,511.0,511.0,509.0
510.0,506.0,502.0,499.0,515.0
505.0,501.0,502.0,496.0,519.0
502.0,500.0,496.0,500.0,526.0
502.0,501.0,503.0,509.0,527.0
506.0,504.0,509.0,513.0,522.0
514.0,503.0,513.0,521.0,525.0
516.0,504.0,520.0,523.0,519.0
519.0,504.0,521.0,530.0,510.0
518.0,504.0,516.0,525.0,513.0
514.0,503.0,520.0,522.0,517.0
517.0,503.0,517.0,521.0,520.0
518.0,506.0,520.0,521.0,512.0
516.0,509.0,517.0,517.0,504.0
521.0,514.0,522.0,518.0,495.0
527.0,518.0,521.0,519.0,495.0
525.0,518.0,515.0,512.0,499.0
514.0,512.0,509.0,511.0,509.0
508.0,508.0,503.0,502.0,511.0
506.0,505.0,501.0,499.0,518.0
503.0,500.0,500.0,503.0,518.0
503.0,507.0,508.0,510.0,521.0
508.0,504.0,512.0,517.0,524.0
516.0,505.0,522.0,523.0,527.0
516.0,506.0,522.0,529.0,528.0
518.0,509.0,521.0,529.0,520.0
515.0,503.0,522.0,520.0,520.0
515.0,505.0,516.0,519.0,514.0
518.0,504.0,516.0,517.0,514.0
516.0,506.0,520.0,518.0,510.0
519.0,512.0,520.0,519.0,503.0
522.0,515.0,522.0,519.0,503.0
526.0,518.0,517.0,513.0,504.0
518.0,518.0,515.0,508.0,504.0
513.0,511.0,508.0,504.0,508.0
508.0,508.0,502.0,503.0,509.0
502.0,502.0,505.0,504.0,514.0
502.0,498.0,500.0,503.0,521.0
509.0,501.0,507.0,511.0,514.0
516.0,505.0,517.0,521.0,510.0
519.0,507.0,518.0,526.0,510.0
520.0,506.0,521.0,528.0,510.0
515.0,505.0,525.0,525.0,519.0
513.0,504.0,520.0,522.0,523.0
514.0,504.0,519.0,523.0,521.0
517.0,506.0,521.0,518.0,520.0
519.0,509.0,517.0,518.0,512.0
526.0,514.0,523.0,519.0,507.0
527.0,515.0,519.0,516.0,501.0
528.0,515.0,515.0,510.0,497.0
524.0,512.0,510.0,508.0,507.0
510.0,508.0,506.0,503.0,512.0
505.0,505.0,500.0,499.0,518.0
501.0,501.0,500.0,504.0,521.0
505.0,499.0,501.0,508.0,522.0
507.0,500.0,511.0,510.0,522.0
510.0,502.0,516.0,521.0,521.0
516.0,504.0,516.0,525.0,518.0
516.0,506.0,522.0,530.0,514.0
511.0,503.0,521.0,522.0,519.0
512.0,502.0,515.0,518.0,520.0
512.0,504.0,513.0,517.0,522.0
513.0,505.0,517.0,519.0,517.0
513.0,511.0,522.0,518.0,513.0
517.0,512.0,517.0,514.0,509.0
518.0,515.0,517.0,512.0,500.0
517.0,513.0,512.0,508.0,499.0
515.0,508.0,507.0,503.0,502.0
509.0,510.0,502.0,501.0,504.0
501.0,499.0,497.0,498.0,511.0
498.0,500.0,499.0,501.0,521.0
499.0,501.0,503.0,506.0,525.0
509.0,501.0,512.0,513.0,516.0
517.0,505.0,516.0,522.0,515.0
521.0,505.0,521.0,525.0,514.0
520.0,507.0,523.0,526.0,521.0
516.0,506.0,517.0,521.0,523.0
518.0,503.0,517.0,521.0,520.0
515.0,505.0,519.0,518.0,517.0
520.0,508.0,514.0,519.0,513.0
519.0,511.0,519.0,519.0,508.0
523.0,518.0,521.0,517.0,503.0
522.0,516.0,524.0,514.0,502.0
518.0,512.0,513.0,509.0,508.0
515.0,510.0,506.0,508.0,505.0
507.0,505.0,502.0,505.0,511.0
503.0,501.0,494.0,500.0,510.0
501.0,498.0,501.0,505.0,517.0
506.0,501.0,506.0,511.0,514.0
513.0,503.0,515.0,518.0,516.0
519.0,504.0,513.0,523.0,517.0
518.0,506.0,521.0,527.0,515.0
522.0,505.0,523.0,524.0,517.0
517.0,504.0,519.0,521.0,522.0
517.0,508.0,517.0,525.0,520.0
519.0,505.0,519.0,519.0,518.0
523.0,509.0,517.0,518.0,513.0
524.0,514.0,518.0,517.0,512.0
525.0,519.0,519.0,516.0,503.0
520.0,516.0,514.0,511.0,498.0
514.0,514.0,515.0,510.0,502.0
509.0,508.0,504.0,502.0,501.0
504.0,508.0,504.0,501.0,509.0
499.0,500.0,503.0,501.0,512.0
501.0,499.0,502.0,507.0,517.0
508.0,500.0,508.0,513.0,518.0
512.0,504.0,515.0,523.0,522.0
515.0,505.0,521.0,524.0,520.0
523.0,508.0,528.0,529.0,517.0
518.0,507.0,522.0,529.0,515.0
517.0,506.0,520.0,524.0,516.0
519.0,504.0,523.0,522.0,518.0
518.0,510.0,520.0,521.0,517.0
518.0,509.0,521.0,520.0,522.0
522.0,515.0,520.0,518.0,519.0
525.0,518.0,519.0,516.0,514.0
519.0,514.0,514.0,511.0,510.0
516.0,510.0,507.0,505.0,511.0
505.0,507.0,506.0,502.0,514.0
506.0,502.0,499.0,500.0,511.0
502.0,500.0,500.0,502.0,509.0
505.0,503.0,505.0,508.0,512.0
506.0,502.0,511.0,515.0,521.0
513.0,505.0,516.0,520.0,524.0
515.0,506.0,521.0,528.0,521.0
512.0,503.0,520.0,525.0,514.0
507.0,502.0,518.0,522.0,517.0
509.0,502.0,516.0,521.0,516.0
520.0,503.0,517.0,521.0,509.0
521.0,508.0,516.0,517.0,507.0
518.0,512.0,518.0,520.0,505.0
523.0,514.0,521.0,516.0,504.0
527.0,518.0,516.0,512.0,500.0
520.0,518.0,511.0,508.0,507.0
513.0,511.0,508.0,502.0,512.0
505.0,506.0,501.0,499.0,511.0
500.0,499.0,499.0,500.0,518.0
503.0,500.0,500.0,503.0,516.0
506.0,501.0,506.0,514.0,520.0
513.0,510.0,516.0,518.0,515.0
516.0,510.0,520.0,526.0,517.0
521.0,502.0,523.0,527.0,519.0
519.0,510.0,522.0,531.0,519.0
518.0,505.0,520.0,524.0,523.0
511.0,506.0,523.0,521.0,518.0
518.0,508.0,518.0,518.0,518.0
517.0,508.0,521.0,516.0,513.0
517.0,512.0,520.0,515.0,509.0
523.0,517.0,521.0,515.0,504.0
522.0,517.0,516.0,511.0,502.0
513.0,514.0,513.0,510.0,505.0
508.0,508.0,504.0,501.0,508.0
512.0,506.0,502.0,497.0,511.0
505.0,501.0,498.0,499.0,517.0
507.0,499.0,503.0,509.0,523.0
511.0,504.0,513.0,512.0,522.0
517.0,504.0,518.0,519.0,521.0
517.0,504.0,518.0,522.0,517.0
520.0,506.0,524.0,528.0,523.0
520.0,506.0,521.0,520.0,521.0
513.0,503.0,516.0,519.0,524.0
517.0,505.0,518.0,520.0,520.0
514.0,508.0,519.0,520.0,512.0
520.0,509.0,519.0,520.0,510.0
522.0,513.0,519.0,518.0,505.0
524.0,518.0,522.0,514.0,504.0
518.0,516.0,514.0,511.0,506.0
514.0,512.0,514.0,507.0,506.0
506.0,509.0,504.0,498.0,502.0
503.0,499.0,499.0,499.0,507.0
501.0,505.0,502.0,502.0,511.0
502.0,500.0,505.0,511.0,514.0
508.0,502.0,510.0,512.0,518.0
516.0,509.0,518.0,523.0,519.0
517.0,507.0,521.0,532.0,523.0
522.0,507.0,523.0,527.0,522.0
516.0,504.0,519.0,525.0,520.0
515.0,505.0,521.0,521.0,520.0
517.0,507.0,519.0,519.0,516.0
522.0,509.0,521.0,520.0,513.0
523.0,514.0,520.0,519.0,505.0
522.0,519.0,521.0,519.0,497.0
519.0,517.0,517.0,514.0,495.0
515.0,514.0,514.0,510.0,498.0
511.0,510.0,508.0,502.0,500.0
505.0,503.0,505.0,502.0,511.0
501.0,502.0,501.0,501.0,525.0
500.0,501.0,501.0,503.0,524.0
502.0,500.0,508.0,510.0,523.0
508.0,501.0,514.0,514.0,521.0
513.0,504.0,515.0,520.0,515.0
519.0,504.0,520.0,525.0,512.0
515.0,502.0,519.0,523.0,518.0
512.0,503.0,517.0,522.0,521.0
513.0,503.0,516.0,517.0,519.0
515.0,509.0,517.0,520.0,517.0
517.0,506.0,516.0,516.0,523.0
516.0,512.0,521.0,515.0,512.0
517.0,515.0,516.0,516.0,506.0
515.0,514.0,514.0,514.0,506.0
514.0,512.0,512.0,507.0,505.0
514.0,508.0,510.0,504.0,509.0
511.0,507.0,499.0,501.0,512.0
506.0,502.0,499.0,500.0,514.0
506.0,498.0,501.0,507.0,517.0
511.0,502.0,508.0,514.0,515.0
516.0,505.0,516.0,519.0,519.0
516.0,509.0,521.0,526.0,522.0
518.0,506.0,523.0,524.0,518.0
518.0,506.0,519.0,525.0,522.0
516.0,503.0,519.0,521.0,525.0
517.0,508.0,516.0,519.0,522.0
515.0,508.0,513.0,521.0,517.0
518.0,510.0,519.0,519.0,511.0
524.0,517.0,519.0,517.0,506.0
523.0,522.0,518.0,517.0,505.0
521.0,515.0,514.0,511.0,504.0
518.0,513.0,507.0,506.0,503.0
508.0,508.0,503.0,505.0,509.0
503.0,508.0,498.0,497.0,514.0
498.0,501.0,499.0,502.0,523.0
501.0,499.0,507.0,506.0,519.0
506.0,503.0,511.0,517.0,510.0
514.0,504.0,521.0,523.0,512.0
514.0,505.0,520.0,525.0,512.0
520.0,501.0,519.0,525.0,515.0
512.0,502.0,516.0,525.0,521.0
510.0,503.0,518.0,522.0,523.0
514.0,506.0,518.0,520.0,521.0
514.0,507.0,512.0,518.0,518.0
517.0,514.0,519.0,517.0,508.0
523.0,519.0,520.0,520.0,504.0
524.0,518.0,518.0,515.0,500.0
518.0,516.0,512.0,512.0,505.0
513.0,510.0,506.0,507.0,504.0
513.0,506.0,501.0,504.0,509.0
503.0,501.0,498.0,504.0,516.0
503.0,500.0,499.0,502.0,513.0
505.0,502.0,505.0,509.0,522.0
509.0,503.0,513.0,516.0,522.0
515.0,506.0,515.0,522.0,524.0
521.0,505.0,520.0,525.0,516.0
517.0,504.0,519.0,524.0,515.0
513.0,502.0,513.0,520.0,519.0
514.0,504.0,516.0,520.0,515.0
512.0,506.0,516.0,517.0,516.0
514.0,508.0,520.0,517.0,513.0
525.0,514.0,524.0,517.0,508.0
528.0,516.0,519.0,517.0,505.0
521.0,515.0,521.0,511.0,507.0
516.0,512.0,509.0,506.0,508.0
509.0,508.0,503.0,501.0,512.0
503.0,505.0,501.0,499.0,515.0
495.0,499.0,496.0,495.0,518.0
503.0,499.0,502.0,502.0,525.0
509.0,501.0,508.0,510.0,519.0
513.0,504.0,514.0,517.0,517.0
518.0,502.0,520.0,522.0,515.0
518.0,504.0,522.0,524.0,517.0
518.0,505.0,522.0,522.0,520.0
513.0,502.0,516.0,523.0,523.0
516.0,502.0,516.0,517.0,520.0
517.0,506.0,517.0,517.0,516.0
523.0,510.0,520.0,515.0,513.0
528.0,514.0,518.0,516.0,509.0
529.0,517.0,522.0,514.0,506.0
523.0,515.0,514.0,512.0,509.0
517.0,512.0,508.0,502.0,509.0
511.0,511.0,506.0,502.0,511.0
503.0,502.0,498.0,498.0,514.0
496.0,500.0,499.0,507.0,516.0
498.0,502.0,507.0,509.0,513.0
503.0,502.0,511.0,516.0,512.0
513.0,504.0,516.0,521.0,511.0
518.0,506.0,519.0,523.0,514.0
514.0,505.0,521.0,524.0,513.0
515.0,505.0,519.0,521.0,522.0
511.0,503.0,517.0,523.0,524.0
513.0,507.0,520.0,518.0,528.0
516.0,510.0,519.0,517.0,512.0
521.0,512.0,520.0,517.0,507.0
523.0,517.0,522.0,518.0,507.0
521.0,517.0,517.0,519.0,503.0
518.0,517.0,518.0,510.0,507.0
515.0,512.0,506.0,500.0,506.0
507.0,506.0,502.0,502.0,511.0
503.0,503.0,498.0,500.0,516.0
501.0,501.0,501.0,504.0,517.0
502.0,501.0,507.0,510.0,521.0
506.0,503.0,516.0,519.0,520.0
508.0,505.0,518.0,525.0,515.0
516.0,510.0,521.0,527.0,513.0
517.0,502.0,520.0,525.0,520.0
517.0,503.0,521.0,521.0,527.0
518.0,505.0,518.0,520.0,524.0
517.0,511.0,518.0,522.0,517.0
521.0,508.0,519.0,516.0,516.0
524.0,513.0,522.0,518.0,509.0
527.0,516.0,519.0,514.0,503.0
528.0,517.0,515.0,507.0,496.0
518.0,512.0,511.0,506.0,498.0
509.0,508.0,506.0,504.0,505.0
505.0,504.0,501.0,501.0,507.0
502.0,502.0,499.0,501.0,518.0
497.0,504.0,503.0,506.0,520.0
506.0,501.0,507.0,511.0,520.0
514.0,504.0,514.0,520.0,516.0
521.0,507.0,515.0,523.0,519.0
526.0,503.0,521.0,525.0,520.0
518.0,508.0,520.0,524.0,527.0
514.0,501.0,517.0,520.0,532.0
513.0,505.0,517.0,519.0,527.0
515.0,510.0,518.0,522.0,513.0
519.0,507.0,517.0,516.0,514.0
521.0,515.0,518.0,517.0,501.0
526.0,515.0,519.0,516.0,489.0
516.0,513.0,510.0,510.0,498.0
511.0,514.0,508.0,505.0,504.0
507.0,507.0,500.0,500.0,513.0
502.0,506.0,501.0,501.0,518.0
501.0,499.0,501.0,499.0,520.0
500.0,501.0,505.0,504.0,521.0
505.0,499.0,508.0,509.0,518.0
514.0,503.0,515.0,520.0,514.0
521.0,506.0,520.0,524.0,510.0
521.0,505.0,518.0,526.0,514.0
515.0,503.0,517.0,521.0,516.0
514.0,504.0,513.0,517.0,518.0
513.0,502.0,513.0,518.0,520.0
520.0,505.0,517.0,516.0,511.0
521.0,507.0,520.0,520.0,506.0
521.0,517.0,522.0,517.0,501.0
523.0,519.0,518.0,514.0,503.0
514.0,513.0,513.0,507.0,507.0
513.0,509.0,509.0,504.0,511.0
510.0,508.0,506.0,502.0,513.0
502.0,502.0,499.0,504.0,518.0
503.0,500.0,501.0,502.0,518.0
505.0,503.0,509.0,513.0,521.0
510.0,504.0,513.0,518.0,512.0
513.0,504.0,519.0,524.0,513.0
512.0,504.0,523.0,526.0,516.0
517.0,505.0,523.0,527.0,515.0
517.0,500.0,521.0,525.0,517.0
513.0,505.0,520.0,522.0,521.0
518.0,510.0,519.0,521.0,519.0
517.0,512.0,520.0,519.0,508.0
518.0,511.0,520.0,520.0,506.0
521.0,513.0,521.0,517.0,508.0
523.0,515.0,517.0,514.0,503.0
521.0,513.0,515.0,506.0,505.0
515.0,506.0,505.0,500.0,517.0
508.0,508.0,502.0,501.0,513.0
503.0,502.0,500.0,499.0,521.0
502.0,498.0,501.0,503.0,519.0
505.0,503.0,509.0,515.0,520.0
509.0,503.0,519.0,520.0,516.0
517.0,509.0,522.0,525.0,515.0
521.0,506.0,526.0,528.0,521.0
518.0,508.0,526.0,526.0,525.0
513.0,504.0,519.0,523.0,530.0
512.0,505.0,516.0,521.0,528.0
514.0,508.0,518.0,518.0,527.0
518.0,509.0,518.0,516.0,510.0
524.0,513.0,518.0,518.0,504.0
524.0,516.0,520.0,516.0,505.0
519.0,519.0,518.0,512.0,500.0
517.0,513.0,512.0,507.0,504.0
508.0,508.0,505.0,503.0,505.0
499.0,504.0,501.0,500.0,510.0
499.0,500.0,502.0,502.0,514.0
500.0,500.0,505.0,511.0,518.0
505.0,502.0,513.0,517.0,521.0
506.0,505.0,521.0,523.0,522.0
510.0,506.0,526.0,526.0,526.0
517.0,507.0,521.0,527.0,517.0
513.0,504.0,518.0,524.0,519.0
515.0,505.0,519.0,522.0,516.0
518.0,506.0,515.0,519.0,508.0
518.0,506.0,518.0,518.0,514.0
520.0,512.0,522.0,518.0,505.0
523.0,514.0,520.0,515.0,503.0
530.0,519.0,523.0,515.0,502.0
520.0,516.0,516.0,510.0,506.0
514.0,517.0,508.0,505.0,512.0
507.0,505.0,502.0,499.0,512.0
501.0,501.0,498.0,499.0,518.0
499.0,499.0,499.0,498.0,511.0
496.0,498.0,509.0,508.0,525.0
505.0,499.0,509.0,513.0,526.0
514.0,504.0,517.0,520.0,525.0
524.0,507.0,524.0,525.0,517.0
520.0,505.0,522.0,526.0,517.0
522.0,503.0,517.0,520.0,519.0
519.0,507.0,518.0,524.0,515.0
518.0,503.0,516.0,517.0,522.0
515.0,508.0,521.0,515.0,514.0
519.0,512.0,519.0,517.0,497.0
523.0,516.0,520.0,516.0,496.0
520.0,515.0,517.0,512.0,498.0
513.0,512.0,512.0,508.0,503.0
509.0,512.0,506.0,505.0,505.0
504.0,511.0,505.0,505.0,511.0
499.0,497.0,499.0,500.0,516.0
500.0,501.0,504.0,505.0,521.0
504.0,503.0,509.0,511.0,523.0
509.0,507.0,520.0,520.0,523.0
513.0,506.0,520.0,525.0,523.0
517.0,508.0,523.0,527.0,516.0
516.0,509.0,524.0,526.0,517.0
515.0,504.0,519.0,523.0,521.0
521.0,506.0,520.0,522.0,518.0
518.0,508.0,519.0,519.0,523.0
517.0,511.0,518.0,519.0,526.0
522.0,517.0,522.0,518.0,508.0
525.0,513.0,520.0,519.0,489.0
517.0,515.0,521.0,510.0,488.0
514.0,515.0,510.0,508.0,495.0
508.0,509.0,506.0,501.0,492.0
506.0,506.0,500.0,497.0,499.0
502.0,500.0,503.0,503.0,521.0
507.0,502.0,504.0,510.0,520.0
510.0,502.0,511.0,520.0,515.0
517.0,506.0,523.0,523.0,510.0
517.0,507.0,519.0,524.0,511.0
514.0,505.0,521.0,525.0,515.0
513.0,506.0,520.0,523.0,522.0
513.0,502.0,520.0,519.0,527.0
517.0,507.0,520.0,518.0,528.0
522.0,509.0,518.0,516.0,520.0
527.0,512.0,519.0,516.0,519.0
526.0,516.0,524.0,518.0,510.0
521.0,517.0,521.0,517.0,505.0
518.0,515.0,515.0,510.0,502.0
511.0,509.0,509.0,508.0,502.0
501.0,506.0,505.0,500.0,509.0
496.0,503.0,500.0,498.0,519.0
495.0,500.0,505.0,503.0,519.0
500.0,504.0,508.0,510.0,519.0
505.0,503.0,513.0,516.0,516.0
510.0,506.0,520.0,523.0,507.0
518.0,506.0,521.0,526.0,512.0
518.0,507.0,521.0,525.0,522.0
513.0,506.0,521.0,520.0,526.0
511.0,503.0,524.0,519.0,525.0
508.0,504.0,520.0,513.0,525.0
517.0,511.0,520.0,518.0,515.0
520.0,511.0,520.0,519.0,506.0
520.0,512.0,514.0,517.0,503.0
519.0,517.0,507.0,509.0,503.0
513.0,514.0,510.0,508.0,502.0
507.0,506.0,500.0,504.0,504.0
505.0,505.0,502.0,505.0,502.0
498.0,500.0,500.0,500.0,511.0
499.0,496.0,498.0,502.0,518.0
503.0,500.0,508.0,512.0,521.0
511.0,505.0,516.0,519.0,520.0
516.0,506.0,521.0,524.0,522.0
519.0,506.0,521.0,525.0,526.0
516.0,507.0,522.0,526.0,522.0
514.0,508.0,520.0,523.0,522.0
515.0,505.0,525.0,521.0,527.0
521.0,506.0,519.0,519.0,518.0
519.0,512.0,520.0,520.0,514.0
522.0,517.0,520.0,517.0,512.0
523.0,517.0,521.0,515.0,507.0
522.0,517.0,518.0,510.0,503.0
516.0,515.0,509.0,506.0,507.0
510.0,508.0,510.0,506.0,512.0
505.0,503.0,501.0,505.0,517.0
504.0,504.0,500.0,504.0,522.0
509.0,503.0,505.0,506.0,529.0
515.0,502.0,504.0,514.0,532.0
520.0,506.0,518.0,519.0,526.0
516.0,506.0,522.0,526.0,513.0
516.0,505.0,522.0,526.0,516.0
516.0,503.0,519.0,523.0,514.0
516.0,503.0,520.0,519.0,513.0
516.0,504.0,517.0,519.0,511.0
522.0,504.0,518.0,520.0,510.0
520.0,512.0,520.0,516.0,518.0
521.0,513.0,522.0,517.0,510.0
523.0,518.0,520.0,515.0,505.0
517.0,519.0,517.0,512.0,503.0
508.0,511.0,508.0,506.0,503.0
502.0,506.0,502.0,504.0,505.0
497.0,502.0,499.0,499.0,513.0
501.0,498.0,501.0,499.0,512.0
502.0,500.0,504.0,506.0,510.0
512.0,503.0,513.0,516.0,516.0
513.0,505.0,519.0,523.0,514.0
519.0,506.0,522.0,527.0,509.0
517.0,505.0,522.0,527.0,512.0
514.0,504.0,520.0,521.0,518.0
513.0,505.0,522.0,522.0,515.0
516.0,507.0,520.0,523.0,521.0
523.0,510.0,518.0,518.0,516.0
523.0,516.0,521.0,522.0,513.0
524.0,518.0,522.0,518.0,510.0
519.0,518.0,523.0,515.0,511.0
513.0,515.0,514.0,512.0,513.0
513.0,508.0,508.0,506.0,508.0
505.0,504.0,505.0,505.0,505.0
504.0,499.0,497.0,505.0,502.0
502.0,498.0,500.0,508.0,516.0
505.0,502.0,507.0,516.0,510.0
516.0,504.0,514.0,524.0,495.0
520.0,508.0,516.0,529.0,500.0
516.0,504.0,520.0,525.0,527.0
517.0,503.0,520.0,515.0,533.0
518.0,506.0,521.0,510.0,532.0
515.0,504.0,524.0,511.0,530.0
513.0,506.0,524.0,512.0,523.0
512.0,509.0,522.0,514.0,517.0
516.0,512.0,511.0,511.0,514.0
519.0,516.0,512.0,520.0,510.0
515.0,514.0,502.0,508.0,505.0
511.0,513.0,499.0,503.0,505.0
507.0,506.0,497.0,499.0,508.0
501.0,503.0,495.0,498.0,513.0
500.0,502.0,501.0,501.0,513.0
506.0,501.0,508.0,509.0,517.0
508.0,503.0,516.0,510.0,519.0
515.0,507.0,525.0,523.0,520.0
517.0,506.0,527.0,529.0,522.0
518.0,505.0,526.0,527.0,526.0
512.0,503.0,523.0,524.0,531.0
510.0,501.0,519.0,519.0,527.0
511.0,503.0,520.0,519.0,523.0
521.0,507.0,520.0,517.0,527.0
523.0,512.0,520.0,516.0,521.0
522.0,515.0,521.0,519.0,502.0
522.0,517.0,524.0,513.0,498.0
518.0,514.0,516.0,512.0,490.0
510.0,509.0,509.0,505.0,494.0
508.0,507.0,507.0,502.0,497.0
502.0,500.0,501.0,500.0,504.0
503.0,500.0,503.0,507.0,514.0
506.0,500.0,507.0,510.0,529.0
508.0,504.0,515.0,519.0,530.0
513.0,505.0,521.0,524.0,532.0
519.0,507.0,525.0,527.0,524.0
519.0,509.0,525.0,526.0,522.0
514.0,504.0,521.0,523.0,512.0
515.0,505.0,517.0,519.0,509.0
519.0,503.0,515.0,516.0,505.0
514.0,507.0,520.0,517.0,511.0
520.0,512.0,522.0,516.0,509.0
529.0,516.0,521.0,518.0,499.0
523.0,519.0,517.0,513.0,495.0
514.0,511.0,510.0,505.0,505.0
511.0,507.0,505.0,502.0,499.0
503.0,503.0,503.0,501.0,503.0
502.0,502.0,501.0,499.0,505.0
501.0,498.0,502.0,505.0,513.0
509.0,503.0,509.0,513.0,524.0
511.0,507.0,514.0,517.0,526.0
516.0,506.0,519.0,523.0,538.0
523.0,507.0,526.0,525.0,529.0
526.0,505.0,522.0,525.0,522.0
520.0,504.0,517.0,520.0,522.0
517.0,508.0,519.0,520.0,520.0
520.0,507.0,520.0,519.0,512.0
519.0,511.0,519.0,517.0,520.0
512.0,513.0,520.0,517.0,521.0
518.0,518.0,520.0,515.0,507.0
516.0,515.0,518.0,510.0,510.0
511.0,512.0,511.0,505.0,518.0
503.0,505.0,502.0,500.0,518.0
499.0,503.0,497.0,497.0,515.0
496.0,503.0,502.0,503.0,514.0
500.0,500.0,503.0,505.0,518.0
506.0,500.0,509.0,514.0,525.0
509.0,504.0,517.0,522.0,517.0
511.0,505.0,519.0,523.0,513.0
517.0,506.0,521.0,529.0,518.0
516.0,503.0,522.0,522.0,523.0
514.0,503.0,517.0,519.0,518.0
518.0,504.0,516.0,519.0,507.0
517.0,507.0,515.0,515.0,506.0
518.0,509.0,516.0,519.0,503.0
521.0,515.0,518.0,514.0,503.0
520.0,518.0,516.0,513.0,501.0
512.0,515.0,510.0,507.0,502.0
511.0,510.0,509.0,501.0,510.0
508.0,504.0,502.0,501.0,513.0
502.0,504.0,501.0,497.0,518.0
504.0,502.0,501.0,502.0,522.0
501.0,501.0,506.0,508.0,523.0
508.0,502.0,512.0,514.0,525.0
516.0,506.0,521.0,523.0,523.0
521.0,509.0,524.0,531.0,518.0
519.0,505.0,521.0,525.0,520.0
518.0,503.0,519.0,524.0,522.0
515.0,506.0,518.0,523.0,518.0
517.0,507.0,518.0,519.0,513.0
517.0,510.0,519.0,517.0,515.0
522.0,513.0,522.0,517.0,514.0
525.0,519.0,524.0,516.0,511.0
519.0,520.0,521.0,512.0,521.0
515.0,517.0,515.0,509.0,513.0
505.0,505.0,510.0,503.0,509.0
508.0,505.0,503.0,500.0,507.0
510.0,502.0,498.0,498.0,510.0
507.0,498.0,498.0,503.0,514.0
508.0,505.0,509.0,513.0,520.0
515.0,506.0,518.0,518.0,514.0
521.0,507.0,524.0,529.0,506.0
524.0,508.0,527.0,530.0,501.0
519.0,504.0,527.0,528.0,504.0
510.0,497.0,515.0,520.0,508.0
513.0,503.0,513.0,518.0,513.0
518.0,506.0,520.0,516.0,518.0
517.0,506.0,514.0,514.0,516.0
519.0,510.0,519.0,515.0,507.0
521.0,518.0,521.0,515.0,504.0
524.0,519.0,516.0,511.0,503.0
513.0,512.0,506.0,506.0,509.0
506.0,506.0,503.0,499.0,510.0
497.0,503.0,506.0,501.0,515.0
499.0,504.0,500.0,501.0,512.0
507.0,501.0,504.0,506.0,512.0
508.0,502.0,511.0,515.0,519.0
516.0,505.0,519.0,523.0,514.0
518.0,506.0,520.0,525.0,515.0
519.0,508.0,521.0,529.0,511.0
517.0,504.0,520.0,522.0,513.0
512.0,503.0,521.0,520.0,519.0
515.0,507.0,518.0,519.0,513.0
522.0,505.0,518.0,518.0,515.0
522.0,509.0,517.0,516.0,522.0
522.0,514.0,518.0,515.0,512.0
522.0,516.0,516.0,512.0,501.0
524.0,517.0,512.0,511.0,504.0
509.0,509.0,509.0,505.0,505.0
503.0,505.0,504.0,499.0,506.0
498.0,499.0,498.0,498.0,511.0
502.0,499.0,497.0,499.0,513.0
506.0,504.0,508.0,510.0,513.0
519.0,498.0,514.0,511.0,509.0
522.0,505.0,517.0,519.0,522.0
520.0,504.0,515.0,515.0,522.0
520.0,505.0,516.0,521.0,514.0
518.0,501.0,512.0,518.0,516.0
513.0,502.0,516.0,519.0,520.0
511.0,507.0,516.0,519.0,526.0
506.0,505.0,514.0,518.0,536.0
519.0,511.0,521.0,517.0,525.0
517.0,515.0,519.0,516.0,515.0
516.0,515.0,518.0,514.0,505.0
514.0,518.0,515.0,508.0,498.0
511.0,512.0,509.0,506.0,505.0
506.0,506.0,500.0,500.0,513.0
500.0,501.0,501.0,498.0,520.0
501.0,504.0,506.0,504.0,522.0
508.0,503.0,511.0,520.0,513.0
515.0,504.0,513.0,525.0,514.0
521.0,508.0,516.0,525.0,521.0
525.0,509.0,520.0,530.0,526.0
524.0,511.0,515.0,528.0,523.0
520.0,505.0,517.0,523.0,520.0
519.0,506.0,513.0,513.0,510.0
516.0,509.0,515.0,511.0,516.0
519.0,507.0,515.0,508.0,514.0
524.0,511.0,518.0,509.0,509.0
517.0,514.0,519.0,506.0,516.0
519.0,518.0,526.0,514.0,514.0
507.0,513.0,518.0,508.0,505.0
504.0,506.0,508.0,501.0,509.0
497.0,502.0,500.0,499.0,514.0
498.0,498.0,501.0,498.0,510.0
501.0,497.0,508.0,507.0,512.0
507.0,502.0,511.0,511.0,511.0
512.0,503.0,519.0,519.0,512.0
515.0,507.0,523.0,525.0,512.0
522.0,507.0,528.0,526.0,510.0
518.0,506.0,526.0,524.0,510.0
513.0,502.0,518.0,520.0,512.0
517.0,500.0,518.0,519.0,511.0
518.0,510.0,520.0,515.0,507.0
518.0,512.0,522.0,518.0,508.0
522.0,518.0,522.0,518.0,511.0
526.0,519.0,522.0,512.0,509.0
521.0,513.0,517.0,508.0,517.0
514.0,513.0,511.0,503.0,512.0
511.0,507.0,501.0,498.0,512.0
502.0,504.0,498.0,498.0,516.0
509.0,500.0,499.0,501.0,516.0
509.0,501.0,505.0,511.0,516.0
510.0,505.0,514.0,517.0,512.0
515.0,505.0,517.0,520.0,513.0
518.0,508.0,522.0,526.0,511.0
518.0,505.0,519.0,525.0,513.0
515.0,501.0,515.0,513.0,507.0
509.0,507.0,517.0,517.0,511.0
516.0,503.0,514.0,509.0,509.0
519.0,508.0,517.0,509.0,502.0
528.0,509.0,521.0,513.0,495.0
526.0,516.0,524.0,519.0,491.0
524.0,516.0,520.0,506.0,494.0
515.0,513.0,511.0,513.0,478.0
509.0,510.0,502.0,519.0,488.0
506.0,505.0,502.0,506.0,502.0
502.0,496.0,498.0,500.0,532.0
505.0,502.0,503.0,504.0,532.0
506.0,500.0,507.0,513.0,535.0
505.0,501.0,513.0,518.0,526.0
510.0,503.0,516.0,521.0,527.0
512.0,508.0,521.0,525.0,523.0
511.0,503.0,519.0,529.0,527.0
508.0,500.0,515.0,521.0,531.0
509.0,504.0,516.0,520.0,531.0
514.0,507.0,517.0,517.0,530.0
514.0,511.0,518.0,518.0,525.0
513.0,517.0,521.0,517.0,521.0
522.0,519.0,523.0,521.0,510.0
520.0,521.0,517.0,517.0,508.0
516.0,513.0,510.0,507.0,511.0
511.0,515.0,507.0,508.0,514.0
508.0,504.0,502.0,501.0,509.0
508.0,503.0,501.0,502.0,520.0
512.0,501.0,503.0,506.0,522.0
519.0,502.0,509.0,512.0,521.0
525.0,505.0,516.0,517.0,524.0
524.0,505.0,520.0,522.0,524.0
519.0,507.0,521.0,523.0,519.0
512.0,504.0,521.0,521.0,507.0
506.0,501.0,520.0,520.0,507.0
510.0,508.0,521.0,519.0,503.0
521.0,510.0,526.0,520.0,510.0
526.0,513.0,520.0,518.0,509.0
534.0,515.0,518.0,519.0,503.0
535.0,519.0,522.0,518.0,493.0
523.0,516.0,517.0,515.0,491.0
515.0,510.0,508.0,506.0,498.0
510.0,506.0,495.0,497.0,504.0
500.0,496.0,489.0,491.0,511.0
495.0,497.0,500.0,502.0,512.0
494.0,502.0,503.0,512.0,526.0
501.0,504.0,514.0,519.0,524.0
509.0,505.0,522.0,528.0,515.0
516.0,508.0,526.0,535.0,511.0
517.0,506.0,526.0,534.0,519.0
512.0,503.0,518.0,531.0,515.0
513.0,502.0,517.0,526.0,530.0
512.0,503.0,510.0,519.0,535.0
511.0,506.0,516.0,511.0,523.0
520.0,512.0,518.0,505.0,515.0
525.0,519.0,520.0,511.0,506.0
521.0,518.0,514.0,506.0,499.0
517.0,517.0,508.0,504.0,502.0
507.0,512.0,504.0,507.0,513.0
498.0,509.0,507.0,503.0,494.0
499.0,507.0,502.0,504.0,484.0
502.0,507.0,503.0,511.0,496.0
509.0,504.0,502.0,510.0,504.0
512.0,504.0,502.0,515.0,528.0
520.0,504.0,505.0,510.0,522.0
523.0,504.0,495.0,503.0,521.0
529.0,503.0,504.0,504.0,517.0
526.0,500.0,511.0,504.0,530.0
525.0,502.0,534.0,506.0,530.0
524.0,509.0,556.0,527.0,512.0
518.0,508.0,555.0,527.0,515.0
516.0,507.0,540.0,524.0,519.0
522.0,517.0,539.0,532.0,476.0
526.0,513.0,514.0,525.0,470.0
519.0,507.0,506.0,510.0,494.0
510.0,503.0,504.0,502.0,493.0
498.0,501.0,500.0,493.0,517.0
496.0,501.0,502.0,497.0,543.0
497.0,497.0,496.0,499.0,538.0
501.0,499.0,493.0,506.0,524.0
506.0,507.0,500.0,513.0,528.0
509.0,506.0,513.0,519.0,554.0
512.0,511.0,521.0,529.0,552.0
517.0,510.0,526.0,533.0,553.0
520.0,508.0,525.0,529.0,544.0
522.0,504.0,513.0,518.0,512.0
529.0,508.0,511.0,517.0,482.0
530.0,510.0,519.0,518.0,485.0
520.0,514.0,521.0,524.0,478.0
524.0,517.0,553.0,530.0,460.0
524.0,515.0,550.0,523.0,470.0
511.0,505.0,523.0,506.0,496.0
503.0,508.0,517.0,502.0,509.0
495.0,504.0,492.0,494.0,530.0
499.0,503.0,476.0,484.0,524.0
505.0,503.0,509.0,509.0,501.0
505.0,508.0,522.0,522.0,498.0
516.0,506.0,514.0,521.0,518.0
514.0,503.0,508.0,517.0,534.0
515.0,504.0,496.0,521.0,533.0
514.0,506.0,494.0,518.0,531.0
521.0,511.0,530.0,520.0,532.0
529.0,512.0,543.0,510.0,510.0
538.0,506.0,537.0,498.0,484.0
532.0,514.0,543.0,494.0,506.0
533.0,512.0,532.0,511.0,498.0
520.0,506.0,496.0,514.0,518.0
504.0,500.0,490.0,511.0,521.0
498.0,512.0,497.0,521.0,515.0
499.0,511.0,502.0,518.0,500.0
491.0,505.0,504.0,507.0,540.0
492.0,503.0,518.0,511.0,553.0
500.0,504.0,526.0,522.0,571.0
508.0,507.0,535.0,530.0,538.0
516.0,505.0,522.0,532.0,507.0
534.0,504.0,508.0,527.0,504.0
532.0,501.0,509.0,527.0,491.0
520.0,500.0,525.0,527.0,511.0
517.0,501.0,533.0,526.0,527.0
514.0,509.0,534.0,533.0,528.0
516.0,511.0,528.0,533.0,537.0
518.0,519.0,506.0,509.0,549.0
522.0,519.0,503.0,510.0,542.0
526.0,523.0,511.0,511.0,507.0
534.0,521.0,504.0,508.0,464.0
524.0,514.0,500.0,501.0,495.0
521.0,505.0,495.0,500.0,493.0
508.0,502.0,496.0,508.0,491.0
501.0,501.0,499.0,511.0,439.0
494.0,502.0,503.0,520.0,472.0
505.0,505.0,519.0,521.0,501.0
513.0,510.0,527.0,534.0,506.0
506.0,504.0,523.0,520.0,542.0
501.0,503.0,515.0,513.0,573.0
504.0,500.0,507.0,508.0,537.0
512.0,501.0,510.0,511.0,504.0
513.0,503.0,504.0,509.0,480.0
520.0,508.0,516.0,513.0,473.0
520.0,517.0,535.0,529.0,484.0
524.0,519.0,543.0,528.0,482.0
514.0,515.0,533.0,526.0,493.0
502.0,510.0,523.0,508.0,518.0
500.0,511.0,517.0,500.0,528.0
501.0,510.0,500.0,492.0,532.0
500.0,503.0,489.0,490.0,533.0
506.0,501.0,497.0,504.0,536.0
518.0,503.0,506.0,516.0,529.0
522.0,506.0,512.0,521.0,510.0
521.0,503.0,516.0,524.0,521.0
503.0,500.0,514.0,521.0,546.0
508.0,501.0,504.0,518.0,527.0
510.0,501.0,499.0,507.0,530.0
519.0,505.0,522.0,501.0,528.0
523.0,511.0,550.0,493.0,530.0
526.0,514.0,545.0,494.0,523.0
519.0,508.0,552.0,517.0,518.0
521.0,509.0,512.0,495.0,506.0
529.0,510.0,468.0,515.0,503.0
529.0,513.0,503.0,567.0,488.0
517.0,507.0,497.0,556.0,494.0
527.0,505.0,495.0,513.0,497.0
522.0,502.0,499.0,482.0,533.0
504.0,497.0,489.0,481.0,519.0
489.0,496.0,495.0,496.0,500.0
497.0,510.0,520.0,524.0,523.0
496.0,515.0,537.0,535.0,540.0
501.0,513.0,534.0,536.0,510.0
514.0,509.0,529.0,534.0,487.0
514.0,503.0,498.0,519.0,481.0
505.0,501.0,508.0,527.0,548.0
512.0,505.0,514.0,523.0,558.0
522.0,512.0,509.0,513.0,517.0
525.0,524.0,520.0,514.0,498.0
510.0,520.0,516.0,509.0,492.0
505.0,509.0,516.0,500.0,505.0
496.0,504.0,515.0,497.0,510.0
495.0,509.0,488.0,505.0,517.0
504.0,507.0,495.0,511.0,514.0
516.0,503.0,501.0,514.0,504.0
517.0,500.0,508.0,513.0,512.0
512.0,498.0,506.0,498.0,539.0
516.0,499.0,507.0,506.0,526.0
528.0,505.0,516.0,504.0,482.0
537.0,507.0,527.0,503.0,495.0
521.0,504.0,510.0,497.0,527.0
521.0,512.0,528.0,500.0,529.0
516.0,513.0,517.0,529.0,535.0
533.0,517.0,519.0,530.0,503.0
519.0,509.0,514.0,534.0,514.0
506.0,515.0,533.0,550.0,514.0
510.0,515.0,539.0,543.0,490.0
511.0,511.0,523.0,526.0,516.0
498.0,512.0,510.0,516.0,535.0
494.0,509.0,485.0,503.0,536.0
504.0,509.0,524.0,519.0,518.0
530.0,516.0,529.0,531.0,479.0
552.0,507.0,539.0,520.0,465.0
531.0,496.0,530.0,495.0,551.0
543.0,505.0,488.0,486.0,525.0
515.0,502.0,518.0,504.0,525.0
494.0,502.0,511.0,516.0,488.0
492.0,496.0,496.0,509.0,507.0
502.0,500.0,469.0,521.0,496.0
508.0,510.0,492.0,523.0,467.0
508.0,510.0,502.0,534.0,474.0
499.0,514.0,511.0,521.0,505.0
498.0,506.0,507.0,493.0,586.0
508.0,507.0,519.0,489.0,529.0
511.0,509.0,516.0,509.0,507.0
511.0,509.0,503.0,506.0,517.0
497.0,502.0,517.0,518.0,535.0
503.0,510.0,535.0,521.0,526.0
509.0,514.0,536.0,519.0,502.0
515.0,507.0,551.0,506.0,512.0
517.0,506.0,555.0,508.0,580.0
514.0,509.0,561.0,522.0,536.0
503.0,509.0,547.0,526.0,498.0
502.0,501.0,504.0,513.0,511.0
509.0,504.0,498.0,508.0,541.0
517.0,507.0,500.0,514.0,569.0
510.0,506.0,494.0,516.0,562.0
522.0,513.0,511.0,518.0,511.0
544.0,522.0,523.0,527.0,461.0
539.0,519.0,525.0,520.0,440.0
539.0,521.0,526.0,517.0,423.0
535.0,515.0,511.0,499.0,494.0
528.0,504.0,502.0,485.0,582.0
504.0,500.0,515.0,490.0,580.0
487.0,499.0,514.0,496.0,497.0
516.0,503.0,518.0,520.0,423.0
521.0,514.0,529.0,537.0,406.0
505.0,512.0,528.0,548.0,461.0
526.0,506.0,534.0,539.0,457.0
527.0,505.0,500.0,525.0,492.0
528.0,500.0,468.0,506.0,505.0
525.0,496.0,468.0,494.0,509.0
517.0,507.0,483.0,499.0,605.0
519.0,519.0,519.0,514.0,635.0
519.0,525.0,552.0,529.0,607.0
515.0,525.0,546.0,529.0,581.0
515.0,520.0,521.0,525.0,554.0
499.0,510.0,530.0,532.0,482.0
475.0,506.0,537.0,522.0,438.0
473.0,500.0,548.0,505.0,516.0
500.0,497.0,516.0,491.0,510.0
511.0,494.0,491.0,486.0,450.0
519.0,499.0,472.0,504.0,413.0
518.0,495.0,488.0,522.0,459.0
513.0,496.0,532.0,541.0,491.0
537.0,503.0,543.0,539.0,487.0
540.0,513.0,538.0,545.0,576.0
531.0,509.0,514.0,544.0,540.0
522.0,499.0,485.0,519.0,488.0
520.0,496.0,510.0,508.0,410.0
517.0,511.0,528.0,519.0,436.0
536.0,524.0,533.0,517.0,458.0
544.0,528.0,524.0,525.0,518.0
531.0,520.0,495.0,499.0,614.0
508.0,515.0,477.0,482.0,644.0
474.0,506.0,485.0,493.0,613.0
465.0,494.0,493.0,483.0,517.0
480.0,487.0,523.0,503.0,485.0
495.0,482.0,523.0,523.0,507.0
516.0,492.0,535.0,514.0,566.0
515.0,481.0,483.0,494.0,546.0
529.0,483.0,472.0,476.0,501.0
522.0,482.0,539.0,480.0,531.0
517.0,479.0,545.0,488.0,490.0
510.0,496.0,578.0,542.0,461.0
487.0,508.0,609.0,526.0,555.0
484.0,498.0,527.0,526.0,565.0
516.0,505.0,471.0,500.0,532.0
533.0,521.0,480.0,492.0,563.0
546.0,533.0,536.0,532.0,494.0
539.0,534.0,567.0,547.0,397.0
515.0,522.0,540.0,525.0,428.0
469.0,492.0,410.0,462.0,544.0
461.0,500.0,456.0,497.0,562.0
484.0,507.0,488.0,521.0,604.0
517.0,508.0,487.0,511.0,597.0
527.0,508.0,482.0,516.0,549.0
540.0,507.0,493.0,517.0,522.0
541.0,500.0,488.0,526.0,471.0
522.0,493.0,514.0,535.0,444.0
512.0,483.0,544.0,531.0,447.0
501.0,488.0,540.0,530.0,497.0
504.0,505.0,539.0,523.0,474.0
505.0,522.0,526.0,505.0,506.0
516.0,531.0,505.0,525.0,494.0
519.0,529.0,508.0,530.0,531.0
517.0,528.0,539.0,501.0,532.0
529.0,534.0,550.0,493.0,547.0
498.0,523.0,534.0,476.0,624.0
491.0,502.0,503.0,459.0,590.0
499.0,489.0,459.0,478.0,547.0
513.0,495.0,452.0,511.0,532.0
505.0,498.0,484.0,536.0,493.0
509.0,503.0,517.0,540.0,544.0
507.0,499.0,557.0,546.0,512.0
515.0,506.0,545.0,535.0,485.0
517.0,522.0,553.0,538.0,509.0
528.0,522.0,538.0,515.0,518.0
506.0,523.0,503.0,512.0,556.0
511.0,518.0,496.0,520.0,532.0
527.0,510.0,482.0,508.0,582.0
565.0,515.0,472.0,509.0,555.0
594.0,530.0,512.0,523.0,368.0
577.0,526.0,515.0,520.0,424.0
523.0,503.0,498.0,496.0,532.0
445.0,478.0,501.0,487.0,505.0
466.0,487.0,504.0,506.0,413.0
484.0,490.0,476.0,478.0,446.0
498.0,493.0,478.0,498.0,520.0
506.0,499.0,503.0,526.0,541.0
504.0,509.0,517.0,548.0,599.0
496.0,515.0,546.0,572.0,568.0
483.0,523.0,564.0,575.0,584.0
482.0,510.0,537.0,552.0,542.0
490.0,501.0,516.0,524.0,525.0
512.0,501.0,514.0,499.0,519.0
539.0,507.0,574.0,502.0,547.0
538.0,520.0,595.0,514.0,551.0
528.0,525.0,561.0,494.0,550.0
505.0,513.0,491.0,456.0,610.0
509.0,516.0,435.0,456.0,559.0
503.0,508.0,441.0,487.0,512.0
529.0,501.0,479.0,502.0,394.0
506.0,490.0,505.0,502.0,415.0
475.0,491.0,516.0,515.0,514.0
496.0,502.0,518.0,531.0,575.0
522.0,506.0,514.0,531.0,587.0
526.0,496.0,504.0,518.0,568.0
539.0,498.0,525.0,518.0,547.0
541.0,498.0,550.0,524.0,416.0
517.0,503.0,563.0,529.0,396.0
525.0,510.0,553.0,531.0,360.0
522.0,496.0,475.0,498.0,554.0
506.0,502.0,503.0,511.0,593.0
494.0,516.0,518.0,548.0,573.0
516.0,520.0,517.0,542.0,425.0
520.0,516.0,522.0,503.0,410.0
526.0,523.0,524.0,495.0,522.0
496.0,505.0,512.0,495.0,516.0
483.0,491.0,481.0,496.0,596.0
491.0,489.0,471.0,488.0,541.0
512.0,490.0,487.0,502.0,502.0
503.0,497.0,511.0,527.0,513.0
489.0,510.0,533.0,541.0,608.0
498.0,522.0,563.0,558.0,547.0
499.0,514.0,551.0,572.0,527.0
501.0,507.0,529.0,529.0,554.0
521.0,498.0,459.0,479.0,538.0
545.0,501.0,444.0,467.0,553.0
537.0,489.0,467.0,471.0,547.0
541.0,491.0,515.0,517.0,438.0
521.0,490.0,550.0,543.0,405.0
536.0,505.0,547.0,552.0,402.0
511.0,487.0,531.0,503.0,557.0
507.0,469.0,449.0,461.0,609.0
501.0,459.0,471.0,500.0,572.0
519.0,476.0,489.0,504.0,540.0
505.0,505.0,525.0,511.0,491.0
492.0,515.0,530.0,517.0,557.0
520.0,523.0,521.0,516.0,523.0
529.0,520.0,498.0,501.0,482.0
518.0,509.0,537.0,542.0,510.0
510.0,482.0,531.0,526.0,481.0
477.0,454.0,513.0,501.0,558.0
485.0,450.0,476.0,508.0,542.0
505.0,464.0,496.0,521.0,509.0
508.0,488.0,501.0,520.0,471.0
520.0,536.0,520.0,513.0,479.0
524.0,574.0,522.0,515.0,501.0
520.0,558.0,555.0,532.0,523.0
529.0,521.0,550.0,513.0,503.0
521.0,515.0,499.0,500.0,504.0
492.0,521.0,504.0,519.0,520.0
486.0,523.0,531.0,525.0,497.0
486.0,523.0,540.0,525.0,539.0
510.0,513.0,532.0,510.0,585.0
524.0,501.0,510.0,504.0,574.0
537.0,507.0,501.0,514.0,526.0
526.0,508.0,528.0,518.0,502.0
506.0,509.0,523.0,522.0,482.0
520.0,517.0,507.0,529.0,496.0
522.0,516.0,529.0,521.0,484.0
535.0,520.0,571.0,532.0,424.0
529.0,523.0,564.0,532.0,488.0
512.0,522.0,541.0,520.0,473.0
513.0,515.0,424.0,474.0,495.0
513.0,512.0,486.0,493.0,603.0
502.0,503.0,484.0,490.0,577.0
498.0,504.0,499.0,501.0,514.0
516.0,512.0,508.0,521.0,527.0
512.0,507.0,504.0,513.0,592.0
492.0,493.0,491.0,505.0,514.0
515.0,506.0,507.0,522.0,462.0
502.0,506.0,518.0,531.0,484.0
481.0,507.0,513.0,530.0,482.0
492.0,503.0,494.0,507.0,578.0
518.0,507.0,490.0,515.0,576.0
525.0,519.0,512.0,522.0,559.0
522.0,513.0,536.0,512.0,555.0
542.0,513.0,543.0,505.0,530.0
501.0,498.0,503.0,501.0,532.0
515.0,508.0,509.0,512.0,484.0
506.0,516.0,525.0,522.0,467.0
522.0,516.0,527.0,529.0,434.0
528.0,509.0,509.0,507.0,461.0
505.0,498.0,498.0,498.0,547.0
487.0,494.0,496.0,504.0,534.0
498.0,502.0,503.0,518.0,461.0
504.0,510.0,511.0,512.0,542.0
495.0,506.0,513.0,509.0,611.0
518.0,518.0,537.0,550.0,534.0
535.0,509.0,541.0,562.0,552.0
548.0,506.0,545.0,553.0,542.0
513.0,496.0,513.0,502.0,587.0
494.0,496.0,525.0,504.0,515.0
509.0,497.0,500.0,492.0,418.0
516.0,496.0,494.0,480.0,456.0
524.0,514.0,514.0,511.0,482.0
519.0,521.0,503.0,525.0,585.0
534.0,527.0,521.0,530.0,530.0
529.0,519.0,508.0,500.0,517.0
517.0,510.0,499.0,489.0,506.0
510.0,504.0,491.0,493.0,467.0
511.0,499.0,464.0,487.0,496.0
519.0,500.0,458.0,485.0,569.0
503.0,500.0,468.0,485.0,584.0
504.0,498.0,492.0,493.0,506.0
510.0,506.0,557.0,522.0,391.0
514.0,509.0,568.0,527.0,365.0
516.0,492.0,533.0,536.0,423.0
525.0,493.0,505.0,532.0,497.0
518.0,497.0,505.0,527.0,608.0
498.0,502.0,506.0,521.0,617.0
482.0,506.0,515.0,526.0,567.0
507.0,521.0,550.0,520.0,594.0
510.0,522.0,555.0,516.0,588.0
514.0,530.0,559.0,529.0,587.0
511.0,517.0,554.0,513.0,530.0
502.0,499.0,519.0,488.0,519.0
497.0,489.0,469.0,466.0,472.0
502.0,491.0,493.0,493.0,481.0
510.0,504.0,525.0,527.0,526.0
525.0,516.0,527.0,543.0,511.0
527.0,514.0,530.0,544.0,487.0
532.0,516.0,524.0,528.0,485.0
515.0,505.0,495.0,512.0,510.0
507.0,501.0,462.0,520.0,591.0
519.0,492.0,474.0,530.0,574.0
509.0,485.0,506.0,519.0,544.0
525.0,493.0,544.0,510.0,490.0
521.0,493.0,562.0,496.0,455.0
521.0,501.0,570.0,516.0,478.0
521.0,505.0,545.0,540.0,525.0
497.0,498.0,485.0,546.0,574.0
516.0,511.0,502.0,532.0,509.0
531.0,523.0,504.0,497.0,458.0
527.0,510.0,474.0,493.0,400.0
515.0,499.0,486.0,483.0,444.0
506.0,502.0,499.0,506.0,523.0
480.0,507.0,517.0,517.0,520.0
508.0,502.0,516.0,528.0,533.0
526.0,503.0,541.0,549.0,469.0
522.0,513.0,545.0,574.0,438.0
520.0,510.0,509.0,517.0,445.0
511.0,503.0,484.0,492.0,499.0
498.0,497.0,461.0,454.0,641.0
501.0,511.0,506.0,468.0,647.0
510.0,509.0,528.0,502.0,529.0
512.0,502.0,532.0,504.0,521.0
514.0,510.0,533.0,529.0,522.0
508.0,513.0,509.0,533.0,534.0
497.0,507.0,499.0,516.0,523.0
502.0,509.0,505.0,505.0,511.0
503.0,511.0,505.0,507.0,505.0
510.0,507.0,498.0,502.0,523.0
508.0,503.0,502.0,513.0,522.0
510.0,504.0,509.0,526.0,538.0
520.0,507.0,517.0,528.0,545.0
525.0,513.0,526.0,539.0,519.0
527.0,508.0,519.0,530.0,495.0
521.0,515.0,523.0,529.0,499.0
514.0,522.0,526.0,532.0,495.0
512.0,520.0,527.0,519.0,572.0
513.0,513.0,520.0,514.0,568.0
527.0,519.0,519.0,516.0,526.0
525.0,516.0,510.0,505.0,532.0
499.0,508.0,500.0,505.0,502.0
502.0,505.0,494.0,495.0,515.0
506.0,509.0,489.0,491.0,478.0
509.0,511.0,509.0,492.0,456.0
515.0,512.0,503.0,499.0,459.0
511.0,501.0,484.0,497.0,532.0
516.0,490.0,458.0,488.0,546.0
517.0,497.0,506.0,514.0,524.0
532.0,519.0,552.0,537.0,527.0
520.0,512.0,555.0,547.0,503.0
512.0,508.0,537.0,536.0,477.0
527.0,505.0,524.0,520.0,530.0
536.0,508.0,518.0,525.0,598.0
533.0,514.0,525.0,519.0,609.0
521.0,516.0,527.0,525.0,534.0
500.0,526.0,541.0,535.0,432.0
545.0,535.0,544.0,545.0,405.0
521.0,515.0,520.0,518.0,471.0
500.0,502.0,510.0,500.0,526.0
475.0,496.0,505.0,497.0,526.0
480.0,490.0,495.0,486.0,522.0
492.0,492.0,493.0,499.0,507.0
496.0,499.0,502.0,508.0,504.0
501.0,503.0,513.0,520.0,498.0
512.0,507.0,516.0,526.0,506.0
534.0,513.0,525.0,532.0,520.0
535.0,511.0,527.0,536.0,512.0
541.0,514.0,525.0,543.0,449.0
532.0,505.0,516.0,530.0,474.0
511.0,501.0,505.0,513.0,456.0
518.0,510.0,509.0,509.0,461.0
521.0,521.0,535.0,506.0,587.0
516.0,524.0,540.0,504.0,582.0
517.0,512.0,526.0,507.0,543.0
510.0,504.0,482.0,494.0,519.0
503.0,506.0,448.0,494.0,484.0
504.0,504.0,460.0,489.0,530.0
510.0,489.0,464.0,486.0,536.0
516.0,482.0,504.0,501.0,535.0
497.0,494.0,549.0,515.0,547.0
510.0,517.0,573.0,529.0,518.0
510.0,508.0,509.0,534.0,526.0
518.0,506.0,486.0,533.0,512.0
517.0,505.0,535.0,529.0,498.0
496.0,498.0,553.0,506.0,497.0
505.0,503.0,548.0,491.0,539.0
525.0,512.0,538.0,502.0,541.0
520.0,506.0,480.0,529.0,557.0
536.0,513.0,520.0,522.0,527.0
544.0,525.0,542.0,512.0,547.0
532.0,524.0,540.0,512.0,538.0
516.0,515.0,500.0,501.0,542.0
488.0,509.0,456.0,504.0,506.0
477.0,508.0,485.0,518.0,475.0
480.0,504.0,508.0,535.0,544.0
486.0,498.0,556.0,548.0,526.0
526.0,500.0,546.0,543.0,470.0
545.0,505.0,530.0,504.0,454.0
540.0,498.0,466.0,494.0,476.0
526.0,502.0,479.0,515.0,550.0
513.0,500.0,493.0,513.0,486.0
495.0,500.0,479.0,510.0,484.0
511.0,499.0,516.0,508.0,501.0
528.0,512.0,562.0,521.0,494.0
522.0,517.0,572.0,536.0,513.0
518.0,512.0,545.0,523.0,536.0
511.0,509.0,496.0,507.0,536.0
515.0,517.0,493.0,501.0,524.0
510.0,510.0,518.0,504.0,540.0
513.0,508.0,519.0,511.0,504.0
490.0,502.0,507.0,509.0,515.0
489.0,500.0,511.0,507.0,522.0
502.0,499.0,512.0,518.0,517.0
529.0,509.0,510.0,531.0,511.0
521.0,507.0,517.0,530.0,554.0
520.0,512.0,521.0,529.0,539.0
502.0,499.0,525.0,523.0,535.0
497.0,501.0,530.0,524.0,507.0
525.0,516.0,537.0,517.0,496.0
514.0,516.0,546.0,521.0,545.0
522.0,512.0,541.0,518.0,501.0
519.0,511.0,515.0,514.0,530.0
539.0,513.0,497.0,512.0,494.0
529.0,497.0,502.0,512.0,503.0
516.0,476.0,501.0,507.0,474.0
518.0,474.0,504.0,508.0,481.0
488.0,475.0,515.0,514.0,509.0
482.0,482.0,489.0,502.0,551.0
492.0,493.0,465.0,492.0,505.0
520.0,536.0,511.0,521.0,501.0
522.0,539.0,531.0,539.0,533.0
521.0,522.0,512.0,527.0,525.0
506.0,499.0,490.0,503.0,505.0
506.0,498.0,492.0,501.0,516.0
497.0,496.0,499.0,513.0,511.0
507.0,503.0,499.0,517.0,530.0
514.0,516.0,513.0,516.0,528.0
519.0,521.0,512.0,516.0,539.0
531.0,518.0,532.0,531.0,507.0
539.0,523.0,537.0,526.0,479.0
545.0,524.0,523.0,518.0,465.0
520.0,512.0,508.0,496.0,484.0
505.0,509.0,509.0,484.0,521.0
479.0,504.0,500.0,486.0,542.0
495.0,502.0,503.0,497.0,503.0
513.0,503.0,509.0,503.0,498.0
525.0,511.0,522.0,521.0,491.0
526.0,515.0,526.0,525.0,488.0
521.0,514.0,525.0,528.0,544.0
519.0,513.0,530.0,534.0,524.0
510.0,508.0,525.0,529.0,538.0
511.0,509.0,519.0,514.0,617.0
519.0,509.0,520.0,515.0,568.0
503.0,502.0,511.0,509.0,508.0
497.0,511.0,516.0,507.0,506.0
507.0,518.0,530.0,514.0,478.0
514.0,514.0,519.0,509.0,515.0
521.0,507.0,506.0,503.0,536.0
506.0,504.0,503.0,504.0,492.0
510.0,505.0,501.0,512.0,461.0
518.0,501.0,502.0,502.0,487.0
506.0,493.0,497.0,501.0,531.0
511.0,496.0,508.0,509.0,509.0
510.0,503.0,507.0,508.0,507.0
519.0,504.0,486.0,504.0,475.0
516.0,504.0,505.0,509.0,514.0
515.0,507.0,520.0,519.0,523.0
513.0,504.0,516.0,527.0,531.0
510.0,503.0,522.0,509.0,521.0
511.0,507.0,515.0,513.0,500.0
518.0,514.0,542.0,523.0,503.0
530.0,522.0,552.0,540.0,525.0
536.0,522.0,538.0,533.0,544.0
537.0,527.0,542.0,524.0,516.0
521.0,519.0,529.0,513.0,513.0
508.0,511.0,516.0,504.0,464.0
515.0,505.0,478.0,500.0,456.0
511.0,506.0,486.0,494.0,498.0
505.0,503.0,504.0,506.0,544.0
503.0,505.0,516.0,508.0,539.0
513.0,504.0,524.0,495.0,548.0
512.0,496.0,546.0,496.0,540.0
511.0,497.0,531.0,507.0,499.0
520.0,504.0,479.0,526.0,502.0
526.0,512.0,492.0,546.0,476.0
519.0,507.0,533.0,532.0,503.0
514.0,504.0,539.0,525.0,564.0
504.0,504.0,544.0,523.0,579.0
509.0,506.0,527.0,527.0,488.0
531.0,505.0,508.0,516.0,459.0
541.0,514.0,516.0,520.0,501.0
535.0,507.0,504.0,522.0,468.0
525.0,511.0,492.0,516.0,523.0
502.0,500.0,473.0,498.0,533.0
488.0,506.0,490.0,517.0,492.0
483.0,509.0,516.0,533.0,526.0
496.0,510.0,532.0,515.0,594.0
510.0,502.0,516.0,503.0,636.0
528.0,498.0,492.0,499.0,555.0
529.0,503.0,538.0,498.0,509.0
528.0,514.0,563.0,528.0,484.0
501.0,503.0,538.0,526.0,469.0
501.0,488.0,500.0,497.0,494.0
498.0,495.0,492.0,496.0,490.0
517.0,512.0,513.0,533.0,455.0
529.0,521.0,531.0,536.0,478.0
513.0,521.0,525.0,523.0,536.0
515.0,516.0,516.0,510.0,530.0
523.0,515.0,514.0,509.0,514.0
519.0,510.0,509.0,503.0,478.0
495.0,500.0,505.0,494.0,537.0
486.0,498.0,489.0,492.0,504.0
502.0,506.0,486.0,511.0,474.0
503.0,505.0,489.0,513.0,524.0
517.0,503.0,508.0,525.0,501.0
517.0,499.0,519.0,520.0,572.0
510.0,503.0,540.0,522.0,572.0
512.0,503.0,530.0,521.0,556.0
506.0,501.0,524.0,525.0,530.0
514.0,502.0,525.0,526.0,477.0
528.0,508.0,522.0,522.0,483.0
522.0,517.0,528.0,524.0,514.0
523.0,521.0,528.0,520.0,535.0
515.0,521.0,524.0,511.0,534.0
519.0,516.0,518.0,513.0,530.0
506.0,505.0,506.0,501.0,539.0
516.0,510.0,507.0,505.0,494.0
508.0,502.0,503.0,509.0,456.0
500.0,506.0,507.0,515.0,470.0
503.0,508.0,516.0,522.0,541.0
517.0,508.0,520.0,521.0,492.0
534.0,504.0,515.0,518.0,502.0
531.0,501.0,508.0,522.0,457.0
518.0,500.0,512.0,514.0,533.0
504.0,500.0,533.0,525.0,581.0
500.0,501.0,540.0,531.0,567.0
515.0,509.0,532.0,531.0,500.0
528.0,512.0,501.0,518.0,450.0
521.0,512.0,498.0,508.0,505.0
531.0,515.0,499.0,504.0,519.0
514.0,502.0,492.0,496.0,523.0
503.0,496.0,503.0,485.0,516.0
498.0,504.0,504.0,483.0,461.0
498.0,503.0,503.0,494.0,516.0
492.0,501.0,509.0,495.0,547.0
514.0,501.0,510.0,503.0,530.0
516.0,502.0,515.0,520.0,538.0
510.0,504.0,512.0,524.0,543.0
514.0,509.0,508.0,529.0,542.0
518.0,507.0,499.0,528.0,535.0
517.0,507.0,517.0,517.0,531.0
505.0,506.0,535.0,512.0,526.0
497.0,510.0,552.0,527.0,541.0
513.0,509.0,531.0,538.0,522.0
518.0,511.0,527.0,540.0,510.0
545.0,515.0,509.0,514.0,494.0
536.0,506.0,495.0,500.0,493.0
518.0,511.0,505.0,498.0,467.0
503.0,511.0,528.0,503.0,479.0
499.0,519.0,523.0,505.0,480.0
504.0,516.0,532.0,507.0,476.0
501.0,496.0,503.0,489.0,476.0
504.0,490.0,496.0,493.0,485.0
499.0,496.0,481.0,489.0,537.0
510.0,500.0,497.0,531.0,516.0
518.0,498.0,495.0,551.0,520.0
535.0,505.0,511.0,541.0,506.0
527.0,512.0,525.0,533.0,552.0
527.0,513.0,504.0,524.0,550.0
514.0,510.0,503.0,515.0,536.0
517.0,509.0,504.0,520.0,500.0
512.0,503.0,515.0,510.0,476.0
502.0,500.0,508.0,497.0,535.0
509.0,510.0,533.0,513.0,528.0
517.0,510.0,539.0,517.0,545.0
515.0,510.0,520.0,506.0,531.0
511.0,506.0,509.0,501.0,512.0
498.0,499.0,510.0,508.0,493.0
504.0,498.0,505.0,513.0,504.0
511.0,508.0,509.0,517.0,517.0
516.0,506.0,517.0,515.0,522.0
524.0,508.0,520.0,525.0,513.0
526.0,510.0,531.0,527.0,514.0
520.0,508.0,533.0,529.0,514.0
521.0,506.0,530.0,527.0,514.0
512.0,509.0,528.0,527.0,494.0
513.0,510.0,527.0,524.0,504.0
522.0,512.0,524.0,519.0,510.0
523.0,515.0,523.0,514.0,520.0
540.0,516.0,519.0,517.0,529.0
534.0,515.0,514.0,506.0,540.0
524.0,505.0,516.0,509.0,519.0
507.0,503.0,525.0,506.0,500.0
485.0,502.0,528.0,503.0,486.0
490.0,502.0,526.0,497.0,541.0
502.0,500.0,493.0,502.0,551.0
518.0,501.0,489.0,509.0,527.0
507.0,499.0,481.0,512.0,539.0
503.0,503.0,510.0,538.0,500.0
520.0,509.0,531.0,541.0,506.0
510.0,506.0,523.0,528.0,556.0
503.0,505.0,518.0,512.0,560.0
512.0,509.0,517.0,515.0,520.0
531.0,511.0,527.0,533.0,434.0
531.0,513.0,516.0,522.0,456.0
544.0,516.0,514.0,514.0,456.0
531.0,516.0,516.0,507.0,501.0
507.0,518.0,518.0,509.0,548.0
496.0,516.0,519.0,511.0,517.0
500.0,513.0,512.0,507.0,488.0
499.0,499.0,499.0,501.0,495.0
494.0,494.0,498.0,503.0,491.0
502.0,500.0,507.0,512.0,516.0
517.0,506.0,515.0,520.0,538.0
534.0,516.0,525.0,527.0,513.0
545.0,515.0,529.0,526.0,505.0
545.0,510.0,525.0,524.0,490.0
496.0,496.0,514.0,519.0,491.0
483.0,496.0,514.0,519.0,507.0
495.0,499.0,512.0,512.0,573.0
508.0,509.0,513.0,501.0,570.0
526.0,513.0,522.0,510.0,525.0
536.0,515.0,525.0,512.0,495.0
529.0,511.0,516.0,509.0,500.0
522.0,509.0,500.0,499.0,517.0
501.0,504.0,489.0,499.0,517.0
503.0,508.0,479.0,507.0,512.0
500.0,504.0,486.0,506.0,529.0
502.0,494.0,496.0,499.0,522.0
505.0,494.0,504.0,498.0,514.0
516.0,500.0,517.0,486.0,509.0
518.0,502.0,515.0,504.0,499.0
512.0,508.0,528.0,540.0,519.0
513.0,506.0,527.0,534.0,535.0
520.0,502.0,532.0,525.0,519.0
527.0,507.0,553.0,520.0,517.0
525.0,507.0,546.0,516.0,526.0
512.0,507.0,475.0,513.0,511.0
522.0,513.0,472.0,510.0,485.0
519.0,517.0,487.0,515.0,493.0
517.0,507.0,512.0,516.0,518.0
517.0,503.0,529.0,499.0,516.0
511.0,510.0,539.0,499.0,506.0
508.0,510.0,520.0,493.0,505.0
509.0,506.0,520.0,502.0,515.0
504.0,498.0,518.0,507.0,523.0
501.0,497.0,501.0,510.0,509.0
512.0,504.0,542.0,523.0,501.0
511.0,504.0,535.0,522.0,508.0
519.0,513.0,560.0,540.0,504.0
506.0,504.0,519.0,526.0,533.0
505.0,506.0,517.0,514.0,521.0
508.0,506.0,519.0,517.0,525.0
516.0,505.0,511.0,518.0,511.0
524.0,509.0,519.0,525.0,492.0
533.0,517.0,524.0,522.0,488.0
532.0,516.0,516.0,514.0,479.0
522.0,515.0,509.0,511.0,502.0
507.0,511.0,504.0,504.0,537.0
506.0,506.0,499.0,499.0,528.0
504.0,503.0,496.0,513.0,524.0
502.0,500.0,496.0,512.0,528.0
499.0,502.0,509.0,517.0,512.0
508.0,510.0,518.0,530.0,493.0
510.0,507.0,518.0,530.0,509.0
514.0,507.0,515.0,534.0,505.0
513.0,504.0,509.0,528.0,541.0
519.0,502.0,513.0,525.0,524.0
513.0,504.0,518.0,513.0,495.0
516.0,508.0,522.0,513.0,520.0
517.0,514.0,524.0,518.0,536.0
522.0,518.0,532.0,522.0,525.0
521.0,521.0,545.0,529.0,525.0
531.0,525.0,543.0,526.0,517.0
526.0,515.0,527.0,522.0,513.0
507.0,505.0,484.0,493.0,496.0
497.0,500.0,490.0,491.0,499.0
492.0,498.0,494.0,489.0,529.0
505.0,504.0,500.0,504.0,522.0
506.0,501.0,508.0,509.0,497.0
510.0,505.0,514.0,516.0,522.0
511.0,503.0,512.0,516.0,535.0
515.0,501.0,519.0,525.0,522.0
509.0,500.0,517.0,527.0,503.0
499.0,498.0,513.0,518.0,520.0
503.0,501.0,520.0,517.0,525.0
512.0,508.0,518.0,518.0,507.0
527.0,512.0,518.0,518.0,507.0
540.0,512.0,524.0,516.0,504.0
519.0,520.0,522.0,518.0,502.0
501.0,520.0,519.0,506.0,491.0
499.0,517.0,516.0,509.0,489.0
485.0,514.0,515.0,508.0,506.0
465.0,506.0,507.0,500.0,580.0
467.0,502.0,505.0,504.0,583.0
456.0,494.0,498.0,494.0,548.0
498.0,495.0,503.0,508.0,509.0
511.0,503.0,517.0,519.0,518.0
514.0,508.0,525.0,531.0,516.0
496.0,503.0,523.0,525.0,550.0
502.0,496.0,512.0,522.0,546.0
519.0,498.0,513.0,516.0,537.0
540.0,500.0,511.0,514.0,501.0
571.0,505.0,517.0,516.0,464.0
566.0,519.0,528.0,522.0,479.0
546.0,519.0,524.0,520.0,484.0
534.0,519.0,519.0,511.0,490.0
508.0,513.0,513.0,502.0,505.0
508.0,514.0,510.0,504.0,490.0
506.0,509.0,509.0,501.0,496.0
495.0,500.0,500.0,500.0,505.0
492.0,497.0,502.0,505.0,516.0
494.0,498.0,509.0,507.0,521.0
489.0,500.0,514.0,519.0,509.0
506.0,503.0,515.0,514.0,521.0
551.0,509.0,513.0,525.0,490.0
544.0,508.0,504.0,530.0,477.0
528.0,508.0,504.0,531.0,495.0
518.0,510.0,501.0,539.0,500.0
511.0,504.0,514.0,534.0,521.0
498.0,500.0,514.0,520.0,536.0
503.0,508.0,523.0,507.0,508.0
509.0,515.0,534.0,508.0,501.0
505.0,513.0,522.0,505.0,501.0
497.0,510.0,518.0,493.0,522.0
515.0,507.0,511.0,495.0,522.0
546.0,513.0,513.0,506.0,508.0
541.0,513.0,515.0,503.0,515.0
528.0,505.0,512.0,504.0,517.0
525.0,506.0,511.0,518.0,519.0
533.0,510.0,517.0,520.0,518.0
530.0,507.0,516.0,523.0,530.0
521.0,510.0,519.0,526.0,534.0
515.0,503.0,519.0,529.0,528.0
517.0,503.0,522.0,513.0,507.0
518.0,506.0,527.0,518.0,516.0
523.0,508.0,532.0,517.0,515.0
520.0,513.0,525.0,509.0,527.0
531.0,518.0,514.0,510.0,526.0
529.0,515.0,482.0,502.0,519.0
527.0,513.0,517.0,505.0,505.0
516.0,512.0,549.0,517.0,493.0
511.0,514.0,520.0,505.0,502.0
511.0,509.0,495.0,487.0,519.0
506.0,511.0,482.0,484.0,528.0
504.0,502.0,483.0,517.0,518.0
503.0,497.0,514.0,530.0,513.0
504.0,497.0,529.0,526.0,508.0
511.0,504.0,523.0,525.0,510.0
510.0,511.0,521.0,540.0,520.0
516.0,504.0,521.0,537.0,520.0
515.0,501.0,518.0,526.0,521.0
512.0,505.0,517.0,524.0,512.0
522.0,508.0,518.0,521.0,511.0
517.0,509.0,515.0,514.0,511.0
522.0,514.0,517.0,516.0,504.0
520.0,514.0,518.0,514.0,500.0
512.0,513.0,512.0,512.0,502.0
503.0,506.0,506.0,504.0,504.0
494.0,503.0,503.0,506.0,510.0
495.0,504.0,504.0,501.0,516.0
510.0,504.0,504.0,505.0,517.0
514.0,505.0,508.0,513.0,514.0
509.0,504.0,510.0,514.0,523.0
518.0,503.0,513.0,521.0,522.0
517.0,506.0,520.0,525.0,520.0
508.0,506.0,521.0,527.0,512.0
498.0,500.0,516.0,524.0,518.0
493.0,499.0,514.0,517.0,529.0
486.0,501.0,514.0,516.0,523.0
490.0,499.0,516.0,517.0,520.0
508.0,507.0,520.0,519.0,514.0
520.0,514.0,522.0,519.0,504.0
503.0,516.0,514.0,512.0,506.0
480.0,515.0,512.0,507.0,513.0
488.0,506.0,511.0,508.0,512.0
496.0,506.0,506.0,510.0,507.0
481.0,498.0,500.0,497.0,505.0
469.0,494.0,502.0,506.0,508.0
470.0,494.0,504.0,508.0,522.0
484.0,500.0,516.0,512.0,533.0
510.0,503.0,517.0,522.0,537.0
550.0,510.0,523.0,527.0,529.0
529.0,504.0,523.0,523.0,534.0
506.0,500.0,514.0,516.0,543.0
529.0,507.0,515.0,519.0,523.0
544.0,509.0,520.0,519.0,513.0
538.0,510.0,520.0,519.0,486.0
522.0,513.0,523.0,517.0,495.0
505.0,515.0,522.0,515.0,513.0
506.0,514.0,516.0,509.0,504.0
510.0,509.0,509.0,503.0,498.0
515.0,506.0,503.0,501.0,500.0
501.0,499.0,499.0,497.0,509.0
506.0,500.0,500.0,496.0,512.0
511.0,502.0,504.0,512.0,525.0
522.0,505.0,512.0,517.0,542.0
518.0,509.0,520.0,526.0,542.0
511.0,509.0,521.0,526.0,531.0
525.0,506.0,517.0,522.0,521.0
508.0,499.0,514.0,521.0,502.0
512.0,503.0,516.0,524.0,481.0
547.0,514.0,519.0,523.0,494.0
543.0,510.0,518.0,517.0,503.0
542.0,512.0,519.0,514.0,521.0
547.0,517.0,522.0,518.0,512.0
539.0,522.0,521.0,515.0,504.0
518.0,520.0,518.0,516.0,497.0
508.0,514.0,511.0,510.0,499.0
484.0,505.0,505.0,504.0,477.0
481.0,502.0,502.0,502.0,489.0
479.0,499.0,502.0,501.0,501.0
470.0,496.0,503.0,508.0,537.0
468.0,496.0,509.0,510.0,534.0
496.0,504.0,514.0,518.0,511.0
529.0,508.0,521.0,523.0,501.0
544.0,512.0,522.0,527.0,507.0
541.0,507.0,520.0,521.0,510.0
535.0,509.0,520.0,522.0,513.0
530.0,507.0,518.0,518.0,513.0
536.0,511.0,517.0,519.0,509.0
547.0,515.0,519.0,516.0,509.0
552.0,517.0,519.0,520.0,498.0
544.0,516.0,518.0,516.0,496.0
543.0,515.0,514.0,513.0,500.0
534.0,513.0,508.0,509.0,495.0
527.0,510.0,506.0,512.0,499.0
514.0,506.0,501.0,507.0,511.0
511.0,500.0,502.0,506.0,515.0
514.0,501.0,507.0,511.0,515.0
523.0,503.0,511.0,513.0,516.0
525.0,504.0,517.0,517.0,518.0
528.0,507.0,521.0,520.0,518.0
522.0,506.0,522.0,520.0,523.0
520.0,503.0,520.0,520.0,520.0
519.0,505.0,519.0,525.0,513.0
523.0,506.0,520.0,528.0,503.0
524.0,504.0,517.0,526.0,503.0
524.0,509.0,521.0,527.0,503.0
522.0,509.0,520.0,527.0,501.0
521.0,510.0,516.0,517.0,501.0
513.0,503.0,511.0,508.0,498.0
507.0,502.0,512.0,506.0,504.0
505.0,506.0,505.0,498.0,509.0
503.0,511.0,505.0,497.0,512.0
505.0,503.0,507.0,501.0,517.0
509.0,498.0,513.0,508.0,520.0
515.0,500.0,516.0,510.0,522.0
513.0,500.0,519.0,512.0,520.0
515.0,486.0,521.0,513.0,523.0
513.0,478.0,518.0,515.0,524.0
509.0,474.0,512.0,509.0,527.0
513.0,484.0,513.0,514.0,519.0
517.0,485.0,512.0,517.0,514.0
517.0,486.0,515.0,517.0,509.0
521.0,503.0,521.0,521.0,501.0
522.0,520.0,514.0,519.0,498.0
516.0,517.0,504.0,510.0,503.0
510.0,511.0,496.0,503.0,503.0
505.0,515.0,495.0,497.0,512.0
498.0,512.0,501.0,495.0,516.0
500.0,522.0,515.0,497.0,523.0
509.0,528.0,519.0,509.0,520.0
512.0,516.0,521.0,514.0,525.0
516.0,516.0,524.0,517.0,517.0
516.0,515.0,523.0,522.0,518.0
525.0,517.0,527.0,521.0,526.0
519.0,514.0,524.0,521.0,523.0
516.0,514.0,524.0,527.0,519.0
517.0,513.0,522.0,522.0,517.0
516.0,513.0,521.0,522.0,512.0
522.0,518.0,522.0,521.0,506.0
522.0,524.0,526.0,526.0,507.0
521.0,526.0,522.0,516.0,506.0
521.0,519.0,517.0,512.0,509.0
508.0,514.0,511.0,509.0,516.0
501.0,510.0,508.0,504.0,506.0
488.0,504.0,506.0,502.0,512.0
495.0,501.0,504.0,507.0,522.0
501.0,504.0,510.0,511.0,515.0
506.0,507.0,513.0,519.0,520.0
514.0,508.0,523.0,526.0,524.0
516.0,504.0,518.0,525.0,520.0
526.0,504.0,516.0,521.0,519.0
517.0,503.0,516.0,521.0,518.0
512.0,502.0,515.0,521.0,517.0
507.0,503.0,514.0,515.0,523.0
511.0,507.0,516.0,514.0,515.0
520.0,514.0,524.0,518.0,504.0
526.0,517.0,516.0,517.0,493.0
518.0,516.0,517.0,515.0,498.0
498.0,506.0,508.0,503.0,506.0
491.0,502.0,502.0,500.0,515.0
477.0,498.0,500.0,498.0,522.0
469.0,497.0,498.0,502.0,522.0
462.0,496.0,504.0,506.0,529.0
485.0,500.0,511.0,516.0,518.0
517.0,502.0,517.0,524.0,507.0
514.0,504.0,518.0,522.0,514.0
519.0,505.0,522.0,526.0,514.0
537.0,508.0,523.0,530.0,512.0
534.0,505.0,519.0,524.0,517.0
521.0,501.0,518.0,519.0,521.0
527.0,514.0,526.0,523.0,515.0
529.0,516.0,524.0,520.0,509.0
529.0,515.0,522.0,518.0,501.0
515.0,518.0,519.0,515.0,502.0
494.0,509.0,513.0,505.0,502.0
476.0,504.0,509.0,500.0,518.0
507.0,505.0,504.0,497.0,515.0
541.0,502.0,505.0,498.0,505.0
547.0,500.0,502.0,504.0,509.0
527.0,503.0,508.0,511.0,510.0
523.0,501.0,511.0,516.0,515.0
536.0,507.0,517.0,530.0,520.0
531.0,506.0,523.0,529.0,521.0
522.0,505.0,522.0,525.0,519.0
546.0,504.0,517.0,521.0,525.0
550.0,507.0,525.0,520.0,519.0
541.0,508.0,520.0,522.0,517.0
536.0,508.0,521.0,518.0,516.0
534.0,514.0,522.0,518.0,512.0
539.0,518.0,521.0,518.0,505.0
531.0,520.0,521.0,516.0,506.0
526.0,516.0,517.0,511.0,501.0
520.0,512.0,510.0,506.0,506.0
515.0,506.0,504.0,500.0,511.0
508.0,503.0,501.0,505.0,512.0
511.0,503.0,503.0,507.0,517.0
512.0,502.0,509.0,515.0,514.0
517.0,504.0,516.0,522.0,513.0
519.0,503.0,519.0,527.0,510.0
524.0,506.0,524.0,526.0,508.0
521.0,506.0,521.0,526.0,507.0
515.0,501.0,519.0,522.0,520.0
511.0,505.0,519.0,519.0,531.0
521.0,511.0,519.0,523.0,516.0
523.0,513.0,518.0,520.0,511.0
525.0,513.0,521.0,517.0,508.0
522.0,518.0,522.0,517.0,507.0
519.0,516.0,518.0,513.0,502.0
516.0,511.0,513.0,507.0,504.0
508.0,507.0,504.0,502.0,511.0
507.0,503.0,500.0,502.0,517.0
506.0,500.0,503.0,501.0,522.0
507.0,500.0,504.0,507.0,525.0
505.0,501.0,510.0,517.0,524.0
506.0,503.0,515.0,524.0,516.0
513.0,507.0,519.0,526.0,512.0
516.0,504.0,523.0,526.0,513.0
519.0,503.0,519.0,522.0,518.0
509.0,502.0,517.0,521.0,522.0
510.0,502.0,515.0,519.0,516.0
515.0,507.0,518.0,522.0,513.0
520.0,511.0,516.0,518.0,511.0
521.0,513.0,520.0,522.0,504.0
521.0,513.0,519.0,511.0,496.0
518.0,513.0,513.0,512.0,494.0
516.0,508.0,512.0,505.0,501.0
503.0,504.0,505.0,502.0,513.0
499.0,500.0,501.0,500.0,517.0
502.0,501.0,504.0,508.0,518.0
503.0,501.0,507.0,509.0,521.0
511.0,502.0,515.0,520.0,518.0
518.0,506.0,519.0,530.0,513.0
517.0,506.0,523.0,530.0,516.0
517.0,504.0,522.0,526.0,518.0
508.0,501.0,515.0,525.0,527.0
512.0,507.0,518.0,524.0,522.0
512.0,506.0,520.0,521.0,521.0
513.0,510.0,517.0,516.0,516.0
520.0,508.0,520.0,518.0,510.0
527.0,511.0,520.0,515.0,506.0
524.0,517.0,519.0,509.0,500.0
518.0,514.0,516.0,506.0,502.0
510.0,510.0,511.0,500.0,509.0
502.0,508.0,511.0,501.0,520.0
499.0,502.0,501.0,507.0,528.0
499.0,500.0,502.0,507.0,529.0
508.0,504.0,507.0,515.0,521.0
515.0,505.0,517.0,521.0,523.0
522.0,508.0,519.0,526.0,520.0
523.0,504.0,521.0,527.0,515.0
523.0,504.0,519.0,524.0,514.0
520.0,502.0,516.0,521.0,513.0
515.0,501.0,514.0,521.0,506.0
520.0,504.0,517.0,519.0,506.0
521.0,508.0,518.0,521.0,509.0
527.0,508.0,519.0,517.0,508.0
530.0,519.0,523.0,516.0,501.0
524.0,515.0,522.0,511.0,498.0
522.0,509.0,511.0,506.0,512.0
513.0,508.0,507.0,503.0,519.0
505.0,505.0,506.0,502.0,523.0
505.0,500.0,507.0,502.0,524.0
504.0,499.0,504.0,509.0,522.0
505.0,499.0,508.0,513.0,514.0
513.0,504.0,517.0,521.0,511.0
514.0,506.0,520.0,529.0,516.0
517.0,506.0,523.0,526.0,510.0
514.0,506.0,520.0,522.0,513.0
512.0,502.0,516.0,524.0,517.0
516.0,508.0,518.0,523.0,514.0
517.0,509.0,519.0,518.0,514.0
514.0,512.0,519.0,516.0,507.0
535.0,519.0,522.0,516.0,497.0
530.0,518.0,519.0,513.0,498.0
523.0,516.0,512.0,508.0,499.0
510.0,508.0,507.0,504.0,509.0
505.0,507.0,507.0,501.0,506.0
498.0,501.0,501.0,499.0,509.0
496.0,496.0,503.0,502.0,518.0
503.0,503.0,505.0,511.0,524.0
510.0,501.0,511.0,517.0,529.0
516.0,506.0,520.0,521.0,528.0
521.0,507.0,523.0,525.0,527.0
511.0,504.0,519.0,528.0,526.0
510.0,503.0,516.0,524.0,516.0
515.0,507.0,519.0,523.0,508.0
519.0,509.0,520.0,522.0,516.0
521.0,509.0,518.0,519.0,515.0
518.0,510.0,516.0,515.0,513.0
515.0,513.0,517.0,511.0,503.0
514.0,511.0,518.0,511.0,464.0
509.0,512.0,510.0,507.0,469.0
498.0,505.0,505.0,503.0,481.0
500.0,503.0,503.0,499.0,499.0
498.0,501.0,499.0,499.0,541.0
505.0,501.0,506.0,505.0,532.0
514.0,501.0,509.0,509.0,524.0
520.0,504.0,515.0,521.0,518.0
539.0,508.0,522.0,524.0,515.0
531.0,506.0,522.0,526.0,521.0
530.0,506.0,521.0,521.0,521.0
524.0,504.0,518.0,522.0,521.0
526.0,507.0,521.0,520.0,522.0
520.0,507.0,521.0,520.0,521.0
522.0,508.0,520.0,519.0,519.0
527.0,511.0,520.0,517.0,512.0
523.0,515.0,521.0,513.0,511.0
527.0,515.0,517.0,509.0,512.0
518.0,512.0,514.0,506.0,509.0
508.0,509.0,512.0,504.0,509.0
509.0,507.0,504.0,503.0,509.0
503.0,502.0,503.0,502.0,511.0
506.0,501.0,505.0,510.0,515.0
517.0,504.0,511.0,517.0,521.0
520.0,503.0,517.0,519.0,518.0
522.0,504.0,520.0,522.0,519.0
515.0,503.0,519.0,528.0,521.0
513.0,502.0,521.0,522.0,512.0
518.0,506.0,518.0,521.0,513.0
520.0,504.0,517.0,520.0,512.0
523.0,508.0,519.0,518.0,511.0
526.0,516.0,521.0,519.0,509.0
531.0,517.0,524.0,517.0,503.0
529.0,518.0,520.0,511.0,500.0
521.0,514.0,513.0,510.0,504.0
510.0,512.0,509.0,506.0,509.0
510.0,510.0,505.0,502.0,505.0
505.0,506.0,501.0,501.0,512.0
499.0,500.0,501.0,509.0,519.0
500.0,501.0,504.0,509.0,523.0
502.0,502.0,512.0,515.0,526.0
519.0,505.0,519.0,522.0,521.0
520.0,508.0,523.0,530.0,522.0
519.0,508.0,524.0,527.0,521.0
516.0,504.0,517.0,523.0,525.0
513.0,509.0,521.0,521.0,525.0
518.0,506.0,519.0,520.0,523.0
519.0,513.0,518.0,517.0,513.0
522.0,513.0,521.0,515.0,504.0
523.0,513.0,516.0,513.0,494.0
522.0,516.0,515.0,510.0,500.0
519.0,513.0,509.0,508.0,501.0
508.0,511.0,504.0,501.0,504.0
503.0,506.0,502.0,502.0,510.0
499.0,503.0,499.0,499.0,512.0
500.0,501.0,502.0,504.0,518.0
507.0,501.0,509.0,511.0,525.0
517.0,508.0,513.0,521.0,522.0
520.0,505.0,517.0,519.0,519.0
516.0,506.0,521.0,522.0,522.0
521.0,503.0,519.0,519.0,520.0
513.0,501.0,515.0,517.0,513.0
516.0,504.0,517.0,519.0,515.0
514.0,507.0,519.0,518.0,510.0
517.0,511.0,521.0,517.0,509.0
515.0,512.0,521.0,517.0,505.0
519.0,519.0,519.0,518.0,495.0
518.0,516.0,516.0,513.0,496.0
515.0,515.0,509.0,507.0,500.0
512.0,508.0,509.0,505.0,505.0
503.0,503.0,506.0,500.0,514.0
501.0,503.0,501.0,501.0,517.0
503.0,500.0,506.0,509.0,519.0
506.0,503.0,507.0,517.0,521.0
514.0,507.0,518.0,520.0,525.0
517.0,506.0,518.0,526.0,531.0
515.0,506.0,523.0,526.0,535.0
515.0,504.0,521.0,523.0,534.0
515.0,503.0,516.0,520.0,526.0
518.0,504.0,516.0,517.0,511.0
520.0,501.0,516.0,518.0,509.0
519.0,509.0,517.0,517.0,504.0
523.0,515.0,520.0,518.0,501.0
524.0,517.0,518.0,515.0,498.0
519.0,515.0,515.0,510.0,488.0
514.0,510.0,508.0,504.0,495.0
509.0,501.0,503.0,500.0,497.0
504.0,500.0,499.0,500.0,512.0
500.0,499.0,502.0,503.0,519.0
505.0,495.0,505.0,508.0,525.0
510.0,501.0,511.0,515.0,525.0
511.0,504.0,519.0,522.0,529.0
512.0,506.0,526.0,526.0,527.0
509.0,508.0,521.0,527.0,526.0
512.0,503.0,521.0,524.0,522.0
519.0,505.0,519.0,523.0,511.0
522.0,510.0,519.0,522.0,504.0
523.0,509.0,518.0,520.0,504.0
526.0,513.0,523.0,519.0,499.0
527.0,516.0,520.0,518.0,498.0
524.0,517.0,517.0,517.0,500.0
518.0,513.0,511.0,509.0,504.0
512.0,509.0,509.0,505.0,504.0
506.0,508.0,501.0,496.0,508.0
500.0,502.0,502.0,502.0,514.0
503.0,499.0,503.0,507.0,519.0
507.0,503.0,509.0,511.0,519.0
508.0,503.0,521.0,521.0,517.0
517.0,506.0,521.0,526.0,515.0
522.0,503.0,521.0,527.0,511.0
517.0,504.0,521.0,527.0,516.0
510.0,503.0,517.0,522.0,526.0
509.0,504.0,520.0,521.0,524.0
518.0,509.0,519.0,519.0,517.0
514.0,509.0,514.0,518.0,511.0
512.0,515.0,522.0,515.0,512.0
516.0,516.0,518.0,514.0,506.0
515.0,516.0,514.0,511.0,507.0
512.0,516.0,510.0,508.0,504.0
500.0,506.0,501.0,498.0,509.0
511.0,505.0,497.0,497.0,513.0
504.0,499.0,499.0,498.0,517.0
508.0,501.0,504.0,505.0,518.0
510.0,503.0,509.0,513.0,520.0
513.0,506.0,515.0,519.0,519.0
519.0,504.0,520.0,524.0,520.0
523.0,506.0,522.0,524.0,519.0
519.0,505.0,522.0,524.0,517.0
518.0,503.0,518.0,519.0,523.0
516.0,509.0,519.0,520.0,520.0
517.0,509.0,519.0,519.0,517.0
520.0,515.0,518.0,517.0,510.0
521.0,517.0,520.0,517.0,507.0
527.0,525.0,522.0,515.0,504.0
524.0,518.0,514.0,510.0,510.0
514.0,510.0,506.0,503.0,508.0
514.0,506.0,505.0,501.0,509.0
505.0,501.0,499.0,501.0,510.0
508.0,500.0,501.0,503.0,513.0
509.0,501.0,507.0,512.0,518.0
517.0,505.0,515.0,517.0,521.0
516.0,504.0,517.0,521.0,515.0
512.0,505.0,522.0,526.0,511.0
515.0,505.0,522.0,527.0,515.0
513.0,506.0,520.0,527.0,518.0
510.0,504.0,518.0,521.0,517.0
514.0,506.0,515.0,520.0,514.0
523.0,509.0,518.0,522.0,512.0
521.0,513.0,521.0,519.0,507.0
531.0,518.0,524.0,518.0,500.0
522.0,516.0,519.0,513.0,500.0
517.0,519.0,514.0,508.0,501.0
510.0,509.0,510.0,504.0,506.0
505.0,505.0,503.0,501.0,513.0
503.0,501.0,502.0,502.0,516.0
502.0,506.0,504.0,505.0,519.0
509.0,501.0,509.0,512.0,519.0
513.0,502.0,513.0,518.0,519.0
515.0,504.0,521.0,524.0,519.0
514.0,506.0,523.0,530.0,518.0
517.0,505.0,522.0,525.0,519.0
513.0,502.0,521.0,522.0,521.0
519.0,506.0,521.0,521.0,524.0
521.0,503.0,519.0,522.0,519.0
524.0,510.0,519.0,520.0,515.0
528.0,516.0,523.0,519.0,510.0
526.0,517.0,522.0,519.0,505.0
515.0,517.0,517.0,512.0,504.0
504.0,510.0,510.0,506.0,508.0
502.0,507.0,511.0,503.0,504.0
496.0,504.0,502.0,498.0,504.0
492.0,498.0,500.0,500.0,511.0
505.0,499.0,503.0,505.0,506.0
507.0,499.0,508.0,511.0,509.0
514.0,503.0,516.0,520.0,515.0
514.0,504.0,520.0,523.0,519.0
521.0,507.0,524.0,528.0,519.0
521.0,504.0,520.0,523.0,519.0
515.0,503.0,522.0,520.0,526.0
513.0,505.0,519.0,520.0,524.0
518.0,507.0,517.0,519.0,503.0
524.0,509.0,518.0,517.0,494.0
530.0,516.0,521.0,516.0,489.0
528.0,518.0,519.0,517.0,483.0
521.0,513.0,513.0,508.0,504.0
508.0,507.0,504.0,501.0,520.0
502.0,506.0,501.0,499.0,512.0
498.0,501.0,506.0,500.0,515.0
498.0,502.0,503.0,505.0,513.0
503.0,501.0,507.0,509.0,512.0
506.0,500.0,509.0,516.0,510.0
510.0,502.0,516.0,521.0,518.0
519.0,505.0,524.0,525.0,518.0
519.0,505.0,526.0,527.0,519.0
514.0,506.0,518.0,522.0,520.0
518.0,504.0,520.0,521.0,519.0
516.0,507.0,519.0,519.0,516.0
520.0,510.0,521.0,519.0,508.0
522.0,517.0,524.0,520.0,505.0
526.0,516.0,522.0,518.0,499.0
522.0,520.0,518.0,511.0,498.0
518.0,518.0,513.0,510.0,502.0
511.0,511.0,506.0,500.0,506.0
507.0,506.0,505.0,503.0,507.0
502.0,502.0,502.0,502.0,517.0
507.0,500.0,503.0,505.0,520.0
509.0,501.0,511.0,513.0,524.0
512.0,504.0,517.0,523.0,524.0
513.0,504.0,519.0,526.0,520.0
517.0,506.0,523.0,531.0,515.0
517.0,502.0,522.0,525.0,514.0
517.0,504.0,517.0,518.0,518.0
514.0,508.0,517.0,520.0,517.0
518.0,507.0,516.0,519.0,517.0
520.0,512.0,518.0,516.0,517.0
523.0,518.0,522.0,518.0,508.0
524.0,517.0,520.0,515.0,508.0
518.0,515.0,515.0,510.0,505.0
513.0,513.0,514.0,507.0,503.0
510.0,508.0,507.0,502.0,506.0
504.0,503.0,501.0,499.0,512.0
499.0,501.0,501.0,503.0,515.0
504.0,502.0,504.0,506.0,513.0
508.0,503.0,507.0,512.0,515.0
512.0,505.0,520.0,521.0,512.0
517.0,506.0,522.0,525.0,513.0
515.0,507.0,521.0,527.0,517.0
517.0,507.0,521.0,526.0,515.0
514.0,505.0,520.0,521.0,517.0
515.0,506.0,522.0,522.0,513.0
518.0,507.0,518.0,522.0,516.0
518.0,511.0,517.0,515.0,518.0
522.0,513.0,517.0,513.0,513.0
520.0,518.0,521.0,518.0,505.0
515.0,514.0,515.0,513.0,502.0
516.0,506.0,510.0,506.0,504.0
511.0,506.0,504.0,501.0,512.0
501.0,502.0,502.0,500.0,514.0
502.0,500.0,501.0,503.0,517.0
506.0,501.0,508.0,511.0,518.0
511.0,503.0,517.0,518.0,519.0
511.0,504.0,519.0,521.0,520.0
509.0,500.0,521.0,524.0,525.0
515.0,507.0,527.0,529.0,520.0
510.0,505.0,520.0,525.0,519.0
512.0,505.0,521.0,524.0,522.0
513.0,505.0,519.0,520.0,518.0
513.0,506.0,515.0,516.0,514.0
518.0,508.0,517.0,516.0,508.0
523.0,514.0,517.0,513.0,504.0
525.0,520.0,517.0,515.0,500.0
518.0,514.0,512.0,509.0,504.0
509.0,508.0,503.0,499.0,512.0
499.0,504.0,503.0,499.0,516.0
492.0,500.0,499.0,501.0,517.0
496.0,499.0,502.0,505.0,513.0
507.0,502.0,507.0,513.0,520.0
516.0,504.0,518.0,517.0,526.0
519.0,508.0,515.0,522.0,526.0
520.0,507.0,521.0,529.0,528.0
521.0,506.0,522.0,525.0,524.0
519.0,504.0,520.0,525.0,509.0
519.0,507.0,519.0,522.0,505.0
518.0,508.0,519.0,521.0,508.0
515.0,510.0,520.0,518.0,510.0
518.0,514.0,523.0,520.0,499.0
529.0,517.0,520.0,516.0,487.0
525.0,515.0,516.0,513.0,490.0
514.0,512.0,511.0,507.0,495.0
507.0,507.0,505.0,504.0,502.0
499.0,506.0,503.0,500.0,510.0
503.0,502.0,501.0,500.0,517.0
508.0,500.0,503.0,504.0,520.0
513.0,503.0,512.0,518.0,521.0
510.0,505.0,519.0,524.0,526.0
519.0,508.0,524.0,529.0,522.0
520.0,507.0,523.0,527.0,523.0
520.0,506.0,526.0,528.0,518.0
515.0,501.0,516.0,522.0,518.0
513.0,502.0,515.0,519.0,514.0
511.0,506.0,522.0,517.0,517.0
520.0,512.0,520.0,518.0,515.0
522.0,516.0,521.0,524.0,507.0
523.0,517.0,519.0,516.0,501.0
517.0,517.0,514.0,512.0,500.0
511.0,511.0,510.0,506.0,505.0
507.0,507.0,505.0,502.0,513.0
503.0,503.0,499.0,499.0,513.0
504.0,501.0,501.0,502.0,519.0
506.0,500.0,505.0,512.0,524.0
512.0,502.0,513.0,516.0,524.0
519.0,504.0,516.0,521.0,515.0
517.0,505.0,522.0,528.0,507.0
518.0,507.0,521.0,527.0,511.0
513.0,502.0,519.0,524.0,514.0
515.0,506.0,518.0,524.0,518.0
514.0,505.0,518.0,520.0,520.0
516.0,509.0,518.0,521.0,520.0
521.0,513.0,519.0,517.0,514.0
530.0,519.0,521.0,519.0,505.0
525.0,516.0,513.0,512.0,504.0
518.0,514.0,511.0,508.0,499.0
511.0,502.0,505.0,503.0,500.0
505.0,504.0,502.0,504.0,505.0
504.0,499.0,498.0,498.0,509.0
503.0,498.0,496.0,502.0,515.0
506.0,498.0,506.0,510.0,522.0
509.0,503.0,513.0,518.0,518.0
513.0,506.0,519.0,523.0,519.0
517.0,507.0,523.0,526.0,519.0
517.0,508.0,520.0,526.0,518.0
515.0,506.0,516.0,523.0,520.0
511.0,505.0,518.0,520.0,521.0
515.0,505.0,516.0,517.0,517.0
522.0,510.0,520.0,515.0,513.0
526.0,513.0,517.0,514.0,510.0
521.0,517.0,518.0,512.0,508.0
515.0,516.0,514.0,513.0,503.0
512.0,517.0,513.0,508.0,503.0
508.0,510.0,507.0,503.0,504.0
505.0,506.0,501.0,504.0,509.0
502.0,505.0,500.0,502.0,514.0
500.0,501.0,504.0,507.0,521.0
506.0,503.0,513.0,516.0,521.0
516.0,506.0,521.0,522.0,515.0
516.0,510.0,526.0,526.0,513.0
516.0,508.0,523.0,525.0,522.0
513.0,504.0,521.0,526.0,520.0
512.0,503.0,517.0,523.0,520.0
517.0,506.0,519.0,515.0,523.0
519.0,512.0,518.0,516.0,518.0
524.0,513.0,524.0,516.0,516.0
528.0,515.0,521.0,517.0,507.0
527.0,518.0,521.0,515.0,503.0
520.0,515.0,517.0,507.0,503.0
512.0,513.0,508.0,503.0,506.0
506.0,507.0,504.0,502.0,510.0
505.0,504.0,502.0,499.0,514.0
501.0,502.0,501.0,502.0,519.0
506.0,502.0,508.0,507.0,519.0
511.0,503.0,514.0,517.0,518.0
518.0,505.0,519.0,526.0,517.0
516.0,504.0,522.0,525.0,520.0
518.0,504.0,524.0,527.0,523.0
515.0,504.0,519.0,521.0,525.0
518.0,504.0,520.0,523.0,522.0
518.0,505.0,519.0,517.0,518.0
522.0,510.0,518.0,515.0,515.0
523.0,512.0,520.0,521.0,507.0
527.0,520.0,523.0,517.0,498.0
523.0,516.0,519.0,513.0,497.0
516.0,513.0,513.0,509.0,502.0
512.0,507.0,506.0,503.0,506.0
504.0,506.0,504.0,502.0,515.0
501.0,499.0,503.0,499.0,521.0
500.0,500.0,502.0,503.0,511.0
507.0,503.0,509.0,510.0,513.0
516.0,507.0,516.0,519.0,515.0
517.0,505.0,517.0,525.0,516.0
522.0,509.0,525.0,528.0,521.0
522.0,507.0,524.0,527.0,527.0
519.0,504.0,519.0,522.0,524.0
520.0,506.0,519.0,521.0,524.0
524.0,511.0,521.0,518.0,524.0
525.0,509.0,517.0,516.0,520.0
530.0,516.0,521.0,517.0,506.0
525.0,518.0,522.0,516.0,508.0
518.0,518.0,516.0,511.0,502.0
515.0,512.0,509.0,507.0,508.0
504.0,506.0,505.0,502.0,509.0
501.0,503.0,499.0,499.0,509.0
499.0,499.0,499.0,503.0,509.0
498.0,493.0,501.0,505.0,513.0
504.0,505.0,509.0,512.0,513.0
514.0,504.0,519.0,522.0,507.0
517.0,503.0,518.0,524.0,503.0
522.0,504.0,520.0,524.0,514.0
517.0,505.0,521.0,523.0,516.0
516.0,504.0,516.0,515.0,526.0
517.0,504.0,516.0,518.0,540.0
522.0,510.0,516.0,520.0,523.0
520.0,511.0,517.0,517.0,514.0
527.0,513.0,516.0,516.0,505.0
521.0,515.0,519.0,517.0,499.0
518.0,516.0,512.0,511.0,494.0
513.0,509.0,507.0,506.0,496.0
506.0,506.0,507.0,503.0,504.0
501.0,507.0,501.0,499.0,511.0
495.0,499.0,505.0,504.0,517.0
498.0,498.0,506.0,511.0,513.0
508.0,501.0,512.0,517.0,517.0
508.0,505.0,518.0,522.0,511.0
512.0,507.0,524.0,528.0,516.0
516.0,504.0,522.0,526.0,512.0
517.0,504.0,519.0,524.0,517.0
521.0,505.0,520.0,521.0,515.0
521.0,506.0,520.0,521.0,515.0
524.0,508.0,516.0,518.0,511.0
526.0,513.0,520.0,515.0,509.0
527.0,516.0,521.0,517.0,500.0
526.0,518.0,518.0,513.0,497.0
519.0,515.0,513.0,508.0,501.0
516.0,509.0,507.0,502.0,510.0
507.0,506.0,503.0,502.0,508.0
504.0,496.0,500.0,501.0,514.0
503.0,498.0,502.0,503.0,520.0
506.0,499.0,508.0,511.0,519.0
514.0,503.0,515.0,519.0,519.0
514.0,504.0,519.0,522.0,517.0
515.0,505.0,523.0,528.0,519.0
519.0,505.0,525.0,528.0,519.0
512.0,503.0,518.0,522.0,521.0
520.0,507.0,521.0,522.0,518.0
518.0,510.0,517.0,520.0,513.0
523.0,509.0,515.0,518.0,509.0
527.0,515.0,521.0,517.0,502.0
530.0,519.0,522.0,517.0,502.0
529.0,519.0,519.0,510.0,500.0
522.0,514.0,510.0,508.0,504.0
513.0,509.0,504.0,504.0,508.0
508.0,505.0,501.0,500.0,514.0
498.0,503.0,506.0,502.0,511.0
501.0,501.0,500.0,508.0,514.0
507.0,504.0,511.0,514.0,517.0
511.0,505.0,518.0,522.0,520.0
514.0,505.0,520.0,529.0,511.0
512.0,505.0,523.0,531.0,514.0
512.0,504.0,525.0,527.0,523.0
514.0,502.0,518.0,521.0,522.0
514.0,503.0,517.0,518.0,518.0
514.0,510.0,519.0,522.0,516.0
516.0,509.0,518.0,518.0,510.0
522.0,515.0,527.0,519.0,503.0
519.0,516.0,518.0,517.0,498.0
521.0,514.0,513.0,507.0,500.0
509.0,510.0,507.0,504.0,505.0
509.0,508.0,506.0,503.0,507.0
501.0,503.0,501.0,505.0,511.0
499.0,499.0,500.0,499.0,521.0
504.0,499.0,504.0,505.0,522.0
506.0,507.0,511.0,515.0,523.0
516.0,504.0,515.0,521.0,520.0
515.0,505.0,522.0,529.0,520.0
514.0,502.0,521.0,524.0,517.0
512.0,501.0,517.0,526.0,520.0
514.0,501.0,515.0,516.0,517.0
517.0,505.0,518.0,521.0,514.0
520.0,512.0,519.0,523.0,509.0
520.0,515.0,523.0,521.0,508.0
523.0,515.0,519.0,515.0,506.0
519.0,516.0,522.0,512.0,506.0
521.0,516.0,514.0,511.0,505.0
511.0,512.0,508.0,503.0,507.0
507.0,508.0,507.0,502.0,510.0
501.0,504.0,500.0,500.0,513.0
504.0,499.0,502.0,504.0,520.0
507.0,502.0,508.0,511.0,523.0
511.0,502.0,517.0,520.0,522.0
516.0,508.0,520.0,528.0,521.0
519.0,506.0,522.0,527.0,517.0
516.0,506.0,523.0,527.0,519.0
513.0,503.0,519.0,523.0,512.0
518.0,506.0,521.0,524.0,509.0
519.0,508.0,518.0,520.0,510.0
518.0,509.0,518.0,517.0,509.0
525.0,515.0,519.0,516.0,508.0
526.0,516.0,520.0,514.0,505.0
521.0,516.0,516.0,512.0,504.0
517.0,513.0,511.0,504.0,506.0
509.0,508.0,503.0,501.0,510.0
506.0,504.0,501.0,499.0,512.0
501.0,502.0,504.0,501.0,516.0
503.0,502.0,505.0,507.0,515.0
507.0,501.0,510.0,519.0,519.0
515.0,506.0,517.0,521.0,521.0
517.0,504.0,520.0,525.0,524.0
515.0,504.0,521.0,525.0,526.0
514.0,504.0,520.0,525.0,519.0
512.0,504.0,519.0,523.0,526.0
516.0,507.0,516.0,523.0,525.0
516.0,514.0,521.0,521.0,526.0
517.0,510.0,517.0,520.0,520.0
517.0,515.0,520.0,516.0,519.0
521.0,517.0,521.0,516.0,508.0
515.0,520.0,516.0,508.0,501.0
513.0,511.0,508.0,507.0,485.0
515.0,508.0,503.0,503.0,492.0
507.0,504.0,500.0,499.0,500.0
503.0,500.0,499.0,501.0,507.0
506.0,500.0,504.0,506.0,521.0
510.0,503.0,512.0,518.0,518.0
514.0,504.0,516.0,522.0,516.0
515.0,504.0,520.0,528.0,516.0
517.0,506.0,521.0,526.0,512.0
515.0,503.0,518.0,523.0,517.0
517.0,503.0,518.0,520.0,522.0
518.0,507.0,522.0,520.0,520.0
519.0,507.0,517.0,515.0,514.0
517.0,510.0,522.0,515.0,513.0
518.0,515.0,519.0,516.0,509.0
517.0,514.0,516.0,510.0,508.0
517.0,518.0,513.0,510.0,505.0
510.0,511.0,506.0,503.0,510.0
501.0,505.0,502.0,499.0,516.0
496.0,501.0,498.0,501.0,512.0
494.0,498.0,499.0,507.0,510.0
504.0,505.0,506.0,516.0,516.0
510.0,505.0,516.0,520.0,515.0
516.0,503.0,517.0,523.0,520.0
517.0,503.0,520.0,524.0,519.0
517.0,505.0,521.0,530.0,522.0
518.0,504.0,518.0,526.0,519.0
520.0,506.0,519.0,522.0,520.0
516.0,507.0,520.0,521.0,512.0
516.0,509.0,518.0,523.0,509.0
521.0,511.0,520.0,520.0,505.0
522.0,516.0,520.0,519.0,502.0
518.0,515.0,515.0,517.0,502.0
516.0,513.0,510.0,509.0,503.0
507.0,510.0,507.0,507.0,508.0
504.0,507.0,507.0,504.0,510.0
501.0,498.0,503.0,504.0,514.0
499.0,499.0,504.0,505.0,520.0
507.0,501.0,512.0,513.0,523.0
513.0,503.0,516.0,524.0,519.0
518.0,505.0,524.0,523.0,521.0
518.0,504.0,523.0,525.0,523.0
515.0,506.0,524.0,525.0,526.0
518.0,506.0,519.0,523.0,525.0
518.0,505.0,519.0,521.0,523.0
522.0,509.0,520.0,519.0,518.0
521.0,512.0,519.0,520.0,512.0
525.0,515.0,517.0,516.0,506.0
529.0,518.0,520.0,514.0,504.0
516.0,511.0,516.0,510.0,503.0
511.0,513.0,510.0,505.0,501.0
508.0,507.0,505.0,503.0,503.0
499.0,502.0,500.0,499.0,509.0
503.0,500.0,501.0,500.0,516.0
500.0,500.0,506.0,508.0,521.0
512.0,503.0,517.0,518.0,520.0
514.0,504.0,517.0,523.0,520.0
515.0,506.0,526.0,527.0,522.0
521.0,505.0,521.0,526.0,520.0
518.0,502.0,515.0,522.0,521.0
518.0,504.0,517.0,520.0,528.0
521.0,506.0,517.0,519.0,520.0
523.0,511.0,520.0,519.0,516.0
528.0,513.0,520.0,521.0,504.0
530.0,516.0,523.0,521.0,501.0
521.0,516.0,516.0,513.0,502.0
514.0,518.0,512.0,503.0,498.0
506.0,510.0,505.0,503.0,500.0
501.0,508.0,501.0,502.0,503.0
498.0,501.0,502.0,500.0,512.0
498.0,500.0,500.0,505.0,523.0
505.0,504.0,506.0,515.0,523.0
512.0,504.0,514.0,519.0,520.0
515.0,504.0,518.0,523.0,520.0
519.0,507.0,525.0,528.0,521.0
521.0,506.0,527.0,525.0,524.0
515.0,501.0,515.0,518.0,525.0
514.0,505.0,520.0,522.0,526.0
509.0,507.0,515.0,515.0,523.0
509.0,507.0,515.0,516.0,520.0
514.0,514.0,521.0,518.0,501.0
521.0,515.0,520.0,518.0,509.0
518.0,517.0,520.0,512.0,504.0
517.0,515.0,511.0,506.0,510.0
505.0,507.0,503.0,502.0,516.0
502.0,505.0,505.0,501.0,517.0
501.0,502.0,503.0,502.0,519.0
496.0,497.0,501.0,502.0,522.0
504.0,501.0,506.0,511.0,515.0
516.0,505.0,514.0,518.0,515.0
517.0,507.0,521.0,526.0,515.0
518.0,506.0,521.0,527.0,516.0
517.0,505.0,521.0,526.0,522.0
517.0,504.0,518.0,521.0,522.0
516.0,504.0,518.0,520.0,517.0
521.0,508.0,520.0,516.0,517.0
524.0,507.0,519.0,520.0,514.0
524.0,515.0,524.0,517.0,505.0
522.0,515.0,519.0,516.0,500.0
518.0,515.0,510.0,510.0,500.0
513.0,514.0,512.0,507.0,503.0
510.0,506.0,504.0,504.0,508.0
502.0,503.0,502.0,500.0,512.0
501.0,506.0,502.0,507.0,516.0
507.0,502.0,506.0,512.0,519.0
509.0,503.0,512.0,517.0,521.0
514.0,506.0,520.0,524.0,520.0
517.0,506.0,524.0,528.0,524.0
518.0,509.0,525.0,528.0,530.0
515.0,506.0,521.0,527.0,533.0
513.0,506.0,519.0,524.0,531.0
514.0,509.0,520.0,525.0,522.0
516.0,508.0,514.0,519.0,511.0
523.0,512.0,518.0,518.0,499.0
525.0,516.0,517.0,517.0,487.0
523.0,518.0,521.0,511.0,495.0
523.0,516.0,510.0,507.0,499.0
510.0,508.0,505.0,502.0,512.0
510.0,506.0,502.0,502.0,512.0
502.0,501.0,497.0,499.0,513.0
501.0,499.0,500.0,503.0,516.0
503.0,502.0,505.0,511.0,518.0
509.0,508.0,514.0,515.0,515.0
512.0,507.0,519.0,523.0,516.0
514.0,507.0,522.0,525.0,516.0
516.0,506.0,520.0,524.0,523.0
522.0,504.0,518.0,522.0,520.0
518.0,505.0,522.0,520.0,517.0
516.0,509.0,517.0,525.0,517.0
517.0,510.0,516.0,517.0,512.0
526.0,518.0,520.0,518.0,503.0
528.0,519.0,522.0,519.0,499.0
525.0,517.0,515.0,512.0,501.0
520.0,513.0,510.0,506.0,504.0
519.0,511.0,508.0,501.0,511.0
507.0,506.0,501.0,501.0,515.0
506.0,505.0,501.0,505.0,514.0
507.0,500.0,507.0,505.0,513.0
514.0,504.0,509.0,514.0,513.0
521.0,507.0,518.0,523.0,515.0
513.0,503.0,518.0,525.0,521.0
515.0,505.0,519.0,525.0,524.0
512.0,500.0,516.0,517.0,528.0
510.0,498.0,511.0,516.0,522.0
515.0,506.0,517.0,520.0,520.0
516.0,508.0,515.0,521.0,515.0
515.0,509.0,518.0,517.0,512.0
518.0,512.0,517.0,514.0,509.0
523.0,520.0,519.0,516.0,502.0
520.0,516.0,514.0,510.0,502.0
508.0,509.0,511.0,503.0,509.0
501.0,504.0,500.0,500.0,513.0
499.0,500.0,497.0,498.0,519.0
509.0,496.0,501.0,503.0,519.0
509.0,502.0,507.0,509.0,520.0
514.0,501.0,512.0,516.0,523.0
517.0,503.0,516.0,522.0,521.0
518.0,508.0,526.0,526.0,522.0
519.0,505.0,521.0,525.0,521.0
511.0,502.0,520.0,524.0,515.0
516.0,506.0,521.0,524.0,510.0
520.0,506.0,519.0,522.0,517.0
521.0,509.0,521.0,518.0,514.0
520.0,512.0,523.0,518.0,510.0
525.0,517.0,522.0,520.0,507.0
520.0,517.0,518.0,517.0,503.0
515.0,516.0,510.0,511.0,505.0
512.0,511.0,511.0,503.0,507.0
510.0,508.0,507.0,503.0,505.0
502.0,502.0,501.0,498.0,513.0
501.0,502.0,501.0,495.0,518.0
506.0,505.0,507.0,509.0,518.0
516.0,503.0,517.0,515.0,519.0
518.0,502.0,519.0,522.0,524.0
519.0,508.0,522.0,527.0,520.0
516.0,503.0,522.0,525.0,522.0
515.0,508.0,520.0,522.0,524.0
515.0,504.0,519.0,520.0,523.0
518.0,508.0,524.0,520.0,520.0
518.0,508.0,519.0,521.0,518.0
524.0,514.0,526.0,518.0,509.0
528.0,518.0,524.0,519.0,504.0
521.0,515.0,515.0,509.0,501.0
516.0,510.0,510.0,504.0,498.0
509.0,504.0,505.0,500.0,507.0
505.0,502.0,505.0,499.0,514.0
502.0,501.0,502.0,501.0,517.0
500.0,499.0,505.0,507.0,521.0
505.0,502.0,514.0,513.0,520.0
512.0,506.0,518.0,520.0,516.0
515.0,505.0,520.0,523.0,524.0
520.0,507.0,526.0,526.0,518.0
516.0,504.0,524.0,528.0,524.0
517.0,497.0,519.0,522.0,522.0
517.0,505.0,517.0,520.0,516.0
520.0,508.0,521.0,519.0,509.0
521.0,512.0,520.0,517.0,508.0
522.0,510.0,521.0,517.0,501.0
528.0,519.0,519.0,515.0,499.0
520.0,514.0,516.0,509.0,502.0
517.0,515.0,510.0,505.0,505.0
509.0,508.0,507.0,498.0,508.0
504.0,502.0,499.0,499.0,520.0
501.0,501.0,500.0,503.0,523.0
504.0,503.0,506.0,508.0,520.0
511.0,502.0,511.0,514.0,507.0
514.0,502.0,515.0,524.0,509.0
518.0,506.0,521.0,522.0,513.0
523.0,505.0,522.0,524.0,517.0
515.0,501.0,516.0,519.0,529.0
509.0,505.0,517.0,520.0,535.0
514.0,506.0,519.0,519.0,519.0
518.0,507.0,520.0,518.0,514.0
519.0,512.0,521.0,518.0,501.0
519.0,513.0,520.0,516.0,503.0
522.0,517.0,514.0,510.0,504.0
515.0,512.0,512.0,505.0,504.0
513.0,512.0,506.0,504.0,509.0
506.0,505.0,504.0,503.0,513.0
499.0,502.0,503.0,502.0,514.0
503.0,500.0,502.0,506.0,517.0
509.0,501.0,510.0,512.0,521.0
516.0,505.0,515.0,519.0,516.0
515.0,505.0,518.0,524.0,521.0
521.0,508.0,527.0,528.0,525.0
520.0,507.0,524.0,528.0,516.0
517.0,498.0,518.0,522.0,524.0
516.0,506.0,519.0,521.0,526.0
519.0,505.0,518.0,519.0,515.0
519.0,507.0,516.0,517.0,505.0
527.0,514.0,521.0,513.0,500.0
524.0,516.0,520.0,521.0,498.0
524.0,520.0,517.0,516.0,495.0
517.0,515.0,509.0,507.0,500.0
512.0,508.0,505.0,505.0,507.0
505.0,504.0,501.0,498.0,509.0
503.0,500.0,498.0,499.0,516.0
501.0,499.0,505.0,505.0,514.0
511.0,503.0,509.0,517.0,518.0
513.0,504.0,519.0,522.0,519.0
519.0,504.0,520.0,525.0,520.0
519.0,504.0,520.0,523.0,521.0
517.0,503.0,521.0,526.0,521.0
515.0,501.0,517.0,522.0,520.0
515.0,504.0,519.0,519.0,516.0
516.0,506.0,519.0,519.0,514.0
517.0,508.0,518.0,518.0,511.0
520.0,515.0,521.0,518.0,504.0
527.0,514.0,520.0,514.0,501.0
518.0,517.0,517.0,515.0,500.0
514.0,513.0,514.0,507.0,504.0
509.0,508.0,505.0,503.0,510.0
508.0,504.0,503.0,500.0,511.0
504.0,501.0,502.0,504.0,512.0
507.0,501.0,506.0,509.0,514.0
510.0,505.0,511.0,517.0,517.0
516.0,506.0,519.0,523.0,519.0
518.0,506.0,520.0,525.0,520.0
517.0,506.0,524.0,528.0,521.0
516.0,503.0,519.0,522.0,520.0
513.0,502.0,516.0,523.0,519.0
519.0,505.0,517.0,519.0,513.0
526.0,509.0,518.0,518.0,510.0
524.0,513.0,519.0,517.0,506.0
528.0,513.0,519.0,516.0,504.0
523.0,516.0,517.0,514.0,501.0
519.0,515.0,513.0,510.0,502.0
514.0,513.0,506.0,505.0,505.0
504.0,505.0,502.0,501.0,509.0
500.0,504.0,502.0,501.0,511.0
502.0,501.0,506.0,504.0,516.0
501.0,500.0,511.0,510.0,518.0
510.0,503.0,512.0,517.0,524.0
510.0,502.0,518.0,524.0,521.0
513.0,505.0,522.0,529.0,525.0
516.0,503.0,520.0,522.0,526.0
509.0,497.0,514.0,520.0,527.0
518.0,500.0,516.0,519.0,518.0
524.0,508.0,520.0,522.0,513.0
520.0,508.0,516.0,518.0,512.0
514.0,511.0,517.0,518.0,509.0
514.0,512.0,519.0,513.0,503.0
520.0,515.0,515.0,510.0,501.0
517.0,512.0,510.0,507.0,505.0
511.0,507.0,507.0,502.0,509.0
508.0,506.0,501.0,498.0,507.0
505.0,500.0,499.0,502.0,507.0
502.0,498.0,502.0,506.0,513.0
512.0,502.0,509.0,514.0,514.0
516.0,503.0,515.0,520.0,518.0
518.0,504.0,522.0,524.0,519.0
515.0,503.0,516.0,525.0,524.0
514.0,510.0,523.0,527.0,519.0
514.0,502.0,520.0,521.0,521.0
518.0,507.0,523.0,522.0,522.0
515.0,508.0,519.0,522.0,517.0
517.0,512.0,520.0,518.0,513.0
523.0,515.0,523.0,517.0,511.0
522.0,515.0,519.0,514.0,499.0
524.0,516.0,516.0,510.0,493.0
515.0,511.0,507.0,504.0,497.0
507.0,508.0,506.0,504.0,505.0
502.0,505.0,502.0,500.0,510.0
501.0,501.0,505.0,505.0,514.0
505.0,502.0,506.0,511.0,511.0
506.0,504.0,512.0,516.0,512.0
516.0,502.0,517.0,525.0,514.0
515.0,513.0,522.0,527.0,518.0
515.0,506.0,520.0,525.0,518.0
514.0,506.0,521.0,523.0,520.0
517.0,501.0,518.0,521.0,527.0
514.0,506.0,517.0,520.0,520.0
523.0,509.0,518.0,518.0,517.0
520.0,518.0,522.0,520.0,511.0
523.0,520.0,520.0,517.0,504.0
522.0,520.0,518.0,514.0,503.0
517.0,515.0,513.0,508.0,500.0
507.0,510.0,507.0,501.0,491.0
509.0,507.0,502.0,500.0,489.0
504.0,505.0,500.0,499.0,493.0
509.0,504.0,502.0,505.0,496.0
507.0,498.0,508.0,512.0,516.0
510.0,508.0,514.0,517.0,544.0
512.0,505.0,519.0,522.0,536.0
520.0,508.0,523.0,526.0,522.0
515.0,505.0,522.0,526.0,526.0
514.0,505.0,520.0,524.0,524.0
513.0,503.0,519.0,521.0,524.0
515.0,511.0,519.0,518.0,518.0
516.0,511.0,519.0,522.0,517.0
520.0,513.0,521.0,520.0,512.0
524.0,516.0,521.0,517.0,500.0
520.0,517.0,516.0,515.0,505.0
513.0,512.0,510.0,504.0,510.0
506.0,506.0,503.0,501.0,499.0
500.0,503.0,500.0,501.0,507.0
501.0,501.0,500.0,501.0,507.0
503.0,500.0,503.0,505.0,512.0
505.0,502.0,509.0,515.0,512.0
511.0,504.0,515.0,519.0,515.0
513.0,505.0,520.0,531.0,515.0
519.0,506.0,523.0,527.0,515.0
513.0,504.0,523.0,524.0,522.0
511.0,503.0,520.0,519.0,518.0
512.0,503.0,516.0,517.0,522.0
518.0,508.0,521.0,517.0,522.0
518.0,510.0,519.0,522.0,519.0
522.0,513.0,521.0,517.0,506.0
526.0,517.0,520.0,515.0,499.0
517.0,514.0,514.0,509.0,504.0
512.0,508.0,509.0,508.0,506.0
505.0,509.0,509.0,504.0,509.0
502.0,502.0,503.0,502.0,508.0
501.0,501.0,504.0,503.0,512.0
504.0,499.0,506.0,509.0,523.0
511.0,498.0,512.0,517.0,520.0
519.0,505.0,521.0,523.0,517.0
518.0,505.0,522.0,525.0,521.0
520.0,507.0,523.0,529.0,519.0
521.0,505.0,521.0,523.0,520.0
518.0,505.0,520.0,525.0,522.0
514.0,503.0,518.0,519.0,520.0
519.0,508.0,519.0,518.0,514.0
520.0,513.0,525.0,518.0,509.0
525.0,516.0,521.0,515.0,502.0
525.0,516.0,520.0,513.0,499.0
519.0,519.0,514.0,511.0,499.0
516.0,509.0,507.0,504.0,505.0
508.0,505.0,504.0,502.0,510.0
505.0,501.0,501.0,498.0,514.0
505.0,500.0,502.0,503.0,513.0
509.0,503.0,511.0,511.0,517.0
512.0,505.0,519.0,522.0,516.0
514.0,504.0,519.0,527.0,518.0
512.0,503.0,523.0,525.0,525.0
507.0,503.0,523.0,523.0,521.0
509.0,503.0,521.0,520.0,525.0
515.0,504.0,520.0,521.0,522.0
517.0,508.0,518.0,519.0,520.0
519.0,507.0,518.0,515.0,515.0
523.0,514.0,522.0,519.0,511.0
524.0,519.0,523.0,517.0,503.0
523.0,518.0,520.0,512.0,503.0
515.0,514.0,514.0,505.0,501.0
510.0,510.0,507.0,504.0,502.0
505.0,504.0,505.0,501.0,511.0
499.0,501.0,502.0,502.0,522.0
499.0,499.0,503.0,506.0,521.0
508.0,502.0,510.0,515.0,522.0
510.0,505.0,519.0,520.0,521.0
517.0,504.0,522.0,522.0,515.0
518.0,506.0,521.0,530.0,516.0
521.0,505.0,521.0,523.0,519.0
518.0,502.0,517.0,520.0,519.0
517.0,507.0,518.0,520.0,516.0
517.0,508.0,520.0,519.0,514.0
519.0,509.0,516.0,520.0,509.0
523.0,513.0,519.0,514.0,502.0
527.0,514.0,518.0,514.0,500.0
520.0,516.0,516.0,509.0,501.0
512.0,513.0,510.0,509.0,510.0
504.0,508.0,506.0,501.0,517.0
495.0,502.0,499.0,494.0,523.0
496.0,504.0,500.0,502.0,523.0
500.0,501.0,509.0,508.0,525.0
507.0,504.0,516.0,516.0,518.0
514.0,508.0,517.0,526.0,515.0
511.0,503.0,519.0,523.0,517.0
516.0,503.0,520.0,522.0,516.0
521.0,510.0,520.0,524.0,511.0
523.0,505.0,519.0,520.0,510.0
520.0,507.0,519.0,520.0,512.0
519.0,510.0,520.0,518.0,508.0
520.0,515.0,526.0,520.0,515.0
522.0,520.0,521.0,519.0,514.0
522.0,519.0,522.0,513.0,506.0
520.0,516.0,516.0,509.0,504.0
514.0,513.0,508.0,504.0,508.0
511.0,507.0,504.0,501.0,505.0
505.0,500.0,504.0,499.0,517.0
504.0,500.0,501.0,502.0,512.0
509.0,500.0,507.0,511.0,509.0
516.0,503.0,516.0,519.0,511.0
517.0,505.0,519.0,524.0,511.0
520.0,507.0,522.0,528.0,513.0
520.0,505.0,522.0,531.0,516.0
519.0,504.0,518.0,522.0,515.0
516.0,505.0,518.0,521.0,517.0
514.0,506.0,520.0,521.0,515.0
518.0,508.0,517.0,517.0,512.0
522.0,513.0,522.0,518.0,506.0
524.0,515.0,520.0,514.0,500.0
523.0,521.0,517.0,512.0,501.0
517.0,513.0,513.0,507.0,507.0
511.0,510.0,507.0,501.0,510.0
502.0,504.0,502.0,501.0,507.0
503.0,500.0,496.0,502.0,508.0
501.0,499.0,502.0,507.0,508.0
508.0,503.0,515.0,516.0,505.0
511.0,504.0,515.0,520.0,523.0
509.0,505.0,520.0,527.0,520.0
515.0,504.0,523.0,527.0,513.0
513.0,504.0,522.0,527.0,521.0
517.0,504.0,516.0,521.0,522.0
514.0,504.0,517.0,519.0,523.0
519.0,507.0,518.0,520.0,527.0
523.0,511.0,518.0,514.0,519.0
523.0,513.0,520.0,517.0,508.0
523.0,521.0,521.0,517.0,500.0
521.0,513.0,513.0,508.0,502.0
515.0,511.0,509.0,505.0,508.0
509.0,507.0,504.0,504.0,512.0
504.0,504.0,499.0,505.0,515.0
499.0,500.0,505.0,503.0,514.0
501.0,501.0,506.0,510.0,515.0
508.0,504.0,514.0,518.0,516.0
518.0,502.0,518.0,523.0,518.0
515.0,508.0,523.0,528.0,517.0
519.0,505.0,523.0,526.0,520.0
516.0,503.0,518.0,523.0,523.0
515.0,504.0,517.0,520.0,519.0
512.0,503.0,515.0,521.0,521.0
517.0,507.0,514.0,516.0,518.0
523.0,512.0,518.0,515.0,515.0
525.0,514.0,519.0,515.0,509.0
516.0,513.0,515.0,510.0,505.0
515.0,510.0,512.0,508.0,497.0
509.0,510.0,505.0,503.0,500.0
506.0,510.0,502.0,502.0,505.0
499.0,501.0,500.0,499.0,513.0
497.0,502.0,497.0,500.0,519.0
503.0,502.0,503.0,507.0,518.0
512.0,499.0,512.0,514.0,519.0
517.0,505.0,519.0,523.0,518.0
523.0,505.0,523.0,525.0,517.0
519.0,505.0,520.0,526.0,518.0
519.0,503.0,516.0,521.0,521.0
516.0,505.0,519.0,521.0,523.0
521.0,507.0,522.0,519.0,517.0
523.0,510.0,518.0,512.0,516.0
528.0,516.0,520.0,518.0,509.0
529.0,519.0,526.0,518.0,504.0
526.0,511.0,515.0,511.0,502.0
521.0,513.0,508.0,502.0,506.0
513.0,506.0,504.0,502.0,510.0
504.0,505.0,501.0,501.0,516.0
497.0,502.0,501.0,502.0,519.0
498.0,500.0,504.0,507.0,519.0
504.0,503.0,510.0,514.0,513.0
514.0,505.0,517.0,523.0,514.0
520.0,507.0,523.0,526.0,517.0
519.0,506.0,523.0,527.0,520.0
516.0,504.0,519.0,524.0,521.0
515.0,504.0,522.0,522.0,521.0
521.0,505.0,512.0,520.0,516.0
518.0,505.0,520.0,521.0,514.0
521.0,510.0,518.0,518.0,510.0
524.0,514.0,523.0,519.0,506.0
523.0,518.0,515.0,515.0,498.0
520.0,519.0,518.0,514.0,499.0
512.0,512.0,510.0,506.0,502.0
509.0,503.0,505.0,502.0,506.0
504.0,503.0,501.0,502.0,511.0
502.0,503.0,502.0,509.0,518.0
505.0,502.0,506.0,509.0,521.0
508.0,498.0,512.0,517.0,521.0
517.0,504.0,518.0,524.0,519.0
518.0,508.0,521.0,526.0,519.0
516.0,504.0,523.0,524.0,520.0
517.0,502.0,520.0,524.0,523.0
516.0,503.0,517.0,521.0,522.0
516.0,507.0,523.0,520.0,526.0
519.0,509.0,517.0,519.0,514.0
522.0,512.0,522.0,518.0,510.0
521.0,515.0,520.0,523.0,508.0
522.0,515.0,518.0,514.0,506.0
518.0,513.0,514.0,510.0,506.0
513.0,511.0,511.0,507.0,507.0
509.0,509.0,504.0,502.0,508.0
507.0,502.0,500.0,499.0,509.0
504.0,501.0,500.0,504.0,507.0
509.0,501.0,507.0,514.0,505.0
508.0,503.0,514.0,522.0,507.0
513.0,505.0,518.0,525.0,515.0
513.0,510.0,522.0,526.0,526.0
523.0,507.0,524.0,527.0,526.0
516.0,505.0,515.0,520.0,525.0
515.0,505.0,516.0,521.0,516.0
518.0,506.0,515.0,517.0,518.0
515.0,509.0,517.0,516.0,515.0
523.0,512.0,518.0,519.0,510.0
520.0,516.0,517.0,513.0,504.0
519.0,514.0,515.0,511.0,504.0
510.0,513.0,507.0,509.0,506.0
506.0,508.0,504.0,504.0,508.0
503.0,511.0,503.0,505.0,514.0
497.0,501.0,499.0,501.0,520.0
497.0,498.0,500.0,504.0,523.0
507.0,502.0,507.0,513.0,519.0
521.0,507.0,515.0,521.0,522.0
525.0,506.0,522.0,526.0,516.0
523.0,509.0,519.0,526.0,514.0
520.0,506.0,521.0,525.0,519.0
515.0,500.0,517.0,522.0,523.0
517.0,505.0,520.0,523.0,515.0
517.0,509.0,520.0,521.0,516.0
518.0,511.0,522.0,522.0,512.0
521.0,514.0,521.0,520.0,506.0
526.0,517.0,524.0,516.0,503.0
521.0,517.0,518.0,513.0,502.0
517.0,511.0,509.0,505.0,510.0
510.0,507.0,509.0,501.0,516.0
507.0,506.0,501.0,500.0,518.0
503.0,501.0,503.0,502.0,524.0
507.0,501.0,504.0,509.0,521.0
515.0,503.0,505.0,514.0,515.0
523.0,508.0,518.0,520.0,518.0
521.0,506.0,521.0,526.0,514.0
521.0,506.0,524.0,527.0,510.0
513.0,503.0,519.0,525.0,516.0
514.0,502.0,518.0,521.0,516.0
515.0,504.0,517.0,518.0,516.0
515.0,512.0,518.0,518.0,513.0
517.0,512.0,521.0,518.0,509.0
520.0,515.0,518.0,518.0,504.0
523.0,518.0,519.0,514.0,503.0
519.0,515.0,513.0,509.0,503.0
510.0,510.0,507.0,504.0,498.0
508.0,506.0,500.0,504.0,498.0
500.0,503.0,501.0,502.0,508.0
503.0,502.0,505.0,506.0,510.0
503.0,502.0,508.0,510.0,527.0
507.0,502.0,513.0,521.0,528.0
514.0,505.0,519.0,525.0,522.0
516.0,505.0,523.0,529.0,522.0
518.0,504.0,522.0,525.0,519.0
518.0,504.0,518.0,523.0,520.0
516.0,503.0,516.0,521.0,517.0
519.0,506.0,520.0,519.0,512.0
519.0,510.0,518.0,516.0,512.0
523.0,512.0,520.0,518.0,504.0
524.0,517.0,521.0,521.0,500.0
522.0,514.0,516.0,512.0,503.0
511.0,510.0,509.0,510.0,508.0
509.0,505.0,507.0,503.0,507.0
507.0,505.0,499.0,500.0,510.0
503.0,501.0,501.0,501.0,512.0
506.0,500.0,507.0,507.0,518.0
508.0,503.0,509.0,512.0,520.0
514.0,507.0,514.0,518.0,520.0
513.0,504.0,521.0,524.0,522.0
517.0,508.0,524.0,527.0,522.0
518.0,504.0,520.0,526.0,520.0
512.0,501.0,516.0,516.0,522.0
511.0,505.0,518.0,518.0,520.0
511.0,505.0,518.0,517.0,517.0
515.0,510.0,524.0,518.0,513.0
519.0,515.0,521.0,513.0,515.0
526.0,519.0,522.0,520.0,509.0
521.0,513.0,513.0,508.0,512.0
514.0,510.0,507.0,501.0,512.0
510.0,509.0,502.0,503.0,511.0
502.0,501.0,501.0,497.0,515.0
500.0,503.0,502.0,502.0,517.0
499.0,505.0,505.0,506.0,521.0
502.0,499.0,508.0,509.0,521.0
514.0,500.0,515.0,520.0,516.0
517.0,505.0,520.0,525.0,518.0
519.0,508.0,523.0,527.0,515.0
517.0,504.0,517.0,526.0,512.0
517.0,503.0,518.0,518.0,513.0
521.0,506.0,518.0,518.0,508.0
521.0,513.0,520.0,518.0,504.0
522.0,511.0,519.0,516.0,500.0
522.0,515.0,520.0,517.0,500.0
520.0,515.0,522.0,517.0,511.0
518.0,515.0,516.0,511.0,508.0
509.0,510.0,509.0,505.0,510.0
508.0,506.0,505.0,504.0,506.0
500.0,499.0,500.0,502.0,502.0
503.0,500.0,502.0,506.0,505.0
506.0,501.0,510.0,512.0,513.0
510.0,502.0,514.0,517.0,514.0
516.0,505.0,519.0,526.0,512.0
517.0,506.0,523.0,525.0,513.0
515.0,503.0,521.0,524.0,523.0
519.0,504.0,519.0,523.0,519.0
513.0,504.0,519.0,523.0,519.0
519.0,508.0,518.0,517.0,515.0
516.0,508.0,516.0,517.0,515.0
519.0,513.0,516.0,516.0,505.0
523.0,521.0,522.0,518.0,502.0
520.0,515.0,516.0,514.0,503.0
515.0,510.0,511.0,508.0,507.0
507.0,507.0,508.0,503.0,507.0
504.0,505.0,503.0,502.0,512.0
501.0,502.0,500.0,502.0,518.0
499.0,500.0,502.0,506.0,522.0
509.0,497.0,509.0,514.0,524.0
512.0,504.0,515.0,523.0,522.0
519.0,507.0,520.0,524.0,520.0
520.0,506.0,526.0,527.0,521.0
523.0,507.0,521.0,526.0,519.0
516.0,503.0,518.0,522.0,522.0
516.0,506.0,518.0,523.0,519.0
515.0,509.0,519.0,519.0,525.0
517.0,511.0,518.0,517.0,515.0
524.0,517.0,519.0,521.0,500.0
529.0,515.0,518.0,516.0,502.0
522.0,514.0,515.0,509.0,507.0
513.0,512.0,509.0,507.0,511.0
500.0,506.0,504.0,503.0,516.0
499.0,504.0,497.0,499.0,513.0
497.0,499.0,497.0,500.0,516.0
500.0,500.0,503.0,505.0,513.0
506.0,500.0,506.0,512.0,509.0
519.0,505.0,519.0,524.0,513.0
515.0,505.0,519.0,526.0,516.0
516.0,504.0,523.0,524.0,517.0
513.0,502.0,516.0,522.0,523.0
515.0,503.0,517.0,521.0,518.0
515.0,505.0,518.0,522.0,519.0
515.0,506.0,515.0,516.0,518.0
514.0,510.0,519.0,516.0,514.0
518.0,513.0,519.0,516.0,509.0
522.0,515.0,518.0,513.0,502.0
521.0,515.0,513.0,509.0,502.0
512.0,511.0,508.0,504.0,507.0
510.0,506.0,503.0,502.0,509.0
504.0,503.0,501.0,500.0,517.0
504.0,501.0,502.0,503.0,520.0
508.0,502.0,508.0,509.0,518.0
511.0,503.0,513.0,522.0,514.0
517.0,506.0,518.0,522.0,512.0
516.0,505.0,523.0,526.0,520.0
518.0,505.0,524.0,524.0,527.0
510.0,504.0,519.0,526.0,521.0
512.0,505.0,520.0,525.0,519.0
516.0,507.0,518.0,522.0,516.0
515.0,509.0,518.0,519.0,514.0
520.0,513.0,520.0,517.0,510.0
522.0,517.0,521.0,517.0,510.0
521.0,515.0,515.0,510.0,507.0
518.0,513.0,509.0,504.0,508.0
509.0,511.0,503.0,502.0,511.0
505.0,505.0,503.0,501.0,515.0
501.0,501.0,499.0,503.0,518.0
502.0,504.0,501.0,509.0,519.0
506.0,503.0,510.0,514.0,519.0
511.0,506.0,519.0,519.0,520.0
514.0,507.0,520.0,524.0,526.0
522.0,509.0,523.0,526.0,526.0
517.0,508.0,523.0,526.0,521.0
514.0,508.0,519.0,523.0,520.0
515.0,505.0,519.0,522.0,523.0
524.0,509.0,521.0,522.0,515.0
521.0,510.0,520.0,519.0,514.0
523.0,514.0,519.0,517.0,507.0
525.0,513.0,519.0,516.0,501.0
521.0,515.0,516.0,510.0,502.0
512.0,511.0,509.0,503.0,507.0
510.0,503.0,503.0,502.0,506.0
503.0,502.0,498.0,495.0,511.0
503.0,499.0,500.0,503.0,515.0
502.0,501.0,507.0,508.0,519.0
507.0,502.0,514.0,515.0,520.0
512.0,506.0,517.0,521.0,518.0
516.0,504.0,520.0,525.0,517.0
517.0,504.0,520.0,527.0,517.0
514.0,505.0,524.0,525.0,522.0
514.0,503.0,519.0,522.0,515.0
523.0,507.0,523.0,520.0,512.0
518.0,511.0,519.0,516.0,508.0
519.0,513.0,520.0,515.0,515.0
522.0,515.0,520.0,515.0,512.0
526.0,515.0,519.0,512.0,504.0
517.0,514.0,512.0,507.0,503.0
509.0,510.0,506.0,504.0,511.0
505.0,504.0,507.0,499.0,517.0
499.0,501.0,502.0,498.0,514.0
504.0,501.0,502.0,501.0,512.0
509.0,501.0,509.0,508.0,504.0
513.0,500.0,509.0,516.0,505.0
509.0,503.0,516.0,522.0,513.0
514.0,504.0,522.0,522.0,527.0
516.0,507.0,519.0,523.0,529.0
510.0,503.0,519.0,526.0,541.0
511.0,507.0,519.0,519.0,535.0
513.0,506.0,515.0,516.0,519.0
515.0,509.0,519.0,516.0,511.0
523.0,513.0,521.0,518.0,503.0
526.0,516.0,522.0,518.0,502.0
522.0,517.0,517.0,513.0,503.0
516.0,515.0,516.0,505.0,509.0
514.0,506.0,506.0,502.0,512.0
505.0,506.0,503.0,500.0,511.0
507.0,503.0,505.0,502.0,514.0
507.0,501.0,502.0,507.0,512.0
512.0,503.0,509.0,516.0,510.0
519.0,504.0,516.0,520.0,509.0
517.0,503.0,520.0,524.0,511.0
519.0,507.0,524.0,525.0,513.0
513.0,497.0,519.0,522.0,518.0
513.0,505.0,521.0,527.0,514.0
514.0,504.0,520.0,523.0,513.0
516.0,506.0,520.0,520.0,514.0
515.0,511.0,523.0,518.0,508.0
521.0,515.0,520.0,517.0,503.0
519.0,516.0,521.0,516.0,503.0
518.0,518.0,515.0,509.0,502.0
518.0,512.0,511.0,506.0,503.0
509.0,508.0,506.0,503.0,508.0
503.0,504.0,502.0,500.0,512.0
501.0,502.0,497.0,502.0,515.0
503.0,505.0,503.0,508.0,516.0
507.0,503.0,510.0,515.0,517.0
514.0,508.0,518.0,522.0,514.0
517.0,506.0,521.0,525.0,519.0
515.0,505.0,521.0,526.0,515.0
515.0,504.0,518.0,524.0,519.0
512.0,504.0,517.0,522.0,522.0
512.0,505.0,517.0,519.0,515.0
520.0,509.0,523.0,519.0,516.0
516.0,512.0,519.0,520.0,511.0
521.0,515.0,519.0,515.0,503.0
523.0,522.0,520.0,516.0,501.0
523.0,516.0,514.0,510.0,502.0
514.0,512.0,506.0,505.0,506.0
507.0,508.0,503.0,502.0,507.0
503.0,502.0,500.0,500.0,514.0
500.0,500.0,500.0,503.0,520.0
504.0,502.0,507.0,509.0,520.0
510.0,504.0,514.0,520.0,517.0
515.0,507.0,520.0,524.0,510.0
516.0,507.0,522.0,522.0,516.0
515.0,507.0,523.0,525.0,519.0
513.0,504.0,517.0,523.0,524.0
513.0,506.0,519.0,521.0,524.0
516.0,510.0,518.0,514.0,520.0
520.0,510.0,520.0,516.0,518.0
519.0,513.0,518.0,515.0,515.0
525.0,515.0,521.0,515.0,505.0
519.0,515.0,515.0,515.0,499.0
513.0,513.0,506.0,504.0,500.0
509.0,510.0,506.0,502.0,501.0
505.0,509.0,504.0,501.0,506.0
501.0,500.0,499.0,500.0,514.0
500.0,499.0,500.0,504.0,516.0
502.0,498.0,506.0,510.0,519.0
510.0,505.0,517.0,521.0,513.0
513.0,506.0,521.0,526.0,513.0
512.0,505.0,522.0,524.0,516.0
513.0,505.0,519.0,526.0,518.0
511.0,502.0,518.0,522.0,518.0
512.0,504.0,518.0,519.0,515.0
519.0,508.0,520.0,520.0,511.0
519.0,511.0,520.0,521.0,506.0
522.0,515.0,518.0,517.0,500.0
525.0,519.0,521.0,517.0,500.0
522.0,517.0,516.0,514.0,499.0
513.0,513.0,512.0,507.0,503.0
512.0,509.0,504.0,501.0,507.0
502.0,508.0,500.0,503.0,511.0
504.0,498.0,500.0,505.0,516.0
504.0,504.0,506.0,509.0,518.0
508.0,505.0,511.0,514.0,521.0
512.0,506.0,516.0,522.0,523.0
516.0,510.0,519.0,525.0,524.0
517.0,505.0,522.0,524.0,523.0
523.0,503.0,518.0,522.0,523.0
526.0,505.0,521.0,519.0,521.0
520.0,506.0,516.0,521.0,519.0
521.0,509.0,517.0,520.0,517.0
527.0,514.0,519.0,517.0,509.0
520.0,515.0,519.0,512.0,520.0
523.0,518.0,520.0,517.0,503.0
517.0,516.0,520.0,513.0,498.0
508.0,512.0,509.0,505.0,502.0
505.0,509.0,503.0,503.0,503.0
499.0,502.0,500.0,500.0,510.0
497.0,501.0,500.0,502.0,519.0
501.0,503.0,506.0,510.0,518.0
511.0,502.0,512.0,515.0,513.0
518.0,505.0,524.0,523.0,510.0
519.0,506.0,520.0,525.0,506.0
518.0,505.0,522.0,525.0,511.0
513.0,502.0,517.0,521.0,518.0
514.0,503.0,519.0,518.0,520.0
516.0,505.0,518.0,519.0,518.0
522.0,510.0,520.0,518.0,512.0
523.0,513.0,520.0,517.0,509.0
522.0,515.0,520.0,517.0,506.0
524.0,517.0,519.0,513.0,504.0
518.0,514.0,512.0,507.0,500.0
516.0,511.0,505.0,503.0,502.0
505.0,505.0,505.0,501.0,507.0
507.0,502.0,501.0,499.0,513.0
503.0,500.0,507.0,503.0,522.0
508.0,503.0,513.0,511.0,522.0
514.0,504.0,512.0,519.0,523.0
515.0,506.0,520.0,522.0,523.0
516.0,509.0,522.0,526.0,519.0
516.0,500.0,521.0,525.0,513.0
514.0,506.0,520.0,523.0,517.0
513.0,502.0,517.0,518.0,517.0
512.0,507.0,518.0,517.0,511.0
518.0,510.0,517.0,520.0,509.0
525.0,518.0,523.0,518.0,509.0
523.0,516.0,518.0,514.0,504.0
518.0,513.0,513.0,506.0,507.0
513.0,512.0,508.0,504.0,507.0
508.0,509.0,505.0,501.0,507.0
509.0,504.0,503.0,498.0,511.0
500.0,500.0,503.0,501.0,512.0
499.0,500.0,502.0,506.0,513.0
506.0,503.0,511.0,513.0,517.0
512.0,505.0,519.0,523.0,516.0
515.0,506.0,519.0,524.0,518.0
516.0,506.0,522.0,528.0,523.0
511.0,501.0,517.0,521.0,526.0
513.0,502.0,512.0,520.0,523.0
513.0,503.0,518.0,520.0,511.0
515.0,506.0,517.0,517.0,509.0
520.0,510.0,516.0,518.0,505.0
526.0,516.0,522.0,519.0,501.0
525.0,518.0,519.0,515.0,496.0
525.0,517.0,514.0,510.0,502.0
516.0,510.0,507.0,506.0,505.0
511.0,509.0,502.0,497.0,509.0
506.0,500.0,499.0,499.0,519.0
507.0,499.0,500.0,502.0,519.0
510.0,501.0,505.0,513.0,520.0
509.0,504.0,515.0,520.0,516.0
511.0,505.0,518.0,522.0,514.0
510.0,505.0,524.0,529.0,515.0
512.0,505.0,521.0,530.0,512.0
512.0,504.0,519.0,522.0,522.0
512.0,507.0,520.0,522.0,517.0
515.0,507.0,516.0,520.0,515.0
520.0,507.0,516.0,517.0,514.0
519.0,513.0,520.0,521.0,508.0
523.0,516.0,520.0,517.0,506.0
522.0,514.0,515.0,514.0,506.0
512.0,513.0,511.0,504.0,506.0
507.0,509.0,505.0,503.0,505.0
507.0,510.0,503.0,500.0,509.0
500.0,502.0,499.0,500.0,516.0
502.0,501.0,502.0,505.0,520.0
505.0,502.0,509.0,515.0,523.0
509.0,505.0,509.0,520.0,521.0
515.0,504.0,515.0,523.0,521.0
519.0,508.0,521.0,526.0,519.0
518.0,505.0,518.0,526.0,518.0
515.0,502.0,516.0,520.0,518.0
517.0,505.0,518.0,519.0,515.0
515.0,510.0,517.0,517.0,514.0
519.0,508.0,518.0,517.0,512.0
521.0,515.0,520.0,520.0,512.0
523.0,514.0,518.0,513.0,508.0
521.0,518.0,515.0,514.0,507.0
516.0,511.0,511.0,505.0,507.0
508.0,508.0,507.0,500.0,503.0
505.0,504.0,503.0,499.0,509.0
504.0,500.0,502.0,501.0,510.0
502.0,499.0,504.0,507.0,515.0
506.0,501.0,512.0,515.0,521.0
513.0,503.0,516.0,520.0,518.0
515.0,504.0,523.0,524.0,518.0
516.0,506.0,522.0,523.0,520.0
516.0,502.0,519.0,521.0,522.0
515.0,499.0,516.0,519.0,519.0
513.0,501.0,515.0,517.0,517.0
515.0,506.0,520.0,517.0,516.0
519.0,514.0,518.0,517.0,513.0
523.0,515.0,525.0,518.0,503.0
520.0,520.0,519.0,515.0,510.0
510.0,512.0,514.0,508.0,514.0
509.0,510.0,507.0,504.0,515.0
505.0,506.0,505.0,500.0,512.0
500.0,502.0,503.0,499.0,512.0
501.0,499.0,499.0,500.0,512.0
504.0,501.0,503.0,505.0,514.0
511.0,498.0,510.0,514.0,514.0
517.0,505.0,516.0,520.0,519.0
521.0,508.0,525.0,525.0,516.0
520.0,505.0,521.0,527.0,517.0
513.0,506.0,519.0,522.0,520.0
514.0,502.0,519.0,523.0,517.0
516.0,505.0,522.0,521.0,517.0
517.0,507.0,518.0,519.0,515.0
517.0,513.0,519.0,518.0,510.0
524.0,518.0,526.0,518.0,506.0
524.0,517.0,519.0,513.0,502.0
521.0,512.0,513.0,509.0,508.0
509.0,512.0,508.0,503.0,510.0
508.0,508.0,504.0,500.0,510.0
504.0,504.0,501.0,500.0,519.0
503.0,500.0,502.0,504.0,515.0
509.0,499.0,508.0,513.0,513.0
510.0,503.0,517.0,520.0,514.0
515.0,507.0,521.0,524.0,518.0
514.0,499.0,521.0,521.0,524.0
512.0,504.0,520.0,523.0,524.0
518.0,505.0,519.0,521.0,521.0
521.0,504.0,519.0,520.0,516.0
518.0,506.0,517.0,518.0,512.0
520.0,509.0,513.0,516.0,509.0
522.0,515.0,519.0,516.0,507.0
525.0,517.0,520.0,514.0,504.0
526.0,514.0,517.0,509.0,504.0
518.0,514.0,515.0,508.0,504.0
508.0,508.0,504.0,505.0,505.0
506.0,503.0,500.0,498.0,509.0
503.0,502.0,503.0,501.0,513.0
504.0,499.0,498.0,507.0,517.0
508.0,500.0,510.0,515.0,519.0
508.0,504.0,517.0,521.0,514.0
515.0,506.0,522.0,527.0,516.0
518.0,506.0,523.0,525.0,520.0
518.0,503.0,521.0,525.0,522.0
517.0,502.0,518.0,521.0,523.0
517.0,507.0,516.0,518.0,521.0
523.0,508.0,519.0,517.0,519.0
523.0,512.0,519.0,518.0,513.0
529.0,514.0,521.0,517.0,506.0
529.0,518.0,522.0,514.0,504.0
516.0,519.0,519.0,512.0,501.0
504.0,511.0,514.0,505.0,509.0
501.0,508.0,505.0,507.0,507.0
499.0,503.0,502.0,500.0,517.0
501.0,501.0,505.0,503.0,520.0
505.0,501.0,505.0,507.0,521.0
509.0,503.0,511.0,516.0,523.0
515.0,505.0,517.0,522.0,521.0
514.0,505.0,518.0,522.0,519.0
517.0,504.0,520.0,522.0,518.0
517.0,502.0,518.0,522.0,518.0
512.0,500.0,515.0,519.0,517.0
513.0,503.0,514.0,517.0,518.0
515.0,507.0,514.0,513.0,518.0
521.0,513.0,519.0,519.0,509.0
521.0,518.0,521.0,518.0,503.0
520.0,513.0,514.0,509.0,504.0
513.0,513.0,510.0,506.0,505.0
513.0,509.0,508.0,503.0,508.0
506.0,506.0,500.0,500.0,509.0
502.0,500.0,499.0,500.0,516.0
504.0,498.0,501.0,503.0,523.0
510.0,501.0,507.0,510.0,519.0
512.0,503.0,515.0,519.0,518.0
515.0,504.0,518.0,525.0,519.0
517.0,505.0,522.0,526.0,520.0
517.0,506.0,523.0,527.0,524.0
513.0,505.0,520.0,520.0,520.0
514.0,506.0,520.0,522.0,523.0
515.0,507.0,518.0,519.0,516.0
520.0,511.0,523.0,517.0,511.0
521.0,514.0,520.0,516.0,507.0
524.0,521.0,522.0,516.0,503.0
521.0,518.0,520.0,511.0,503.0
518.0,512.0,510.0,506.0,505.0
508.0,506.0,505.0,502.0,511.0
504.0,504.0,504.0,502.0,511.0
501.0,502.0,503.0,502.0,517.0
506.0,502.0,505.0,508.0,523.0
507.0,506.0,511.0,514.0,520.0
511.0,507.0,520.0,523.0,522.0
515.0,506.0,522.0,526.0,523.0
517.0,507.0,523.0,527.0,519.0
513.0,505.0,521.0,525.0,520.0
514.0,504.0,520.0,519.0,517.0
518.0,506.0,519.0,521.0,513.0
519.0,508.0,521.0,519.0,506.0
524.0,511.0,520.0,520.0,509.0
522.0,515.0,520.0,516.0,504.0
521.0,516.0,518.0,509.0,502.0
519.0,518.0,514.0,508.0,502.0
510.0,509.0,508.0,505.0,506.0
506.0,508.0,506.0,502.0,505.0
504.0,502.0,499.0,499.0,512.0
503.0,500.0,502.0,502.0,518.0
503.0,501.0,506.0,509.0,514.0
509.0,502.0,511.0,515.0,515.0
516.0,504.0,516.0,520.0,516.0
519.0,509.0,520.0,526.0,513.0
520.0,506.0,517.0,527.0,519.0
515.0,504.0,518.0,521.0,523.0
515.0,504.0,518.0,520.0,521.0
518.0,507.0,519.0,518.0,513.0
520.0,511.0,518.0,520.0,511.0
520.0,513.0,519.0,517.0,512.0
528.0,517.0,523.0,516.0,505.0
527.0,515.0,515.0,511.0,504.0
525.0,512.0,511.0,508.0,504.0
514.0,511.0,504.0,505.0,509.0
507.0,506.0,502.0,501.0,513.0
500.0,503.0,497.0,500.0,522.0
495.0,499.0,501.0,504.0,522.0
500.0,504.0,507.0,510.0,515.0
510.0,503.0,514.0,520.0,518.0
515.0,506.0,519.0,524.0,523.0
520.0,509.0,521.0,526.0,521.0
512.0,501.0,517.0,521.0,527.0
514.0,502.0,515.0,519.0,524.0
512.0,503.0,518.0,520.0,516.0
518.0,508.0,517.0,519.0,515.0
517.0,513.0,517.0,518.0,514.0
521.0,516.0,515.0,515.0,504.0
522.0,515.0,516.0,516.0,502.0
521.0,517.0,516.0,510.0,503.0
516.0,512.0,508.0,505.0,502.0
510.0,508.0,504.0,503.0,502.0
506.0,503.0,504.0,500.0,505.0
503.0,501.0,503.0,501.0,510.0
504.0,501.0,503.0,509.0,516.0
508.0,504.0,511.0,515.0,536.0
512.0,506.0,519.0,521.0,525.0
516.0,505.0,519.0,527.0,521.0
514.0,506.0,521.0,528.0,526.0
516.0,505.0,522.0,528.0,521.0
513.0,503.0,514.0,523.0,523.0
516.0,505.0,517.0,520.0,526.0
519.0,510.0,517.0,518.0,520.0
525.0,514.0,519.0,517.0,511.0
522.0,515.0,518.0,516.0,503.0
527.0,516.0,518.0,513.0,499.0
519.0,517.0,514.0,509.0,499.0
512.0,512.0,508.0,505.0,506.0
509.0,508.0,502.0,501.0,511.0
506.0,501.0,499.0,498.0,511.0
503.0,502.0,500.0,502.0,517.0
505.0,503.0,510.0,506.0,517.0
506.0,502.0,515.0,518.0,523.0
514.0,505.0,519.0,523.0,522.0
518.0,506.0,517.0,526.0,519.0
520.0,505.0,520.0,522.0,516.0
517.0,503.0,519.0,523.0,522.0
516.0,504.0,518.0,519.0,525.0
514.0,505.0,519.0,519.0,513.0
513.0,510.0,518.0,512.0,513.0
519.0,513.0,522.0,517.0,506.0
522.0,516.0,515.0,515.0,498.0
521.0,516.0,518.0,513.0,498.0
514.0,510.0,511.0,507.0,505.0
509.0,507.0,505.0,501.0,503.0
507.0,503.0,500.0,500.0,508.0
503.0,501.0,500.0,503.0,510.0
506.0,500.0,504.0,505.0,516.0
509.0,502.0,511.0,515.0,518.0
515.0,502.0,514.0,519.0,519.0
518.0,505.0,519.0,528.0,523.0
519.0,508.0,522.0,526.0,522.0
516.0,503.0,522.0,523.0,526.0
511.0,501.0,515.0,518.0,523.0
517.0,504.0,522.0,523.0,516.0
516.0,505.0,519.0,519.0,514.0
512.0,510.0,519.0,517.0,515.0
518.0,512.0,520.0,517.0,509.0
522.0,517.0,521.0,516.0,506.0
518.0,516.0,519.0,510.0,497.0
512.0,512.0,511.0,504.0,506.0
503.0,506.0,505.0,500.0,507.0
496.0,501.0,501.0,498.0,507.0
499.0,499.0,500.0,500.0,518.0
500.0,501.0,501.0,510.0,521.0
503.0,500.0,505.0,513.0,517.0
502.0,500.0,514.0,520.0,519.0
513.0,506.0,516.0,527.0,523.0
516.0,503.0,520.0,526.0,522.0
520.0,506.0,518.0,525.0,518.0
512.0,502.0,517.0,527.0,519.0
511.0,502.0,517.0,519.0,515.0
515.0,507.0,517.0,521.0,514.0
520.0,505.0,518.0,516.0,515.0
525.0,514.0,519.0,516.0,516.0
525.0,518.0,520.0,516.0,516.0
518.0,514.0,515.0,511.0,518.0
510.0,510.0,506.0,505.0,521.0
505.0,506.0,500.0,502.0,528.0
500.0,502.0,501.0,502.0,531.0
505.0,506.0,503.0,506.0,516.0
512.0,503.0,507.0,509.0,513.0
513.0,502.0,509.0,516.0,509.0
512.0,504.0,520.0,524.0,503.0
519.0,507.0,524.0,530.0,504.0
516.0,505.0,523.0,525.0,507.0
512.0,504.0,520.0,522.0,513.0
514.0,502.0,518.0,520.0,518.0
517.0,507.0,523.0,518.0,509.0
517.0,507.0,519.0,517.0,512.0
522.0,515.0,520.0,516.0,507.0
524.0,516.0,521.0,520.0,499.0
521.0,515.0,518.0,513.0,497.0
518.0,515.0,513.0,507.0,498.0
508.0,509.0,510.0,503.0,504.0
505.0,502.0,502.0,501.0,509.0
505.0,502.0,500.0,499.0,515.0
502.0,500.0,502.0,504.0,520.0
508.0,502.0,509.0,517.0,516.0
511.0,506.0,518.0,522.0,517.0
513.0,504.0,519.0,521.0,519.0
516.0,506.0,523.0,525.0,516.0
516.0,505.0,520.0,525.0,515.0
515.0,503.0,519.0,521.0,524.0
516.0,505.0,518.0,518.0,519.0
516.0,511.0,521.0,519.0,515.0
519.0,509.0,518.0,516.0,514.0
523.0,515.0,521.0,518.0,509.0
523.0,516.0,522.0,513.0,505.0
523.0,519.0,518.0,511.0,503.0
515.0,513.0,511.0,505.0,503.0
506.0,508.0,505.0,502.0,503.0
501.0,504.0,502.0,502.0,510.0
502.0,500.0,503.0,499.0,516.0
500.0,499.0,505.0,505.0,519.0
505.0,503.0,514.0,514.0,519.0
513.0,503.0,515.0,518.0,517.0
518.0,505.0,520.0,524.0,521.0
520.0,507.0,522.0,525.0,517.0
519.0,506.0,519.0,520.0,518.0
514.0,503.0,517.0,525.0,523.0
517.0,506.0,522.0,519.0,517.0
519.0,509.0,522.0,519.0,516.0
522.0,512.0,519.0,515.0,510.0
519.0,513.0,517.0,516.0,508.0
520.0,519.0,517.0,511.0,499.0
515.0,515.0,514.0,508.0,498.0
509.0,508.0,505.0,501.0,503.0
504.0,506.0,498.0,500.0,504.0
503.0,502.0,500.0,499.0,511.0
504.0,502.0,499.0,504.0,519.0
505.0,502.0,509.0,508.0,527.0
508.0,502.0,513.0,513.0,525.0
515.0,506.0,519.0,523.0,526.0
521.0,508.0,523.0,526.0,527.0
516.0,503.0,519.0,525.0,527.0
511.0,500.0,517.0,518.0,523.0
507.0,497.0,509.0,517.0,520.0
512.0,504.0,517.0,521.0,513.0
517.0,509.0,519.0,516.0,512.0
525.0,512.0,520.0,517.0,512.0
529.0,516.0,525.0,518.0,501.0
529.0,514.0,518.0,513.0,499.0
521.0,517.0,512.0,509.0,495.0
517.0,511.0,506.0,504.0,501.0
507.0,506.0,501.0,500.0,510.0
500.0,501.0,499.0,502.0,515.0
502.0,500.0,502.0,508.0,515.0
502.0,501.0,509.0,513.0,517.0
509.0,500.0,514.0,520.0,516.0
515.0,505.0,521.0,524.0,519.0
517.0,505.0,523.0,529.0,519.0
515.0,504.0,522.0,525.0,518.0
513.0,507.0,519.0,523.0,517.0
515.0,503.0,519.0,522.0,514.0
522.0,509.0,521.0,521.0,508.0
521.0,510.0,520.0,519.0,508.0
526.0,513.0,521.0,518.0,499.0
526.0,516.0,519.0,516.0,497.0
