CH1,CH2,CH3,CH4,CH5
505.0,511.0,509.0,504.0,504.0
502.0,502.0,503.0,499.0,511.0
496.0,498.0,500.0,499.0,525.0
505.0,498.0,505.0,504.0,523.0
510.0,503.0,513.0,517.0,522.0
512.0,503.0,515.0,518.0,522.0
516.0,504.0,518.0,521.0,517.0
513.0,502.0,515.0,521.0,524.0
511.0,501.0,512.0,513.0,519.0
517.0,504.0,514.0,515.0,519.0
511.0,504.0,515.0,518.0,518.0
513.0,510.0,516.0,512.0,520.0
518.0,513.0,527.0,516.0,517.0
522.0,514.0,521.0,515.0,510.0
518.0,517.0,523.0,519.0,509.0
514.0,512.0,517.0,511.0,510.0
504.0,506.0,510.0,503.0,508.0
504.0,504.0,506.0,501.0,509.0
500.0,496.0,502.0,501.0,516.0
500.0,499.0,502.0,502.0,519.0
507.0,501.0,508.0,512.0,516.0
516.0,505.0,512.0,516.0,513.0
516.0,503.0,515.0,520.0,514.0
518.0,510.0,520.0,525.0,515.0
515.0,502.0,515.0,522.0,515.0
512.0,502.0,513.0,518.0,513.0
515.0,504.0,515.0,524.0,512.0
517.0,506.0,517.0,521.0,510.0
516.0,507.0,516.0,511.0,518.0
522.0,515.0,522.0,514.0,510.0
522.0,516.0,523.0,512.0,511.0
520.0,514.0,520.0,508.0,522.0
513.0,510.0,515.0,503.0,516.0
506.0,506.0,507.0,499.0,506.0
498.0,504.0,501.0,494.0,509.0
499.0,498.0,501.0,500.0,513.0
502.0,500.0,504.0,505.0,513.0
505.0,505.0,508.0,510.0,506.0
513.0,503.0,514.0,517.0,510.0
517.0,505.0,517.0,523.0,512.0
517.0,506.0,516.0,520.0,513.0
516.0,503.0,516.0,520.0,515.0
511.0,504.0,515.0,515.0,513.0
512.0,505.0,516.0,515.0,509.0
515.0,508.0,518.0,520.0,508.0
518.0,512.0,518.0,515.0,508.0
522.0,517.0,522.0,515.0,507.0
521.0,516.0,524.0,513.0,510.0
517.0,514.0,519.0,509.0,499.0
512.0,511.0,515.0,504.0,508.0
508.0,504.0,508.0,500.0,516.0
499.0,502.0,501.0,497.0,523.0
501.0,501.0,503.0,504.0,523.0
500.0,500.0,507.0,506.0,518.0
510.0,503.0,512.0,517.0,514.0
518.0,505.0,519.0,519.0,509.0
516.0,504.0,522.0,521.0,510.0
517.0,505.0,517.0,519.0,517.0
518.0,503.0,517.0,514.0,523.0
511.0,505.0,516.0,517.0,523.0
515.0,506.0,516.0,515.0,517.0
518.0,507.0,516.0,510.0,512.0
522.0,514.0,523.0,515.0,506.0
522.0,515.0,525.0,516.0,503.0
521.0,514.0,522.0,512.0,503.0
513.0,510.0,513.0,506.0,506.0
509.0,507.0,511.0,502.0,509.0
499.0,501.0,502.0,497.0,514.0
497.0,497.0,500.0,500.0,518.0
503.0,498.0,501.0,499.0,524.0
505.0,502.0,506.0,505.0,522.0
508.0,502.0,511.0,510.0,519.0
508.0,506.0,515.0,518.0,514.0
512.0,502.0,516.0,522.0,515.0
516.0,501.0,516.0,518.0,514.0
514.0,500.0,512.0,513.0,521.0
513.0,503.0,513.0,513.0,524.0
515.0,505.0,517.0,511.0,517.0
520.0,508.0,522.0,513.0,511.0
524.0,513.0,527.0,516.0,511.0
525.0,515.0,525.0,515.0,509.0
522.0,515.0,521.0,512.0,510.0
515.0,515.0,515.0,506.0,510.0
508.0,509.0,513.0,501.0,516.0
505.0,503.0,507.0,498.0,515.0
500.0,503.0,502.0,499.0,519.0
501.0,498.0,503.0,502.0,518.0
506.0,500.0,509.0,509.0,521.0
508.0,503.0,513.0,515.0,517.0
516.0,508.0,516.0,518.0,515.0
515.0,505.0,519.0,522.0,517.0
516.0,506.0,515.0,514.0,518.0
512.0,505.0,520.0,515.0,521.0
511.0,504.0,514.0,514.0,520.0
514.0,506.0,516.0,514.0,517.0
519.0,510.0,520.0,514.0,512.0
523.0,514.0,524.0,515.0,506.0
521.0,515.0,524.0,516.0,507.0
519.0,515.0,519.0,510.0,506.0
516.0,510.0,517.0,505.0,508.0
511.0,507.0,509.0,502.0,514.0
497.0,499.0,503.0,499.0,521.0
497.0,500.0,503.0,500.0,519.0
503.0,506.0,507.0,505.0,530.0
510.0,503.0,510.0,509.0,527.0
513.0,507.0,517.0,517.0,526.0
512.0,507.0,521.0,519.0,521.0
517.0,505.0,519.0,520.0,519.0
514.0,502.0,512.0,515.0,525.0
512.0,503.0,515.0,512.0,534.0
509.0,504.0,517.0,513.0,521.0
513.0,506.0,517.0,513.0,510.0
523.0,512.0,520.0,514.0,503.0
522.0,515.0,526.0,516.0,496.0
524.0,515.0,526.0,514.0,496.0
516.0,515.0,520.0,509.0,499.0
508.0,509.0,514.0,505.0,506.0
504.0,505.0,508.0,501.0,509.0
499.0,498.0,502.0,498.0,516.0
503.0,498.0,504.0,502.0,518.0
507.0,500.0,510.0,508.0,516.0
514.0,503.0,514.0,516.0,516.0
511.0,504.0,517.0,522.0,519.0
519.0,506.0,521.0,520.0,522.0
518.0,506.0,519.0,517.0,523.0
513.0,502.0,515.0,514.0,527.0
514.0,505.0,517.0,514.0,521.0
514.0,505.0,517.0,515.0,505.0
516.0,508.0,519.0,512.0,496.0
518.0,513.0,523.0,521.0,494.0
523.0,514.0,524.0,515.0,497.0
516.0,514.0,521.0,513.0,500.0
512.0,511.0,515.0,508.0,505.0
503.0,501.0,507.0,499.0,509.0
502.0,502.0,502.0,499.0,516.0
496.0,499.0,503.0,499.0,526.0
497.0,497.0,501.0,498.0,527.0
499.0,498.0,506.0,501.0,525.0
514.0,502.0,513.0,515.0,515.0
521.0,506.0,517.0,518.0,521.0
519.0,507.0,521.0,520.0,521.0
513.0,503.0,515.0,519.0,520.0
511.0,501.0,512.0,514.0,514.0
516.0,506.0,517.0,512.0,515.0
517.0,506.0,515.0,513.0,513.0
516.0,510.0,520.0,518.0,503.0
522.0,515.0,525.0,518.0,506.0
523.0,519.0,527.0,517.0,508.0
520.0,519.0,522.0,513.0,513.0
509.0,514.0,517.0,507.0,520.0
503.0,508.0,515.0,503.0,516.0
501.0,501.0,503.0,500.0,514.0
506.0,501.0,505.0,500.0,517.0
504.0,500.0,507.0,507.0,521.0
510.0,502.0,510.0,512.0,521.0
514.0,504.0,517.0,518.0,521.0
515.0,504.0,519.0,527.0,505.0
517.0,505.0,517.0,522.0,507.0
513.0,505.0,518.0,516.0,514.0
513.0,501.0,515.0,513.0,519.0
512.0,503.0,511.0,512.0,518.0
515.0,510.0,520.0,513.0,517.0
520.0,515.0,522.0,512.0,513.0
525.0,517.0,529.0,516.0,511.0
524.0,516.0,524.0,516.0,503.0
518.0,513.0,522.0,510.0,503.0
511.0,511.0,517.0,504.0,507.0
508.0,506.0,511.0,500.0,511.0
500.0,501.0,503.0,498.0,520.0
501.0,499.0,506.0,501.0,518.0
505.0,502.0,513.0,507.0,518.0
511.0,504.0,515.0,514.0,519.0
512.0,505.0,518.0,520.0,522.0
517.0,510.0,520.0,514.0,518.0
516.0,505.0,519.0,518.0,515.0
515.0,504.0,516.0,513.0,518.0
512.0,504.0,517.0,513.0,516.0
513.0,506.0,517.0,516.0,514.0
516.0,508.0,521.0,512.0,510.0
519.0,513.0,524.0,514.0,510.0
524.0,518.0,527.0,516.0,504.0
522.0,515.0,523.0,510.0,505.0
515.0,513.0,517.0,508.0,510.0
508.0,508.0,512.0,502.0,513.0
504.0,505.0,508.0,499.0,518.0
499.0,501.0,503.0,493.0,523.0
505.0,500.0,503.0,502.0,522.0
512.0,503.0,512.0,508.0,519.0
515.0,505.0,515.0,515.0,518.0
514.0,504.0,516.0,516.0,514.0
513.0,507.0,521.0,520.0,516.0
514.0,504.0,516.0,516.0,517.0
513.0,503.0,515.0,513.0,521.0
511.0,502.0,516.0,512.0,519.0
514.0,506.0,517.0,513.0,514.0
518.0,509.0,519.0,511.0,512.0
520.0,516.0,523.0,513.0,507.0
521.0,518.0,526.0,511.0,506.0
519.0,512.0,522.0,508.0,507.0
511.0,510.0,515.0,505.0,509.0
503.0,505.0,509.0,499.0,511.0
498.0,500.0,498.0,495.0,513.0
495.0,498.0,506.0,498.0,521.0
499.0,502.0,506.0,503.0,520.0
506.0,505.0,510.0,512.0,519.0
508.0,503.0,514.0,515.0,520.0
510.0,503.0,518.0,516.0,517.0
514.0,505.0,521.0,519.0,519.0
512.0,503.0,515.0,514.0,519.0
513.0,507.0,515.0,508.0,519.0
512.0,507.0,519.0,511.0,520.0
513.0,507.0,520.0,513.0,517.0
523.0,514.0,526.0,515.0,513.0
522.0,516.0,526.0,514.0,507.0
521.0,518.0,528.0,514.0,506.0
514.0,515.0,522.0,509.0,509.0
509.0,509.0,515.0,506.0,513.0
504.0,506.0,510.0,500.0,516.0
502.0,501.0,504.0,497.0,521.0
500.0,500.0,507.0,499.0,519.0
504.0,502.0,510.0,505.0,518.0
510.0,505.0,517.0,511.0,522.0
512.0,504.0,515.0,516.0,519.0
522.0,508.0,522.0,520.0,519.0
515.0,506.0,520.0,516.0,518.0
509.0,503.0,518.0,513.0,521.0
512.0,502.0,518.0,512.0,513.0
514.0,506.0,519.0,515.0,509.0
515.0,512.0,521.0,514.0,508.0
514.0,514.0,527.0,517.0,509.0
519.0,517.0,527.0,517.0,499.0
522.0,517.0,529.0,514.0,502.0
519.0,513.0,520.0,507.0,506.0
506.0,508.0,512.0,508.0,514.0
500.0,505.0,508.0,502.0,515.0
498.0,501.0,506.0,500.0,521.0
497.0,500.0,506.0,503.0,519.0
505.0,507.0,512.0,507.0,520.0
513.0,504.0,518.0,516.0,516.0
518.0,507.0,518.0,518.0,512.0
524.0,507.0,521.0,521.0,507.0
518.0,503.0,518.0,516.0,510.0
518.0,504.0,521.0,513.0,514.0
515.0,502.0,522.0,514.0,515.0
516.0,511.0,521.0,514.0,511.0
516.0,510.0,523.0,513.0,511.0
524.0,516.0,528.0,516.0,502.0
522.0,517.0,527.0,518.0,500.0
518.0,516.0,522.0,514.0,505.0
517.0,514.0,517.0,507.0,505.0
510.0,509.0,512.0,501.0,508.0
503.0,505.0,507.0,497.0,514.0
501.0,502.0,507.0,500.0,518.0
501.0,500.0,509.0,503.0,521.0
505.0,504.0,513.0,510.0,524.0
510.0,509.0,517.0,515.0,516.0
512.0,507.0,520.0,520.0,516.0
516.0,505.0,519.0,518.0,517.0
509.0,501.0,517.0,510.0,518.0
506.0,501.0,511.0,511.0,520.0
511.0,506.0,518.0,512.0,518.0
514.0,505.0,523.0,514.0,516.0
520.0,512.0,523.0,508.0,510.0
520.0,513.0,523.0,513.0,510.0
517.0,515.0,525.0,511.0,514.0
515.0,514.0,523.0,506.0,512.0
508.0,509.0,514.0,502.0,504.0
501.0,503.0,508.0,496.0,500.0
496.0,498.0,502.0,495.0,512.0
500.0,498.0,503.0,498.0,513.0
503.0,502.0,510.0,508.0,514.0
509.0,503.0,515.0,512.0,515.0
519.0,505.0,520.0,517.0,520.0
520.0,507.0,522.0,519.0,521.0
521.0,508.0,524.0,517.0,520.0
515.0,503.0,517.0,514.0,525.0
516.0,506.0,520.0,517.0,516.0
513.0,505.0,519.0,514.0,509.0
516.0,509.0,521.0,511.0,503.0
521.0,518.0,527.0,515.0,506.0
525.0,516.0,530.0,516.0,504.0
520.0,515.0,524.0,511.0,505.0
517.0,512.0,524.0,507.0,505.0
508.0,507.0,512.0,502.0,507.0
505.0,504.0,513.0,499.0,510.0
502.0,504.0,506.0,499.0,517.0
504.0,501.0,508.0,503.0,520.0
504.0,502.0,513.0,508.0,519.0
514.0,503.0,516.0,513.0,517.0
516.0,505.0,520.0,517.0,514.0
516.0,505.0,521.0,516.0,519.0
515.0,504.0,519.0,518.0,520.0
510.0,502.0,518.0,516.0,523.0
512.0,504.0,518.0,513.0,520.0
516.0,506.0,520.0,514.0,513.0
517.0,510.0,523.0,515.0,511.0
522.0,513.0,525.0,515.0,506.0
520.0,515.0,527.0,514.0,503.0
524.0,516.0,525.0,511.0,501.0
512.0,512.0,517.0,507.0,505.0
506.0,509.0,513.0,501.0,505.0
501.0,504.0,508.0,500.0,512.0
498.0,499.0,505.0,498.0,522.0
502.0,499.0,508.0,503.0,526.0
507.0,501.0,513.0,509.0,519.0
514.0,504.0,518.0,518.0,518.0
515.0,505.0,520.0,519.0,517.0
518.0,505.0,518.0,519.0,518.0
514.0,506.0,524.0,518.0,520.0
512.0,503.0,515.0,512.0,519.0
515.0,505.0,517.0,511.0,517.0
516.0,510.0,522.0,514.0,515.0
520.0,512.0,522.0,511.0,511.0
520.0,515.0,526.0,518.0,507.0
520.0,516.0,525.0,515.0,503.0
515.0,514.0,523.0,510.0,506.0
509.0,510.0,516.0,506.0,510.0
507.0,503.0,511.0,500.0,517.0
503.0,501.0,506.0,497.0,516.0
500.0,503.0,505.0,499.0,520.0
503.0,497.0,510.0,506.0,518.0
509.0,503.0,512.0,513.0,518.0
508.0,503.0,515.0,513.0,522.0
519.0,505.0,520.0,517.0,520.0
514.0,504.0,518.0,515.0,522.0
510.0,505.0,514.0,509.0,518.0
511.0,505.0,518.0,515.0,522.0
512.0,505.0,517.0,514.0,525.0
515.0,504.0,518.0,513.0,515.0
517.0,514.0,525.0,522.0,508.0
521.0,519.0,525.0,515.0,508.0
516.0,514.0,523.0,509.0,504.0
511.0,512.0,516.0,508.0,505.0
512.0,509.0,514.0,500.0,516.0
504.0,506.0,514.0,501.0,511.0
499.0,501.0,506.0,499.0,513.0
500.0,500.0,505.0,499.0,519.0
511.0,505.0,512.0,510.0,518.0
512.0,505.0,516.0,515.0,516.0
516.0,507.0,521.0,524.0,515.0
516.0,508.0,523.0,521.0,515.0
512.0,505.0,520.0,518.0,517.0
513.0,505.0,515.0,514.0,516.0
514.0,508.0,517.0,513.0,514.0
517.0,509.0,521.0,516.0,514.0
519.0,513.0,525.0,512.0,511.0
521.0,513.0,526.0,515.0,508.0
519.0,518.0,527.0,512.0,505.0
519.0,519.0,526.0,512.0,506.0
513.0,516.0,518.0,505.0,507.0
507.0,508.0,515.0,501.0,509.0
501.0,503.0,508.0,498.0,517.0
483.0,493.0,493.0,484.0,528.0
485.0,490.0,495.0,488.0,532.0
492.0,496.0,499.0,495.0,529.0
494.0,495.0,502.0,501.0,529.0
516.0,511.0,513.0,512.0,510.0
520.0,510.0,518.0,525.0,507.0
524.0,513.0,530.0,528.0,513.0
529.0,519.0,531.0,537.0,511.0
530.0,517.0,534.0,539.0,511.0
532.0,516.0,538.0,538.0,505.0
533.0,514.0,532.0,540.0,507.0
530.0,512.0,528.0,533.0,507.0
531.0,513.0,528.0,527.0,505.0
532.0,511.0,529.0,529.0,504.0
535.0,519.0,533.0,529.0,503.0
539.0,526.0,532.0,532.0,502.0
537.0,525.0,533.0,531.0,501.0
530.0,521.0,527.0,521.0,499.0
528.0,522.0,525.0,519.0,499.0
519.0,514.0,516.0,514.0,500.0
510.0,509.0,510.0,508.0,507.0
511.0,507.0,509.0,509.0,514.0
510.0,509.0,512.0,514.0,513.0
521.0,510.0,523.0,524.0,511.0
523.0,509.0,522.0,528.0,512.0
522.0,509.0,526.0,529.0,518.0
523.0,509.0,526.0,531.0,508.0
523.0,507.0,524.0,529.0,515.0
526.0,508.0,526.0,526.0,513.0
527.0,509.0,522.0,524.0,513.0
526.0,512.0,523.0,523.0,511.0
526.0,513.0,525.0,522.0,508.0
533.0,521.0,529.0,521.0,502.0
531.0,524.0,528.0,522.0,500.0
530.0,519.0,521.0,517.0,501.0
522.0,514.0,517.0,513.0,504.0
517.0,511.0,515.0,509.0,506.0
509.0,505.0,501.0,506.0,511.0
509.0,504.0,506.0,509.0,514.0
515.0,504.0,512.0,515.0,516.0
519.0,508.0,520.0,523.0,515.0
522.0,509.0,522.0,526.0,514.0
525.0,503.0,524.0,529.0,515.0
523.0,508.0,526.0,531.0,516.0
521.0,506.0,523.0,528.0,517.0
520.0,507.0,521.0,524.0,513.0
523.0,510.0,522.0,523.0,513.0
522.0,512.0,521.0,523.0,510.0
527.0,517.0,527.0,525.0,509.0
530.0,518.0,531.0,522.0,506.0
525.0,519.0,523.0,518.0,502.0
518.0,516.0,521.0,515.0,501.0
517.0,512.0,514.0,507.0,505.0
506.0,509.0,509.0,505.0,508.0
504.0,499.0,507.0,505.0,510.0
502.0,506.0,508.0,509.0,519.0
510.0,505.0,513.0,519.0,519.0
516.0,500.0,516.0,523.0,518.0
518.0,508.0,526.0,526.0,521.0
519.0,511.0,524.0,530.0,521.0
520.0,507.0,523.0,527.0,521.0
520.0,504.0,518.0,522.0,521.0
519.0,509.0,519.0,524.0,517.0
521.0,510.0,522.0,522.0,513.0
523.0,510.0,520.0,520.0,509.0
524.0,516.0,530.0,523.0,506.0
530.0,520.0,526.0,524.0,502.0
525.0,517.0,519.0,516.0,495.0
517.0,512.0,515.0,508.0,501.0
511.0,509.0,507.0,503.0,510.0
503.0,505.0,503.0,501.0,514.0
499.0,502.0,503.0,505.0,515.0
501.0,501.0,505.0,510.0,516.0
508.0,506.0,512.0,515.0,519.0
515.0,509.0,519.0,525.0,514.0
523.0,505.0,522.0,527.0,510.0
517.0,505.0,521.0,528.0,515.0
516.0,502.0,518.0,523.0,518.0
516.0,503.0,517.0,521.0,522.0
517.0,503.0,517.0,520.0,512.0
519.0,510.0,519.0,518.0,508.0
524.0,509.0,517.0,521.0,501.0
525.0,517.0,525.0,521.0,501.0
523.0,516.0,522.0,517.0,499.0
524.0,516.0,523.0,514.0,506.0
516.0,512.0,512.0,505.0,508.0
505.0,507.0,504.0,497.0,513.0
499.0,501.0,502.0,500.0,514.0
502.0,501.0,503.0,503.0,516.0
506.0,498.0,507.0,510.0,518.0
509.0,503.0,511.0,517.0,521.0
518.0,504.0,515.0,525.0,518.0
521.0,506.0,522.0,525.0,519.0
518.0,504.0,519.0,525.0,519.0
512.0,502.0,513.0,519.0,525.0
509.0,504.0,512.0,517.0,522.0
512.0,504.0,515.0,520.0,508.0
518.0,507.0,518.0,517.0,506.0
522.0,517.0,523.0,520.0,506.0
531.0,519.0,529.0,520.0,503.0
522.0,517.0,520.0,511.0,508.0
519.0,517.0,516.0,508.0,512.0
514.0,509.0,511.0,504.0,514.0
507.0,508.0,506.0,500.0,515.0
504.0,503.0,503.0,503.0,516.0
502.0,500.0,504.0,507.0,515.0
503.0,504.0,509.0,512.0,512.0
509.0,506.0,515.0,520.0,514.0
519.0,505.0,520.0,524.0,511.0
517.0,505.0,521.0,525.0,516.0
516.0,506.0,521.0,525.0,520.0
512.0,500.0,518.0,519.0,518.0
518.0,506.0,519.0,518.0,518.0
518.0,507.0,521.0,519.0,521.0
518.0,512.0,518.0,518.0,515.0
525.0,515.0,523.0,522.0,507.0
525.0,518.0,522.0,518.0,499.0
520.0,515.0,519.0,514.0,501.0
513.0,513.0,513.0,510.0,503.0
507.0,507.0,506.0,503.0,510.0
503.0,502.0,502.0,500.0,516.0
500.0,500.0,501.0,500.0,522.0
502.0,502.0,506.0,507.0,528.0
504.0,501.0,509.0,513.0,523.0
514.0,503.0,517.0,522.0,519.0
516.0,508.0,517.0,525.0,514.0
519.0,510.0,521.0,527.0,517.0
519.0,503.0,516.0,522.0,517.0
514.0,505.0,515.0,520.0,515.0
516.0,505.0,516.0,518.0,514.0
522.0,508.0,516.0,516.0,519.0
522.0,510.0,518.0,517.0,511.0
525.0,516.0,527.0,520.0,503.0
526.0,518.0,526.0,517.0,500.0
523.0,518.0,519.0,517.0,502.0
515.0,511.0,511.0,505.0,506.0
507.0,507.0,505.0,502.0,510.0
503.0,501.0,501.0,501.0,516.0
503.0,505.0,503.0,504.0,518.0
506.0,500.0,504.0,510.0,513.0
511.0,503.0,510.0,518.0,514.0
517.0,505.0,516.0,523.0,517.0
520.0,506.0,521.0,525.0,519.0
517.0,505.0,518.0,522.0,519.0
509.0,502.0,516.0,521.0,525.0
509.0,501.0,514.0,519.0,519.0
515.0,505.0,516.0,517.0,515.0
515.0,508.0,516.0,516.0,512.0
519.0,512.0,516.0,518.0,511.0
523.0,516.0,522.0,521.0,510.0
516.0,515.0,518.0,514.0,511.0
513.0,514.0,516.0,512.0,514.0
506.0,510.0,510.0,504.0,512.0
504.0,504.0,505.0,498.0,509.0
494.0,503.0,498.0,496.0,514.0
497.0,497.0,498.0,500.0,514.0
505.0,500.0,506.0,512.0,517.0
515.0,503.0,513.0,519.0,511.0
520.0,503.0,516.0,523.0,512.0
517.0,503.0,517.0,519.0,513.0
514.0,502.0,516.0,522.0,515.0
514.0,500.0,513.0,519.0,518.0
516.0,506.0,514.0,518.0,517.0
516.0,506.0,519.0,518.0,514.0
514.0,506.0,517.0,518.0,512.0
519.0,513.0,521.0,519.0,509.0
524.0,517.0,525.0,517.0,503.0
526.0,519.0,519.0,516.0,500.0
520.0,513.0,516.0,508.0,504.0
510.0,509.0,506.0,504.0,505.0
507.0,503.0,503.0,502.0,512.0
503.0,501.0,501.0,503.0,517.0
503.0,499.0,504.0,507.0,520.0
508.0,501.0,509.0,513.0,520.0
515.0,505.0,516.0,522.0,517.0
516.0,504.0,516.0,523.0,516.0
519.0,507.0,524.0,528.0,518.0
517.0,503.0,515.0,523.0,518.0
514.0,503.0,514.0,519.0,520.0
518.0,504.0,515.0,517.0,516.0
521.0,508.0,518.0,524.0,515.0
520.0,510.0,519.0,520.0,508.0
522.0,516.0,523.0,522.0,512.0
520.0,519.0,524.0,517.0,507.0
517.0,515.0,516.0,512.0,507.0
511.0,510.0,510.0,508.0,506.0
506.0,507.0,505.0,501.0,514.0
499.0,504.0,501.0,499.0,518.0
502.0,499.0,501.0,503.0,515.0
504.0,501.0,507.0,510.0,518.0
510.0,500.0,512.0,516.0,520.0
518.0,502.0,515.0,520.0,517.0
525.0,507.0,521.0,525.0,515.0
519.0,504.0,521.0,527.0,518.0
519.0,502.0,515.0,525.0,518.0
518.0,502.0,515.0,520.0,516.0
521.0,504.0,515.0,518.0,517.0
515.0,507.0,516.0,514.0,515.0
520.0,511.0,519.0,520.0,508.0
523.0,515.0,523.0,520.0,503.0
521.0,516.0,519.0,519.0,504.0
514.0,512.0,516.0,511.0,505.0
508.0,508.0,508.0,508.0,510.0
506.0,505.0,505.0,502.0,512.0
502.0,500.0,501.0,501.0,515.0
503.0,500.0,505.0,503.0,517.0
507.0,500.0,507.0,513.0,518.0
509.0,503.0,519.0,521.0,515.0
511.0,502.0,518.0,525.0,515.0
517.0,504.0,521.0,530.0,512.0
514.0,507.0,519.0,524.0,524.0
513.0,500.0,514.0,521.0,522.0
511.0,501.0,514.0,518.0,521.0
514.0,504.0,516.0,516.0,521.0
513.0,504.0,516.0,516.0,522.0
524.0,516.0,521.0,517.0,521.0
524.0,518.0,520.0,516.0,514.0
523.0,513.0,516.0,514.0,504.0
523.0,510.0,510.0,504.0,508.0
514.0,508.0,506.0,502.0,510.0
504.0,505.0,503.0,501.0,515.0
503.0,499.0,501.0,501.0,515.0
497.0,497.0,501.0,501.0,516.0
505.0,498.0,510.0,509.0,513.0
512.0,505.0,518.0,521.0,510.0
513.0,508.0,519.0,524.0,512.0
514.0,504.0,520.0,526.0,511.0
513.0,503.0,519.0,523.0,514.0
515.0,503.0,515.0,521.0,514.0
513.0,504.0,516.0,524.0,517.0
518.0,506.0,517.0,518.0,513.0
522.0,509.0,523.0,517.0,514.0
522.0,513.0,521.0,521.0,505.0
523.0,516.0,523.0,516.0,499.0
523.0,514.0,520.0,512.0,509.0
515.0,509.0,508.0,506.0,507.0
508.0,509.0,504.0,501.0,511.0
502.0,500.0,501.0,499.0,519.0
500.0,499.0,502.0,502.0,521.0
503.0,504.0,505.0,509.0,519.0
510.0,504.0,514.0,517.0,523.0
518.0,500.0,515.0,521.0,516.0
520.0,506.0,521.0,525.0,510.0
516.0,505.0,523.0,526.0,509.0
512.0,502.0,516.0,523.0,513.0
511.0,504.0,514.0,514.0,521.0
514.0,502.0,514.0,515.0,520.0
520.0,508.0,518.0,519.0,511.0
522.0,512.0,523.0,519.0,506.0
528.0,515.0,524.0,518.0,501.0
526.0,517.0,522.0,515.0,503.0
519.0,515.0,517.0,509.0,508.0
513.0,510.0,513.0,504.0,512.0
505.0,507.0,505.0,502.0,512.0
502.0,500.0,502.0,501.0,519.0
499.0,499.0,503.0,502.0,526.0
505.0,501.0,509.0,511.0,526.0
512.0,503.0,512.0,518.0,520.0
516.0,503.0,516.0,522.0,519.0
517.0,504.0,520.0,525.0,519.0
517.0,503.0,519.0,523.0,519.0
513.0,501.0,515.0,520.0,524.0
513.0,503.0,515.0,518.0,513.0
514.0,506.0,517.0,520.0,505.0
516.0,508.0,517.0,519.0,503.0
521.0,514.0,522.0,521.0,498.0
525.0,519.0,523.0,516.0,494.0
518.0,514.0,519.0,514.0,502.0
513.0,512.0,514.0,509.0,513.0
507.0,508.0,508.0,505.0,511.0
503.0,504.0,504.0,505.0,514.0
503.0,501.0,502.0,501.0,516.0
504.0,501.0,505.0,509.0,516.0
510.0,504.0,508.0,514.0,514.0
515.0,504.0,515.0,523.0,516.0
513.0,502.0,517.0,523.0,522.0
514.0,506.0,517.0,522.0,522.0
511.0,503.0,516.0,519.0,532.0
509.0,505.0,515.0,517.0,528.0
517.0,506.0,517.0,520.0,520.0
514.0,504.0,515.0,517.0,518.0
514.0,507.0,517.0,513.0,513.0
523.0,517.0,520.0,520.0,505.0
521.0,517.0,522.0,519.0,500.0
516.0,516.0,514.0,511.0,498.0
512.0,510.0,512.0,505.0,505.0
503.0,506.0,503.0,502.0,511.0
499.0,502.0,501.0,500.0,514.0
499.0,505.0,502.0,499.0,524.0
501.0,498.0,508.0,509.0,528.0
508.0,503.0,513.0,516.0,521.0
513.0,506.0,517.0,520.0,516.0
515.0,505.0,521.0,527.0,517.0
518.0,506.0,521.0,526.0,517.0
515.0,504.0,516.0,522.0,515.0
512.0,503.0,516.0,520.0,521.0
515.0,504.0,515.0,520.0,514.0
519.0,506.0,516.0,514.0,508.0
523.0,512.0,520.0,520.0,506.0
523.0,515.0,521.0,519.0,503.0
521.0,513.0,521.0,517.0,503.0
516.0,515.0,515.0,510.0,503.0
510.0,510.0,510.0,504.0,505.0
505.0,506.0,500.0,501.0,510.0
499.0,500.0,501.0,497.0,513.0
500.0,497.0,500.0,500.0,516.0
505.0,500.0,506.0,510.0,521.0
508.0,503.0,515.0,522.0,518.0
514.0,508.0,517.0,522.0,520.0
519.0,507.0,523.0,524.0,517.0
519.0,507.0,521.0,525.0,518.0
513.0,501.0,513.0,519.0,517.0
513.0,502.0,516.0,519.0,518.0
514.0,504.0,516.0,521.0,513.0
515.0,507.0,517.0,515.0,510.0
521.0,514.0,522.0,520.0,506.0
522.0,511.0,522.0,517.0,503.0
523.0,516.0,518.0,509.0,501.0
518.0,512.0,513.0,507.0,507.0
511.0,507.0,505.0,503.0,509.0
506.0,506.0,502.0,500.0,514.0
502.0,494.0,500.0,501.0,518.0
501.0,500.0,501.0,503.0,524.0
505.0,499.0,507.0,511.0,525.0
511.0,503.0,514.0,521.0,521.0
515.0,505.0,518.0,526.0,518.0
520.0,504.0,519.0,528.0,511.0
515.0,503.0,518.0,522.0,515.0
513.0,504.0,516.0,519.0,518.0
514.0,503.0,515.0,522.0,516.0
513.0,506.0,517.0,517.0,511.0
512.0,508.0,519.0,517.0,511.0
521.0,514.0,521.0,518.0,509.0
525.0,519.0,526.0,517.0,509.0
525.0,515.0,517.0,511.0,507.0
515.0,511.0,516.0,506.0,513.0
507.0,511.0,507.0,502.0,510.0
502.0,499.0,501.0,498.0,513.0
497.0,498.0,500.0,499.0,511.0
498.0,499.0,501.0,504.0,514.0
503.0,500.0,510.0,519.0,515.0
511.0,503.0,515.0,523.0,515.0
519.0,504.0,518.0,525.0,516.0
513.0,501.0,516.0,521.0,519.0
515.0,503.0,517.0,519.0,523.0
515.0,500.0,513.0,516.0,520.0
517.0,506.0,520.0,518.0,512.0
514.0,510.0,520.0,518.0,510.0
516.0,509.0,518.0,517.0,512.0
517.0,512.0,518.0,512.0,507.0
521.0,516.0,521.0,519.0,506.0
518.0,514.0,515.0,508.0,502.0
516.0,510.0,510.0,508.0,506.0
509.0,509.0,505.0,506.0,510.0
505.0,503.0,505.0,500.0,512.0
509.0,501.0,506.0,504.0,511.0
506.0,502.0,508.0,508.0,513.0
513.0,504.0,515.0,518.0,514.0
518.0,505.0,522.0,523.0,517.0
518.0,505.0,521.0,526.0,520.0
514.0,503.0,519.0,524.0,527.0
512.0,501.0,515.0,519.0,522.0
517.0,505.0,518.0,521.0,520.0
515.0,507.0,516.0,515.0,519.0
515.0,507.0,518.0,521.0,516.0
524.0,514.0,522.0,518.0,508.0
527.0,518.0,527.0,516.0,506.0
521.0,515.0,519.0,511.0,514.0
519.0,511.0,511.0,509.0,506.0
510.0,506.0,506.0,502.0,515.0
504.0,506.0,505.0,499.0,521.0
498.0,503.0,500.0,500.0,521.0
498.0,500.0,502.0,507.0,516.0
506.0,499.0,507.0,513.0,510.0
520.0,504.0,514.0,521.0,505.0
520.0,505.0,520.0,524.0,515.0
523.0,505.0,520.0,526.0,518.0
515.0,503.0,516.0,524.0,519.0
516.0,502.0,514.0,519.0,523.0
521.0,504.0,515.0,518.0,518.0
517.0,510.0,518.0,518.0,517.0
517.0,508.0,517.0,516.0,515.0
521.0,512.0,522.0,517.0,508.0
521.0,516.0,522.0,517.0,508.0
515.0,514.0,517.0,511.0,510.0
513.0,516.0,513.0,509.0,510.0
506.0,507.0,507.0,504.0,509.0
501.0,503.0,501.0,494.0,513.0
498.0,504.0,500.0,505.0,515.0
499.0,502.0,506.0,508.0,511.0
511.0,503.0,514.0,515.0,510.0
515.0,502.0,515.0,519.0,513.0
523.0,504.0,517.0,522.0,515.0
519.0,504.0,518.0,524.0,515.0
518.0,502.0,517.0,522.0,514.0
511.0,501.0,514.0,518.0,521.0
511.0,503.0,514.0,516.0,520.0
513.0,508.0,520.0,522.0,515.0
521.0,511.0,520.0,518.0,506.0
522.0,514.0,522.0,519.0,506.0
521.0,516.0,521.0,516.0,505.0
516.0,516.0,513.0,509.0,508.0
511.0,505.0,508.0,502.0,509.0
505.0,503.0,503.0,500.0,521.0
503.0,496.0,499.0,497.0,523.0
502.0,499.0,503.0,502.0,523.0
500.0,499.0,504.0,508.0,525.0
508.0,500.0,506.0,514.0,520.0
507.0,503.0,514.0,521.0,515.0
514.0,508.0,517.0,525.0,513.0
516.0,504.0,512.0,523.0,514.0
511.0,502.0,517.0,522.0,516.0
508.0,502.0,513.0,521.0,516.0
512.0,505.0,515.0,517.0,518.0
516.0,507.0,515.0,517.0,514.0
522.0,513.0,521.0,517.0,515.0
526.0,516.0,521.0,517.0,507.0
520.0,516.0,519.0,513.0,507.0
516.0,516.0,514.0,508.0,504.0
510.0,508.0,507.0,502.0,510.0
505.0,507.0,504.0,502.0,510.0
502.0,504.0,504.0,503.0,508.0
501.0,502.0,504.0,505.0,510.0
505.0,503.0,509.0,517.0,509.0
512.0,505.0,514.0,519.0,511.0
514.0,506.0,517.0,522.0,519.0
514.0,505.0,519.0,524.0,530.0
516.0,505.0,518.0,520.0,529.0
511.0,503.0,517.0,520.0,528.0
513.0,508.0,514.0,518.0,524.0
515.0,506.0,517.0,516.0,519.0
518.0,509.0,517.0,517.0,515.0
524.0,514.0,523.0,517.0,513.0
528.0,517.0,521.0,516.0,501.0
521.0,512.0,520.0,513.0,501.0
513.0,507.0,510.0,509.0,504.0
504.0,507.0,506.0,508.0,511.0
501.0,503.0,505.0,501.0,516.0
498.0,499.0,501.0,500.0,521.0
500.0,500.0,504.0,506.0,521.0
507.0,501.0,509.0,514.0,517.0
512.0,504.0,516.0,519.0,521.0
516.0,505.0,520.0,529.0,521.0
516.0,505.0,520.0,523.0,522.0
514.0,503.0,516.0,520.0,528.0
515.0,504.0,514.0,517.0,525.0
514.0,504.0,516.0,517.0,516.0
518.0,503.0,516.0,518.0,512.0
520.0,514.0,518.0,518.0,508.0
528.0,516.0,524.0,518.0,506.0
523.0,516.0,521.0,515.0,507.0
522.0,514.0,517.0,512.0,505.0
509.0,510.0,512.0,506.0,505.0
507.0,505.0,504.0,502.0,506.0
498.0,500.0,500.0,499.0,514.0
497.0,498.0,497.0,503.0,513.0
501.0,501.0,508.0,510.0,507.0
508.0,503.0,512.0,516.0,513.0
512.0,504.0,516.0,524.0,515.0
518.0,505.0,522.0,525.0,512.0
518.0,504.0,518.0,525.0,520.0
515.0,501.0,514.0,520.0,516.0
514.0,505.0,515.0,518.0,519.0
515.0,506.0,516.0,516.0,513.0
519.0,508.0,516.0,517.0,509.0
525.0,512.0,517.0,515.0,514.0
525.0,514.0,521.0,515.0,511.0
514.0,514.0,514.0,510.0,510.0
509.0,511.0,513.0,507.0,507.0
510.0,509.0,511.0,503.0,506.0
503.0,507.0,506.0,504.0,505.0
497.0,502.0,502.0,501.0,511.0
495.0,498.0,499.0,502.0,521.0
503.0,500.0,507.0,517.0,521.0
512.0,504.0,514.0,518.0,519.0
514.0,502.0,516.0,519.0,519.0
519.0,504.0,517.0,521.0,518.0
515.0,502.0,517.0,519.0,518.0
515.0,501.0,515.0,519.0,514.0
516.0,503.0,515.0,519.0,515.0
516.0,506.0,513.0,518.0,513.0
524.0,511.0,519.0,516.0,516.0
521.0,515.0,521.0,519.0,509.0
526.0,517.0,521.0,516.0,504.0
514.0,514.0,518.0,512.0,504.0
511.0,512.0,513.0,509.0,505.0
507.0,508.0,506.0,504.0,508.0
502.0,503.0,501.0,500.0,515.0
500.0,500.0,503.0,501.0,518.0
502.0,500.0,503.0,506.0,521.0
510.0,502.0,510.0,514.0,522.0
515.0,504.0,512.0,521.0,516.0
515.0,505.0,518.0,526.0,519.0
517.0,504.0,520.0,526.0,517.0
513.0,503.0,516.0,522.0,521.0
514.0,505.0,513.0,517.0,516.0
518.0,504.0,518.0,519.0,511.0
516.0,506.0,517.0,519.0,506.0
517.0,510.0,519.0,517.0,503.0
522.0,516.0,526.0,518.0,509.0
522.0,516.0,523.0,516.0,512.0
521.0,515.0,520.0,510.0,508.0
510.0,510.0,512.0,505.0,505.0
502.0,505.0,505.0,507.0,508.0
500.0,502.0,500.0,501.0,509.0
500.0,499.0,500.0,505.0,518.0
503.0,502.0,505.0,510.0,520.0
510.0,504.0,512.0,516.0,518.0
513.0,505.0,517.0,523.0,519.0
515.0,504.0,520.0,527.0,517.0
515.0,505.0,521.0,526.0,518.0
515.0,501.0,515.0,520.0,520.0
514.0,502.0,514.0,520.0,518.0
513.0,505.0,516.0,518.0,520.0
520.0,509.0,518.0,516.0,515.0
521.0,513.0,524.0,520.0,511.0
523.0,518.0,521.0,514.0,506.0
525.0,517.0,520.0,514.0,507.0
516.0,515.0,517.0,509.0,511.0
510.0,510.0,508.0,504.0,514.0
505.0,505.0,505.0,501.0,512.0
499.0,500.0,496.0,499.0,520.0
499.0,501.0,505.0,503.0,517.0
504.0,502.0,512.0,512.0,520.0
512.0,504.0,519.0,519.0,515.0
513.0,504.0,521.0,524.0,518.0
517.0,509.0,522.0,522.0,514.0
516.0,503.0,517.0,526.0,513.0
517.0,502.0,510.0,521.0,514.0
513.0,504.0,514.0,520.0,516.0
515.0,506.0,520.0,516.0,517.0
517.0,510.0,518.0,517.0,518.0
521.0,513.0,519.0,515.0,517.0
523.0,516.0,518.0,516.0,515.0
520.0,517.0,518.0,513.0,511.0
515.0,512.0,513.0,508.0,512.0
512.0,506.0,507.0,500.0,516.0
504.0,502.0,500.0,502.0,508.0
500.0,499.0,495.0,497.0,513.0
507.0,498.0,503.0,502.0,517.0
506.0,499.0,504.0,512.0,516.0
506.0,506.0,515.0,520.0,510.0
510.0,505.0,520.0,528.0,510.0
511.0,504.0,520.0,528.0,518.0
512.0,503.0,518.0,522.0,518.0
511.0,502.0,517.0,521.0,517.0
512.0,505.0,517.0,518.0,517.0
516.0,512.0,519.0,520.0,517.0
518.0,511.0,521.0,520.0,512.0
521.0,519.0,522.0,518.0,505.0
521.0,518.0,524.0,518.0,509.0
514.0,516.0,518.0,515.0,512.0
509.0,511.0,512.0,507.0,515.0
506.0,506.0,507.0,502.0,516.0
499.0,502.0,504.0,501.0,518.0
500.0,503.0,507.0,505.0,521.0
503.0,502.0,507.0,509.0,516.0
512.0,504.0,512.0,516.0,517.0
515.0,506.0,518.0,522.0,521.0
517.0,505.0,518.0,524.0,516.0
520.0,504.0,520.0,524.0,503.0
517.0,502.0,516.0,522.0,508.0
516.0,501.0,513.0,519.0,508.0
517.0,502.0,514.0,514.0,506.0
517.0,506.0,518.0,516.0,505.0
519.0,513.0,525.0,519.0,516.0
516.0,516.0,523.0,523.0,510.0
517.0,515.0,521.0,515.0,507.0
518.0,512.0,514.0,508.0,511.0
510.0,508.0,508.0,504.0,511.0
505.0,506.0,505.0,500.0,514.0
499.0,503.0,503.0,501.0,521.0
500.0,500.0,504.0,505.0,523.0
508.0,503.0,508.0,513.0,523.0
512.0,504.0,513.0,519.0,520.0
519.0,505.0,517.0,522.0,512.0
516.0,505.0,519.0,526.0,514.0
512.0,504.0,520.0,524.0,516.0
510.0,501.0,516.0,524.0,522.0
513.0,508.0,519.0,520.0,533.0
516.0,506.0,521.0,516.0,538.0
515.0,507.0,517.0,517.0,520.0
520.0,514.0,521.0,519.0,510.0
525.0,517.0,519.0,519.0,498.0
518.0,513.0,517.0,511.0,504.0
512.0,511.0,512.0,506.0,510.0
505.0,506.0,508.0,503.0,509.0
506.0,504.0,502.0,500.0,508.0
501.0,500.0,501.0,501.0,510.0
501.0,501.0,503.0,505.0,518.0
511.0,504.0,509.0,511.0,516.0
512.0,509.0,516.0,519.0,513.0
513.0,511.0,520.0,524.0,515.0
518.0,504.0,518.0,523.0,512.0
511.0,503.0,517.0,522.0,519.0
510.0,499.0,511.0,514.0,522.0
513.0,505.0,514.0,516.0,515.0
513.0,506.0,518.0,518.0,504.0
518.0,511.0,518.0,514.0,504.0
521.0,513.0,519.0,515.0,505.0
517.0,516.0,521.0,518.0,505.0
518.0,516.0,517.0,511.0,504.0
511.0,510.0,512.0,505.0,507.0
503.0,505.0,504.0,499.0,509.0
498.0,499.0,503.0,496.0,515.0
498.0,499.0,500.0,500.0,523.0
503.0,499.0,506.0,508.0,517.0
510.0,504.0,511.0,514.0,517.0
512.0,504.0,516.0,525.0,518.0
518.0,506.0,520.0,521.0,515.0
517.0,507.0,524.0,526.0,516.0
512.0,503.0,516.0,522.0,515.0
511.0,504.0,515.0,523.0,519.0
514.0,506.0,517.0,518.0,516.0
518.0,510.0,518.0,520.0,512.0
526.0,514.0,523.0,519.0,508.0
526.0,516.0,520.0,518.0,504.0
520.0,518.0,521.0,517.0,502.0
516.0,514.0,515.0,512.0,505.0
510.0,513.0,510.0,504.0,509.0
505.0,505.0,504.0,501.0,515.0
501.0,501.0,500.0,500.0,521.0
500.0,502.0,506.0,504.0,522.0
505.0,501.0,509.0,516.0,520.0
508.0,500.0,514.0,519.0,519.0
515.0,504.0,518.0,522.0,514.0
517.0,506.0,521.0,528.0,520.0
521.0,505.0,520.0,524.0,514.0
517.0,503.0,517.0,522.0,517.0
512.0,503.0,517.0,524.0,520.0
512.0,504.0,515.0,517.0,522.0
517.0,507.0,516.0,515.0,518.0
523.0,517.0,522.0,519.0,511.0
524.0,515.0,522.0,517.0,505.0
524.0,516.0,515.0,514.0,505.0
517.0,512.0,513.0,508.0,511.0
509.0,507.0,506.0,501.0,518.0
501.0,504.0,503.0,500.0,522.0
499.0,505.0,503.0,502.0,521.0
500.0,500.0,504.0,506.0,521.0
509.0,500.0,509.0,512.0,515.0
516.0,504.0,514.0,523.0,504.0
516.0,509.0,518.0,523.0,508.0
520.0,509.0,520.0,524.0,511.0
518.0,504.0,519.0,523.0,514.0
517.0,504.0,515.0,520.0,512.0
518.0,507.0,517.0,518.0,517.0
518.0,509.0,517.0,523.0,516.0
520.0,510.0,519.0,518.0,510.0
523.0,515.0,521.0,517.0,507.0
522.0,517.0,521.0,520.0,511.0
514.0,513.0,516.0,509.0,517.0
508.0,511.0,514.0,507.0,514.0
506.0,509.0,510.0,504.0,514.0
499.0,505.0,507.0,501.0,523.0
501.0,502.0,507.0,503.0,522.0
501.0,501.0,510.0,509.0,520.0
505.0,501.0,513.0,515.0,517.0
512.0,500.0,510.0,519.0,518.0
515.0,502.0,511.0,521.0,519.0
517.0,506.0,518.0,526.0,520.0
515.0,505.0,514.0,521.0,528.0
513.0,503.0,515.0,520.0,531.0
511.0,502.0,513.0,517.0,510.0
512.0,505.0,514.0,520.0,496.0
520.0,511.0,521.0,520.0,502.0
522.0,513.0,520.0,516.0,503.0
524.0,515.0,518.0,512.0,500.0
516.0,511.0,512.0,508.0,504.0
509.0,506.0,506.0,502.0,511.0
505.0,505.0,504.0,502.0,513.0
501.0,505.0,502.0,501.0,516.0
508.0,500.0,502.0,504.0,518.0
506.0,503.0,508.0,511.0,517.0
510.0,504.0,514.0,515.0,520.0
514.0,503.0,516.0,521.0,517.0
517.0,506.0,522.0,526.0,521.0
518.0,506.0,525.0,524.0,524.0
513.0,506.0,515.0,521.0,524.0
517.0,505.0,521.0,520.0,522.0
518.0,504.0,514.0,518.0,518.0
521.0,503.0,518.0,515.0,514.0
524.0,516.0,523.0,521.0,503.0
525.0,517.0,523.0,517.0,499.0
521.0,513.0,519.0,513.0,498.0
517.0,511.0,511.0,507.0,496.0
504.0,506.0,507.0,503.0,511.0
505.0,504.0,505.0,500.0,519.0
502.0,500.0,503.0,500.0,526.0
508.0,501.0,507.0,504.0,522.0
510.0,502.0,515.0,512.0,517.0
517.0,501.0,522.0,521.0,517.0
520.0,504.0,524.0,524.0,518.0
520.0,505.0,525.0,524.0,512.0
518.0,507.0,512.0,523.0,517.0
516.0,501.0,507.0,518.0,519.0
516.0,501.0,512.0,519.0,519.0
516.0,505.0,514.0,516.0,516.0
516.0,507.0,512.0,515.0,514.0
521.0,514.0,519.0,520.0,502.0
520.0,518.0,522.0,518.0,501.0
517.0,515.0,517.0,513.0,504.0
511.0,514.0,512.0,507.0,508.0
504.0,507.0,506.0,502.0,513.0
500.0,500.0,501.0,499.0,517.0
498.0,499.0,502.0,503.0,519.0
500.0,500.0,506.0,512.0,520.0
506.0,502.0,511.0,516.0,519.0
516.0,504.0,515.0,521.0,516.0
519.0,507.0,520.0,526.0,518.0
518.0,506.0,519.0,525.0,520.0
518.0,505.0,522.0,523.0,523.0
514.0,503.0,518.0,520.0,522.0
517.0,504.0,516.0,520.0,520.0
518.0,508.0,517.0,518.0,521.0
521.0,508.0,523.0,518.0,516.0
524.0,515.0,523.0,518.0,510.0
518.0,518.0,524.0,517.0,504.0
516.0,515.0,515.0,513.0,501.0
512.0,509.0,509.0,501.0,504.0
503.0,507.0,504.0,501.0,512.0
500.0,501.0,498.0,498.0,518.0
495.0,502.0,500.0,502.0,522.0
502.0,499.0,505.0,508.0,524.0
504.0,503.0,512.0,517.0,515.0
513.0,503.0,520.0,522.0,510.0
515.0,503.0,514.0,525.0,514.0
516.0,502.0,515.0,521.0,517.0
512.0,500.0,512.0,516.0,519.0
516.0,502.0,518.0,518.0,510.0
517.0,506.0,518.0,520.0,513.0
514.0,508.0,516.0,518.0,508.0
518.0,512.0,519.0,515.0,512.0
524.0,515.0,520.0,517.0,500.0
522.0,516.0,519.0,513.0,495.0
515.0,512.0,513.0,506.0,503.0
508.0,508.0,510.0,504.0,516.0
503.0,504.0,504.0,502.0,523.0
502.0,499.0,500.0,500.0,526.0
503.0,500.0,503.0,504.0,529.0
508.0,505.0,512.0,514.0,529.0
515.0,505.0,519.0,520.0,524.0
518.0,507.0,518.0,524.0,524.0
519.0,506.0,518.0,525.0,522.0
520.0,505.0,516.0,523.0,515.0
512.0,508.0,517.0,522.0,526.0
511.0,502.0,516.0,518.0,527.0
512.0,508.0,515.0,517.0,513.0
521.0,509.0,522.0,518.0,505.0
522.0,514.0,524.0,518.0,504.0
526.0,517.0,527.0,514.0,505.0
519.0,517.0,521.0,511.0,509.0
518.0,512.0,515.0,507.0,507.0
507.0,505.0,506.0,501.0,509.0
502.0,501.0,498.0,500.0,511.0
502.0,500.0,500.0,506.0,504.0
510.0,499.0,505.0,505.0,493.0
514.0,496.0,508.0,516.0,508.0
514.0,502.0,514.0,526.0,513.0
518.0,503.0,523.0,527.0,513.0
519.0,504.0,521.0,524.0,504.0
515.0,502.0,517.0,521.0,509.0
508.0,500.0,516.0,517.0,513.0
510.0,506.0,516.0,515.0,509.0
514.0,508.0,516.0,516.0,517.0
514.0,510.0,519.0,515.0,524.0
519.0,518.0,520.0,518.0,516.0
521.0,514.0,519.0,517.0,505.0
520.0,512.0,513.0,510.0,504.0
517.0,508.0,504.0,505.0,510.0
510.0,505.0,505.0,501.0,514.0
503.0,505.0,501.0,500.0,518.0
503.0,500.0,503.0,501.0,530.0
500.0,502.0,512.0,510.0,525.0
507.0,509.0,525.0,522.0,521.0
515.0,509.0,529.0,526.0,523.0
520.0,510.0,536.0,528.0,521.0
521.0,508.0,531.0,529.0,523.0
517.0,504.0,519.0,528.0,528.0
517.0,503.0,505.0,529.0,521.0
520.0,504.0,509.0,522.0,512.0
518.0,510.0,513.0,515.0,505.0
519.0,512.0,515.0,524.0,501.0
519.0,515.0,514.0,516.0,501.0
523.0,518.0,509.0,504.0,498.0
518.0,514.0,504.0,494.0,513.0
510.0,508.0,503.0,495.0,519.0
504.0,503.0,500.0,497.0,514.0
500.0,500.0,503.0,501.0,516.0
501.0,502.0,505.0,509.0,518.0
505.0,505.0,512.0,516.0,517.0
511.0,505.0,519.0,524.0,515.0
513.0,504.0,518.0,522.0,513.0
516.0,504.0,521.0,525.0,516.0
517.0,505.0,519.0,522.0,516.0
513.0,504.0,518.0,522.0,524.0
513.0,503.0,515.0,519.0,519.0
516.0,505.0,515.0,516.0,518.0
516.0,508.0,517.0,515.0,514.0
520.0,515.0,523.0,523.0,508.0
525.0,518.0,523.0,521.0,497.0
520.0,517.0,516.0,515.0,497.0
518.0,514.0,512.0,508.0,498.0
510.0,506.0,508.0,505.0,508.0
503.0,498.0,504.0,499.0,522.0
504.0,503.0,508.0,502.0,529.0
504.0,496.0,507.0,507.0,530.0
507.0,504.0,515.0,515.0,528.0
518.0,506.0,518.0,524.0,517.0
515.0,505.0,516.0,526.0,509.0
520.0,505.0,520.0,526.0,504.0
512.0,503.0,516.0,523.0,508.0
513.0,501.0,515.0,518.0,511.0
516.0,503.0,516.0,520.0,512.0
517.0,507.0,519.0,523.0,512.0
519.0,511.0,519.0,521.0,507.0
526.0,516.0,523.0,519.0,498.0
529.0,516.0,521.0,516.0,499.0
524.0,516.0,515.0,510.0,501.0
511.0,510.0,510.0,506.0,511.0
508.0,508.0,507.0,508.0,511.0
502.0,500.0,502.0,501.0,517.0
499.0,499.0,501.0,504.0,521.0
500.0,502.0,508.0,512.0,517.0
506.0,503.0,514.0,518.0,524.0
513.0,503.0,518.0,521.0,521.0
517.0,506.0,520.0,526.0,520.0
517.0,503.0,517.0,521.0,523.0
511.0,503.0,517.0,521.0,528.0
511.0,507.0,516.0,518.0,527.0
513.0,506.0,517.0,519.0,519.0
516.0,508.0,518.0,519.0,518.0
526.0,515.0,522.0,521.0,510.0
527.0,520.0,525.0,521.0,510.0
527.0,521.0,521.0,515.0,509.0
522.0,516.0,512.0,512.0,509.0
515.0,512.0,506.0,502.0,513.0
514.0,505.0,506.0,500.0,511.0
508.0,503.0,500.0,500.0,514.0
506.0,501.0,501.0,504.0,518.0
506.0,500.0,508.0,512.0,521.0
512.0,504.0,516.0,522.0,512.0
511.0,503.0,518.0,525.0,511.0
509.0,505.0,520.0,525.0,511.0
506.0,503.0,518.0,523.0,517.0
508.0,502.0,516.0,521.0,514.0
508.0,505.0,517.0,523.0,512.0
509.0,511.0,519.0,519.0,509.0
511.0,513.0,520.0,517.0,524.0
518.0,511.0,519.0,516.0,512.0
524.0,515.0,520.0,509.0,504.0
519.0,514.0,512.0,508.0,516.0
511.0,509.0,508.0,506.0,525.0
508.0,506.0,502.0,499.0,516.0
505.0,503.0,500.0,498.0,511.0
505.0,503.0,501.0,503.0,514.0
503.0,500.0,503.0,507.0,509.0
506.0,504.0,510.0,518.0,508.0
511.0,504.0,514.0,520.0,514.0
519.0,507.0,520.0,526.0,508.0
518.0,506.0,519.0,532.0,503.0
513.0,503.0,519.0,530.0,505.0
516.0,503.0,519.0,531.0,509.0
514.0,510.0,518.0,523.0,529.0
518.0,509.0,515.0,514.0,520.0
524.0,511.0,514.0,505.0,506.0
531.0,520.0,521.0,507.0,505.0
533.0,518.0,519.0,508.0,513.0
526.0,517.0,514.0,508.0,513.0
522.0,513.0,513.0,501.0,520.0
507.0,506.0,507.0,498.0,530.0
493.0,502.0,502.0,494.0,525.0
486.0,500.0,506.0,501.0,516.0
492.0,499.0,504.0,499.0,502.0
502.0,502.0,507.0,506.0,502.0
511.0,505.0,517.0,519.0,508.0
509.0,506.0,516.0,527.0,526.0
511.0,506.0,519.0,531.0,529.0
515.0,503.0,517.0,530.0,516.0
519.0,503.0,516.0,527.0,508.0
516.0,506.0,518.0,523.0,510.0
522.0,508.0,513.0,521.0,506.0
526.0,512.0,517.0,520.0,508.0
530.0,515.0,509.0,511.0,504.0
526.0,516.0,516.0,509.0,500.0
518.0,514.0,510.0,505.0,503.0
511.0,505.0,506.0,504.0,511.0
506.0,509.0,503.0,498.0,514.0
502.0,502.0,496.0,497.0,519.0
501.0,501.0,498.0,499.0,522.0
505.0,504.0,503.0,511.0,514.0
511.0,507.0,507.0,522.0,515.0
515.0,506.0,509.0,523.0,513.0
521.0,499.0,512.0,518.0,503.0
522.0,498.0,514.0,508.0,512.0
515.0,502.0,510.0,502.0,517.0
516.0,505.0,515.0,504.0,523.0
520.0,504.0,515.0,501.0,519.0
521.0,506.0,511.0,503.0,512.0
524.0,510.0,501.0,507.0,508.0
525.0,513.0,515.0,517.0,499.0
525.0,515.0,531.0,535.0,489.0
512.0,517.0,532.0,527.0,497.0
507.0,512.0,544.0,513.0,511.0
499.0,509.0,538.0,502.0,512.0
494.0,505.0,526.0,502.0,514.0
498.0,502.0,525.0,514.0,523.0
509.0,499.0,514.0,520.0,531.0
516.0,499.0,490.0,527.0,513.0
516.0,504.0,514.0,533.0,512.0
514.0,506.0,518.0,534.0,514.0
511.0,502.0,524.0,527.0,520.0
507.0,505.0,527.0,528.0,521.0
510.0,503.0,528.0,528.0,521.0
512.0,506.0,533.0,529.0,511.0
517.0,511.0,527.0,529.0,505.0
521.0,517.0,518.0,526.0,500.0
527.0,516.0,499.0,506.0,499.0
524.0,513.0,498.0,505.0,491.0
516.0,517.0,504.0,502.0,493.0
507.0,513.0,501.0,500.0,501.0
499.0,505.0,504.0,499.0,514.0
497.0,504.0,509.0,502.0,520.0
498.0,503.0,514.0,506.0,540.0
503.0,504.0,512.0,517.0,525.0
511.0,500.0,503.0,517.0,527.0
524.0,503.0,513.0,520.0,523.0
520.0,501.0,508.0,523.0,520.0
516.0,501.0,508.0,528.0,527.0
518.0,502.0,510.0,534.0,526.0
514.0,503.0,513.0,529.0,513.0
520.0,508.0,516.0,525.0,485.0
533.0,511.0,515.0,521.0,484.0
533.0,515.0,515.0,510.0,481.0
528.0,518.0,524.0,505.0,487.0
519.0,516.0,519.0,509.0,515.0
514.0,512.0,511.0,511.0,525.0
512.0,508.0,506.0,502.0,533.0
510.0,505.0,507.0,503.0,525.0
513.0,502.0,504.0,504.0,524.0
509.0,500.0,504.0,507.0,521.0
508.0,502.0,515.0,512.0,541.0
509.0,503.0,515.0,519.0,537.0
513.0,509.0,518.0,525.0,527.0
513.0,509.0,519.0,523.0,532.0
510.0,500.0,512.0,516.0,545.0
511.0,500.0,514.0,518.0,533.0
515.0,508.0,521.0,519.0,516.0
518.0,515.0,521.0,521.0,494.0
525.0,515.0,522.0,518.0,489.0
523.0,518.0,521.0,520.0,506.0
516.0,516.0,520.0,512.0,523.0
513.0,514.0,513.0,509.0,516.0
509.0,512.0,508.0,507.0,495.0
511.0,505.0,503.0,503.0,489.0
497.0,501.0,502.0,503.0,522.0
501.0,501.0,504.0,510.0,520.0
506.0,506.0,514.0,518.0,512.0
514.0,506.0,517.0,523.0,517.0
515.0,504.0,518.0,523.0,525.0
522.0,506.0,520.0,524.0,519.0
523.0,504.0,516.0,522.0,518.0
527.0,504.0,517.0,517.0,516.0
524.0,504.0,515.0,519.0,529.0
512.0,505.0,515.0,517.0,544.0
508.0,502.0,515.0,521.0,533.0
518.0,519.0,522.0,524.0,520.0
525.0,515.0,517.0,517.0,485.0
527.0,514.0,510.0,512.0,459.0
523.0,512.0,505.0,497.0,465.0
520.0,510.0,504.0,492.0,495.0
500.0,505.0,507.0,495.0,529.0
501.0,508.0,510.0,500.0,553.0
504.0,504.0,513.0,503.0,526.0
522.0,506.0,512.0,518.0,495.0
531.0,508.0,525.0,526.0,481.0
525.0,509.0,522.0,523.0,501.0
523.0,503.0,517.0,511.0,491.0
515.0,501.0,515.0,523.0,488.0
502.0,497.0,507.0,538.0,492.0
507.0,500.0,504.0,512.0,482.0
515.0,508.0,502.0,515.0,484.0
525.0,514.0,504.0,521.0,457.0
528.0,524.0,507.0,517.0,511.0
527.0,517.0,498.0,506.0,537.0
535.0,511.0,485.0,487.0,532.0
532.0,504.0,499.0,478.0,547.0
512.0,502.0,529.0,510.0,582.0
507.0,501.0,565.0,526.0,559.0
511.0,500.0,553.0,530.0,522.0
512.0,499.0,548.0,536.0,514.0
511.0,501.0,541.0,535.0,493.0
505.0,486.0,477.0,500.0,522.0
507.0,487.0,492.0,504.0,541.0
514.0,501.0,520.0,513.0,524.0
510.0,509.0,515.0,512.0,552.0
505.0,510.0,524.0,516.0,535.0
521.0,508.0,530.0,522.0,498.0
524.0,518.0,519.0,530.0,512.0
516.0,521.0,500.0,528.0,512.0
507.0,519.0,506.0,512.0,501.0
511.0,521.0,525.0,521.0,473.0
507.0,516.0,547.0,524.0,486.0
509.0,503.0,536.0,498.0,494.0
502.0,481.0,526.0,493.0,532.0
494.0,477.0,509.0,485.0,551.0
499.0,477.0,476.0,481.0,537.0
519.0,493.0,469.0,509.0,489.0
523.0,494.0,481.0,523.0,468.0
511.0,488.0,469.0,526.0,487.0
511.0,493.0,467.0,522.0,530.0
514.0,507.0,466.0,516.0,543.0
523.0,522.0,492.0,531.0,533.0
524.0,496.0,489.0,510.0,523.0
520.0,468.0,518.0,501.0,527.0
515.0,467.0,510.0,490.0,520.0
514.0,487.0,537.0,498.0,503.0
514.0,486.0,548.0,519.0,517.0
518.0,488.0,537.0,519.0,508.0
511.0,497.0,535.0,515.0,521.0
498.0,516.0,534.0,514.0,545.0
491.0,551.0,514.0,513.0,545.0
493.0,548.0,531.0,530.0,564.0
504.0,528.0,536.0,540.0,526.0
508.0,528.0,540.0,535.0,493.0
526.0,525.0,525.0,530.0,487.0
526.0,513.0,500.0,513.0,478.0
518.0,508.0,492.0,519.0,511.0
515.0,518.0,516.0,527.0,555.0
525.0,518.0,529.0,530.0,515.0
523.0,514.0,551.0,520.0,516.0
520.0,527.0,544.0,512.0,499.0
517.0,523.0,541.0,511.0,483.0
516.0,525.0,537.0,523.0,458.0
518.0,524.0,489.0,513.0,464.0
518.0,522.0,513.0,509.0,478.0
514.0,520.0,506.0,509.0,508.0
502.0,519.0,507.0,503.0,516.0
499.0,512.0,504.0,499.0,501.0
499.0,507.0,499.0,506.0,515.0
502.0,509.0,509.0,511.0,527.0
514.0,512.0,513.0,520.0,542.0
520.0,510.0,513.0,527.0,519.0
523.0,504.0,511.0,524.0,512.0
513.0,506.0,513.0,523.0,536.0
507.0,511.0,520.0,520.0,553.0
517.0,515.0,525.0,523.0,534.0
519.0,517.0,533.0,526.0,511.0
517.0,512.0,529.0,520.0,507.0
537.0,516.0,526.0,510.0,503.0
536.0,517.0,520.0,504.0,521.0
530.0,518.0,510.0,508.0,499.0
530.0,518.0,497.0,509.0,482.0
515.0,517.0,505.0,520.0,529.0
500.0,509.0,501.0,514.0,500.0
493.0,502.0,501.0,500.0,483.0
490.0,499.0,503.0,495.0,527.0
519.0,505.0,510.0,505.0,525.0
509.0,502.0,513.0,515.0,534.0
513.0,508.0,517.0,521.0,512.0
532.0,506.0,517.0,527.0,498.0
533.0,501.0,516.0,522.0,488.0
531.0,499.0,511.0,519.0,463.0
518.0,493.0,509.0,510.0,541.0
500.0,499.0,509.0,506.0,608.0
518.0,508.0,516.0,515.0,546.0
519.0,524.0,526.0,520.0,558.0
517.0,525.0,528.0,518.0,596.0
499.0,515.0,523.0,505.0,555.0
494.0,509.0,528.0,506.0,483.0
506.0,506.0,526.0,504.0,460.0
505.0,510.0,518.0,501.0,468.0
494.0,507.0,508.0,507.0,509.0
495.0,506.0,489.0,508.0,507.0
514.0,508.0,505.0,521.0,489.0
523.0,505.0,506.0,523.0,490.0
537.0,504.0,512.0,515.0,492.0
539.0,508.0,514.0,518.0,502.0
527.0,504.0,510.0,522.0,510.0
510.0,500.0,503.0,528.0,483.0
490.0,505.0,501.0,528.0,515.0
514.0,512.0,520.0,548.0,465.0
535.0,519.0,536.0,544.0,417.0
521.0,508.0,532.0,531.0,467.0
509.0,506.0,518.0,507.0,565.0
515.0,507.0,496.0,468.0,581.0
522.0,509.0,488.0,467.0,561.0
516.0,507.0,494.0,474.0,560.0
503.0,506.0,535.0,470.0,556.0
514.0,499.0,542.0,499.0,534.0
523.0,503.0,513.0,542.0,440.0
532.0,503.0,482.0,532.0,386.0
533.0,495.0,463.0,515.0,406.0
525.0,491.0,497.0,497.0,499.0
508.0,499.0,512.0,519.0,503.0
498.0,508.0,525.0,542.0,507.0
496.0,506.0,522.0,549.0,516.0
505.0,508.0,515.0,548.0,524.0
527.0,512.0,515.0,541.0,552.0
495.0,494.0,499.0,509.0,552.0
493.0,498.0,502.0,507.0,553.0
508.0,510.0,525.0,503.0,533.0
505.0,510.0,529.0,493.0,513.0
491.0,493.0,504.0,483.0,534.0
507.0,482.0,486.0,495.0,529.0
507.0,474.0,497.0,509.0,550.0
514.0,461.0,479.0,498.0,570.0
518.0,469.0,481.0,509.0,523.0
514.0,474.0,496.0,519.0,490.0
525.0,487.0,513.0,519.0,400.0
515.0,511.0,533.0,517.0,460.0
516.0,521.0,571.0,525.0,486.0
499.0,515.0,559.0,515.0,591.0
482.0,512.0,534.0,509.0,655.0
493.0,508.0,525.0,504.0,628.0
509.0,515.0,507.0,502.0,580.0
516.0,520.0,496.0,524.0,534.0
528.0,523.0,532.0,528.0,474.0
521.0,498.0,523.0,511.0,472.0
506.0,491.0,510.0,505.0,566.0
529.0,501.0,515.0,508.0,549.0
519.0,487.0,507.0,496.0,512.0
523.0,491.0,513.0,487.0,501.0
523.0,504.0,513.0,516.0,491.0
522.0,490.0,510.0,528.0,442.0
524.0,479.0,516.0,524.0,368.0
525.0,468.0,526.0,518.0,405.0
511.0,489.0,558.0,507.0,554.0
498.0,523.0,553.0,495.0,642.0
514.0,542.0,513.0,515.0,581.0
520.0,550.0,519.0,544.0,548.0
518.0,531.0,457.0,537.0,520.0
516.0,525.0,470.0,550.0,472.0
514.0,527.0,490.0,541.0,471.0
495.0,530.0,512.0,513.0,485.0
495.0,518.0,515.0,489.0,501.0
510.0,517.0,535.0,494.0,500.0
528.0,521.0,523.0,492.0,493.0
513.0,513.0,508.0,503.0,534.0
508.0,513.0,506.0,515.0,483.0
494.0,507.0,507.0,510.0,540.0
489.0,504.0,515.0,510.0,616.0
516.0,508.0,512.0,520.0,497.0
541.0,515.0,521.0,528.0,493.0
539.0,502.0,511.0,510.0,556.0
538.0,507.0,513.0,510.0,510.0
507.0,512.0,521.0,528.0,480.0
502.0,515.0,528.0,524.0,491.0
508.0,526.0,532.0,519.0,569.0
509.0,535.0,540.0,529.0,546.0
534.0,541.0,539.0,536.0,491.0
532.0,521.0,510.0,515.0,493.0
511.0,505.0,499.0,504.0,538.0
511.0,505.0,513.0,511.0,529.0
515.0,497.0,514.0,509.0,494.0
499.0,485.0,519.0,502.0,466.0
478.0,487.0,511.0,505.0,503.0
498.0,503.0,500.0,510.0,473.0
516.0,507.0,501.0,500.0,441.0
524.0,518.0,513.0,523.0,456.0
528.0,518.0,522.0,530.0,535.0
508.0,517.0,515.0,528.0,598.0
513.0,522.0,522.0,533.0,513.0
528.0,523.0,537.0,538.0,495.0
505.0,508.0,518.0,504.0,600.0
529.0,500.0,502.0,479.0,552.0
534.0,504.0,484.0,487.0,542.0
518.0,500.0,498.0,511.0,426.0
534.0,503.0,535.0,505.0,381.0
522.0,497.0,534.0,495.0,455.0
507.0,497.0,525.0,520.0,496.0
482.0,495.0,462.0,498.0,639.0
492.0,501.0,477.0,505.0,682.0
504.0,508.0,505.0,525.0,634.0
508.0,509.0,517.0,521.0,600.0
517.0,503.0,520.0,523.0,488.0
521.0,495.0,511.0,524.0,482.0
509.0,506.0,515.0,540.0,526.0
491.0,513.0,512.0,536.0,557.0
499.0,507.0,512.0,527.0,494.0
511.0,496.0,507.0,500.0,456.0
510.0,504.0,532.0,496.0,544.0
499.0,500.0,545.0,500.0,548.0
503.0,507.0,543.0,501.0,560.0
535.0,521.0,541.0,522.0,498.0
534.0,520.0,520.0,508.0,451.0
526.0,509.0,469.0,474.0,492.0
521.0,497.0,458.0,493.0,467.0
502.0,489.0,471.0,507.0,468.0
502.0,488.0,501.0,518.0,502.0
513.0,500.0,539.0,536.0,544.0
501.0,494.0,537.0,524.0,579.0
500.0,495.0,536.0,506.0,568.0
504.0,493.0,538.0,527.0,568.0
522.0,496.0,512.0,519.0,520.0
526.0,514.0,486.0,531.0,446.0
512.0,525.0,467.0,523.0,424.0
502.0,512.0,469.0,498.0,570.0
501.0,513.0,515.0,518.0,586.0
510.0,522.0,548.0,528.0,543.0
509.0,525.0,573.0,524.0,539.0
517.0,541.0,596.0,529.0,584.0
519.0,525.0,563.0,516.0,529.0
526.0,513.0,559.0,507.0,487.0
520.0,490.0,513.0,504.0,490.0
502.0,467.0,465.0,492.0,505.0
501.0,469.0,457.0,515.0,495.0
503.0,469.0,477.0,498.0,499.0
506.0,482.0,480.0,504.0,541.0
509.0,496.0,501.0,502.0,586.0
517.0,510.0,487.0,510.0,566.0
528.0,525.0,501.0,526.0,518.0
539.0,522.0,573.0,546.0,458.0
525.0,494.0,588.0,551.0,387.0
505.0,475.0,566.0,528.0,509.0
488.0,465.0,485.0,488.0,534.0
511.0,481.0,489.0,499.0,502.0
525.0,498.0,528.0,520.0,470.0
520.0,497.0,542.0,515.0,503.0
519.0,491.0,522.0,510.0,516.0
505.0,467.0,430.0,485.0,489.0
509.0,489.0,462.0,503.0,420.0
501.0,519.0,516.0,511.0,480.0
504.0,531.0,528.0,500.0,538.0
511.0,521.0,517.0,522.0,553.0
515.0,527.0,510.0,535.0,553.0
523.0,525.0,517.0,540.0,540.0
514.0,516.0,512.0,533.0,578.0
511.0,509.0,508.0,535.0,537.0
514.0,508.0,527.0,546.0,470.0
531.0,503.0,514.0,524.0,461.0
547.0,530.0,527.0,507.0,488.0
526.0,554.0,518.0,482.0,672.0
500.0,534.0,490.0,479.0,660.0
486.0,514.0,513.0,500.0,490.0
506.0,521.0,552.0,539.0,445.0
505.0,519.0,592.0,543.0,488.0
506.0,510.0,564.0,522.0,514.0
499.0,502.0,533.0,505.0,527.0
506.0,501.0,478.0,488.0,525.0
524.0,514.0,478.0,496.0,529.0
534.0,507.0,490.0,481.0,565.0
530.0,497.0,472.0,496.0,549.0
507.0,501.0,477.0,532.0,538.0
478.0,506.0,504.0,535.0,532.0
496.0,506.0,501.0,515.0,496.0
519.0,508.0,517.0,521.0,442.0
524.0,516.0,530.0,525.0,482.0
525.0,523.0,538.0,534.0,502.0
528.0,530.0,519.0,520.0,537.0
501.0,509.0,488.0,492.0,548.0
512.0,501.0,484.0,499.0,552.0
525.0,500.0,491.0,503.0,521.0
511.0,501.0,491.0,501.0,474.0
493.0,502.0,485.0,490.0,515.0
493.0,497.0,488.0,491.0,574.0
505.0,502.0,496.0,504.0,504.0
515.0,500.0,504.0,522.0,463.0
521.0,499.0,512.0,534.0,420.0
501.0,505.0,517.0,540.0,402.0
512.0,526.0,539.0,555.0,416.0
523.0,521.0,530.0,534.0,476.0
515.0,502.0,524.0,499.0,577.0
516.0,499.0,508.0,488.0,577.0
532.0,502.0,495.0,496.0,557.0
512.0,496.0,467.0,498.0,568.0
529.0,503.0,502.0,521.0,507.0
534.0,517.0,545.0,532.0,495.0
533.0,519.0,544.0,526.0,494.0
518.0,520.0,531.0,523.0,564.0
500.0,519.0,521.0,523.0,565.0
486.0,510.0,510.0,510.0,529.0
483.0,493.0,501.0,501.0,578.0
491.0,489.0,494.0,501.0,568.0
507.0,493.0,507.0,507.0,528.0
511.0,497.0,512.0,518.0,506.0
530.0,502.0,515.0,526.0,486.0
517.0,505.0,522.0,523.0,545.0
511.0,502.0,518.0,518.0,545.0
497.0,500.0,516.0,525.0,531.0
497.0,505.0,516.0,521.0,519.0
525.0,514.0,525.0,529.0,446.0
542.0,519.0,527.0,527.0,426.0
546.0,517.0,522.0,524.0,439.0
532.0,512.0,522.0,512.0,470.0
522.0,513.0,526.0,508.0,596.0
505.0,515.0,514.0,494.0,630.0
521.0,510.0,488.0,477.0,564.0
522.0,506.0,491.0,490.0,507.0
539.0,508.0,511.0,509.0,543.0
525.0,513.0,541.0,515.0,549.0
491.0,487.0,529.0,499.0,452.0
498.0,489.0,489.0,510.0,354.0
506.0,497.0,477.0,540.0,425.0
498.0,497.0,467.0,548.0,486.0
503.0,504.0,482.0,524.0,541.0
506.0,496.0,510.0,521.0,525.0
521.0,505.0,552.0,517.0,502.0
524.0,516.0,568.0,521.0,563.0
522.0,526.0,576.0,544.0,578.0
516.0,517.0,520.0,519.0,582.0
510.0,507.0,513.0,499.0,548.0
502.0,509.0,477.0,486.0,522.0
503.0,508.0,500.0,515.0,509.0
503.0,491.0,501.0,502.0,530.0
508.0,479.0,477.0,505.0,532.0
500.0,483.0,488.0,504.0,476.0
512.0,485.0,475.0,495.0,468.0
531.0,501.0,507.0,499.0,450.0
507.0,502.0,509.0,495.0,542.0
490.0,506.0,537.0,497.0,602.0
500.0,497.0,575.0,509.0,581.0
509.0,491.0,543.0,508.0,566.0
503.0,476.0,506.0,501.0,544.0
516.0,493.0,471.0,512.0,513.0
537.0,518.0,554.0,560.0,521.0
523.0,496.0,567.0,543.0,516.0
505.0,492.0,554.0,529.0,495.0
504.0,519.0,536.0,523.0,528.0
522.0,514.0,535.0,534.0,484.0
529.0,503.0,542.0,508.0,445.0
506.0,497.0,511.0,480.0,510.0
500.0,520.0,511.0,477.0,526.0
508.0,541.0,495.0,491.0,572.0
514.0,526.0,495.0,511.0,509.0
528.0,520.0,491.0,524.0,428.0
527.0,516.0,497.0,528.0,442.0
526.0,514.0,501.0,526.0,497.0
503.0,503.0,493.0,520.0,552.0
506.0,500.0,501.0,524.0,537.0
517.0,516.0,509.0,532.0,532.0
508.0,521.0,519.0,531.0,544.0
507.0,518.0,521.0,530.0,525.0
514.0,518.0,521.0,519.0,502.0
523.0,513.0,509.0,508.0,492.0
521.0,508.0,495.0,494.0,542.0
518.0,516.0,509.0,496.0,516.0
512.0,513.0,506.0,496.0,490.0
505.0,506.0,495.0,507.0,502.0
505.0,503.0,491.0,510.0,529.0
498.0,504.0,494.0,516.0,558.0
506.0,516.0,515.0,527.0,598.0
523.0,520.0,522.0,532.0,559.0
525.0,513.0,520.0,527.0,554.0
524.0,506.0,515.0,516.0,550.0
521.0,499.0,509.0,507.0,546.0
519.0,500.0,514.0,513.0,536.0
540.0,510.0,523.0,524.0,444.0
543.0,513.0,519.0,524.0,422.0
513.0,509.0,497.0,522.0,450.0
497.0,511.0,498.0,518.0,466.0
511.0,514.0,501.0,518.0,486.0
518.0,513.0,505.0,507.0,497.0
512.0,509.0,521.0,497.0,490.0
503.0,509.0,523.0,519.0,499.0
501.0,505.0,514.0,519.0,523.0
494.0,499.0,516.0,521.0,538.0
513.0,501.0,512.0,519.0,499.0
526.0,504.0,519.0,510.0,474.0
520.0,507.0,522.0,506.0,570.0
540.0,512.0,528.0,517.0,535.0
539.0,507.0,522.0,513.0,523.0
525.0,506.0,515.0,522.0,518.0
512.0,496.0,510.0,523.0,475.0
507.0,493.0,515.0,528.0,449.0
503.0,508.0,522.0,531.0,471.0
499.0,512.0,522.0,514.0,545.0
504.0,510.0,517.0,512.0,557.0
514.0,511.0,506.0,506.0,546.0
511.0,511.0,514.0,502.0,547.0
502.0,506.0,510.0,499.0,523.0
486.0,499.0,502.0,491.0,539.0
488.0,508.0,510.0,509.0,534.0
498.0,503.0,513.0,522.0,466.0
504.0,506.0,518.0,524.0,466.0
526.0,509.0,511.0,517.0,436.0
518.0,503.0,510.0,520.0,482.0
516.0,502.0,513.0,518.0,554.0
512.0,504.0,512.0,514.0,592.0
517.0,501.0,512.0,512.0,603.0
526.0,510.0,517.0,517.0,549.0
522.0,510.0,517.0,517.0,507.0
528.0,505.0,515.0,515.0,520.0
525.0,505.0,513.0,509.0,525.0
514.0,513.0,518.0,518.0,520.0
515.0,518.0,520.0,519.0,503.0
509.0,516.0,506.0,521.0,500.0
511.0,516.0,492.0,513.0,513.0
506.0,514.0,490.0,501.0,533.0
498.0,499.0,493.0,495.0,559.0
487.0,499.0,531.0,503.0,555.0
497.0,507.0,559.0,515.0,532.0
519.0,506.0,539.0,522.0,509.0
528.0,505.0,536.0,530.0,490.0
535.0,503.0,528.0,530.0,497.0
536.0,506.0,526.0,532.0,515.0
533.0,502.0,509.0,519.0,533.0
523.0,498.0,466.0,501.0,484.0
487.0,498.0,490.0,511.0,469.0
498.0,514.0,520.0,513.0,459.0
508.0,523.0,544.0,524.0,506.0
526.0,510.0,508.0,513.0,514.0
529.0,509.0,490.0,506.0,504.0
504.0,507.0,517.0,498.0,533.0
501.0,502.0,508.0,499.0,529.0
508.0,498.0,497.0,501.0,519.0
509.0,497.0,489.0,496.0,530.0
517.0,497.0,504.0,496.0,550.0
510.0,498.0,507.0,503.0,524.0
520.0,502.0,491.0,496.0,484.0
526.0,516.0,532.0,524.0,501.0
515.0,507.0,545.0,536.0,523.0
502.0,505.0,536.0,533.0,541.0
501.0,505.0,508.0,517.0,518.0
517.0,512.0,518.0,539.0,483.0
516.0,513.0,524.0,538.0,505.0
523.0,514.0,506.0,515.0,512.0
524.0,515.0,497.0,506.0,530.0
521.0,518.0,503.0,508.0,532.0
509.0,515.0,498.0,509.0,509.0
507.0,505.0,506.0,505.0,485.0
498.0,500.0,520.0,498.0,537.0
497.0,501.0,524.0,509.0,559.0
509.0,505.0,527.0,521.0,539.0
508.0,507.0,525.0,534.0,550.0
508.0,506.0,521.0,529.0,523.0
500.0,495.0,509.0,511.0,510.0
510.0,501.0,524.0,519.0,493.0
513.0,501.0,520.0,525.0,495.0
514.0,497.0,519.0,520.0,503.0
514.0,501.0,532.0,520.0,503.0
521.0,508.0,514.0,513.0,507.0
520.0,514.0,506.0,517.0,495.0
528.0,521.0,521.0,522.0,494.0
532.0,524.0,531.0,515.0,546.0
518.0,516.0,516.0,507.0,562.0
518.0,509.0,505.0,509.0,497.0
510.0,506.0,504.0,510.0,484.0
509.0,506.0,507.0,513.0,490.0
495.0,504.0,504.0,506.0,549.0
499.0,501.0,508.0,499.0,561.0
505.0,506.0,518.0,508.0,544.0
514.0,500.0,508.0,511.0,521.0
519.0,500.0,514.0,528.0,528.0
518.0,504.0,519.0,535.0,492.0
504.0,502.0,511.0,530.0,532.0
517.0,510.0,516.0,521.0,525.0
516.0,514.0,519.0,525.0,537.0
516.0,509.0,519.0,514.0,588.0
516.0,512.0,515.0,513.0,483.0
536.0,519.0,519.0,523.0,416.0
518.0,521.0,525.0,528.0,430.0
524.0,519.0,518.0,513.0,483.0
520.0,504.0,502.0,494.0,479.0
536.0,507.0,501.0,503.0,445.0
529.0,507.0,501.0,504.0,485.0
511.0,508.0,508.0,509.0,573.0
503.0,505.0,510.0,514.0,578.0
494.0,498.0,507.0,514.0,530.0
512.0,502.0,515.0,517.0,484.0
530.0,502.0,514.0,523.0,417.0
530.0,500.0,513.0,528.0,433.0
517.0,502.0,510.0,510.0,557.0
509.0,504.0,514.0,507.0,610.0
506.0,507.0,516.0,516.0,575.0
508.0,510.0,516.0,514.0,566.0
509.0,517.0,521.0,518.0,536.0
507.0,512.0,516.0,518.0,526.0
509.0,515.0,516.0,515.0,504.0
508.0,511.0,512.0,510.0,475.0
498.0,508.0,509.0,506.0,493.0
500.0,504.0,502.0,500.0,501.0
500.0,499.0,498.0,501.0,502.0
505.0,502.0,504.0,504.0,507.0
509.0,508.0,509.0,516.0,525.0
511.0,514.0,520.0,536.0,539.0
506.0,515.0,526.0,539.0,530.0
508.0,517.0,528.0,538.0,503.0
515.0,507.0,510.0,518.0,517.0
518.0,503.0,505.0,496.0,534.0
529.0,505.0,514.0,495.0,549.0
522.0,500.0,509.0,524.0,525.0
512.0,504.0,511.0,513.0,500.0
528.0,511.0,538.0,511.0,477.0
526.0,516.0,551.0,523.0,477.0
522.0,517.0,549.0,528.0,512.0
506.0,510.0,481.0,479.0,552.0
503.0,506.0,454.0,477.0,555.0
508.0,507.0,452.0,493.0,512.0
513.0,506.0,475.0,498.0,483.0
501.0,492.0,527.0,495.0,511.0
497.0,493.0,549.0,503.0,539.0
497.0,503.0,518.0,500.0,572.0
512.0,500.0,481.0,527.0,527.0
520.0,504.0,509.0,536.0,501.0
511.0,503.0,527.0,530.0,488.0
511.0,502.0,535.0,538.0,499.0
517.0,510.0,536.0,537.0,508.0
520.0,511.0,536.0,537.0,496.0
521.0,515.0,526.0,517.0,483.0
528.0,521.0,516.0,505.0,482.0
528.0,521.0,522.0,508.0,498.0
518.0,519.0,533.0,518.0,563.0
509.0,505.0,507.0,504.0,523.0
513.0,503.0,498.0,517.0,489.0
516.0,504.0,504.0,513.0,489.0
500.0,499.0,506.0,504.0,538.0
510.0,505.0,507.0,512.0,526.0
518.0,509.0,518.0,525.0,550.0
517.0,504.0,517.0,521.0,543.0
509.0,505.0,517.0,519.0,576.0
511.0,504.0,508.0,518.0,521.0
510.0,501.0,505.0,514.0,501.0
511.0,505.0,507.0,517.0,510.0
508.0,498.0,502.0,506.0,515.0
520.0,500.0,505.0,506.0,510.0
534.0,513.0,520.0,517.0,483.0
536.0,520.0,516.0,524.0,501.0
534.0,517.0,514.0,517.0,503.0
518.0,512.0,508.0,512.0,511.0
492.0,507.0,500.0,500.0,514.0
494.0,515.0,525.0,506.0,498.0
502.0,510.0,527.0,501.0,525.0
506.0,503.0,518.0,490.0,551.0
523.0,515.0,523.0,521.0,557.0
522.0,519.0,524.0,548.0,552.0
520.0,517.0,523.0,537.0,537.0
521.0,516.0,526.0,533.0,513.0
504.0,494.0,504.0,511.0,479.0
502.0,493.0,511.0,518.0,497.0
522.0,505.0,518.0,534.0,475.0
521.0,507.0,515.0,528.0,495.0
518.0,503.0,511.0,527.0,526.0
513.0,510.0,511.0,516.0,524.0
516.0,517.0,520.0,508.0,525.0
517.0,514.0,519.0,508.0,503.0
513.0,516.0,514.0,496.0,503.0
508.0,510.0,504.0,495.0,512.0
504.0,502.0,500.0,489.0,535.0
500.0,501.0,501.0,501.0,542.0
502.0,510.0,517.0,518.0,516.0
507.0,515.0,524.0,522.0,527.0
519.0,518.0,531.0,533.0,500.0
514.0,513.0,524.0,530.0,480.0
524.0,508.0,515.0,527.0,478.0
505.0,501.0,513.0,517.0,541.0
509.0,500.0,507.0,515.0,542.0
512.0,500.0,510.0,513.0,523.0
520.0,505.0,516.0,516.0,522.0
526.0,511.0,517.0,521.0,482.0
528.0,513.0,510.0,515.0,498.0
518.0,516.0,509.0,508.0,496.0
508.0,514.0,494.0,510.0,472.0
507.0,503.0,485.0,508.0,481.0
514.0,503.0,474.0,488.0,501.0
508.0,500.0,492.0,492.0,531.0
503.0,492.0,507.0,500.0,533.0
517.0,506.0,531.0,510.0,488.0
518.0,509.0,536.0,517.0,520.0
510.0,506.0,552.0,532.0,576.0
500.0,508.0,548.0,530.0,527.0
512.0,502.0,543.0,521.0,549.0
508.0,496.0,491.0,490.0,568.0
523.0,503.0,486.0,500.0,496.0
531.0,516.0,508.0,515.0,462.0
517.0,510.0,517.0,525.0,493.0
538.0,516.0,528.0,532.0,465.0
531.0,515.0,513.0,513.0,514.0
531.0,510.0,513.0,504.0,521.0
532.0,508.0,523.0,501.0,519.0
491.0,509.0,506.0,502.0,505.0
488.0,505.0,506.0,510.0,511.0
493.0,505.0,506.0,508.0,526.0
501.0,510.0,510.0,512.0,532.0
503.0,512.0,513.0,519.0,535.0
506.0,512.0,543.0,514.0,550.0
513.0,502.0,545.0,515.0,526.0
511.0,501.0,539.0,512.0,518.0
514.0,495.0,494.0,516.0,491.0
520.0,501.0,486.0,529.0,513.0
516.0,506.0,524.0,557.0,507.0
523.0,509.0,532.0,542.0,488.0
514.0,503.0,528.0,509.0,471.0
530.0,516.0,512.0,513.0,439.0
537.0,521.0,508.0,515.0,453.0
531.0,523.0,488.0,508.0,544.0
516.0,514.0,499.0,500.0,558.0
507.0,504.0,495.0,504.0,553.0
492.0,496.0,503.0,506.0,554.0
488.0,500.0,491.0,508.0,555.0
495.0,503.0,489.0,489.0,535.0
496.0,506.0,519.0,508.0,528.0
504.0,500.0,522.0,522.0,508.0
511.0,505.0,530.0,516.0,506.0
515.0,504.0,500.0,505.0,529.0
512.0,498.0,495.0,517.0,515.0
511.0,504.0,515.0,524.0,534.0
514.0,510.0,526.0,532.0,519.0
520.0,513.0,514.0,529.0,517.0
524.0,512.0,512.0,523.0,470.0
531.0,519.0,523.0,526.0,439.0
522.0,519.0,537.0,520.0,446.0
507.0,514.0,540.0,509.0,536.0
507.0,514.0,540.0,517.0,593.0
502.0,512.0,531.0,521.0,555.0
500.0,506.0,525.0,517.0,529.0
498.0,502.0,508.0,510.0,503.0
501.0,503.0,498.0,497.0,511.0
519.0,504.0,510.0,514.0,519.0
524.0,507.0,508.0,529.0,507.0
518.0,499.0,502.0,513.0,512.0
524.0,496.0,500.0,499.0,482.0
528.0,505.0,503.0,504.0,464.0
529.0,508.0,525.0,514.0,474.0
532.0,513.0,554.0,527.0,499.0
539.0,517.0,563.0,534.0,516.0
533.0,517.0,560.0,529.0,507.0
528.0,512.0,486.0,501.0,515.0
522.0,506.0,453.0,500.0,439.0
523.0,504.0,487.0,516.0,469.0
498.0,498.0,491.0,519.0,550.0
486.0,494.0,503.0,522.0,557.0
479.0,497.0,502.0,492.0,588.0
494.0,502.0,505.0,492.0,561.0
509.0,511.0,513.0,511.0,537.0
515.0,517.0,525.0,523.0,482.0
504.0,509.0,536.0,524.0,541.0
515.0,506.0,541.0,533.0,499.0
533.0,508.0,537.0,530.0,487.0
530.0,505.0,512.0,523.0,547.0
534.0,507.0,492.0,520.0,545.0
520.0,507.0,494.0,514.0,531.0
510.0,506.0,503.0,516.0,498.0
515.0,511.0,513.0,519.0,477.0
526.0,516.0,528.0,528.0,468.0
516.0,512.0,524.0,520.0,491.0
509.0,508.0,507.0,503.0,502.0
501.0,509.0,507.0,508.0,488.0
499.0,502.0,503.0,500.0,513.0
502.0,504.0,508.0,505.0,516.0
502.0,506.0,511.0,509.0,553.0
501.0,501.0,511.0,514.0,563.0
509.0,500.0,512.0,520.0,543.0
520.0,503.0,514.0,521.0,493.0
526.0,500.0,513.0,522.0,474.0
523.0,499.0,509.0,519.0,461.0
514.0,504.0,514.0,520.0,473.0
514.0,506.0,514.0,520.0,520.0
511.0,509.0,519.0,524.0,542.0
516.0,514.0,518.0,527.0,534.0
525.0,521.0,528.0,529.0,525.0
513.0,522.0,535.0,512.0,499.0
514.0,521.0,534.0,505.0,478.0
521.0,512.0,509.0,500.0,470.0
512.0,507.0,503.0,503.0,531.0
500.0,506.0,514.0,496.0,568.0
500.0,510.0,511.0,494.0,574.0
511.0,504.0,490.0,506.0,525.0
506.0,496.0,478.0,504.0,503.0
515.0,498.0,445.0,519.0,491.0
508.0,502.0,532.0,533.0,517.0
517.0,505.0,570.0,536.0,510.0
529.0,507.0,558.0,534.0,554.0
523.0,503.0,529.0,497.0,555.0
513.0,501.0,509.0,486.0,555.0
515.0,502.0,499.0,503.0,496.0
505.0,512.0,510.0,523.0,452.0
513.0,519.0,504.0,523.0,449.0
519.0,515.0,474.0,490.0,499.0
514.0,512.0,468.0,505.0,510.0
509.0,509.0,484.0,506.0,522.0
494.0,501.0,514.0,492.0,546.0
491.0,495.0,533.0,489.0,526.0
497.0,493.0,526.0,496.0,516.0
508.0,499.0,524.0,506.0,527.0
505.0,502.0,531.0,522.0,520.0
514.0,508.0,533.0,537.0,514.0
519.0,508.0,532.0,546.0,512.0
513.0,511.0,530.0,537.0,513.0
510.0,509.0,523.0,527.0,517.0
505.0,507.0,525.0,525.0,542.0
512.0,508.0,541.0,533.0,527.0
520.0,511.0,540.0,531.0,498.0
525.0,511.0,534.0,528.0,473.0
522.0,510.0,502.0,501.0,485.0
516.0,513.0,502.0,488.0,513.0
510.0,516.0,503.0,500.0,553.0
511.0,509.0,505.0,509.0,509.0
509.0,507.0,507.0,510.0,538.0
513.0,510.0,511.0,519.0,529.0
516.0,507.0,505.0,508.0,533.0
509.0,508.0,503.0,502.0,548.0
500.0,509.0,503.0,513.0,544.0
507.0,506.0,508.0,525.0,508.0
521.0,501.0,527.0,526.0,508.0
511.0,495.0,537.0,513.0,536.0
511.0,497.0,529.0,505.0,524.0
520.0,504.0,508.0,514.0,494.0
529.0,511.0,509.0,523.0,518.0
535.0,513.0,520.0,527.0,500.0
529.0,513.0,521.0,523.0,495.0
523.0,510.0,516.0,516.0,460.0
505.0,511.0,510.0,508.0,528.0
503.0,510.0,508.0,510.0,506.0
504.0,502.0,506.0,506.0,506.0
499.0,502.0,505.0,494.0,520.0
505.0,502.0,507.0,498.0,497.0
506.0,501.0,504.0,502.0,515.0
511.0,509.0,516.0,519.0,506.0
515.0,510.0,523.0,528.0,519.0
530.0,514.0,529.0,540.0,533.0
520.0,511.0,525.0,520.0,541.0
515.0,511.0,520.0,516.0,506.0
523.0,513.0,523.0,514.0,515.0
515.0,510.0,517.0,520.0,542.0
518.0,510.0,512.0,526.0,483.0
538.0,516.0,514.0,539.0,421.0
541.0,514.0,491.0,534.0,405.0
537.0,503.0,478.0,505.0,474.0
537.0,507.0,483.0,491.0,478.0
516.0,505.0,504.0,482.0,536.0
493.0,491.0,527.0,464.0,560.0
482.0,499.0,532.0,496.0,531.0
485.0,492.0,500.0,502.0,528.0
500.0,500.0,515.0,518.0,519.0
505.0,508.0,521.0,520.0,529.0
504.0,503.0,520.0,522.0,546.0
504.0,513.0,527.0,526.0,553.0
498.0,507.0,527.0,522.0,550.0
510.0,505.0,526.0,523.0,524.0
516.0,502.0,525.0,516.0,535.0
517.0,510.0,521.0,516.0,530.0
530.0,517.0,523.0,514.0,509.0
521.0,517.0,523.0,524.0,503.0
517.0,518.0,522.0,518.0,514.0
506.0,521.0,519.0,513.0,515.0
514.0,518.0,520.0,513.0,487.0
506.0,507.0,511.0,504.0,493.0
502.0,496.0,496.0,495.0,509.0
502.0,500.0,494.0,497.0,523.0
507.0,500.0,500.0,501.0,518.0
516.0,503.0,513.0,512.0,509.0
514.0,507.0,525.0,522.0,498.0
518.0,504.0,524.0,525.0,503.0
520.0,506.0,512.0,524.0,504.0
518.0,505.0,505.0,517.0,522.0
520.0,504.0,488.0,510.0,523.0
522.0,505.0,492.0,508.0,522.0
524.0,509.0,503.0,510.0,517.0
522.0,505.0,503.0,505.0,503.0
511.0,504.0,494.0,472.0,510.0
504.0,514.0,516.0,512.0,504.0
516.0,524.0,543.0,555.0,503.0
516.0,515.0,539.0,536.0,510.0
506.0,505.0,520.0,513.0,513.0
501.0,502.0,509.0,494.0,518.0
502.0,501.0,535.0,487.0,519.0
510.0,506.0,534.0,498.0,499.0
511.0,500.0,526.0,505.0,535.0
506.0,497.0,473.0,500.0,537.0
506.0,505.0,509.0,537.0,527.0
506.0,505.0,521.0,541.0,504.0
505.0,504.0,519.0,542.0,511.0
507.0,507.0,517.0,538.0,520.0
518.0,509.0,521.0,542.0,518.0
526.0,511.0,523.0,539.0,515.0
518.0,509.0,520.0,524.0,503.0
518.0,514.0,510.0,504.0,496.0
526.0,523.0,529.0,511.0,496.0
524.0,517.0,514.0,504.0,512.0
512.0,514.0,511.0,499.0,525.0
508.0,516.0,514.0,496.0,532.0
499.0,509.0,507.0,495.0,512.0
500.0,496.0,499.0,493.0,489.0
509.0,492.0,502.0,513.0,487.0
509.0,500.0,512.0,515.0,539.0
516.0,503.0,512.0,518.0,565.0
510.0,508.0,517.0,526.0,552.0
505.0,501.0,514.0,520.0,535.0
502.0,500.0,507.0,519.0,537.0
513.0,506.0,515.0,519.0,507.0
525.0,508.0,516.0,518.0,462.0
530.0,515.0,517.0,522.0,468.0
519.0,515.0,520.0,519.0,527.0
526.0,519.0,521.0,516.0,538.0
518.0,518.0,519.0,516.0,515.0
507.0,515.0,517.0,509.0,494.0
507.0,509.0,506.0,504.0,500.0
499.0,503.0,502.0,498.0,525.0
505.0,501.0,499.0,500.0,532.0
515.0,500.0,503.0,502.0,535.0
514.0,502.0,504.0,510.0,545.0
516.0,504.0,514.0,519.0,539.0
520.0,507.0,525.0,521.0,509.0
519.0,505.0,521.0,528.0,503.0
512.0,505.0,519.0,526.0,503.0
501.0,503.0,514.0,522.0,528.0
520.0,510.0,524.0,523.0,506.0
518.0,515.0,522.0,522.0,505.0
507.0,514.0,522.0,520.0,497.0
520.0,522.0,524.0,530.0,476.0
521.0,521.0,517.0,522.0,485.0
524.0,515.0,497.0,512.0,502.0
512.0,505.0,484.0,506.0,505.0
510.0,506.0,481.0,492.0,491.0
495.0,498.0,497.0,484.0,499.0
502.0,495.0,500.0,489.0,483.0
511.0,499.0,526.0,508.0,532.0
504.0,498.0,522.0,515.0,566.0
508.0,501.0,516.0,515.0,553.0
506.0,498.0,513.0,518.0,547.0
498.0,500.0,525.0,531.0,517.0
511.0,502.0,526.0,527.0,480.0
523.0,503.0,520.0,527.0,498.0
510.0,502.0,519.0,520.0,497.0
503.0,504.0,515.0,515.0,521.0
504.0,512.0,524.0,519.0,540.0
511.0,519.0,532.0,523.0,541.0
516.0,519.0,524.0,514.0,540.0
497.0,507.0,512.0,503.0,506.0
481.0,498.0,501.0,502.0,481.0
494.0,497.0,501.0,499.0,476.0
489.0,496.0,500.0,505.0,493.0
499.0,504.0,504.0,501.0,512.0
506.0,501.0,507.0,504.0,532.0
528.0,504.0,513.0,515.0,521.0
539.0,507.0,519.0,525.0,515.0
537.0,508.0,526.0,530.0,503.0
524.0,505.0,519.0,525.0,511.0
506.0,506.0,513.0,517.0,522.0
504.0,502.0,516.0,518.0,527.0
512.0,506.0,516.0,518.0,521.0
517.0,507.0,517.0,516.0,508.0
521.0,515.0,524.0,522.0,501.0
531.0,517.0,523.0,519.0,477.0
560.0,521.0,526.0,518.0,462.0
541.0,517.0,517.0,513.0,495.0
513.0,508.0,510.0,511.0,525.0
513.0,504.0,504.0,500.0,520.0
518.0,500.0,496.0,495.0,514.0
514.0,502.0,500.0,502.0,501.0
517.0,502.0,509.0,514.0,510.0
521.0,503.0,514.0,523.0,519.0
521.0,509.0,523.0,531.0,529.0
519.0,509.0,525.0,531.0,531.0
513.0,506.0,522.0,532.0,530.0
515.0,506.0,513.0,525.0,520.0
515.0,504.0,511.0,507.0,522.0
523.0,509.0,516.0,507.0,514.0
529.0,513.0,520.0,514.0,513.0
529.0,517.0,524.0,517.0,506.0
533.0,519.0,525.0,515.0,505.0
519.0,516.0,520.0,511.0,511.0
513.0,511.0,512.0,502.0,515.0
510.0,509.0,502.0,502.0,509.0
503.0,502.0,496.0,499.0,515.0
505.0,502.0,501.0,502.0,522.0
509.0,500.0,506.0,509.0,523.0
511.0,503.0,520.0,516.0,526.0
516.0,502.0,519.0,522.0,514.0
510.0,503.0,520.0,533.0,513.0
512.0,500.0,522.0,538.0,512.0
523.0,508.0,524.0,524.0,512.0
516.0,507.0,518.0,516.0,506.0
515.0,508.0,520.0,521.0,508.0
511.0,508.0,520.0,522.0,512.0
510.0,509.0,520.0,519.0,516.0
516.0,517.0,522.0,520.0,508.0
518.0,520.0,520.0,512.0,504.0
518.0,513.0,516.0,518.0,499.0
510.0,506.0,508.0,507.0,504.0
505.0,504.0,502.0,494.0,516.0
505.0,504.0,500.0,496.0,518.0
498.0,500.0,503.0,505.0,528.0
506.0,505.0,514.0,514.0,528.0
505.0,506.0,514.0,520.0,533.0
515.0,507.0,518.0,523.0,524.0
517.0,504.0,518.0,528.0,509.0
519.0,503.0,521.0,526.0,515.0
506.0,495.0,510.0,516.0,523.0
508.0,495.0,507.0,516.0,517.0
505.0,500.0,512.0,514.0,508.0
513.0,505.0,515.0,515.0,498.0
517.0,509.0,519.0,516.0,496.0
511.0,509.0,517.0,512.0,505.0
512.0,513.0,515.0,509.0,513.0
506.0,513.0,510.0,505.0,509.0
498.0,505.0,507.0,509.0,514.0
495.0,504.0,503.0,499.0,513.0
490.0,499.0,501.0,499.0,510.0
491.0,498.0,503.0,510.0,506.0
491.0,499.0,515.0,518.0,508.0
499.0,504.0,514.0,522.0,509.0
493.0,501.0,516.0,524.0,521.0
495.0,500.0,515.0,520.0,525.0
502.0,504.0,517.0,523.0,523.0
504.0,504.0,518.0,521.0,522.0
499.0,504.0,517.0,521.0,513.0
501.0,506.0,520.0,524.0,503.0
505.0,507.0,519.0,521.0,503.0
535.0,517.0,521.0,518.0,510.0
559.0,521.0,524.0,514.0,511.0
544.0,519.0,517.0,510.0,508.0
539.0,515.0,516.0,506.0,512.0
534.0,513.0,503.0,506.0,492.0
533.0,513.0,506.0,507.0,481.0
519.0,507.0,510.0,510.0,489.0
503.0,503.0,507.0,510.0,535.0
503.0,503.0,510.0,511.0,542.0
504.0,508.0,518.0,519.0,528.0
505.0,506.0,519.0,528.0,511.0
502.0,503.0,518.0,520.0,510.0
498.0,502.0,518.0,520.0,517.0
511.0,503.0,515.0,518.0,515.0
534.0,508.0,517.0,518.0,513.0
539.0,507.0,516.0,518.0,507.0
542.0,516.0,520.0,519.0,507.0
540.0,518.0,521.0,518.0,503.0
541.0,519.0,519.0,512.0,502.0
529.0,520.0,514.0,508.0,509.0
515.0,509.0,508.0,507.0,500.0
508.0,506.0,506.0,506.0,500.0
498.0,503.0,499.0,500.0,512.0
504.0,500.0,501.0,501.0,516.0
506.0,504.0,509.0,515.0,518.0
531.0,506.0,514.0,525.0,517.0
541.0,508.0,517.0,530.0,515.0
535.0,509.0,523.0,526.0,507.0
531.0,505.0,519.0,525.0,514.0
526.0,503.0,518.0,520.0,513.0
521.0,503.0,515.0,520.0,516.0
520.0,505.0,515.0,518.0,517.0
525.0,511.0,519.0,522.0,512.0
528.0,514.0,521.0,520.0,505.0
527.0,520.0,523.0,518.0,497.0
523.0,514.0,519.0,516.0,495.0
514.0,510.0,514.0,519.0,496.0
507.0,503.0,504.0,503.0,506.0
506.0,500.0,499.0,491.0,509.0
497.0,497.0,499.0,497.0,517.0
500.0,499.0,504.0,511.0,521.0
510.0,503.0,509.0,509.0,512.0
517.0,501.0,517.0,520.0,508.0
513.0,501.0,516.0,525.0,510.0
515.0,502.0,519.0,523.0,512.0
516.0,499.0,515.0,519.0,514.0
512.0,501.0,516.0,510.0,521.0
511.0,503.0,514.0,515.0,515.0
506.0,504.0,516.0,516.0,518.0
512.0,507.0,516.0,514.0,513.0
520.0,514.0,522.0,516.0,512.0
519.0,520.0,524.0,519.0,505.0
516.0,515.0,518.0,512.0,504.0
506.0,507.0,512.0,506.0,511.0
507.0,507.0,509.0,503.0,512.0
500.0,502.0,503.0,498.0,522.0
504.0,501.0,501.0,505.0,516.0
504.0,502.0,507.0,511.0,517.0
511.0,506.0,513.0,511.0,515.0
514.0,507.0,520.0,521.0,514.0
516.0,507.0,518.0,523.0,514.0
519.0,507.0,521.0,526.0,506.0
512.0,503.0,517.0,523.0,514.0
510.0,501.0,515.0,516.0,525.0
507.0,503.0,515.0,517.0,519.0
515.0,508.0,517.0,516.0,508.0
520.0,512.0,523.0,519.0,505.0
526.0,516.0,525.0,520.0,504.0
526.0,518.0,520.0,515.0,501.0
517.0,515.0,519.0,508.0,505.0
511.0,513.0,514.0,507.0,513.0
501.0,506.0,513.0,506.0,515.0
498.0,503.0,502.0,499.0,516.0
502.0,498.0,502.0,502.0,518.0
496.0,497.0,508.0,511.0,522.0
493.0,503.0,515.0,520.0,520.0
494.0,511.0,519.0,523.0,523.0
499.0,505.0,521.0,524.0,528.0
511.0,507.0,520.0,527.0,526.0
511.0,502.0,514.0,523.0,523.0
523.0,502.0,514.0,516.0,510.0
523.0,501.0,513.0,515.0,511.0
529.0,504.0,514.0,513.0,510.0
525.0,512.0,521.0,519.0,499.0
522.0,515.0,521.0,517.0,494.0
512.0,514.0,518.0,513.0,501.0
515.0,515.0,513.0,509.0,501.0
506.0,505.0,509.0,505.0,506.0
499.0,503.0,504.0,502.0,513.0
497.0,501.0,497.0,502.0,517.0
512.0,501.0,505.0,507.0,515.0
508.0,500.0,508.0,514.0,515.0
503.0,499.0,514.0,519.0,522.0
494.0,498.0,517.0,527.0,518.0
487.0,498.0,517.0,526.0,522.0
503.0,498.0,516.0,523.0,523.0
513.0,500.0,515.0,519.0,518.0
503.0,508.0,519.0,523.0,525.0
489.0,511.0,521.0,521.0,526.0
514.0,516.0,524.0,521.0,517.0
539.0,525.0,526.0,525.0,502.0
529.0,521.0,524.0,518.0,500.0
513.0,514.0,515.0,510.0,499.0
522.0,508.0,509.0,505.0,499.0
544.0,509.0,506.0,502.0,503.0
531.0,505.0,506.0,503.0,508.0
519.0,501.0,499.0,499.0,513.0
518.0,502.0,510.0,507.0,519.0
522.0,505.0,511.0,514.0,523.0
520.0,509.0,520.0,524.0,527.0
527.0,509.0,522.0,530.0,523.0
522.0,507.0,521.0,531.0,521.0
523.0,503.0,514.0,517.0,509.0
518.0,501.0,512.0,516.0,513.0
520.0,506.0,516.0,517.0,512.0
521.0,510.0,521.0,520.0,505.0
524.0,513.0,520.0,522.0,505.0
527.0,515.0,523.0,523.0,513.0
532.0,517.0,520.0,510.0,502.0
532.0,518.0,520.0,511.0,489.0
518.0,508.0,509.0,504.0,493.0
511.0,505.0,507.0,501.0,499.0
500.0,500.0,500.0,501.0,519.0
505.0,500.0,506.0,504.0,522.0
505.0,501.0,514.0,513.0,520.0
514.0,504.0,514.0,519.0,514.0
515.0,505.0,518.0,525.0,515.0
520.0,506.0,519.0,527.0,514.0
517.0,505.0,522.0,524.0,515.0
513.0,501.0,516.0,521.0,514.0
514.0,505.0,517.0,524.0,514.0
517.0,506.0,516.0,521.0,514.0
520.0,510.0,517.0,518.0,512.0
525.0,517.0,528.0,523.0,505.0
525.0,518.0,521.0,520.0,504.0
521.0,515.0,523.0,513.0,506.0
515.0,514.0,515.0,511.0,508.0
512.0,509.0,508.0,505.0,507.0
507.0,505.0,504.0,505.0,510.0
500.0,499.0,502.0,500.0,513.0
499.0,500.0,505.0,504.0,516.0
505.0,501.0,510.0,514.0,510.0
510.0,504.0,516.0,522.0,508.0
515.0,506.0,518.0,526.0,511.0
518.0,503.0,518.0,524.0,517.0
518.0,503.0,520.0,522.0,516.0
511.0,502.0,515.0,519.0,517.0
509.0,501.0,515.0,516.0,521.0
513.0,508.0,518.0,519.0,516.0
515.0,512.0,523.0,520.0,510.0
517.0,515.0,520.0,519.0,508.0
520.0,516.0,522.0,517.0,503.0
517.0,515.0,518.0,513.0,500.0
514.0,511.0,515.0,510.0,505.0
508.0,506.0,507.0,502.0,510.0
501.0,501.0,503.0,500.0,517.0
499.0,501.0,501.0,502.0,516.0
499.0,502.0,504.0,509.0,516.0
508.0,501.0,511.0,517.0,517.0
515.0,503.0,518.0,521.0,513.0
517.0,504.0,519.0,526.0,514.0
515.0,508.0,522.0,528.0,516.0
511.0,503.0,518.0,529.0,520.0
510.0,502.0,515.0,519.0,525.0
509.0,503.0,515.0,518.0,519.0
510.0,511.0,515.0,516.0,519.0
520.0,510.0,523.0,516.0,512.0
521.0,512.0,515.0,514.0,505.0
523.0,516.0,524.0,513.0,501.0
523.0,516.0,522.0,513.0,499.0
512.0,509.0,511.0,506.0,510.0
505.0,506.0,505.0,500.0,511.0
495.0,499.0,500.0,501.0,516.0
501.0,499.0,502.0,506.0,519.0
508.0,500.0,508.0,510.0,520.0
509.0,501.0,510.0,514.0,518.0
507.0,502.0,517.0,525.0,518.0
516.0,503.0,517.0,522.0,518.0
522.0,508.0,522.0,530.0,519.0
515.0,506.0,518.0,524.0,522.0
512.0,505.0,517.0,515.0,520.0
513.0,507.0,520.0,519.0,518.0
512.0,509.0,523.0,517.0,518.0
525.0,517.0,526.0,521.0,512.0
530.0,518.0,525.0,518.0,505.0
530.0,516.0,521.0,513.0,500.0
523.0,514.0,513.0,509.0,495.0
508.0,505.0,508.0,505.0,505.0
500.0,504.0,505.0,499.0,510.0
498.0,499.0,504.0,499.0,514.0
495.0,495.0,505.0,503.0,516.0
503.0,497.0,508.0,512.0,520.0
500.0,500.0,514.0,523.0,520.0
501.0,503.0,517.0,523.0,519.0
505.0,500.0,519.0,524.0,517.0
514.0,508.0,517.0,523.0,519.0
528.0,506.0,517.0,520.0,518.0
524.0,506.0,519.0,521.0,517.0
522.0,510.0,519.0,518.0,515.0
531.0,512.0,520.0,517.0,517.0
530.0,516.0,523.0,518.0,513.0
523.0,519.0,526.0,519.0,511.0
511.0,517.0,519.0,512.0,512.0
505.0,511.0,511.0,505.0,510.0
498.0,507.0,507.0,503.0,512.0
487.0,502.0,500.0,497.0,513.0
486.0,496.0,500.0,502.0,513.0
492.0,496.0,502.0,507.0,515.0
506.0,501.0,507.0,512.0,518.0
507.0,500.0,515.0,520.0,519.0
489.0,497.0,515.0,521.0,522.0
520.0,499.0,518.0,525.0,514.0
541.0,506.0,518.0,524.0,508.0
538.0,506.0,520.0,521.0,513.0
525.0,506.0,518.0,522.0,512.0
522.0,508.0,521.0,518.0,508.0
534.0,514.0,523.0,521.0,507.0
547.0,520.0,525.0,521.0,504.0
533.0,517.0,523.0,514.0,501.0
522.0,517.0,518.0,510.0,509.0
521.0,514.0,511.0,502.0,514.0
508.0,509.0,506.0,501.0,520.0
505.0,501.0,501.0,499.0,521.0
522.0,502.0,504.0,505.0,515.0
518.0,502.0,508.0,515.0,519.0
514.0,503.0,508.0,519.0,518.0
520.0,505.0,519.0,525.0,508.0
520.0,504.0,520.0,526.0,511.0
523.0,504.0,517.0,523.0,512.0
518.0,500.0,512.0,519.0,511.0
511.0,497.0,512.0,518.0,511.0
513.0,504.0,514.0,521.0,512.0
518.0,511.0,523.0,517.0,510.0
518.0,511.0,520.0,515.0,504.0
515.0,513.0,519.0,515.0,501.0
518.0,511.0,520.0,514.0,498.0
520.0,515.0,518.0,509.0,497.0
519.0,511.0,513.0,507.0,503.0
507.0,508.0,507.0,503.0,508.0
514.0,506.0,504.0,501.0,517.0
495.0,500.0,503.0,504.0,531.0
496.0,502.0,504.0,512.0,514.0
508.0,500.0,513.0,519.0,508.0
521.0,502.0,515.0,520.0,515.0
525.0,505.0,516.0,521.0,517.0
520.0,506.0,515.0,523.0,519.0
517.0,502.0,515.0,516.0,521.0
518.0,502.0,512.0,515.0,521.0
519.0,506.0,515.0,516.0,509.0
524.0,512.0,521.0,518.0,505.0
525.0,516.0,526.0,521.0,507.0
526.0,518.0,524.0,516.0,504.0
520.0,516.0,520.0,512.0,498.0
518.0,515.0,514.0,508.0,506.0
508.0,509.0,508.0,505.0,510.0
503.0,508.0,503.0,502.0,512.0
498.0,500.0,502.0,504.0,514.0
500.0,504.0,507.0,510.0,519.0
510.0,501.0,510.0,515.0,521.0
511.0,504.0,516.0,519.0,525.0
524.0,507.0,519.0,525.0,512.0
519.0,505.0,521.0,527.0,516.0
517.0,503.0,517.0,524.0,523.0
512.0,501.0,513.0,523.0,520.0
515.0,504.0,517.0,520.0,519.0
519.0,508.0,519.0,518.0,516.0
519.0,513.0,521.0,519.0,513.0
525.0,515.0,522.0,519.0,503.0
527.0,517.0,520.0,520.0,500.0
525.0,514.0,517.0,514.0,499.0
516.0,510.0,512.0,507.0,501.0
505.0,505.0,504.0,504.0,510.0
500.0,500.0,500.0,503.0,517.0
503.0,499.0,502.0,505.0,520.0
506.0,502.0,512.0,510.0,519.0
514.0,505.0,513.0,518.0,517.0
510.0,503.0,517.0,526.0,518.0
511.0,504.0,518.0,522.0,520.0
511.0,503.0,517.0,523.0,519.0
513.0,501.0,514.0,520.0,522.0
514.0,502.0,514.0,517.0,521.0
518.0,506.0,518.0,517.0,515.0
513.0,508.0,517.0,518.0,512.0
520.0,512.0,520.0,519.0,510.0
522.0,518.0,527.0,517.0,505.0
522.0,517.0,520.0,517.0,502.0
521.0,510.0,515.0,509.0,509.0
510.0,508.0,508.0,503.0,510.0
503.0,506.0,501.0,500.0,509.0
500.0,500.0,500.0,499.0,516.0
497.0,500.0,502.0,505.0,523.0
502.0,501.0,507.0,518.0,522.0
512.0,503.0,513.0,519.0,523.0
515.0,503.0,513.0,520.0,519.0
525.0,507.0,523.0,526.0,521.0
516.0,502.0,516.0,523.0,519.0
503.0,498.0,509.0,518.0,525.0
516.0,500.0,511.0,516.0,524.0
519.0,504.0,516.0,517.0,519.0
517.0,509.0,518.0,518.0,518.0
519.0,511.0,518.0,515.0,510.0
520.0,516.0,521.0,514.0,501.0
513.0,513.0,517.0,511.0,505.0
507.0,513.0,515.0,509.0,501.0
498.0,507.0,504.0,499.0,504.0
491.0,502.0,500.0,498.0,513.0
492.0,499.0,498.0,500.0,519.0
504.0,501.0,504.0,507.0,524.0
521.0,505.0,511.0,516.0,523.0
522.0,507.0,512.0,522.0,516.0
519.0,509.0,520.0,526.0,521.0
515.0,506.0,520.0,528.0,522.0
511.0,502.0,517.0,523.0,527.0
518.0,503.0,515.0,519.0,522.0
519.0,502.0,512.0,517.0,508.0
519.0,504.0,514.0,518.0,500.0
518.0,509.0,516.0,521.0,497.0
514.0,514.0,520.0,521.0,495.0
520.0,513.0,521.0,514.0,493.0
518.0,515.0,517.0,511.0,499.0
515.0,511.0,515.0,504.0,507.0
497.0,505.0,504.0,499.0,508.0
515.0,503.0,503.0,501.0,510.0
519.0,505.0,508.0,505.0,509.0
518.0,502.0,508.0,512.0,512.0
513.0,506.0,512.0,511.0,513.0
510.0,504.0,517.0,520.0,513.0
512.0,506.0,521.0,527.0,514.0
515.0,503.0,519.0,525.0,516.0
506.0,501.0,515.0,521.0,515.0
507.0,502.0,515.0,520.0,515.0
533.0,507.0,517.0,517.0,513.0
534.0,508.0,518.0,514.0,512.0
533.0,515.0,523.0,518.0,505.0
538.0,518.0,524.0,519.0,498.0
537.0,516.0,521.0,515.0,496.0
525.0,510.0,513.0,508.0,503.0
515.0,509.0,512.0,502.0,510.0
509.0,504.0,508.0,499.0,511.0
493.0,499.0,500.0,498.0,519.0
498.0,500.0,505.0,502.0,517.0
504.0,503.0,513.0,514.0,516.0
515.0,506.0,517.0,525.0,516.0
516.0,505.0,518.0,522.0,516.0
529.0,508.0,522.0,525.0,519.0
529.0,506.0,521.0,528.0,516.0
520.0,505.0,519.0,521.0,519.0
522.0,504.0,516.0,518.0,520.0
522.0,505.0,516.0,515.0,515.0
522.0,514.0,518.0,515.0,512.0
524.0,522.0,525.0,520.0,502.0
521.0,521.0,523.0,518.0,494.0
516.0,516.0,522.0,514.0,498.0
509.0,511.0,513.0,510.0,498.0
498.0,508.0,508.0,501.0,507.0
496.0,502.0,501.0,499.0,512.0
497.0,496.0,500.0,498.0,515.0
498.0,497.0,504.0,503.0,519.0
510.0,501.0,509.0,513.0,516.0
512.0,501.0,513.0,520.0,517.0
512.0,502.0,515.0,525.0,518.0
521.0,505.0,520.0,525.0,517.0
520.0,506.0,520.0,522.0,521.0
517.0,503.0,519.0,517.0,524.0
516.0,503.0,513.0,515.0,518.0
520.0,505.0,514.0,516.0,519.0
521.0,511.0,519.0,517.0,515.0
526.0,518.0,523.0,521.0,504.0
529.0,519.0,522.0,516.0,504.0
521.0,517.0,517.0,506.0,507.0
511.0,514.0,513.0,506.0,509.0
504.0,507.0,506.0,500.0,515.0
495.0,500.0,506.0,499.0,516.0
503.0,499.0,500.0,502.0,509.0
504.0,498.0,504.0,507.0,511.0
510.0,499.0,511.0,513.0,513.0
517.0,502.0,516.0,523.0,516.0
518.0,504.0,519.0,527.0,512.0
521.0,504.0,520.0,529.0,516.0
515.0,501.0,515.0,521.0,515.0
519.0,503.0,515.0,522.0,512.0
515.0,505.0,515.0,518.0,510.0
521.0,508.0,517.0,516.0,511.0
521.0,513.0,522.0,519.0,504.0
522.0,521.0,524.0,519.0,501.0
519.0,516.0,520.0,514.0,502.0
516.0,511.0,517.0,510.0,506.0
515.0,510.0,513.0,504.0,507.0
509.0,507.0,507.0,502.0,509.0
500.0,501.0,501.0,500.0,513.0
505.0,500.0,502.0,503.0,521.0
509.0,503.0,508.0,511.0,516.0
509.0,503.0,513.0,524.0,516.0
509.0,503.0,517.0,522.0,518.0
514.0,503.0,518.0,524.0,517.0
516.0,505.0,519.0,525.0,517.0
510.0,501.0,515.0,523.0,522.0
516.0,502.0,515.0,518.0,519.0
515.0,503.0,515.0,517.0,517.0
519.0,508.0,517.0,516.0,513.0
521.0,508.0,520.0,518.0,508.0
523.0,519.0,523.0,518.0,506.0
520.0,515.0,519.0,513.0,504.0
519.0,515.0,514.0,513.0,504.0
507.0,508.0,506.0,502.0,508.0
502.0,503.0,503.0,501.0,515.0
496.0,500.0,502.0,502.0,518.0
501.0,501.0,504.0,506.0,517.0
508.0,502.0,510.0,518.0,516.0
513.0,505.0,515.0,519.0,517.0
514.0,507.0,522.0,525.0,521.0
515.0,506.0,518.0,528.0,519.0
518.0,504.0,516.0,523.0,522.0
510.0,503.0,515.0,522.0,523.0
510.0,504.0,517.0,518.0,517.0
515.0,508.0,517.0,519.0,509.0
522.0,512.0,522.0,516.0,508.0
524.0,515.0,522.0,521.0,505.0
523.0,517.0,521.0,514.0,503.0
517.0,513.0,517.0,511.0,505.0
511.0,506.0,512.0,507.0,506.0
508.0,509.0,510.0,502.0,511.0
503.0,501.0,500.0,500.0,513.0
497.0,498.0,498.0,500.0,513.0
503.0,497.0,500.0,503.0,518.0
510.0,502.0,506.0,512.0,519.0
521.0,504.0,512.0,521.0,516.0
519.0,507.0,523.0,526.0,519.0
515.0,503.0,516.0,525.0,522.0
513.0,502.0,514.0,518.0,523.0
512.0,501.0,513.0,519.0,523.0
512.0,505.0,517.0,518.0,519.0
514.0,510.0,518.0,517.0,510.0
520.0,516.0,520.0,518.0,505.0
517.0,514.0,519.0,518.0,505.0
520.0,515.0,519.0,512.0,503.0
515.0,514.0,516.0,509.0,506.0
508.0,510.0,512.0,506.0,508.0
508.0,507.0,508.0,502.0,509.0
499.0,501.0,500.0,503.0,512.0
496.0,501.0,500.0,503.0,516.0
500.0,500.0,507.0,508.0,513.0
518.0,505.0,519.0,520.0,513.0
524.0,507.0,519.0,523.0,516.0
519.0,505.0,520.0,525.0,517.0
513.0,508.0,519.0,525.0,516.0
513.0,504.0,514.0,521.0,516.0
518.0,503.0,516.0,522.0,514.0
515.0,506.0,517.0,519.0,514.0
516.0,508.0,519.0,519.0,516.0
522.0,514.0,521.0,517.0,509.0
529.0,520.0,524.0,519.0,502.0
524.0,517.0,522.0,514.0,503.0
516.0,513.0,513.0,510.0,505.0
512.0,509.0,509.0,502.0,512.0
504.0,504.0,501.0,499.0,511.0
499.0,500.0,500.0,499.0,515.0
502.0,500.0,503.0,507.0,517.0
506.0,502.0,509.0,516.0,517.0
513.0,504.0,515.0,523.0,513.0
514.0,507.0,518.0,520.0,513.0
518.0,509.0,522.0,526.0,521.0
515.0,498.0,515.0,521.0,521.0
513.0,501.0,518.0,517.0,523.0
513.0,505.0,516.0,520.0,520.0
516.0,506.0,518.0,518.0,518.0
517.0,511.0,519.0,519.0,513.0
526.0,515.0,522.0,517.0,507.0
524.0,519.0,520.0,518.0,507.0
520.0,516.0,519.0,512.0,506.0
512.0,514.0,513.0,507.0,509.0
509.0,508.0,506.0,504.0,510.0
498.0,501.0,500.0,503.0,516.0
501.0,500.0,503.0,504.0,520.0
498.0,499.0,505.0,505.0,519.0
509.0,501.0,510.0,515.0,520.0
511.0,504.0,515.0,521.0,517.0
516.0,508.0,521.0,527.0,519.0
516.0,506.0,517.0,525.0,520.0
514.0,500.0,516.0,520.0,517.0
512.0,501.0,511.0,518.0,521.0
513.0,505.0,512.0,517.0,519.0
517.0,508.0,520.0,515.0,520.0
518.0,509.0,522.0,518.0,518.0
522.0,519.0,523.0,520.0,512.0
521.0,523.0,520.0,516.0,507.0
512.0,515.0,517.0,508.0,510.0
507.0,510.0,508.0,505.0,512.0
502.0,504.0,503.0,499.0,510.0
499.0,500.0,500.0,496.0,510.0
502.0,499.0,499.0,499.0,515.0
502.0,499.0,502.0,507.0,518.0
509.0,499.0,508.0,513.0,515.0
516.0,508.0,516.0,523.0,513.0
519.0,507.0,521.0,528.0,517.0
514.0,503.0,516.0,525.0,520.0
510.0,498.0,509.0,516.0,525.0
507.0,504.0,514.0,515.0,526.0
519.0,508.0,519.0,516.0,522.0
520.0,510.0,523.0,516.0,515.0
527.0,517.0,523.0,519.0,511.0
525.0,519.0,525.0,517.0,505.0
523.0,519.0,518.0,513.0,503.0
515.0,512.0,515.0,506.0,500.0
504.0,506.0,505.0,501.0,511.0
501.0,501.0,504.0,500.0,516.0
497.0,504.0,500.0,504.0,513.0
495.0,498.0,501.0,505.0,510.0
502.0,501.0,508.0,516.0,515.0
513.0,504.0,514.0,521.0,518.0
514.0,502.0,517.0,522.0,518.0
517.0,504.0,517.0,526.0,514.0
515.0,503.0,519.0,522.0,516.0
513.0,501.0,516.0,519.0,519.0
514.0,503.0,516.0,517.0,518.0
512.0,506.0,517.0,521.0,517.0
516.0,508.0,517.0,516.0,513.0
521.0,517.0,521.0,518.0,506.0
523.0,518.0,519.0,516.0,503.0
520.0,519.0,518.0,511.0,504.0
519.0,513.0,506.0,505.0,506.0
511.0,511.0,511.0,503.0,509.0
503.0,504.0,505.0,498.0,513.0
502.0,500.0,503.0,501.0,516.0
502.0,503.0,506.0,509.0,521.0
508.0,504.0,512.0,515.0,522.0
515.0,509.0,516.0,525.0,518.0
515.0,507.0,520.0,526.0,523.0
515.0,505.0,519.0,525.0,522.0
512.0,502.0,516.0,522.0,521.0
510.0,501.0,514.0,518.0,520.0
514.0,504.0,515.0,517.0,521.0
517.0,508.0,519.0,519.0,514.0
519.0,512.0,520.0,522.0,509.0
524.0,516.0,522.0,518.0,505.0
522.0,517.0,521.0,513.0,503.0
517.0,513.0,511.0,509.0,506.0
505.0,509.0,514.0,506.0,511.0
507.0,507.0,508.0,501.0,515.0
498.0,501.0,501.0,501.0,517.0
502.0,499.0,502.0,502.0,522.0
505.0,498.0,505.0,509.0,523.0
509.0,503.0,512.0,517.0,522.0
513.0,504.0,516.0,524.0,519.0
517.0,506.0,519.0,525.0,517.0
516.0,506.0,520.0,530.0,519.0
512.0,502.0,517.0,522.0,520.0
512.0,504.0,517.0,521.0,520.0
515.0,507.0,518.0,518.0,518.0
517.0,509.0,517.0,519.0,515.0
519.0,513.0,519.0,520.0,510.0
518.0,515.0,518.0,514.0,506.0
520.0,520.0,520.0,512.0,504.0
512.0,514.0,515.0,507.0,504.0
503.0,505.0,505.0,501.0,509.0
498.0,504.0,501.0,500.0,512.0
495.0,500.0,500.0,498.0,517.0
498.0,503.0,502.0,504.0,519.0
507.0,503.0,508.0,514.0,516.0
508.0,502.0,512.0,518.0,518.0
516.0,501.0,515.0,522.0,518.0
523.0,506.0,523.0,524.0,520.0
516.0,505.0,518.0,523.0,522.0
508.0,504.0,515.0,523.0,525.0
511.0,506.0,515.0,517.0,521.0
519.0,506.0,517.0,518.0,515.0
517.0,510.0,517.0,518.0,514.0
524.0,515.0,522.0,518.0,508.0
528.0,518.0,522.0,516.0,506.0
518.0,518.0,517.0,514.0,506.0
510.0,512.0,507.0,506.0,509.0
510.0,512.0,508.0,503.0,510.0
513.0,506.0,504.0,502.0,513.0
507.0,503.0,503.0,503.0,515.0
500.0,503.0,506.0,510.0,515.0
502.0,505.0,510.0,514.0,520.0
508.0,506.0,514.0,518.0,520.0
515.0,501.0,519.0,521.0,518.0
519.0,506.0,523.0,523.0,517.0
516.0,506.0,515.0,522.0,516.0
514.0,503.0,519.0,518.0,524.0
518.0,505.0,515.0,515.0,524.0
514.0,510.0,518.0,521.0,517.0
523.0,514.0,521.0,516.0,513.0
521.0,517.0,524.0,518.0,508.0
521.0,518.0,521.0,513.0,504.0
519.0,515.0,517.0,509.0,510.0
512.0,507.0,510.0,504.0,518.0
505.0,507.0,508.0,502.0,516.0
497.0,503.0,502.0,498.0,514.0
497.0,498.0,500.0,502.0,518.0
502.0,504.0,507.0,509.0,519.0
509.0,506.0,513.0,519.0,512.0
511.0,505.0,518.0,522.0,513.0
516.0,509.0,521.0,529.0,515.0
513.0,505.0,521.0,525.0,518.0
507.0,502.0,516.0,521.0,526.0
512.0,504.0,519.0,521.0,513.0
515.0,506.0,516.0,517.0,512.0
520.0,508.0,517.0,518.0,513.0
523.0,513.0,522.0,518.0,504.0
526.0,520.0,522.0,517.0,501.0
524.0,519.0,520.0,512.0,503.0
516.0,510.0,514.0,507.0,505.0
511.0,510.0,507.0,502.0,510.0
499.0,505.0,504.0,505.0,519.0
500.0,502.0,503.0,503.0,528.0
498.0,503.0,503.0,507.0,525.0
502.0,501.0,508.0,511.0,526.0
508.0,504.0,515.0,515.0,520.0
519.0,505.0,520.0,524.0,514.0
519.0,506.0,521.0,527.0,515.0
515.0,501.0,518.0,524.0,514.0
508.0,498.0,512.0,517.0,520.0
509.0,505.0,512.0,515.0,517.0
508.0,501.0,513.0,516.0,517.0
514.0,505.0,520.0,518.0,510.0
517.0,513.0,521.0,524.0,507.0
522.0,514.0,521.0,515.0,503.0
516.0,514.0,516.0,510.0,505.0
518.0,513.0,513.0,505.0,503.0
508.0,506.0,506.0,500.0,507.0
506.0,502.0,501.0,498.0,507.0
498.0,499.0,498.0,500.0,516.0
500.0,500.0,504.0,508.0,521.0
510.0,503.0,514.0,515.0,523.0
514.0,505.0,519.0,519.0,522.0
517.0,507.0,524.0,525.0,517.0
518.0,504.0,519.0,523.0,518.0
515.0,502.0,517.0,523.0,518.0
513.0,499.0,515.0,520.0,517.0
516.0,503.0,512.0,517.0,519.0
514.0,505.0,517.0,517.0,514.0
518.0,511.0,519.0,517.0,510.0
524.0,517.0,527.0,518.0,508.0
525.0,520.0,521.0,514.0,503.0
522.0,519.0,519.0,509.0,504.0
511.0,511.0,510.0,504.0,508.0
508.0,503.0,504.0,502.0,510.0
499.0,502.0,501.0,500.0,521.0
500.0,501.0,506.0,504.0,520.0
508.0,502.0,507.0,511.0,518.0
511.0,507.0,513.0,519.0,519.0
518.0,506.0,518.0,522.0,518.0
515.0,506.0,520.0,527.0,521.0
514.0,505.0,515.0,523.0,514.0
513.0,507.0,516.0,521.0,521.0
513.0,504.0,512.0,520.0,518.0
513.0,505.0,517.0,518.0,515.0
516.0,509.0,522.0,517.0,512.0
519.0,517.0,521.0,517.0,508.0
524.0,517.0,519.0,518.0,505.0
519.0,518.0,523.0,513.0,506.0
514.0,513.0,513.0,506.0,512.0
507.0,513.0,509.0,504.0,517.0
509.0,507.0,504.0,499.0,522.0
502.0,500.0,501.0,501.0,524.0
503.0,500.0,503.0,506.0,514.0
509.0,502.0,508.0,513.0,513.0
515.0,503.0,515.0,523.0,511.0
521.0,505.0,517.0,523.0,515.0
516.0,504.0,517.0,527.0,517.0
514.0,502.0,517.0,519.0,514.0
511.0,502.0,515.0,520.0,520.0
518.0,506.0,515.0,519.0,514.0
519.0,508.0,518.0,520.0,510.0
518.0,509.0,514.0,519.0,506.0
522.0,515.0,526.0,518.0,508.0
521.0,517.0,521.0,518.0,502.0
517.0,519.0,516.0,512.0,503.0
513.0,511.0,512.0,507.0,510.0
509.0,509.0,507.0,503.0,509.0
506.0,504.0,507.0,499.0,516.0
500.0,500.0,501.0,502.0,513.0
505.0,500.0,499.0,506.0,516.0
508.0,502.0,509.0,511.0,516.0
516.0,508.0,516.0,527.0,514.0
514.0,506.0,514.0,523.0,522.0
513.0,504.0,517.0,522.0,525.0
511.0,505.0,512.0,517.0,531.0
508.0,500.0,512.0,518.0,532.0
516.0,504.0,515.0,516.0,524.0
518.0,508.0,519.0,518.0,518.0
517.0,514.0,518.0,519.0,510.0
520.0,513.0,518.0,517.0,502.0
516.0,512.0,515.0,512.0,506.0
518.0,513.0,516.0,510.0,506.0
516.0,510.0,510.0,504.0,506.0
504.0,505.0,500.0,497.0,511.0
502.0,501.0,497.0,495.0,518.0
501.0,499.0,500.0,502.0,520.0
498.0,500.0,505.0,511.0,522.0
504.0,505.0,515.0,521.0,516.0
513.0,505.0,517.0,519.0,518.0
515.0,506.0,516.0,527.0,520.0
514.0,503.0,517.0,524.0,520.0
511.0,503.0,515.0,523.0,518.0
517.0,504.0,518.0,521.0,513.0
516.0,504.0,515.0,519.0,512.0
519.0,506.0,516.0,518.0,508.0
525.0,514.0,521.0,520.0,501.0
528.0,517.0,523.0,520.0,496.0
526.0,521.0,520.0,517.0,496.0
516.0,517.0,516.0,510.0,499.0
511.0,510.0,509.0,504.0,503.0
506.0,505.0,503.0,501.0,515.0
496.0,501.0,501.0,500.0,520.0
499.0,501.0,503.0,506.0,521.0
507.0,503.0,508.0,511.0,527.0
513.0,506.0,516.0,521.0,526.0
513.0,503.0,516.0,522.0,522.0
517.0,505.0,519.0,524.0,519.0
516.0,505.0,520.0,524.0,522.0
515.0,503.0,516.0,520.0,521.0
511.0,504.0,515.0,519.0,516.0
514.0,507.0,517.0,519.0,511.0
514.0,511.0,520.0,518.0,515.0
522.0,515.0,524.0,518.0,510.0
522.0,521.0,524.0,518.0,502.0
521.0,517.0,518.0,510.0,504.0
514.0,510.0,514.0,505.0,503.0
508.0,502.0,505.0,500.0,511.0
501.0,502.0,500.0,497.0,514.0
503.0,501.0,499.0,500.0,516.0
504.0,501.0,505.0,507.0,519.0
513.0,506.0,510.0,515.0,516.0
520.0,504.0,515.0,521.0,515.0
521.0,506.0,520.0,524.0,511.0
521.0,504.0,521.0,524.0,514.0
518.0,505.0,519.0,522.0,518.0
516.0,504.0,517.0,521.0,522.0
516.0,505.0,512.0,520.0,518.0
518.0,510.0,523.0,519.0,514.0
520.0,511.0,520.0,520.0,510.0
528.0,515.0,521.0,516.0,505.0
523.0,517.0,520.0,514.0,503.0
518.0,515.0,516.0,508.0,506.0
509.0,509.0,509.0,504.0,508.0
502.0,504.0,506.0,503.0,511.0
499.0,505.0,501.0,500.0,515.0
499.0,500.0,501.0,505.0,519.0
508.0,499.0,505.0,509.0,516.0
512.0,501.0,511.0,515.0,522.0
511.0,504.0,513.0,519.0,516.0
519.0,504.0,519.0,529.0,513.0
518.0,504.0,522.0,526.0,515.0
513.0,502.0,515.0,523.0,519.0
512.0,501.0,514.0,519.0,517.0
513.0,504.0,516.0,517.0,516.0
515.0,506.0,516.0,514.0,510.0
516.0,511.0,519.0,518.0,507.0
518.0,513.0,514.0,513.0,506.0
522.0,516.0,517.0,514.0,502.0
516.0,518.0,513.0,507.0,504.0
510.0,510.0,506.0,502.0,509.0
506.0,503.0,504.0,501.0,515.0
498.0,498.0,501.0,500.0,522.0
501.0,499.0,502.0,503.0,521.0
507.0,500.0,508.0,511.0,521.0
514.0,503.0,512.0,519.0,518.0
522.0,506.0,520.0,527.0,517.0
529.0,507.0,522.0,527.0,516.0
519.0,501.0,518.0,524.0,521.0
512.0,501.0,517.0,520.0,525.0
511.0,507.0,518.0,521.0,521.0
514.0,506.0,520.0,521.0,518.0
519.0,508.0,517.0,517.0,512.0
522.0,516.0,520.0,520.0,508.0
522.0,517.0,522.0,518.0,504.0
519.0,515.0,517.0,512.0,501.0
516.0,511.0,513.0,507.0,510.0
508.0,509.0,508.0,505.0,511.0
503.0,504.0,502.0,499.0,519.0
500.0,501.0,502.0,499.0,524.0
502.0,500.0,503.0,505.0,524.0
509.0,500.0,511.0,513.0,523.0
516.0,508.0,515.0,521.0,523.0
519.0,506.0,523.0,523.0,522.0
513.0,505.0,522.0,527.0,515.0
518.0,503.0,517.0,522.0,521.0
513.0,500.0,513.0,519.0,516.0
515.0,503.0,516.0,518.0,517.0
518.0,506.0,517.0,519.0,504.0
521.0,513.0,521.0,520.0,507.0
523.0,516.0,522.0,519.0,500.0
524.0,517.0,519.0,517.0,497.0
522.0,516.0,517.0,515.0,498.0
511.0,509.0,509.0,504.0,507.0
503.0,505.0,504.0,501.0,516.0
500.0,502.0,501.0,499.0,521.0
501.0,501.0,502.0,504.0,526.0
505.0,503.0,508.0,511.0,523.0
509.0,505.0,513.0,519.0,522.0
513.0,507.0,516.0,523.0,520.0
517.0,506.0,525.0,526.0,517.0
519.0,508.0,521.0,526.0,512.0
519.0,503.0,520.0,520.0,518.0
519.0,506.0,513.0,519.0,515.0
520.0,509.0,515.0,517.0,516.0
517.0,507.0,514.0,513.0,514.0
521.0,511.0,517.0,515.0,509.0
525.0,522.0,522.0,518.0,500.0
525.0,519.0,518.0,513.0,496.0
516.0,518.0,513.0,506.0,502.0
509.0,508.0,507.0,504.0,507.0
502.0,503.0,497.0,497.0,512.0
498.0,503.0,498.0,498.0,519.0
502.0,496.0,498.0,499.0,523.0
505.0,498.0,505.0,508.0,523.0
515.0,505.0,514.0,519.0,520.0
518.0,509.0,519.0,523.0,519.0
516.0,503.0,519.0,524.0,522.0
515.0,503.0,517.0,519.0,528.0
508.0,499.0,513.0,517.0,534.0
515.0,502.0,514.0,518.0,524.0
517.0,509.0,517.0,518.0,518.0
521.0,506.0,516.0,515.0,512.0
519.0,511.0,518.0,514.0,503.0
519.0,516.0,519.0,515.0,500.0
520.0,514.0,519.0,509.0,493.0
511.0,511.0,511.0,508.0,498.0
511.0,508.0,505.0,501.0,504.0
505.0,503.0,499.0,499.0,509.0
505.0,500.0,502.0,503.0,513.0
503.0,500.0,505.0,508.0,506.0
508.0,504.0,510.0,516.0,513.0
512.0,504.0,515.0,521.0,513.0
524.0,511.0,519.0,526.0,512.0
530.0,506.0,522.0,526.0,513.0
524.0,506.0,521.0,528.0,527.0
511.0,502.0,516.0,518.0,528.0
511.0,502.0,516.0,517.0,523.0
517.0,512.0,517.0,524.0,514.0
522.0,511.0,519.0,519.0,515.0
525.0,515.0,517.0,518.0,511.0
526.0,520.0,520.0,515.0,503.0
524.0,515.0,515.0,508.0,503.0
509.0,510.0,509.0,503.0,510.0
506.0,506.0,506.0,499.0,512.0
499.0,500.0,498.0,496.0,517.0
499.0,500.0,500.0,507.0,521.0
503.0,502.0,506.0,511.0,519.0
511.0,502.0,512.0,516.0,519.0
517.0,504.0,517.0,524.0,518.0
517.0,505.0,519.0,531.0,515.0
514.0,503.0,519.0,526.0,519.0
508.0,502.0,518.0,524.0,525.0
513.0,504.0,521.0,519.0,528.0
515.0,504.0,516.0,518.0,519.0
513.0,506.0,515.0,519.0,520.0
520.0,518.0,521.0,517.0,512.0
528.0,516.0,522.0,518.0,505.0
529.0,519.0,521.0,517.0,503.0
523.0,517.0,513.0,508.0,505.0
515.0,512.0,511.0,505.0,508.0
506.0,508.0,504.0,501.0,511.0
505.0,503.0,502.0,501.0,517.0
504.0,500.0,503.0,504.0,520.0
505.0,499.0,507.0,510.0,520.0
512.0,502.0,513.0,520.0,519.0
518.0,505.0,517.0,524.0,517.0
520.0,508.0,521.0,528.0,524.0
519.0,503.0,518.0,524.0,521.0
517.0,503.0,517.0,520.0,523.0
521.0,506.0,520.0,520.0,519.0
520.0,511.0,517.0,521.0,516.0
521.0,509.0,518.0,517.0,513.0
523.0,514.0,520.0,518.0,509.0
523.0,519.0,522.0,517.0,509.0
518.0,518.0,516.0,510.0,508.0
514.0,513.0,509.0,504.0,508.0
504.0,506.0,502.0,503.0,511.0
505.0,505.0,501.0,498.0,518.0
497.0,500.0,500.0,502.0,523.0
498.0,501.0,503.0,505.0,524.0
507.0,502.0,509.0,512.0,523.0
513.0,504.0,519.0,520.0,524.0
515.0,504.0,519.0,525.0,519.0
513.0,504.0,517.0,525.0,517.0
513.0,506.0,515.0,519.0,521.0
513.0,501.0,514.0,517.0,523.0
514.0,505.0,519.0,517.0,524.0
518.0,510.0,519.0,522.0,517.0
520.0,512.0,521.0,519.0,514.0
522.0,518.0,524.0,520.0,514.0
523.0,519.0,521.0,520.0,507.0
521.0,518.0,520.0,512.0,502.0
518.0,512.0,511.0,505.0,502.0
508.0,506.0,505.0,500.0,509.0
505.0,503.0,499.0,498.0,513.0
499.0,494.0,500.0,502.0,512.0
502.0,502.0,507.0,510.0,517.0
508.0,501.0,515.0,516.0,517.0
513.0,505.0,517.0,524.0,521.0
517.0,505.0,521.0,525.0,518.0
520.0,505.0,523.0,523.0,522.0
513.0,502.0,518.0,519.0,519.0
516.0,502.0,516.0,520.0,517.0
514.0,505.0,516.0,524.0,514.0
513.0,509.0,519.0,518.0,511.0
524.0,513.0,522.0,520.0,508.0
526.0,517.0,524.0,521.0,506.0
522.0,518.0,519.0,511.0,509.0
519.0,516.0,514.0,506.0,506.0
512.0,509.0,504.0,502.0,514.0
511.0,508.0,507.0,499.0,508.0
501.0,501.0,502.0,501.0,515.0
499.0,500.0,503.0,504.0,519.0
506.0,504.0,507.0,514.0,516.0
510.0,505.0,514.0,520.0,517.0
515.0,503.0,517.0,523.0,519.0
517.0,507.0,525.0,528.0,520.0
514.0,502.0,519.0,524.0,523.0
509.0,502.0,517.0,522.0,521.0
511.0,505.0,517.0,522.0,518.0
515.0,508.0,519.0,521.0,517.0
518.0,509.0,518.0,517.0,509.0
521.0,517.0,520.0,519.0,506.0
523.0,517.0,520.0,517.0,503.0
519.0,512.0,516.0,508.0,501.0
518.0,514.0,514.0,509.0,503.0
511.0,508.0,506.0,502.0,503.0
508.0,503.0,502.0,500.0,508.0
502.0,499.0,501.0,501.0,513.0
505.0,501.0,502.0,507.0,516.0
510.0,500.0,507.0,511.0,520.0
511.0,502.0,515.0,521.0,518.0
515.0,508.0,524.0,526.0,515.0
516.0,504.0,520.0,527.0,517.0
516.0,501.0,518.0,524.0,521.0
514.0,501.0,515.0,521.0,524.0
516.0,504.0,516.0,521.0,524.0
519.0,508.0,518.0,519.0,519.0
513.0,510.0,518.0,519.0,512.0
520.0,510.0,522.0,517.0,510.0
517.0,517.0,519.0,512.0,506.0
516.0,515.0,513.0,508.0,507.0
513.0,510.0,509.0,504.0,508.0
506.0,507.0,505.0,501.0,512.0
496.0,500.0,497.0,501.0,515.0
502.0,501.0,499.0,500.0,518.0
504.0,503.0,503.0,507.0,519.0
506.0,504.0,514.0,518.0,521.0
509.0,504.0,515.0,521.0,521.0
513.0,503.0,518.0,522.0,519.0
514.0,503.0,518.0,522.0,525.0
514.0,504.0,517.0,522.0,521.0
515.0,501.0,512.0,520.0,522.0
517.0,505.0,517.0,518.0,519.0
520.0,514.0,519.0,518.0,517.0
526.0,518.0,527.0,521.0,505.0
526.0,517.0,522.0,523.0,507.0
518.0,518.0,518.0,512.0,507.0
511.0,515.0,520.0,511.0,505.0
510.0,515.0,508.0,505.0,508.0
505.0,508.0,505.0,505.0,511.0
508.0,503.0,501.0,499.0,516.0
501.0,499.0,501.0,501.0,517.0
501.0,501.0,506.0,510.0,517.0
503.0,503.0,516.0,520.0,520.0
514.0,502.0,519.0,525.0,519.0
524.0,505.0,516.0,526.0,518.0
519.0,504.0,515.0,524.0,521.0
514.0,503.0,521.0,522.0,526.0
511.0,504.0,519.0,520.0,522.0
516.0,507.0,519.0,517.0,521.0
516.0,513.0,518.0,517.0,510.0
519.0,513.0,520.0,515.0,506.0
524.0,517.0,522.0,518.0,498.0
524.0,514.0,520.0,513.0,501.0
515.0,517.0,512.0,507.0,505.0
509.0,509.0,511.0,504.0,509.0
503.0,504.0,502.0,500.0,514.0
501.0,505.0,500.0,502.0,515.0
501.0,497.0,502.0,505.0,519.0
506.0,503.0,511.0,514.0,523.0
513.0,504.0,517.0,521.0,518.0
518.0,507.0,521.0,525.0,519.0
515.0,506.0,521.0,529.0,523.0
513.0,502.0,517.0,524.0,520.0
512.0,501.0,515.0,520.0,520.0
514.0,504.0,515.0,521.0,515.0
517.0,508.0,520.0,519.0,514.0
521.0,511.0,520.0,518.0,510.0
528.0,516.0,525.0,517.0,510.0
523.0,517.0,521.0,522.0,502.0
520.0,517.0,516.0,511.0,502.0
518.0,513.0,512.0,506.0,506.0
505.0,507.0,504.0,505.0,511.0
504.0,505.0,498.0,498.0,513.0
505.0,502.0,502.0,502.0,515.0
503.0,501.0,506.0,508.0,517.0
507.0,503.0,513.0,517.0,514.0
514.0,508.0,517.0,521.0,509.0
517.0,509.0,520.0,528.0,513.0
517.0,506.0,521.0,526.0,515.0
513.0,504.0,518.0,525.0,519.0
514.0,507.0,515.0,522.0,518.0
513.0,508.0,516.0,519.0,514.0
516.0,507.0,515.0,514.0,512.0
519.0,510.0,517.0,516.0,508.0
521.0,511.0,519.0,515.0,504.0
524.0,518.0,519.0,516.0,503.0
519.0,514.0,514.0,508.0,506.0
508.0,510.0,507.0,505.0,510.0
502.0,505.0,501.0,498.0,512.0
496.0,502.0,503.0,501.0,516.0
500.0,499.0,502.0,503.0,517.0
505.0,502.0,507.0,509.0,518.0
508.0,501.0,513.0,515.0,513.0
512.0,502.0,516.0,520.0,513.0
514.0,504.0,514.0,524.0,514.0
518.0,503.0,519.0,527.0,517.0
516.0,502.0,516.0,526.0,518.0
513.0,505.0,518.0,521.0,515.0
518.0,505.0,513.0,519.0,513.0
523.0,510.0,517.0,518.0,509.0
524.0,518.0,522.0,522.0,508.0
527.0,517.0,522.0,520.0,501.0
524.0,518.0,518.0,510.0,504.0
515.0,514.0,513.0,510.0,505.0
508.0,513.0,507.0,503.0,512.0
506.0,503.0,502.0,495.0,517.0
504.0,504.0,502.0,500.0,520.0
503.0,500.0,504.0,506.0,521.0
501.0,500.0,508.0,514.0,517.0
509.0,505.0,518.0,521.0,512.0
519.0,507.0,520.0,526.0,516.0
519.0,509.0,521.0,528.0,519.0
516.0,505.0,520.0,521.0,526.0
509.0,503.0,518.0,521.0,534.0
512.0,505.0,517.0,520.0,527.0
516.0,508.0,521.0,517.0,521.0
519.0,514.0,520.0,519.0,515.0
528.0,515.0,521.0,519.0,500.0
528.0,518.0,524.0,514.0,500.0
521.0,516.0,517.0,511.0,499.0
513.0,509.0,510.0,505.0,502.0
508.0,506.0,499.0,500.0,509.0
505.0,501.0,499.0,499.0,515.0
505.0,501.0,501.0,502.0,511.0
500.0,500.0,510.0,510.0,508.0
505.0,500.0,510.0,515.0,508.0
510.0,501.0,514.0,521.0,513.0
514.0,503.0,519.0,528.0,512.0
513.0,507.0,522.0,526.0,514.0
514.0,502.0,514.0,521.0,516.0
521.0,504.0,515.0,518.0,515.0
512.0,504.0,515.0,518.0,518.0
516.0,509.0,522.0,518.0,512.0
521.0,514.0,520.0,518.0,508.0
522.0,516.0,521.0,518.0,501.0
521.0,517.0,519.0,514.0,497.0
514.0,518.0,515.0,509.0,507.0
508.0,511.0,506.0,502.0,511.0
502.0,510.0,505.0,502.0,514.0
499.0,505.0,500.0,504.0,518.0
495.0,500.0,501.0,507.0,519.0
501.0,499.0,507.0,511.0,522.0
509.0,504.0,516.0,519.0,522.0
509.0,503.0,521.0,522.0,516.0
509.0,503.0,517.0,522.0,517.0
510.0,502.0,517.0,520.0,521.0
514.0,502.0,517.0,520.0,522.0
514.0,504.0,515.0,519.0,517.0
522.0,508.0,517.0,521.0,515.0
521.0,510.0,517.0,516.0,513.0
524.0,515.0,521.0,520.0,509.0
525.0,517.0,520.0,515.0,506.0
527.0,518.0,517.0,512.0,506.0
518.0,514.0,512.0,510.0,504.0
511.0,507.0,503.0,500.0,509.0
502.0,506.0,501.0,498.0,518.0
499.0,500.0,499.0,501.0,516.0
500.0,500.0,503.0,508.0,517.0
508.0,503.0,508.0,518.0,515.0
513.0,503.0,516.0,521.0,515.0
517.0,506.0,520.0,527.0,518.0
514.0,505.0,520.0,526.0,517.0
518.0,503.0,518.0,526.0,520.0
516.0,504.0,516.0,522.0,520.0
515.0,506.0,518.0,520.0,516.0
518.0,507.0,511.0,519.0,513.0
519.0,514.0,518.0,519.0,509.0
523.0,519.0,520.0,518.0,506.0
527.0,520.0,523.0,517.0,496.0
521.0,518.0,519.0,515.0,503.0
517.0,515.0,512.0,506.0,506.0
504.0,508.0,505.0,501.0,517.0
497.0,503.0,502.0,501.0,520.0
499.0,500.0,506.0,502.0,523.0
501.0,501.0,504.0,507.0,523.0
505.0,502.0,510.0,516.0,522.0
508.0,504.0,518.0,525.0,518.0
517.0,504.0,520.0,526.0,520.0
518.0,504.0,520.0,527.0,521.0
514.0,504.0,517.0,524.0,517.0
514.0,502.0,514.0,521.0,516.0
515.0,503.0,515.0,517.0,517.0
519.0,507.0,515.0,521.0,516.0
523.0,512.0,520.0,521.0,513.0
524.0,518.0,522.0,517.0,506.0
526.0,513.0,520.0,515.0,503.0
521.0,520.0,516.0,512.0,503.0
513.0,509.0,507.0,506.0,500.0
507.0,507.0,505.0,502.0,502.0
502.0,502.0,500.0,501.0,507.0
497.0,500.0,503.0,505.0,511.0
503.0,501.0,510.0,512.0,510.0
507.0,498.0,512.0,517.0,517.0
512.0,505.0,516.0,521.0,520.0
516.0,504.0,522.0,525.0,516.0
515.0,503.0,519.0,526.0,515.0
510.0,505.0,516.0,522.0,513.0
511.0,502.0,516.0,520.0,515.0
509.0,505.0,515.0,518.0,519.0
516.0,510.0,517.0,517.0,513.0
521.0,515.0,522.0,519.0,511.0
522.0,521.0,522.0,517.0,515.0
522.0,518.0,520.0,512.0,509.0
518.0,513.0,515.0,507.0,503.0
512.0,512.0,510.0,505.0,503.0
506.0,505.0,504.0,504.0,506.0
502.0,502.0,502.0,502.0,515.0
500.0,499.0,502.0,508.0,518.0
505.0,497.0,504.0,510.0,520.0
512.0,503.0,515.0,519.0,517.0
514.0,505.0,518.0,525.0,517.0
519.0,505.0,520.0,523.0,522.0
516.0,501.0,516.0,521.0,521.0
515.0,501.0,515.0,518.0,522.0
513.0,501.0,513.0,516.0,516.0
516.0,506.0,519.0,516.0,510.0
514.0,509.0,518.0,517.0,514.0
517.0,513.0,516.0,514.0,506.0
518.0,517.0,516.0,507.0,503.0
515.0,515.0,515.0,510.0,505.0
511.0,511.0,511.0,506.0,504.0
502.0,504.0,503.0,500.0,511.0
499.0,499.0,499.0,501.0,514.0
501.0,499.0,502.0,498.0,518.0
505.0,502.0,504.0,505.0,517.0
503.0,501.0,510.0,517.0,519.0
514.0,509.0,518.0,524.0,516.0
519.0,506.0,519.0,526.0,517.0
519.0,506.0,519.0,526.0,517.0
520.0,503.0,517.0,526.0,516.0
520.0,500.0,515.0,518.0,517.0
519.0,504.0,516.0,518.0,518.0
520.0,511.0,520.0,518.0,511.0
518.0,513.0,519.0,512.0,511.0
525.0,515.0,521.0,516.0,509.0
526.0,517.0,520.0,517.0,507.0
520.0,515.0,512.0,509.0,506.0
510.0,511.0,509.0,505.0,511.0
505.0,503.0,505.0,501.0,516.0
502.0,501.0,501.0,499.0,523.0
506.0,500.0,504.0,502.0,519.0
507.0,501.0,507.0,512.0,520.0
510.0,505.0,515.0,519.0,520.0
515.0,506.0,519.0,527.0,518.0
518.0,506.0,517.0,528.0,515.0
515.0,504.0,519.0,524.0,519.0
513.0,501.0,516.0,521.0,517.0
517.0,503.0,513.0,521.0,515.0
518.0,502.0,516.0,517.0,515.0
516.0,509.0,516.0,519.0,510.0
519.0,514.0,521.0,519.0,504.0
526.0,519.0,521.0,522.0,497.0
520.0,517.0,518.0,520.0,498.0
516.0,514.0,514.0,509.0,501.0
510.0,508.0,507.0,502.0,506.0
502.0,505.0,503.0,501.0,513.0
500.0,504.0,500.0,500.0,516.0
499.0,499.0,501.0,507.0,517.0
501.0,500.0,507.0,512.0,518.0
515.0,503.0,514.0,520.0,518.0
522.0,505.0,522.0,524.0,516.0
518.0,505.0,520.0,527.0,520.0
518.0,503.0,518.0,522.0,520.0
517.0,504.0,519.0,521.0,520.0
516.0,504.0,518.0,520.0,520.0
516.0,508.0,521.0,520.0,516.0
517.0,509.0,518.0,518.0,514.0
521.0,515.0,521.0,512.0,508.0
523.0,518.0,522.0,519.0,501.0
519.0,517.0,518.0,512.0,500.0
512.0,512.0,512.0,507.0,508.0
506.0,506.0,504.0,500.0,510.0
498.0,505.0,499.0,499.0,514.0
498.0,499.0,499.0,497.0,521.0
502.0,497.0,502.0,504.0,527.0
511.0,502.0,509.0,514.0,522.0
516.0,502.0,516.0,521.0,519.0
518.0,504.0,518.0,525.0,520.0
518.0,502.0,517.0,523.0,520.0
514.0,499.0,513.0,519.0,522.0
513.0,500.0,515.0,518.0,517.0
512.0,502.0,515.0,518.0,511.0
513.0,503.0,517.0,518.0,513.0
522.0,513.0,520.0,519.0,506.0
523.0,515.0,522.0,520.0,507.0
522.0,517.0,520.0,519.0,504.0
517.0,514.0,517.0,509.0,509.0
513.0,510.0,509.0,504.0,508.0
508.0,507.0,506.0,501.0,512.0
500.0,502.0,502.0,501.0,517.0
500.0,499.0,502.0,503.0,516.0
507.0,500.0,506.0,509.0,518.0
509.0,502.0,514.0,520.0,519.0
513.0,504.0,519.0,525.0,516.0
515.0,507.0,519.0,526.0,518.0
517.0,503.0,522.0,523.0,520.0
514.0,498.0,515.0,520.0,520.0
514.0,503.0,517.0,520.0,518.0
518.0,500.0,516.0,519.0,519.0
518.0,509.0,519.0,518.0,517.0
526.0,514.0,522.0,522.0,511.0
524.0,518.0,523.0,518.0,508.0
525.0,518.0,519.0,513.0,512.0
513.0,514.0,513.0,505.0,515.0
505.0,509.0,506.0,504.0,518.0
504.0,506.0,503.0,499.0,517.0
499.0,506.0,501.0,505.0,507.0
502.0,499.0,503.0,509.0,510.0
510.0,501.0,504.0,515.0,514.0
511.0,504.0,514.0,517.0,524.0
516.0,507.0,518.0,522.0,520.0
518.0,508.0,520.0,525.0,519.0
514.0,506.0,518.0,523.0,523.0
513.0,506.0,517.0,521.0,523.0
516.0,505.0,518.0,519.0,522.0
516.0,510.0,517.0,518.0,515.0
519.0,509.0,517.0,516.0,516.0
522.0,514.0,520.0,518.0,507.0
524.0,515.0,519.0,515.0,500.0
523.0,515.0,516.0,511.0,501.0
516.0,512.0,512.0,509.0,505.0
510.0,510.0,505.0,502.0,509.0
505.0,502.0,501.0,498.0,515.0
500.0,500.0,502.0,502.0,516.0
503.0,502.0,508.0,510.0,518.0
507.0,503.0,512.0,516.0,521.0
511.0,503.0,516.0,523.0,523.0
514.0,505.0,518.0,523.0,520.0
516.0,506.0,520.0,525.0,521.0
514.0,506.0,515.0,521.0,522.0
517.0,503.0,514.0,519.0,520.0
516.0,505.0,518.0,517.0,518.0
513.0,508.0,521.0,519.0,516.0
519.0,513.0,520.0,518.0,512.0
525.0,519.0,522.0,519.0,509.0
524.0,520.0,521.0,516.0,506.0
517.0,515.0,516.0,509.0,509.0
511.0,507.0,508.0,504.0,507.0
505.0,510.0,505.0,501.0,510.0
500.0,501.0,498.0,497.0,514.0
500.0,500.0,501.0,498.0,516.0
503.0,500.0,506.0,511.0,519.0
507.0,504.0,513.0,517.0,520.0
513.0,503.0,517.0,521.0,518.0
511.0,503.0,519.0,525.0,516.0
512.0,504.0,518.0,524.0,516.0
508.0,503.0,518.0,523.0,518.0
513.0,506.0,517.0,520.0,517.0
516.0,502.0,514.0,514.0,514.0
517.0,505.0,514.0,512.0,516.0
523.0,511.0,516.0,516.0,510.0
534.0,519.0,523.0,516.0,504.0
527.0,516.0,519.0,513.0,506.0
517.0,512.0,511.0,508.0,507.0
510.0,509.0,508.0,505.0,508.0
507.0,505.0,501.0,499.0,510.0
503.0,501.0,501.0,501.0,517.0
502.0,499.0,505.0,504.0,521.0
500.0,501.0,507.0,511.0,517.0
513.0,504.0,516.0,520.0,516.0
516.0,510.0,518.0,524.0,519.0
516.0,507.0,522.0,528.0,523.0
517.0,498.0,518.0,524.0,523.0
513.0,502.0,514.0,519.0,521.0
513.0,504.0,514.0,518.0,518.0
512.0,506.0,519.0,519.0,515.0
515.0,509.0,518.0,518.0,521.0
524.0,513.0,520.0,518.0,520.0
524.0,516.0,521.0,516.0,517.0
522.0,516.0,520.0,510.0,517.0
511.0,512.0,512.0,507.0,515.0
515.0,508.0,505.0,505.0,511.0
516.0,503.0,502.0,499.0,507.0
508.0,499.0,503.0,503.0,498.0
504.0,504.0,506.0,508.0,504.0
508.0,500.0,510.0,515.0,512.0
516.0,504.0,519.0,520.0,516.0
518.0,505.0,518.0,523.0,515.0
519.0,506.0,519.0,521.0,516.0
517.0,505.0,517.0,525.0,518.0
515.0,501.0,516.0,521.0,518.0
516.0,504.0,517.0,519.0,517.0
516.0,506.0,517.0,516.0,520.0
522.0,510.0,520.0,517.0,510.0
525.0,517.0,523.0,521.0,502.0
524.0,519.0,522.0,514.0,502.0
519.0,511.0,515.0,510.0,500.0
509.0,512.0,510.0,506.0,505.0
506.0,507.0,504.0,502.0,509.0
501.0,504.0,502.0,499.0,515.0
500.0,500.0,502.0,501.0,516.0
508.0,503.0,509.0,513.0,515.0
511.0,508.0,512.0,522.0,515.0
517.0,505.0,520.0,522.0,517.0
515.0,507.0,519.0,523.0,520.0
518.0,503.0,519.0,521.0,518.0
514.0,503.0,518.0,523.0,521.0
513.0,505.0,522.0,522.0,520.0
511.0,504.0,518.0,518.0,519.0
520.0,509.0,516.0,514.0,518.0
520.0,513.0,519.0,517.0,511.0
520.0,514.0,523.0,513.0,506.0
518.0,515.0,514.0,505.0,504.0
514.0,514.0,511.0,509.0,504.0
510.0,509.0,502.0,503.0,505.0
501.0,506.0,504.0,500.0,520.0
497.0,500.0,500.0,497.0,521.0
503.0,501.0,502.0,503.0,520.0
506.0,497.0,508.0,513.0,520.0
508.0,503.0,514.0,519.0,520.0
515.0,508.0,514.0,520.0,523.0
518.0,503.0,518.0,522.0,526.0
517.0,504.0,519.0,524.0,524.0
516.0,502.0,516.0,520.0,525.0
517.0,506.0,519.0,519.0,522.0
515.0,508.0,517.0,516.0,520.0
517.0,509.0,518.0,516.0,512.0
522.0,513.0,520.0,516.0,509.0
523.0,518.0,521.0,517.0,504.0
522.0,516.0,518.0,511.0,503.0
517.0,512.0,517.0,507.0,504.0
506.0,507.0,506.0,503.0,510.0
504.0,503.0,496.0,499.0,514.0
500.0,497.0,500.0,500.0,520.0
502.0,496.0,505.0,507.0,521.0
506.0,501.0,509.0,515.0,518.0
511.0,505.0,516.0,523.0,516.0
516.0,505.0,519.0,529.0,518.0
520.0,507.0,524.0,527.0,514.0
516.0,502.0,519.0,525.0,521.0
514.0,504.0,517.0,522.0,524.0
517.0,509.0,516.0,518.0,520.0
517.0,508.0,516.0,517.0,516.0
525.0,511.0,519.0,518.0,510.0
522.0,516.0,522.0,520.0,507.0
522.0,518.0,520.0,516.0,505.0
520.0,518.0,517.0,510.0,506.0
514.0,510.0,508.0,503.0,508.0
506.0,506.0,506.0,502.0,513.0
498.0,501.0,500.0,498.0,518.0
497.0,500.0,502.0,505.0,519.0
502.0,500.0,508.0,510.0,517.0
506.0,504.0,513.0,520.0,517.0
513.0,503.0,520.0,522.0,519.0
514.0,504.0,523.0,526.0,518.0
517.0,502.0,519.0,525.0,520.0
513.0,504.0,517.0,522.0,524.0
519.0,504.0,517.0,521.0,522.0
515.0,504.0,516.0,519.0,517.0
512.0,506.0,516.0,517.0,512.0
520.0,515.0,519.0,519.0,507.0
527.0,516.0,521.0,519.0,498.0
526.0,519.0,521.0,516.0,504.0
515.0,516.0,514.0,510.0,506.0
510.0,515.0,510.0,504.0,510.0
503.0,506.0,503.0,501.0,513.0
498.0,504.0,503.0,502.0,522.0
498.0,500.0,503.0,504.0,522.0
502.0,499.0,506.0,511.0,517.0
507.0,502.0,515.0,521.0,519.0
515.0,505.0,519.0,527.0,519.0
522.0,510.0,520.0,528.0,514.0
519.0,503.0,518.0,524.0,513.0
508.0,501.0,514.0,521.0,515.0
512.0,502.0,519.0,518.0,513.0
516.0,504.0,515.0,517.0,515.0
519.0,509.0,518.0,517.0,519.0
524.0,514.0,518.0,516.0,510.0
524.0,517.0,521.0,518.0,506.0
516.0,514.0,518.0,510.0,507.0
503.0,508.0,507.0,504.0,514.0
498.0,505.0,502.0,501.0,509.0
502.0,505.0,503.0,500.0,508.0
499.0,499.0,499.0,501.0,514.0
501.0,498.0,503.0,506.0,514.0
507.0,504.0,508.0,514.0,511.0
513.0,502.0,516.0,522.0,512.0
518.0,505.0,520.0,521.0,512.0
520.0,505.0,524.0,528.0,513.0
518.0,503.0,515.0,521.0,516.0
513.0,500.0,513.0,519.0,522.0
512.0,504.0,516.0,515.0,517.0
513.0,510.0,516.0,516.0,514.0
519.0,511.0,520.0,521.0,510.0
525.0,515.0,520.0,518.0,504.0
523.0,518.0,521.0,515.0,503.0
521.0,515.0,516.0,509.0,504.0
514.0,512.0,510.0,509.0,507.0
511.0,507.0,507.0,501.0,507.0
501.0,502.0,501.0,501.0,515.0
501.0,499.0,501.0,503.0,516.0
503.0,500.0,508.0,509.0,519.0
512.0,504.0,512.0,521.0,518.0
516.0,506.0,519.0,523.0,519.0
517.0,506.0,521.0,527.0,518.0
519.0,506.0,525.0,526.0,518.0
512.0,504.0,519.0,522.0,519.0
515.0,503.0,516.0,520.0,521.0
514.0,505.0,516.0,518.0,519.0
517.0,508.0,518.0,519.0,510.0
519.0,512.0,520.0,517.0,508.0
520.0,514.0,521.0,515.0,509.0
523.0,516.0,519.0,513.0,505.0
516.0,513.0,515.0,510.0,507.0
514.0,510.0,507.0,502.0,510.0
503.0,505.0,510.0,501.0,512.0
501.0,501.0,502.0,500.0,516.0
502.0,500.0,501.0,502.0,519.0
505.0,502.0,511.0,510.0,519.0
510.0,502.0,514.0,523.0,520.0
516.0,502.0,518.0,524.0,518.0
517.0,505.0,521.0,525.0,519.0
516.0,504.0,520.0,525.0,520.0
514.0,502.0,515.0,522.0,522.0
519.0,504.0,516.0,520.0,521.0
522.0,506.0,518.0,518.0,519.0
526.0,511.0,517.0,516.0,515.0
523.0,516.0,521.0,519.0,514.0
526.0,521.0,522.0,517.0,507.0
528.0,518.0,519.0,512.0,507.0
519.0,515.0,513.0,511.0,506.0
509.0,507.0,505.0,503.0,508.0
503.0,505.0,503.0,500.0,513.0
502.0,502.0,501.0,502.0,512.0
501.0,499.0,504.0,506.0,516.0
506.0,502.0,511.0,513.0,521.0
512.0,503.0,516.0,522.0,517.0
516.0,506.0,518.0,524.0,516.0
520.0,508.0,522.0,529.0,520.0
518.0,503.0,519.0,523.0,522.0
512.0,503.0,521.0,518.0,521.0
511.0,503.0,528.0,515.0,526.0
515.0,508.0,530.0,516.0,517.0
520.0,510.0,526.0,515.0,511.0
525.0,516.0,530.0,519.0,505.0
522.0,515.0,518.0,515.0,500.0
515.0,512.0,500.0,506.0,501.0
513.0,510.0,506.0,502.0,508.0
506.0,505.0,503.0,497.0,519.0
499.0,501.0,500.0,500.0,526.0
499.0,499.0,492.0,502.0,525.0
503.0,500.0,500.0,508.0,525.0
506.0,500.0,508.0,515.0,526.0
516.0,503.0,516.0,523.0,521.0
519.0,504.0,520.0,527.0,519.0
523.0,505.0,519.0,526.0,517.0
517.0,503.0,518.0,523.0,519.0
513.0,499.0,515.0,521.0,518.0
512.0,506.0,517.0,520.0,516.0
515.0,512.0,516.0,518.0,511.0
520.0,513.0,519.0,516.0,509.0
522.0,516.0,519.0,515.0,511.0
521.0,517.0,519.0,513.0,506.0
517.0,519.0,513.0,509.0,507.0
509.0,513.0,510.0,505.0,511.0
508.0,506.0,504.0,502.0,512.0
499.0,501.0,497.0,501.0,518.0
499.0,500.0,506.0,505.0,519.0
507.0,507.0,508.0,511.0,523.0
513.0,507.0,514.0,521.0,523.0
513.0,505.0,519.0,529.0,523.0
517.0,509.0,520.0,527.0,521.0
519.0,504.0,519.0,527.0,520.0
516.0,502.0,515.0,521.0,522.0
515.0,503.0,516.0,517.0,514.0
517.0,506.0,514.0,520.0,507.0
515.0,508.0,517.0,516.0,509.0
516.0,513.0,520.0,517.0,505.0
518.0,518.0,520.0,513.0,505.0
518.0,517.0,517.0,514.0,508.0
514.0,516.0,515.0,509.0,505.0
509.0,509.0,509.0,502.0,510.0
506.0,503.0,503.0,500.0,514.0
504.0,502.0,501.0,498.0,519.0
505.0,503.0,509.0,507.0,525.0
505.0,502.0,508.0,513.0,529.0
514.0,505.0,519.0,517.0,528.0
518.0,507.0,524.0,523.0,530.0
519.0,506.0,518.0,527.0,520.0
521.0,506.0,520.0,524.0,512.0
516.0,503.0,514.0,515.0,511.0
514.0,503.0,515.0,518.0,510.0
516.0,507.0,518.0,518.0,509.0
517.0,517.0,519.0,517.0,505.0
522.0,515.0,520.0,516.0,502.0
524.0,518.0,523.0,519.0,496.0
520.0,517.0,515.0,509.0,498.0
512.0,515.0,511.0,506.0,502.0
505.0,507.0,505.0,504.0,500.0
502.0,502.0,501.0,500.0,507.0
504.0,500.0,502.0,503.0,513.0
503.0,500.0,505.0,506.0,515.0
507.0,501.0,509.0,512.0,520.0
517.0,508.0,516.0,523.0,523.0
513.0,507.0,520.0,527.0,529.0
516.0,505.0,517.0,523.0,522.0
515.0,501.0,514.0,517.0,522.0
512.0,503.0,514.0,519.0,520.0
509.0,504.0,515.0,517.0,515.0
513.0,508.0,517.0,516.0,509.0
523.0,512.0,520.0,517.0,503.0
531.0,518.0,521.0,517.0,495.0
525.0,520.0,524.0,515.0,501.0
519.0,515.0,514.0,502.0,507.0
508.0,509.0,506.0,503.0,512.0
501.0,506.0,502.0,501.0,516.0
496.0,500.0,497.0,497.0,525.0
504.0,502.0,503.0,506.0,522.0
511.0,505.0,513.0,512.0,518.0
514.0,505.0,516.0,521.0,512.0
516.0,506.0,517.0,525.0,513.0
515.0,508.0,522.0,524.0,522.0
516.0,504.0,518.0,523.0,518.0
514.0,503.0,517.0,519.0,520.0
514.0,506.0,517.0,517.0,520.0
516.0,507.0,516.0,520.0,522.0
519.0,514.0,517.0,520.0,516.0
526.0,515.0,522.0,516.0,510.0
525.0,519.0,519.0,515.0,507.0
523.0,518.0,517.0,515.0,504.0
520.0,513.0,513.0,506.0,506.0
511.0,508.0,506.0,501.0,507.0
506.0,505.0,502.0,499.0,511.0
499.0,501.0,498.0,502.0,517.0
501.0,500.0,501.0,504.0,520.0
507.0,502.0,509.0,513.0,522.0
511.0,503.0,516.0,520.0,517.0
515.0,507.0,520.0,526.0,518.0
516.0,507.0,519.0,526.0,515.0
513.0,501.0,515.0,522.0,515.0
513.0,501.0,515.0,518.0,516.0
514.0,504.0,515.0,518.0,515.0
515.0,512.0,519.0,517.0,513.0
518.0,509.0,518.0,517.0,511.0
523.0,513.0,521.0,519.0,507.0
526.0,519.0,523.0,516.0,504.0
519.0,515.0,516.0,509.0,504.0
512.0,512.0,511.0,505.0,505.0
506.0,511.0,506.0,507.0,510.0
500.0,502.0,498.0,501.0,518.0
499.0,502.0,502.0,501.0,519.0
503.0,502.0,507.0,511.0,520.0
508.0,504.0,513.0,515.0,520.0
513.0,500.0,517.0,520.0,521.0
517.0,505.0,520.0,520.0,518.0
519.0,505.0,521.0,525.0,514.0
516.0,503.0,518.0,521.0,517.0
513.0,503.0,516.0,519.0,520.0
515.0,505.0,516.0,516.0,522.0
517.0,507.0,516.0,516.0,513.0
522.0,517.0,522.0,520.0,507.0
526.0,522.0,522.0,521.0,506.0
523.0,517.0,520.0,516.0,505.0
518.0,516.0,516.0,513.0,508.0
511.0,511.0,509.0,511.0,509.0
509.0,508.0,505.0,505.0,512.0
498.0,500.0,498.0,501.0,513.0
502.0,499.0,501.0,504.0,514.0
507.0,499.0,505.0,505.0,517.0
507.0,500.0,511.0,514.0,528.0
511.0,504.0,518.0,522.0,529.0
514.0,511.0,522.0,528.0,522.0
514.0,506.0,520.0,523.0,523.0
510.0,501.0,515.0,518.0,526.0
511.0,504.0,519.0,520.0,522.0
514.0,511.0,518.0,517.0,520.0
521.0,510.0,520.0,515.0,520.0
525.0,513.0,520.0,519.0,510.0
520.0,516.0,520.0,514.0,510.0
520.0,521.0,520.0,513.0,506.0
516.0,514.0,514.0,507.0,508.0
509.0,509.0,507.0,501.0,507.0
503.0,505.0,504.0,503.0,515.0
506.0,503.0,503.0,502.0,521.0
502.0,501.0,503.0,505.0,521.0
508.0,498.0,513.0,515.0,521.0
517.0,509.0,517.0,522.0,517.0
517.0,507.0,521.0,529.0,516.0
515.0,501.0,522.0,526.0,516.0
512.0,504.0,518.0,524.0,518.0
511.0,502.0,515.0,520.0,518.0
512.0,504.0,516.0,516.0,516.0
514.0,508.0,513.0,520.0,512.0
522.0,511.0,518.0,516.0,512.0
525.0,520.0,522.0,518.0,512.0
523.0,517.0,521.0,515.0,507.0
519.0,517.0,516.0,509.0,507.0
514.0,511.0,510.0,504.0,511.0
507.0,507.0,504.0,502.0,516.0
501.0,504.0,502.0,500.0,515.0
496.0,501.0,501.0,505.0,519.0
506.0,502.0,506.0,509.0,522.0
515.0,502.0,513.0,518.0,519.0
523.0,507.0,521.0,521.0,516.0
515.0,507.0,522.0,524.0,518.0
515.0,504.0,520.0,522.0,512.0
517.0,499.0,516.0,520.0,513.0
513.0,501.0,514.0,516.0,517.0
516.0,503.0,516.0,517.0,517.0
517.0,512.0,518.0,516.0,510.0
523.0,510.0,519.0,517.0,501.0
526.0,516.0,523.0,517.0,499.0
522.0,517.0,519.0,516.0,500.0
518.0,513.0,515.0,509.0,500.0
511.0,511.0,509.0,504.0,504.0
504.0,505.0,504.0,501.0,510.0
501.0,503.0,502.0,500.0,514.0
502.0,497.0,501.0,498.0,519.0
513.0,503.0,511.0,512.0,519.0
519.0,504.0,515.0,518.0,518.0
519.0,506.0,520.0,523.0,517.0
521.0,507.0,521.0,525.0,518.0
518.0,506.0,520.0,531.0,521.0
514.0,500.0,516.0,520.0,523.0
519.0,502.0,519.0,516.0,519.0
514.0,503.0,516.0,517.0,510.0
517.0,510.0,520.0,520.0,508.0
524.0,513.0,522.0,518.0,504.0
525.0,516.0,526.0,518.0,503.0
521.0,518.0,519.0,513.0,500.0
512.0,512.0,512.0,508.0,505.0
505.0,507.0,503.0,500.0,508.0
501.0,499.0,502.0,500.0,509.0
497.0,499.0,499.0,498.0,506.0
499.0,499.0,504.0,506.0,513.0
507.0,500.0,509.0,514.0,512.0
511.0,500.0,512.0,517.0,517.0
515.0,502.0,516.0,519.0,520.0
518.0,509.0,520.0,529.0,527.0
515.0,505.0,519.0,523.0,527.0
513.0,502.0,516.0,524.0,523.0
512.0,501.0,510.0,518.0,522.0
515.0,506.0,516.0,515.0,517.0
521.0,510.0,513.0,517.0,511.0
524.0,518.0,521.0,518.0,510.0
529.0,518.0,525.0,515.0,501.0
520.0,516.0,517.0,512.0,500.0
509.0,513.0,511.0,510.0,509.0
508.0,510.0,507.0,502.0,505.0
500.0,500.0,500.0,499.0,514.0
500.0,505.0,504.0,503.0,518.0
503.0,501.0,506.0,507.0,516.0
506.0,507.0,514.0,518.0,516.0
512.0,504.0,519.0,524.0,516.0
518.0,506.0,523.0,526.0,518.0
515.0,509.0,522.0,526.0,519.0
514.0,505.0,518.0,522.0,519.0
510.0,503.0,516.0,519.0,521.0
513.0,505.0,516.0,517.0,518.0
516.0,510.0,519.0,515.0,516.0
520.0,510.0,520.0,517.0,510.0
521.0,516.0,522.0,518.0,507.0
523.0,516.0,521.0,514.0,504.0
518.0,515.0,516.0,511.0,505.0
514.0,506.0,509.0,506.0,505.0
504.0,506.0,504.0,505.0,510.0
503.0,503.0,503.0,500.0,514.0
500.0,499.0,501.0,503.0,516.0
507.0,501.0,507.0,513.0,517.0
513.0,503.0,514.0,518.0,520.0
515.0,505.0,519.0,523.0,521.0
516.0,504.0,519.0,524.0,518.0
515.0,502.0,519.0,525.0,518.0
510.0,501.0,516.0,521.0,516.0
510.0,504.0,519.0,519.0,510.0
511.0,506.0,516.0,515.0,513.0
518.0,509.0,520.0,519.0,508.0
526.0,516.0,523.0,518.0,501.0
525.0,516.0,524.0,516.0,501.0
526.0,517.0,520.0,511.0,505.0
514.0,512.0,514.0,511.0,508.0
507.0,508.0,507.0,507.0,508.0
503.0,505.0,506.0,502.0,517.0
498.0,500.0,501.0,502.0,514.0
501.0,499.0,504.0,505.0,521.0
507.0,500.0,509.0,512.0,519.0
508.0,503.0,514.0,523.0,517.0
512.0,503.0,518.0,522.0,524.0
516.0,507.0,521.0,524.0,518.0
515.0,504.0,520.0,529.0,525.0
508.0,502.0,516.0,519.0,526.0
514.0,505.0,518.0,519.0,522.0
521.0,507.0,519.0,520.0,515.0
522.0,510.0,519.0,513.0,510.0
524.0,515.0,520.0,519.0,510.0
521.0,516.0,519.0,512.0,511.0
516.0,513.0,514.0,507.0,505.0
515.0,510.0,510.0,505.0,502.0
507.0,506.0,502.0,503.0,508.0
501.0,504.0,497.0,496.0,516.0
496.0,497.0,494.0,498.0,518.0
498.0,494.0,503.0,508.0,517.0
505.0,502.0,516.0,515.0,515.0
511.0,503.0,515.0,521.0,513.0
520.0,503.0,519.0,523.0,512.0
518.0,502.0,518.0,523.0,518.0
523.0,505.0,522.0,521.0,520.0
515.0,502.0,514.0,519.0,517.0
518.0,503.0,518.0,517.0,516.0
518.0,506.0,518.0,517.0,510.0
520.0,512.0,516.0,519.0,508.0
522.0,518.0,524.0,519.0,503.0
522.0,520.0,522.0,513.0,502.0
519.0,517.0,518.0,512.0,505.0
514.0,511.0,510.0,504.0,508.0
505.0,508.0,507.0,501.0,511.0
505.0,503.0,505.0,501.0,513.0
501.0,502.0,504.0,503.0,518.0
509.0,503.0,508.0,509.0,523.0
511.0,503.0,514.0,517.0,520.0
518.0,506.0,520.0,526.0,520.0
514.0,505.0,522.0,527.0,521.0
519.0,503.0,520.0,523.0,522.0
513.0,501.0,517.0,521.0,517.0
513.0,504.0,518.0,525.0,521.0
516.0,507.0,519.0,520.0,518.0
519.0,509.0,519.0,518.0,513.0
520.0,514.0,521.0,516.0,510.0
526.0,517.0,521.0,510.0,506.0
519.0,516.0,520.0,511.0,501.0
514.0,512.0,515.0,508.0,508.0
509.0,512.0,507.0,506.0,512.0
502.0,508.0,504.0,500.0,516.0
499.0,501.0,501.0,500.0,522.0
500.0,497.0,504.0,505.0,521.0
511.0,502.0,510.0,510.0,515.0
513.0,503.0,516.0,519.0,516.0
518.0,504.0,520.0,525.0,517.0
519.0,505.0,521.0,526.0,516.0
516.0,507.0,518.0,525.0,515.0
