CH1,CH2,CH3,CH4,CH5
519.0,535.0,518.0,564.0,514.0
502.0,522.0,502.0,548.0,525.0
495.0,512.0,489.0,528.0,532.0
494.0,506.0,489.0,513.0,529.0
495.0,498.0,491.0,497.0,526.0
496.0,494.0,494.0,485.0,522.0
502.0,488.0,502.0,479.0,513.0
509.0,485.0,506.0,478.0,512.0
509.0,483.0,511.0,472.0,505.0
514.0,484.0,518.0,478.0,507.0
517.0,488.0,525.0,485.0,504.0
524.0,500.0,531.0,503.0,505.0
531.0,510.0,535.0,522.0,501.0
536.0,523.0,542.0,542.0,502.0
533.0,531.0,537.0,558.0,502.0
528.0,534.0,533.0,564.0,506.0
521.0,534.0,521.0,562.0,511.0
518.0,531.0,514.0,560.0,515.0
504.0,520.0,498.0,542.0,532.0
496.0,509.0,491.0,524.0,537.0
497.0,501.0,489.0,507.0,536.0
500.0,496.0,493.0,494.0,528.0
502.0,489.0,496.0,482.0,520.0
510.0,487.0,505.0,481.0,512.0
506.0,482.0,506.0,470.0,516.0
509.0,484.0,514.0,472.0,515.0
516.0,487.0,519.0,479.0,504.0
519.0,492.0,525.0,490.0,503.0
527.0,500.0,529.0,506.0,502.0
532.0,516.0,535.0,526.0,497.0
540.0,528.0,541.0,548.0,495.0
539.0,531.0,534.0,559.0,492.0
532.0,532.0,525.0,562.0,501.0
526.0,532.0,518.0,562.0,508.0
508.0,522.0,503.0,550.0,529.0
489.0,513.0,494.0,536.0,536.0
485.0,504.0,490.0,519.0,539.0
492.0,499.0,490.0,504.0,541.0
494.0,494.0,494.0,490.0,529.0
498.0,488.0,498.0,479.0,517.0
506.0,488.0,507.0,476.0,513.0
507.0,483.0,510.0,470.0,511.0
510.0,483.0,516.0,472.0,505.0
516.0,487.0,523.0,481.0,502.0
523.0,497.0,530.0,497.0,504.0
533.0,506.0,535.0,521.0,498.0
537.0,520.0,540.0,536.0,496.0
533.0,527.0,537.0,550.0,500.0
534.0,534.0,537.0,562.0,508.0
526.0,531.0,523.0,560.0,515.0
518.0,531.0,516.0,561.0,512.0
503.0,521.0,501.0,546.0,524.0
495.0,511.0,497.0,530.0,531.0
494.0,504.0,491.0,514.0,530.0
498.0,497.0,496.0,502.0,528.0
499.0,490.0,495.0,486.0,523.0
506.0,490.0,504.0,483.0,520.0
504.0,484.0,507.0,471.0,525.0
506.0,483.0,513.0,470.0,519.0
512.0,484.0,520.0,476.0,511.0
519.0,490.0,525.0,485.0,506.0
524.0,497.0,529.0,500.0,497.0
528.0,509.0,536.0,521.0,493.0
533.0,523.0,538.0,538.0,493.0
531.0,529.0,537.0,554.0,496.0
525.0,530.0,529.0,563.0,501.0
518.0,531.0,517.0,561.0,515.0
519.0,532.0,514.0,560.0,522.0
501.0,519.0,497.0,542.0,534.0
495.0,509.0,491.0,524.0,536.0
496.0,506.0,489.0,508.0,531.0
498.0,496.0,493.0,494.0,530.0
501.0,488.0,496.0,479.0,518.0
508.0,490.0,505.0,477.0,513.0
507.0,481.0,505.0,468.0,511.0
510.0,483.0,513.0,471.0,508.0
517.0,486.0,521.0,478.0,507.0
518.0,493.0,532.0,491.0,501.0
520.0,501.0,530.0,506.0,497.0
531.0,514.0,537.0,525.0,497.0
531.0,524.0,537.0,545.0,494.0
531.0,533.0,536.0,561.0,501.0
523.0,532.0,526.0,562.0,511.0
518.0,533.0,519.0,562.0,516.0
507.0,525.0,504.0,554.0,525.0
499.0,516.0,492.0,535.0,533.0
493.0,512.0,489.0,518.0,535.0
496.0,500.0,489.0,502.0,534.0
499.0,491.0,492.0,487.0,534.0
503.0,490.0,502.0,482.0,527.0
506.0,487.0,505.0,478.0,522.0
509.0,481.0,505.0,466.0,512.0
512.0,485.0,515.0,471.0,508.0
519.0,489.0,523.0,480.0,506.0
522.0,494.0,527.0,493.0,503.0
526.0,507.0,534.0,513.0,504.0
532.0,519.0,539.0,534.0,498.0
534.0,528.0,538.0,551.0,498.0
531.0,535.0,536.0,565.0,501.0
517.0,528.0,522.0,562.0,509.0
513.0,531.0,515.0,561.0,516.0
497.0,520.0,498.0,545.0,526.0
494.0,513.0,492.0,531.0,530.0
492.0,505.0,488.0,514.0,529.0
492.0,498.0,489.0,498.0,526.0
495.0,492.0,495.0,487.0,523.0
498.0,489.0,501.0,479.0,518.0
501.0,485.0,504.0,471.0,516.0
503.0,488.0,511.0,470.0,517.0
511.0,486.0,518.0,474.0,514.0
515.0,489.0,524.0,484.0,509.0
524.0,498.0,529.0,500.0,504.0
531.0,509.0,537.0,520.0,501.0
537.0,523.0,540.0,543.0,497.0
533.0,528.0,537.0,552.0,493.0
532.0,533.0,531.0,563.0,501.0
520.0,534.0,519.0,561.0,510.0
517.0,535.0,513.0,560.0,516.0
505.0,521.0,498.0,542.0,532.0
497.0,513.0,491.0,523.0,535.0
495.0,502.0,485.0,506.0,533.0
500.0,499.0,493.0,496.0,529.0
500.0,490.0,494.0,481.0,518.0
512.0,489.0,506.0,483.0,516.0
508.0,483.0,506.0,471.0,507.0
507.0,485.0,511.0,470.0,505.0
511.0,490.0,518.0,476.0,506.0
521.0,493.0,526.0,490.0,499.0
525.0,500.0,530.0,505.0,497.0
530.0,513.0,537.0,526.0,491.0
535.0,524.0,539.0,551.0,487.0
529.0,532.0,536.0,560.0,495.0
525.0,532.0,529.0,562.0,514.0
521.0,533.0,520.0,563.0,513.0
515.0,528.0,509.0,555.0,521.0
503.0,517.0,498.0,535.0,527.0
498.0,507.0,490.0,521.0,528.0
496.0,500.0,489.0,503.0,528.0
503.0,497.0,498.0,493.0,526.0
498.0,491.0,499.0,481.0,523.0
504.0,488.0,509.0,475.0,509.0
504.0,482.0,508.0,470.0,504.0
512.0,485.0,515.0,475.0,497.0
518.0,489.0,522.0,480.0,495.0
523.0,496.0,532.0,494.0,494.0
529.0,503.0,532.0,510.0,490.0
538.0,516.0,539.0,532.0,492.0
533.0,527.0,538.0,549.0,500.0
532.0,534.0,535.0,564.0,502.0
521.0,531.0,522.0,560.0,512.0
518.0,530.0,515.0,562.0,514.0
506.0,518.0,501.0,545.0,527.0
498.0,513.0,492.0,530.0,532.0
494.0,507.0,489.0,514.0,536.0
495.0,500.0,489.0,499.0,528.0
501.0,495.0,496.0,487.0,526.0
503.0,489.0,500.0,477.0,518.0
508.0,485.0,506.0,472.0,515.0
513.0,485.0,512.0,470.0,515.0
517.0,489.0,517.0,472.0,512.0
522.0,489.0,524.0,482.0,505.0
525.0,498.0,530.0,499.0,498.0
529.0,510.0,537.0,519.0,497.0
530.0,522.0,541.0,540.0,490.0
530.0,529.0,541.0,555.0,496.0
528.0,533.0,531.0,563.0,500.0
521.0,529.0,517.0,558.0,510.0
517.0,530.0,514.0,563.0,512.0
498.0,521.0,496.0,542.0,531.0
490.0,510.0,488.0,522.0,535.0
494.0,503.0,491.0,513.0,530.0
493.0,497.0,493.0,496.0,527.0
494.0,490.0,494.0,483.0,519.0
505.0,489.0,508.0,480.0,514.0
504.0,483.0,508.0,470.0,515.0
508.0,484.0,513.0,470.0,510.0
513.0,485.0,520.0,474.0,504.0
519.0,493.0,526.0,488.0,499.0
524.0,503.0,528.0,504.0,497.0
529.0,511.0,535.0,523.0,494.0
535.0,524.0,540.0,545.0,495.0
532.0,531.0,535.0,561.0,496.0
529.0,535.0,527.0,564.0,507.0
520.0,533.0,520.0,563.0,516.0
516.0,528.0,512.0,558.0,521.0
499.0,517.0,496.0,537.0,533.0
493.0,512.0,490.0,520.0,532.0
491.0,500.0,489.0,502.0,533.0
501.0,495.0,498.0,491.0,529.0
498.0,490.0,499.0,480.0,522.0
503.0,488.0,504.0,475.0,513.0
505.0,482.0,508.0,469.0,512.0
513.0,485.0,517.0,472.0,506.0
515.0,487.0,521.0,479.0,514.0
521.0,494.0,527.0,496.0,505.0
528.0,505.0,533.0,511.0,502.0
531.0,515.0,538.0,530.0,497.0
535.0,526.0,540.0,549.0,492.0
532.0,533.0,536.0,562.0,495.0
522.0,530.0,523.0,562.0,502.0
516.0,530.0,518.0,560.0,508.0
505.0,522.0,502.0,549.0,525.0
498.0,515.0,493.0,532.0,531.0
498.0,507.0,496.0,517.0,533.0
497.0,498.0,490.0,499.0,527.0
495.0,491.0,494.0,485.0,531.0
499.0,488.0,501.0,482.0,531.0
504.0,484.0,506.0,475.0,522.0
508.0,481.0,509.0,469.0,512.0
514.0,483.0,515.0,475.0,511.0
521.0,489.0,523.0,481.0,510.0
530.0,497.0,533.0,501.0,494.0
530.0,512.0,534.0,518.0,491.0
530.0,520.0,540.0,538.0,489.0
531.0,526.0,536.0,556.0,489.0
530.0,533.0,533.0,563.0,499.0
520.0,530.0,520.0,561.0,505.0
515.0,530.0,515.0,560.0,508.0
499.0,524.0,497.0,543.0,521.0
496.0,511.0,492.0,527.0,527.0
491.0,502.0,488.0,511.0,519.0
496.0,497.0,493.0,499.0,522.0
495.0,490.0,499.0,484.0,521.0
503.0,486.0,501.0,476.0,515.0
502.0,482.0,509.0,471.0,515.0
505.0,482.0,513.0,469.0,513.0
509.0,488.0,519.0,474.0,509.0
514.0,493.0,526.0,486.0,505.0
520.0,499.0,530.0,503.0,503.0
528.0,512.0,536.0,529.0,499.0
535.0,522.0,537.0,543.0,493.0
535.0,531.0,537.0,558.0,501.0
527.0,532.0,527.0,561.0,507.0
519.0,530.0,518.0,560.0,512.0
517.0,529.0,512.0,560.0,521.0
501.0,518.0,496.0,538.0,528.0
497.0,510.0,491.0,521.0,531.0
500.0,502.0,490.0,504.0,532.0
498.0,497.0,492.0,496.0,523.0
503.0,491.0,497.0,481.0,521.0
509.0,489.0,505.0,477.0,514.0
506.0,481.0,507.0,468.0,512.0
512.0,481.0,514.0,471.0,510.0
517.0,487.0,521.0,478.0,510.0
522.0,492.0,526.0,490.0,503.0
528.0,502.0,532.0,508.0,496.0
534.0,515.0,538.0,530.0,489.0
539.0,526.0,541.0,549.0,494.0
530.0,531.0,535.0,560.0,499.0
519.0,531.0,526.0,563.0,515.0
515.0,531.0,518.0,561.0,520.0
504.0,522.0,503.0,549.0,533.0
498.0,514.0,494.0,533.0,536.0
494.0,507.0,491.0,517.0,531.0
493.0,499.0,490.0,501.0,528.0
500.0,493.0,499.0,490.0,520.0
498.0,487.0,498.0,478.0,512.0
501.0,484.0,505.0,473.0,512.0
505.0,482.0,510.0,471.0,509.0
511.0,483.0,516.0,472.0,507.0
519.0,490.0,524.0,481.0,509.0
525.0,497.0,529.0,497.0,504.0
528.0,506.0,533.0,520.0,497.0
529.0,517.0,538.0,535.0,493.0
531.0,530.0,538.0,554.0,491.0
527.0,530.0,532.0,563.0,497.0
522.0,531.0,520.0,561.0,516.0
526.0,532.0,518.0,560.0,524.0
514.0,520.0,499.0,543.0,541.0
508.0,511.0,490.0,527.0,545.0
505.0,507.0,489.0,512.0,542.0
502.0,498.0,492.0,497.0,533.0
497.0,491.0,495.0,484.0,516.0
496.0,487.0,503.0,480.0,497.0
486.0,484.0,506.0,471.0,497.0
495.0,482.0,512.0,469.0,503.0
509.0,487.0,520.0,475.0,501.0
515.0,491.0,525.0,485.0,501.0
522.0,499.0,530.0,502.0,499.0
529.0,511.0,536.0,521.0,498.0
532.0,522.0,539.0,541.0,494.0
530.0,530.0,536.0,560.0,497.0
525.0,536.0,527.0,561.0,503.0
518.0,530.0,520.0,561.0,512.0
509.0,529.0,511.0,556.0,515.0
499.0,517.0,496.0,538.0,527.0
493.0,509.0,490.0,521.0,533.0
495.0,504.0,490.0,506.0,532.0
499.0,497.0,493.0,493.0,524.0
497.0,489.0,496.0,479.0,519.0
505.0,489.0,505.0,476.0,513.0
504.0,484.0,508.0,469.0,513.0
508.0,485.0,518.0,471.0,511.0
513.0,487.0,520.0,476.0,505.0
521.0,496.0,528.0,491.0,496.0
525.0,504.0,532.0,508.0,497.0
530.0,517.0,539.0,528.0,494.0
531.0,528.0,539.0,547.0,494.0
530.0,533.0,535.0,561.0,498.0
524.0,533.0,524.0,560.0,509.0
521.0,533.0,519.0,561.0,512.0
511.0,526.0,504.0,553.0,529.0
501.0,516.0,494.0,535.0,531.0
496.0,506.0,489.0,517.0,528.0
497.0,501.0,490.0,501.0,532.0
501.0,495.0,497.0,488.0,527.0
498.0,487.0,498.0,477.0,523.0
504.0,486.0,504.0,472.0,515.0
506.0,485.0,510.0,470.0,511.0
510.0,485.0,517.0,474.0,511.0
514.0,489.0,523.0,479.0,501.0
524.0,499.0,530.0,497.0,498.0
526.0,506.0,533.0,513.0,502.0
533.0,519.0,538.0,533.0,507.0
540.0,532.0,536.0,551.0,496.0
530.0,536.0,533.0,567.0,497.0
522.0,532.0,522.0,562.0,509.0
518.0,533.0,517.0,562.0,514.0
502.0,523.0,500.0,543.0,528.0
497.0,512.0,491.0,528.0,531.0
499.0,508.0,489.0,512.0,529.0
504.0,498.0,492.0,498.0,523.0
501.0,490.0,494.0,483.0,522.0
507.0,488.0,502.0,477.0,520.0
501.0,486.0,503.0,470.0,518.0
506.0,481.0,511.0,468.0,517.0
512.0,487.0,520.0,475.0,510.0
518.0,492.0,526.0,485.0,506.0
525.0,498.0,530.0,502.0,496.0
526.0,511.0,536.0,521.0,490.0
534.0,521.0,538.0,539.0,490.0
531.0,531.0,537.0,557.0,498.0
523.0,535.0,530.0,563.0,504.0
519.0,536.0,517.0,560.0,515.0
519.0,533.0,514.0,563.0,521.0
500.0,520.0,497.0,540.0,531.0
494.0,512.0,491.0,519.0,534.0
495.0,504.0,489.0,511.0,536.0
497.0,500.0,494.0,490.0,526.0
498.0,495.0,497.0,485.0,520.0
498.0,494.0,503.0,475.0,512.0
505.0,488.0,507.0,470.0,508.0
508.0,487.0,513.0,471.0,507.0
511.0,491.0,520.0,475.0,502.0
519.0,499.0,527.0,490.0,499.0
524.0,508.0,532.0,507.0,498.0
531.0,520.0,540.0,526.0,493.0
535.0,530.0,539.0,545.0,493.0
531.0,538.0,535.0,558.0,504.0
525.0,536.0,525.0,561.0,511.0
520.0,540.0,518.0,562.0,513.0
508.0,530.0,505.0,551.0,525.0
498.0,527.0,493.0,535.0,532.0
495.0,513.0,490.0,518.0,532.0
492.0,505.0,488.0,501.0,529.0
496.0,499.0,494.0,492.0,526.0
530.0,532.0,535.0,569.0,508.0
520.0,530.0,520.0,565.0,515.0
508.0,528.0,508.0,558.0,519.0
500.0,515.0,496.0,538.0,526.0
499.0,511.0,491.0,522.0,525.0
499.0,504.0,490.0,505.0,528.0
505.0,496.0,493.0,491.0,524.0
499.0,491.0,496.0,476.0,524.0
504.0,488.0,504.0,472.0,516.0
504.0,483.0,507.0,467.0,511.0
504.0,482.0,515.0,465.0,516.0
514.0,486.0,520.0,479.0,512.0
520.0,493.0,527.0,492.0,507.0
525.0,503.0,531.0,509.0,501.0
532.0,515.0,538.0,532.0,496.0
535.0,527.0,540.0,556.0,488.0
534.0,534.0,537.0,566.0,500.0
527.0,533.0,529.0,567.0,515.0
518.0,530.0,518.0,562.0,521.0
505.0,522.0,503.0,551.0,530.0
500.0,516.0,496.0,534.0,534.0
501.0,512.0,490.0,514.0,529.0
499.0,502.0,491.0,499.0,526.0
497.0,495.0,495.0,484.0,533.0
498.0,488.0,498.0,474.0,522.0
512.0,488.0,507.0,474.0,515.0
510.0,482.0,509.0,467.0,511.0
512.0,483.0,514.0,467.0,505.0
519.0,487.0,522.0,479.0,501.0
521.0,495.0,528.0,497.0,498.0
531.0,506.0,539.0,518.0,497.0
528.0,520.0,539.0,538.0,494.0
532.0,527.0,539.0,558.0,498.0
538.0,537.0,534.0,568.0,503.0
523.0,531.0,528.0,564.0,514.0
518.0,530.0,518.0,564.0,518.0
501.0,519.0,500.0,546.0,529.0
494.0,515.0,492.0,528.0,537.0
491.0,504.0,489.0,509.0,528.0
495.0,500.0,493.0,495.0,527.0
495.0,492.0,494.0,481.0,523.0
501.0,489.0,501.0,474.0,517.0
506.0,485.0,506.0,469.0,510.0
504.0,481.0,507.0,464.0,513.0
511.0,484.0,517.0,471.0,508.0
517.0,490.0,525.0,485.0,505.0
523.0,500.0,531.0,502.0,503.0
531.0,516.0,536.0,525.0,498.0
535.0,522.0,540.0,549.0,494.0
531.0,528.0,535.0,560.0,495.0
526.0,533.0,532.0,569.0,506.0
515.0,529.0,520.0,564.0,517.0
513.0,530.0,513.0,561.0,524.0
500.0,518.0,498.0,540.0,532.0
496.0,511.0,492.0,523.0,532.0
498.0,504.0,490.0,505.0,534.0
497.0,497.0,491.0,490.0,527.0
499.0,490.0,494.0,477.0,526.0
506.0,489.0,501.0,470.0,513.0
505.0,483.0,504.0,467.0,509.0
506.0,483.0,512.0,467.0,503.0
514.0,486.0,520.0,476.0,493.0
520.0,493.0,526.0,490.0,495.0
525.0,502.0,531.0,507.0,506.0
530.0,514.0,536.0,533.0,498.0
534.0,524.0,539.0,551.0,498.0
532.0,531.0,536.0,566.0,501.0
525.0,534.0,527.0,570.0,509.0
518.0,529.0,517.0,563.0,514.0
506.0,521.0,502.0,551.0,526.0
497.0,515.0,494.0,537.0,533.0
495.0,508.0,491.0,516.0,536.0
498.0,500.0,487.0,497.0,528.0
498.0,496.0,493.0,485.0,523.0
501.0,490.0,498.0,475.0,517.0
506.0,491.0,503.0,470.0,512.0
505.0,485.0,505.0,464.0,514.0
509.0,483.0,514.0,467.0,512.0
514.0,487.0,521.0,477.0,510.0
524.0,496.0,529.0,500.0,508.0
531.0,508.0,537.0,518.0,499.0
533.0,516.0,538.0,541.0,490.0
532.0,526.0,538.0,555.0,491.0
531.0,534.0,534.0,567.0,499.0
522.0,529.0,522.0,563.0,504.0
520.0,534.0,517.0,564.0,518.0
498.0,521.0,498.0,544.0,533.0
495.0,513.0,491.0,528.0,533.0
498.0,506.0,490.0,514.0,534.0
497.0,498.0,491.0,495.0,524.0
496.0,492.0,493.0,480.0,522.0
501.0,489.0,500.0,473.0,519.0
503.0,485.0,506.0,468.0,515.0
505.0,481.0,508.0,464.0,511.0
513.0,484.0,517.0,471.0,505.0
517.0,490.0,523.0,483.0,503.0
524.0,499.0,529.0,500.0,502.0
527.0,510.0,535.0,523.0,497.0
532.0,521.0,540.0,544.0,487.0
534.0,531.0,538.0,561.0,495.0
534.0,534.0,532.0,568.0,499.0
520.0,529.0,520.0,564.0,512.0
508.0,526.0,511.0,557.0,528.0
492.0,517.0,497.0,541.0,542.0
492.0,510.0,493.0,523.0,543.0
494.0,504.0,491.0,505.0,549.0
499.0,500.0,494.0,491.0,543.0
503.0,494.0,497.0,478.0,531.0
507.0,489.0,503.0,473.0,516.0
506.0,483.0,504.0,464.0,505.0
505.0,481.0,511.0,466.0,501.0
506.0,488.0,517.0,476.0,500.0
516.0,491.0,526.0,494.0,498.0
528.0,501.0,530.0,511.0,495.0
533.0,513.0,538.0,530.0,491.0
534.0,523.0,540.0,551.0,490.0
531.0,533.0,536.0,563.0,495.0
525.0,532.0,528.0,568.0,506.0
515.0,527.0,516.0,563.0,515.0
506.0,524.0,506.0,553.0,527.0
497.0,514.0,494.0,532.0,533.0
495.0,509.0,492.0,518.0,533.0
492.0,500.0,494.0,500.0,529.0
497.0,494.0,493.0,486.0,523.0
499.0,488.0,496.0,475.0,520.0
505.0,487.0,507.0,471.0,512.0
507.0,484.0,507.0,466.0,514.0
511.0,484.0,515.0,467.0,509.0
515.0,487.0,522.0,479.0,506.0
521.0,495.0,528.0,495.0,501.0
528.0,506.0,535.0,516.0,498.0
533.0,517.0,537.0,536.0,496.0
534.0,528.0,540.0,555.0,498.0
536.0,533.0,535.0,569.0,498.0
527.0,534.0,526.0,567.0,510.0
516.0,530.0,518.0,561.0,522.0
503.0,520.0,500.0,550.0,531.0
496.0,511.0,491.0,528.0,531.0
495.0,505.0,490.0,512.0,530.0
499.0,500.0,496.0,496.0,527.0
498.0,494.0,495.0,482.0,521.0
503.0,490.0,501.0,474.0,516.0
505.0,484.0,505.0,467.0,515.0
509.0,479.0,507.0,467.0,515.0
517.0,485.0,517.0,470.0,511.0
519.0,487.0,524.0,488.0,505.0
521.0,495.0,528.0,500.0,497.0
527.0,507.0,535.0,522.0,491.0
535.0,521.0,545.0,545.0,492.0
534.0,531.0,537.0,564.0,496.0
531.0,531.0,530.0,568.0,502.0
521.0,530.0,521.0,568.0,521.0
515.0,529.0,511.0,560.0,523.0
500.0,514.0,498.0,541.0,534.0
491.0,509.0,490.0,523.0,534.0
491.0,507.0,490.0,507.0,535.0
495.0,498.0,491.0,492.0,528.0
499.0,491.0,495.0,479.0,520.0
505.0,490.0,503.0,474.0,512.0
506.0,482.0,506.0,470.0,513.0
507.0,481.0,510.0,465.0,508.0
518.0,483.0,515.0,472.0,502.0
521.0,492.0,526.0,488.0,502.0
532.0,502.0,534.0,511.0,499.0
542.0,515.0,537.0,530.0,494.0
539.0,524.0,540.0,548.0,497.0
532.0,531.0,536.0,562.0,498.0
523.0,533.0,530.0,572.0,506.0
515.0,530.0,519.0,566.0,515.0
505.0,523.0,506.0,553.0,527.0
497.0,515.0,495.0,536.0,534.0
495.0,509.0,490.0,518.0,534.0
500.0,502.0,493.0,500.0,532.0
496.0,494.0,491.0,486.0,526.0
497.0,491.0,496.0,476.0,517.0
502.0,487.0,505.0,471.0,511.0
501.0,485.0,505.0,465.0,513.0
508.0,484.0,513.0,467.0,513.0
514.0,488.0,521.0,479.0,510.0
520.0,493.0,526.0,493.0,502.0
526.0,504.0,532.0,513.0,499.0
532.0,517.0,536.0,536.0,495.0
538.0,528.0,540.0,555.0,495.0
533.0,535.0,535.0,568.0,502.0
523.0,531.0,525.0,566.0,509.0
513.0,529.0,517.0,564.0,512.0
500.0,521.0,501.0,548.0,523.0
493.0,512.0,492.0,529.0,533.0
494.0,506.0,490.0,513.0,531.0
496.0,500.0,491.0,496.0,524.0
499.0,493.0,496.0,485.0,519.0
502.0,490.0,500.0,474.0,515.0
510.0,490.0,505.0,470.0,513.0
507.0,481.0,507.0,464.0,516.0
511.0,483.0,515.0,468.0,512.0
515.0,488.0,521.0,482.0,503.0
521.0,496.0,529.0,499.0,494.0
529.0,509.0,536.0,521.0,497.0
533.0,520.0,540.0,542.0,501.0
536.0,532.0,539.0,560.0,504.0
529.0,531.0,530.0,566.0,506.0
521.0,530.0,522.0,564.0,518.0
514.0,531.0,515.0,561.0,525.0
501.0,518.0,498.0,542.0,542.0
496.0,511.0,492.0,524.0,543.0
499.0,503.0,488.0,505.0,536.0
494.0,499.0,493.0,491.0,527.0
499.0,493.0,497.0,480.0,517.0
503.0,488.0,503.0,473.0,501.0
506.0,482.0,506.0,464.0,501.0
508.0,481.0,508.0,463.0,506.0
515.0,486.0,519.0,473.0,503.0
522.0,496.0,525.0,488.0,502.0
525.0,500.0,532.0,508.0,501.0
533.0,513.0,541.0,526.0,499.0
535.0,525.0,540.0,548.0,495.0
538.0,533.0,538.0,563.0,494.0
527.0,533.0,529.0,569.0,502.0
518.0,531.0,519.0,563.0,517.0
508.0,526.0,507.0,554.0,528.0
497.0,517.0,496.0,537.0,538.0
493.0,510.0,492.0,518.0,541.0
501.0,504.0,491.0,502.0,538.0
500.0,496.0,493.0,486.0,530.0
505.0,489.0,497.0,474.0,514.0
512.0,489.0,503.0,471.0,505.0
513.0,483.0,506.0,465.0,504.0
509.0,480.0,511.0,467.0,500.0
509.0,485.0,520.0,481.0,495.0
515.0,493.0,528.0,494.0,501.0
523.0,504.0,534.0,513.0,499.0
538.0,517.0,539.0,539.0,495.0
533.0,525.0,539.0,553.0,495.0
534.0,533.0,540.0,567.0,499.0
523.0,529.0,525.0,566.0,508.0
515.0,529.0,516.0,564.0,517.0
502.0,519.0,502.0,549.0,528.0
497.0,513.0,494.0,533.0,533.0
494.0,505.0,490.0,514.0,533.0
497.0,500.0,488.0,498.0,533.0
500.0,493.0,494.0,484.0,530.0
504.0,493.0,500.0,476.0,520.0
511.0,488.0,506.0,471.0,513.0
507.0,480.0,507.0,464.0,513.0
510.0,482.0,513.0,467.0,509.0
517.0,489.0,522.0,479.0,509.0
524.0,497.0,529.0,499.0,505.0
530.0,513.0,536.0,521.0,501.0
539.0,521.0,540.0,544.0,496.0
535.0,527.0,537.0,560.0,499.0
528.0,532.0,532.0,569.0,506.0
518.0,529.0,522.0,566.0,516.0
509.0,530.0,517.0,563.0,517.0
497.0,518.0,499.0,544.0,524.0
496.0,509.0,489.0,521.0,530.0
495.0,505.0,491.0,507.0,533.0
495.0,498.0,491.0,492.0,532.0
496.0,491.0,495.0,482.0,528.0
502.0,488.0,502.0,474.0,521.0
508.0,486.0,506.0,469.0,515.0
507.0,480.0,508.0,465.0,510.0
509.0,482.0,516.0,469.0,500.0
518.0,491.0,525.0,488.0,498.0
524.0,498.0,529.0,504.0,501.0
529.0,510.0,537.0,525.0,503.0
537.0,524.0,544.0,548.0,499.0
535.0,531.0,541.0,560.0,500.0
530.0,533.0,529.0,567.0,514.0
518.0,529.0,519.0,563.0,515.0
511.0,526.0,508.0,555.0,523.0
497.0,516.0,495.0,535.0,534.0
498.0,510.0,491.0,521.0,533.0
490.0,500.0,489.0,501.0,527.0
495.0,497.0,492.0,488.0,524.0
499.0,491.0,498.0,476.0,525.0
504.0,487.0,503.0,469.0,514.0
503.0,482.0,506.0,465.0,512.0
506.0,483.0,512.0,466.0,512.0
518.0,486.0,520.0,476.0,508.0
523.0,493.0,527.0,491.0,504.0
526.0,504.0,533.0,512.0,498.0
534.0,514.0,538.0,533.0,490.0
538.0,526.0,540.0,554.0,490.0
536.0,533.0,537.0,571.0,495.0
522.0,529.0,523.0,564.0,509.0
514.0,531.0,517.0,560.0,519.0
506.0,523.0,501.0,550.0,528.0
499.0,514.0,493.0,532.0,530.0
496.0,508.0,490.0,514.0,526.0
497.0,501.0,495.0,499.0,527.0
503.0,494.0,494.0,483.0,526.0
509.0,491.0,500.0,476.0,519.0
510.0,488.0,505.0,467.0,520.0
505.0,480.0,509.0,461.0,528.0
509.0,483.0,515.0,468.0,516.0
510.0,488.0,523.0,481.0,506.0
518.0,497.0,530.0,500.0,499.0
524.0,506.0,535.0,520.0,494.0
530.0,519.0,539.0,542.0,495.0
531.0,528.0,539.0,555.0,498.0
530.0,534.0,535.0,569.0,505.0
521.0,530.0,522.0,563.0,515.0
513.0,529.0,515.0,562.0,519.0
498.0,518.0,499.0,543.0,532.0
493.0,511.0,490.0,524.0,536.0
494.0,506.0,490.0,508.0,533.0
499.0,499.0,492.0,492.0,525.0
499.0,491.0,493.0,482.0,525.0
504.0,489.0,503.0,474.0,516.0
507.0,485.0,508.0,468.0,513.0
506.0,482.0,509.0,463.0,512.0
512.0,484.0,518.0,472.0,508.0
517.0,491.0,525.0,485.0,498.0
526.0,499.0,530.0,503.0,497.0
534.0,512.0,537.0,527.0,494.0
536.0,522.0,540.0,544.0,494.0
537.0,531.0,539.0,563.0,499.0
529.0,531.0,530.0,568.0,503.0
519.0,529.0,520.0,564.0,517.0
513.0,527.0,509.0,556.0,526.0
502.0,518.0,496.0,538.0,531.0
497.0,510.0,492.0,521.0,532.0
497.0,500.0,489.0,500.0,526.0
496.0,496.0,492.0,488.0,520.0
499.0,491.0,497.0,477.0,517.0
504.0,486.0,503.0,470.0,506.0
507.0,482.0,506.0,465.0,508.0
511.0,485.0,513.0,464.0,512.0
515.0,487.0,520.0,474.0,514.0
525.0,493.0,530.0,490.0,505.0
529.0,502.0,530.0,507.0,497.0
531.0,514.0,536.0,531.0,495.0
532.0,527.0,540.0,556.0,495.0
529.0,532.0,536.0,565.0,504.0
523.0,532.0,526.0,565.0,519.0
512.0,530.0,516.0,560.0,524.0
508.0,524.0,502.0,550.0,538.0
497.0,514.0,493.0,531.0,544.0
497.0,507.0,490.0,514.0,536.0
497.0,500.0,489.0,500.0,519.0
503.0,494.0,492.0,484.0,517.0
503.0,490.0,500.0,475.0,518.0
508.0,486.0,505.0,472.0,520.0
505.0,481.0,506.0,463.0,520.0
516.0,483.0,518.0,468.0,509.0
516.0,485.0,521.0,479.0,508.0
518.0,495.0,529.0,497.0,498.0
524.0,508.0,536.0,520.0,490.0
528.0,517.0,540.0,539.0,489.0
533.0,528.0,539.0,560.0,498.0
528.0,531.0,534.0,567.0,506.0
524.0,531.0,525.0,563.0,515.0
513.0,530.0,516.0,563.0,519.0
498.0,518.0,499.0,544.0,535.0
491.0,509.0,490.0,524.0,538.0
491.0,504.0,493.0,514.0,534.0
495.0,499.0,492.0,494.0,528.0
498.0,492.0,493.0,481.0,522.0
506.0,490.0,503.0,475.0,519.0
509.0,483.0,506.0,470.0,510.0
505.0,478.0,506.0,462.0,514.0
515.0,482.0,515.0,469.0,506.0
520.0,491.0,525.0,485.0,504.0
523.0,499.0,530.0,503.0,504.0
531.0,509.0,540.0,528.0,494.0
536.0,522.0,540.0,547.0,493.0
532.0,530.0,539.0,561.0,499.0
528.0,532.0,531.0,567.0,507.0
517.0,528.0,519.0,562.0,518.0
510.0,525.0,511.0,558.0,526.0
499.0,516.0,496.0,538.0,533.0
495.0,509.0,492.0,522.0,535.0
498.0,505.0,490.0,505.0,532.0
500.0,494.0,492.0,488.0,522.0
497.0,485.0,496.0,475.0,523.0
505.0,488.0,504.0,474.0,517.0
504.0,482.0,507.0,467.0,517.0
507.0,481.0,511.0,466.0,510.0
514.0,486.0,521.0,477.0,507.0
521.0,494.0,529.0,493.0,505.0
524.0,501.0,533.0,511.0,499.0
532.0,513.0,537.0,534.0,496.0
534.0,527.0,540.0,553.0,496.0
531.0,530.0,535.0,562.0,499.0
524.0,535.0,524.0,564.0,511.0
518.0,529.0,517.0,561.0,515.0
505.0,522.0,500.0,549.0,530.0
498.0,514.0,491.0,533.0,535.0
495.0,507.0,489.0,514.0,537.0
492.0,501.0,491.0,499.0,529.0
495.0,492.0,493.0,485.0,519.0
501.0,489.0,501.0,476.0,512.0
505.0,487.0,510.0,470.0,512.0
503.0,482.0,507.0,465.0,513.0
512.0,484.0,514.0,467.0,509.0
514.0,488.0,521.0,479.0,506.0
523.0,495.0,529.0,495.0,495.0
531.0,507.0,535.0,518.0,492.0
535.0,519.0,539.0,539.0,499.0
538.0,528.0,539.0,556.0,504.0
537.0,536.0,536.0,569.0,506.0
523.0,529.0,521.0,564.0,515.0
523.0,535.0,517.0,564.0,522.0
505.0,522.0,500.0,546.0,534.0
496.0,513.0,491.0,526.0,534.0
490.0,505.0,489.0,509.0,533.0
492.0,500.0,492.0,492.0,528.0
494.0,493.0,494.0,480.0,529.0
499.0,489.0,501.0,474.0,518.0
503.0,486.0,507.0,470.0,506.0
503.0,479.0,507.0,464.0,504.0
512.0,482.0,516.0,470.0,503.0
518.0,490.0,523.0,484.0,502.0
523.0,499.0,529.0,505.0,509.0
532.0,511.0,535.0,525.0,499.0
535.0,522.0,540.0,546.0,496.0
536.0,531.0,539.0,564.0,492.0
530.0,534.0,533.0,571.0,499.0
517.0,529.0,520.0,564.0,516.0
509.0,527.0,511.0,558.0,520.0
496.0,516.0,496.0,541.0,526.0
493.0,510.0,491.0,522.0,530.0
496.0,504.0,490.0,505.0,534.0
498.0,497.0,492.0,488.0,524.0
500.0,490.0,496.0,478.0,520.0
510.0,489.0,507.0,477.0,510.0
506.0,485.0,506.0,471.0,509.0
508.0,482.0,511.0,470.0,511.0
513.0,484.0,517.0,472.0,507.0
521.0,494.0,527.0,491.0,498.0
526.0,503.0,533.0,510.0,498.0
534.0,517.0,539.0,532.0,497.0
536.0,526.0,541.0,553.0,498.0
533.0,533.0,537.0,566.0,498.0
526.0,536.0,527.0,570.0,507.0
518.0,529.0,518.0,564.0,517.0
505.0,523.0,504.0,550.0,532.0
498.0,515.0,493.0,534.0,534.0
496.0,509.0,491.0,517.0,536.0
496.0,501.0,491.0,500.0,535.0
502.0,495.0,496.0,484.0,527.0
502.0,490.0,497.0,475.0,523.0
507.0,488.0,505.0,469.0,519.0
504.0,482.0,507.0,465.0,518.0
507.0,483.0,514.0,469.0,510.0
515.0,488.0,523.0,481.0,507.0
523.0,497.0,533.0,496.0,500.0
528.0,506.0,534.0,517.0,491.0
535.0,520.0,541.0,540.0,491.0
533.0,527.0,538.0,557.0,497.0
530.0,533.0,536.0,568.0,499.0
525.0,531.0,524.0,566.0,511.0
516.0,531.0,518.0,564.0,516.0
502.0,521.0,500.0,545.0,529.0
491.0,511.0,489.0,525.0,537.0
495.0,506.0,489.0,510.0,535.0
502.0,503.0,492.0,495.0,533.0
501.0,497.0,493.0,480.0,528.0
507.0,489.0,500.0,474.0,516.0
510.0,486.0,505.0,468.0,512.0
504.0,479.0,507.0,462.0,516.0
507.0,483.0,516.0,471.0,507.0
514.0,491.0,524.0,485.0,501.0
519.0,494.0,528.0,501.0,507.0
530.0,510.0,536.0,522.0,500.0
538.0,524.0,541.0,544.0,498.0
536.0,529.0,542.0,561.0,500.0
531.0,531.0,529.0,567.0,500.0
524.0,531.0,521.0,565.0,515.0
516.0,528.0,513.0,559.0,520.0
500.0,517.0,498.0,541.0,527.0
490.0,512.0,492.0,525.0,530.0
486.0,502.0,494.0,506.0,529.0
495.0,497.0,491.0,489.0,524.0
497.0,490.0,494.0,475.0,523.0
502.0,488.0,502.0,471.0,519.0
505.0,484.0,507.0,466.0,516.0
506.0,486.0,511.0,466.0,514.0
512.0,486.0,520.0,475.0,507.0
518.0,494.0,526.0,491.0,506.0
525.0,502.0,530.0,506.0,497.0
531.0,513.0,537.0,529.0,491.0
542.0,526.0,542.0,551.0,490.0
536.0,530.0,537.0,566.0,499.0
529.0,533.0,528.0,568.0,501.0
519.0,529.0,517.0,561.0,510.0
509.0,522.0,502.0,550.0,521.0
497.0,514.0,492.0,532.0,534.0
493.0,510.0,492.0,518.0,532.0
491.0,502.0,491.0,503.0,536.0
494.0,496.0,495.0,486.0,530.0
495.0,495.0,499.0,477.0,520.0
505.0,489.0,506.0,471.0,513.0
505.0,483.0,503.0,464.0,514.0
510.0,484.0,514.0,467.0,511.0
517.0,489.0,522.0,479.0,508.0
521.0,495.0,528.0,496.0,502.0
528.0,507.0,535.0,516.0,490.0
536.0,517.0,543.0,539.0,479.0
535.0,526.0,539.0,558.0,488.0
530.0,533.0,534.0,566.0,502.0
519.0,530.0,523.0,567.0,514.0
517.0,531.0,517.0,563.0,519.0
503.0,520.0,501.0,547.0,536.0
498.0,512.0,492.0,527.0,545.0
498.0,507.0,490.0,511.0,538.0
503.0,500.0,495.0,496.0,531.0
500.0,493.0,495.0,481.0,529.0
508.0,492.0,503.0,476.0,522.0
512.0,487.0,507.0,474.0,511.0
506.0,481.0,507.0,464.0,508.0
509.0,485.0,515.0,469.0,503.0
516.0,489.0,524.0,483.0,502.0
527.0,499.0,530.0,500.0,498.0
533.0,509.0,539.0,522.0,496.0
538.0,522.0,539.0,543.0,495.0
534.0,528.0,537.0,560.0,501.0
530.0,533.0,532.0,567.0,504.0
519.0,529.0,521.0,564.0,514.0
515.0,530.0,515.0,562.0,521.0
505.0,518.0,502.0,542.0,533.0
493.0,509.0,491.0,523.0,537.0
495.0,504.0,491.0,506.0,537.0
497.0,498.0,493.0,492.0,531.0
498.0,490.0,495.0,477.0,521.0
507.0,489.0,503.0,473.0,511.0
517.0,485.0,508.0,466.0,505.0
513.0,481.0,510.0,465.0,508.0
516.0,483.0,518.0,473.0,506.0
523.0,492.0,526.0,487.0,503.0
528.0,501.0,529.0,506.0,500.0
535.0,512.0,537.0,529.0,496.0
538.0,524.0,540.0,550.0,498.0
533.0,530.0,536.0,564.0,505.0
529.0,532.0,528.0,568.0,508.0
516.0,529.0,519.0,561.0,518.0
509.0,521.0,506.0,555.0,530.0
500.0,517.0,497.0,536.0,533.0
497.0,508.0,492.0,523.0,537.0
498.0,501.0,491.0,500.0,530.0
498.0,496.0,494.0,487.0,523.0
503.0,490.0,497.0,474.0,522.0
508.0,487.0,505.0,472.0,519.0
511.0,484.0,508.0,467.0,518.0
513.0,484.0,514.0,469.0,510.0
517.0,487.0,519.0,477.0,508.0
525.0,495.0,528.0,494.0,505.0
535.0,507.0,534.0,515.0,501.0
536.0,518.0,539.0,536.0,495.0
536.0,527.0,540.0,555.0,491.0
534.0,534.0,535.0,568.0,500.0
520.0,530.0,523.0,563.0,513.0
507.0,529.0,517.0,565.0,519.0
496.0,525.0,502.0,550.0,528.0
493.0,514.0,492.0,532.0,534.0
491.0,504.0,488.0,511.0,532.0
493.0,500.0,491.0,495.0,529.0
497.0,493.0,493.0,483.0,524.0
502.0,495.0,500.0,475.0,518.0
506.0,487.0,506.0,470.0,514.0
506.0,482.0,508.0,466.0,514.0
515.0,484.0,517.0,472.0,507.0
524.0,491.0,523.0,488.0,503.0
526.0,498.0,524.0,500.0,501.0
533.0,510.0,535.0,521.0,498.0
540.0,522.0,539.0,543.0,493.0
535.0,529.0,539.0,561.0,499.0
528.0,535.0,532.0,574.0,507.0
521.0,530.0,519.0,563.0,518.0
517.0,529.0,511.0,562.0,520.0
502.0,518.0,497.0,542.0,530.0
499.0,510.0,492.0,524.0,534.0
494.0,504.0,490.0,508.0,533.0
496.0,499.0,494.0,495.0,528.0
499.0,489.0,495.0,484.0,524.0
508.0,489.0,502.0,477.0,523.0
506.0,483.0,505.0,466.0,514.0
505.0,481.0,509.0,464.0,510.0
510.0,485.0,517.0,474.0,503.0
520.0,491.0,527.0,492.0,499.0
521.0,504.0,529.0,507.0,494.0
531.0,512.0,537.0,530.0,493.0
539.0,525.0,543.0,550.0,494.0
534.0,534.0,539.0,566.0,500.0
528.0,533.0,529.0,569.0,509.0
517.0,530.0,518.0,567.0,519.0
506.0,524.0,506.0,555.0,533.0
500.0,518.0,496.0,538.0,540.0
498.0,510.0,492.0,521.0,535.0
495.0,502.0,488.0,501.0,526.0
499.0,498.0,493.0,488.0,523.0
503.0,493.0,498.0,478.0,518.0
505.0,492.0,505.0,472.0,509.0
503.0,481.0,505.0,464.0,513.0
507.0,481.0,510.0,465.0,507.0
517.0,486.0,518.0,476.0,501.0
523.0,494.0,527.0,495.0,498.0
530.0,507.0,536.0,515.0,501.0
535.0,517.0,538.0,536.0,498.0
536.0,527.0,540.0,556.0,496.0
530.0,533.0,534.0,566.0,503.0
523.0,532.0,525.0,570.0,512.0
514.0,529.0,515.0,562.0,517.0
506.0,525.0,502.0,550.0,532.0
497.0,514.0,494.0,530.0,537.0
495.0,508.0,491.0,515.0,533.0
494.0,504.0,491.0,497.0,529.0
498.0,493.0,492.0,483.0,524.0
503.0,489.0,500.0,475.0,516.0
508.0,486.0,508.0,467.0,511.0
512.0,480.0,505.0,462.0,512.0
512.0,484.0,511.0,469.0,509.0
517.0,489.0,525.0,482.0,508.0
520.0,496.0,528.0,502.0,509.0
527.0,507.0,535.0,522.0,505.0
532.0,520.0,541.0,544.0,499.0
534.0,528.0,538.0,561.0,493.0
534.0,531.0,533.0,569.0,496.0
518.0,527.0,520.0,563.0,511.0
508.0,529.0,513.0,563.0,517.0
498.0,517.0,500.0,544.0,527.0
497.0,511.0,491.0,526.0,529.0
498.0,506.0,491.0,509.0,531.0
499.0,500.0,493.0,493.0,523.0
499.0,492.0,495.0,480.0,520.0
500.0,491.0,500.0,473.0,512.0
502.0,488.0,507.0,467.0,513.0
504.0,481.0,509.0,464.0,515.0
514.0,484.0,518.0,477.0,505.0
520.0,491.0,523.0,489.0,498.0
524.0,499.0,530.0,506.0,498.0
532.0,509.0,535.0,524.0,494.0
534.0,521.0,539.0,549.0,492.0
533.0,533.0,535.0,567.0,499.0
527.0,531.0,528.0,566.0,504.0
516.0,531.0,521.0,564.0,520.0
507.0,529.0,511.0,558.0,528.0
499.0,518.0,497.0,538.0,535.0
494.0,508.0,491.0,518.0,539.0
496.0,500.0,488.0,501.0,527.0
499.0,493.0,491.0,488.0,523.0
504.0,485.0,495.0,478.0,518.0
510.0,485.0,501.0,471.0,506.0
505.0,485.0,508.0,466.0,513.0
507.0,485.0,515.0,467.0,514.0
513.0,487.0,525.0,481.0,512.0
520.0,493.0,527.0,492.0,502.0
525.0,503.0,533.0,512.0,499.0
532.0,514.0,538.0,534.0,496.0
535.0,525.0,539.0,555.0,500.0
530.0,530.0,535.0,566.0,502.0
524.0,531.0,526.0,567.0,509.0
517.0,528.0,516.0,564.0,513.0
505.0,519.0,500.0,548.0,528.0
494.0,514.0,491.0,530.0,533.0
494.0,507.0,489.0,513.0,537.0
497.0,500.0,488.0,497.0,535.0
505.0,493.0,492.0,485.0,525.0
497.0,490.0,495.0,476.0,517.0
502.0,487.0,502.0,471.0,513.0
504.0,480.0,503.0,466.0,511.0
514.0,484.0,516.0,475.0,508.0
515.0,490.0,522.0,483.0,504.0
523.0,495.0,531.0,502.0,498.0
528.0,505.0,535.0,520.0,495.0
533.0,517.0,542.0,547.0,490.0
533.0,526.0,540.0,558.0,496.0
530.0,531.0,536.0,566.0,502.0
520.0,529.0,524.0,564.0,514.0
520.0,534.0,513.0,562.0,522.0
504.0,520.0,492.0,541.0,535.0
497.0,511.0,484.0,522.0,538.0
495.0,506.0,489.0,508.0,535.0
497.0,500.0,494.0,499.0,531.0
499.0,491.0,499.0,481.0,524.0
505.0,487.0,509.0,473.0,516.0
505.0,483.0,514.0,471.0,511.0
506.0,478.0,504.0,468.0,512.0
514.0,483.0,503.0,469.0,505.0
517.0,490.0,523.0,482.0,504.0
528.0,499.0,536.0,502.0,503.0
530.0,509.0,542.0,528.0,496.0
540.0,525.0,549.0,554.0,496.0
536.0,534.0,547.0,573.0,499.0
531.0,535.0,537.0,582.0,506.0
520.0,529.0,518.0,571.0,515.0
506.0,526.0,500.0,555.0,523.0
495.0,517.0,490.0,533.0,532.0
491.0,509.0,484.0,515.0,534.0
495.0,503.0,485.0,503.0,530.0
498.0,497.0,488.0,489.0,522.0
503.0,491.0,498.0,479.0,516.0
504.0,487.0,506.0,470.0,517.0
505.0,484.0,511.0,465.0,520.0
508.0,483.0,513.0,464.0,513.0
514.0,487.0,527.0,475.0,508.0
520.0,492.0,534.0,492.0,503.0
528.0,501.0,531.0,513.0,497.0
534.0,510.0,521.0,535.0,492.0
538.0,520.0,533.0,559.0,490.0
538.0,522.0,533.0,578.0,490.0
529.0,524.0,524.0,574.0,504.0
517.0,517.0,507.0,565.0,517.0
505.0,507.0,491.0,555.0,530.0
501.0,502.0,486.0,541.0,534.0
496.0,502.0,484.0,519.0,529.0
491.0,497.0,482.0,498.0,529.0
498.0,497.0,489.0,486.0,523.0
503.0,489.0,500.0,464.0,520.0
506.0,482.0,507.0,448.0,517.0
512.0,485.0,538.0,453.0,513.0
513.0,488.0,550.0,457.0,507.0
517.0,481.0,571.0,476.0,500.0
527.0,490.0,570.0,499.0,498.0
528.0,499.0,566.0,519.0,498.0
533.0,503.0,547.0,546.0,497.0
535.0,518.0,548.0,574.0,498.0
529.0,527.0,523.0,581.0,503.0
517.0,523.0,492.0,572.0,510.0
516.0,519.0,496.0,560.0,510.0
510.0,493.0,462.0,528.0,520.0
501.0,473.0,457.0,513.0,514.0
496.0,478.0,466.0,506.0,511.0
500.0,474.0,484.0,502.0,517.0
504.0,467.0,498.0,494.0,510.0
500.0,496.0,529.0,497.0,521.0
505.0,527.0,540.0,492.0,523.0
503.0,519.0,521.0,466.0,518.0
510.0,519.0,525.0,461.0,505.0
518.0,515.0,541.0,481.0,500.0
521.0,512.0,538.0,506.0,498.0
533.0,529.0,553.0,531.0,490.0
538.0,541.0,548.0,550.0,488.0
543.0,539.0,538.0,561.0,491.0
530.0,538.0,530.0,563.0,507.0
521.0,537.0,510.0,568.0,517.0
519.0,538.0,515.0,567.0,526.0
502.0,524.0,509.0,553.0,540.0
497.0,519.0,504.0,533.0,540.0
492.0,508.0,474.0,512.0,538.0
493.0,499.0,467.0,491.0,533.0
498.0,496.0,483.0,466.0,526.0
503.0,491.0,499.0,461.0,519.0
505.0,486.0,507.0,460.0,518.0
507.0,488.0,510.0,463.0,513.0
518.0,494.0,521.0,475.0,504.0
525.0,502.0,533.0,496.0,499.0
527.0,508.0,537.0,513.0,496.0
534.0,518.0,544.0,534.0,492.0
538.0,527.0,548.0,554.0,496.0
538.0,533.0,538.0,565.0,495.0
527.0,537.0,531.0,569.0,505.0
520.0,533.0,520.0,566.0,520.0
508.0,527.0,506.0,551.0,533.0
501.0,521.0,499.0,531.0,526.0
500.0,513.0,492.0,516.0,532.0
500.0,503.0,493.0,499.0,522.0
497.0,495.0,494.0,487.0,524.0
504.0,489.0,497.0,474.0,512.0
508.0,490.0,505.0,472.0,503.0
502.0,489.0,507.0,466.0,510.0
509.0,487.0,514.0,470.0,509.0
516.0,488.0,519.0,478.0,508.0
530.0,498.0,528.0,499.0,496.0
534.0,513.0,540.0,525.0,488.0
535.0,519.0,540.0,542.0,489.0
539.0,525.0,537.0,559.0,489.0
535.0,527.0,530.0,567.0,503.0
519.0,521.0,522.0,563.0,514.0
513.0,517.0,514.0,562.0,522.0
509.0,505.0,497.0,549.0,525.0
495.0,501.0,496.0,534.0,528.0
496.0,491.0,489.0,512.0,523.0
496.0,489.0,490.0,498.0,519.0
496.0,469.0,485.0,478.0,519.0
507.0,469.0,492.0,473.0,507.0
505.0,478.0,499.0,471.0,508.0
509.0,476.0,506.0,466.0,514.0
517.0,483.0,513.0,471.0,506.0
520.0,489.0,522.0,480.0,509.0
516.0,488.0,538.0,501.0,501.0
522.0,496.0,533.0,520.0,500.0
530.0,514.0,544.0,544.0,494.0
527.0,523.0,535.0,551.0,501.0
520.0,540.0,507.0,552.0,515.0
522.0,544.0,508.0,560.0,513.0
516.0,530.0,511.0,558.0,517.0
501.0,496.0,494.0,547.0,530.0
487.0,476.0,492.0,521.0,541.0
486.0,479.0,492.0,504.0,538.0
492.0,480.0,495.0,502.0,527.0
505.0,479.0,491.0,489.0,512.0
526.0,472.0,494.0,485.0,498.0
524.0,476.0,504.0,469.0,499.0
523.0,471.0,527.0,466.0,492.0
510.0,462.0,530.0,477.0,488.0
518.0,484.0,553.0,495.0,491.0
537.0,483.0,544.0,515.0,500.0
532.0,484.0,497.0,527.0,502.0
535.0,513.0,465.0,536.0,491.0
533.0,497.0,490.0,554.0,496.0
511.0,481.0,481.0,564.0,508.0
504.0,469.0,498.0,556.0,521.0
484.0,482.0,508.0,531.0,541.0
500.0,506.0,520.0,525.0,538.0
508.0,523.0,536.0,511.0,540.0
496.0,519.0,505.0,513.0,534.0
501.0,531.0,488.0,492.0,526.0
519.0,559.0,501.0,482.0,506.0
506.0,548.0,484.0,485.0,511.0
509.0,533.0,497.0,480.0,505.0
511.0,503.0,520.0,469.0,509.0
517.0,532.0,558.0,474.0,503.0
516.0,543.0,578.0,508.0,502.0
530.0,550.0,577.0,525.0,491.0
539.0,556.0,557.0,556.0,483.0
544.0,560.0,519.0,579.0,493.0
548.0,533.0,528.0,577.0,490.0
523.0,501.0,510.0,557.0,502.0
521.0,474.0,487.0,550.0,505.0
510.0,430.0,441.0,512.0,526.0
486.0,395.0,384.0,492.0,531.0
488.0,406.0,409.0,489.0,529.0
495.0,448.0,492.0,487.0,523.0
501.0,477.0,533.0,491.0,515.0
509.0,550.0,539.0,465.0,501.0
510.0,544.0,540.0,442.0,500.0
495.0,471.0,516.0,420.0,524.0
495.0,424.0,418.0,406.0,525.0
534.0,495.0,537.0,454.0,493.0
550.0,587.0,630.0,495.0,477.0
544.0,550.0,675.0,522.0,493.0
536.0,526.0,636.0,550.0,508.0
528.0,534.0,559.0,586.0,503.0
516.0,529.0,542.0,595.0,517.0
503.0,496.0,506.0,619.0,514.0
510.0,510.0,481.0,638.0,494.0
512.0,551.0,477.0,600.0,508.0
500.0,547.0,491.0,555.0,516.0
499.0,507.0,506.0,526.0,525.0
504.0,533.0,571.0,515.0,508.0
500.0,526.0,618.0,476.0,510.0
500.0,524.0,568.0,429.0,505.0
520.0,526.0,541.0,417.0,493.0
530.0,534.0,537.0,436.0,486.0
540.0,523.0,496.0,473.0,475.0
536.0,541.0,467.0,487.0,485.0
535.0,543.0,485.0,529.0,476.0
541.0,540.0,525.0,585.0,466.0
532.0,506.0,531.0,587.0,490.0
518.0,495.0,533.0,585.0,516.0
513.0,532.0,545.0,562.0,526.0
508.0,523.0,526.0,572.0,530.0
508.0,474.0,520.0,575.0,537.0
487.0,481.0,548.0,566.0,537.0
494.0,478.0,553.0,573.0,512.0
500.0,460.0,531.0,524.0,514.0
508.0,481.0,561.0,503.0,512.0
501.0,529.0,541.0,484.0,499.0
499.0,497.0,514.0,439.0,514.0
496.0,478.0,524.0,427.0,523.0
509.0,455.0,497.0,444.0,508.0
508.0,411.0,471.0,468.0,513.0
511.0,358.0,440.0,460.0,514.0
514.0,399.0,449.0,492.0,512.0
512.0,500.0,498.0,527.0,510.0
524.0,548.0,581.0,546.0,511.0
522.0,552.0,617.0,545.0,505.0
533.0,609.0,587.0,568.0,495.0
524.0,598.0,558.0,578.0,494.0
517.0,559.0,548.0,554.0,508.0
503.0,546.0,582.0,535.0,510.0
506.0,553.0,553.0,519.0,510.0
486.0,495.0,478.0,511.0,533.0
493.0,516.0,512.0,516.0,519.0
505.0,531.0,654.0,518.0,523.0
506.0,526.0,647.0,491.0,530.0
500.0,513.0,516.0,432.0,528.0
507.0,483.0,525.0,452.0,512.0
515.0,489.0,567.0,484.0,514.0
526.0,482.0,510.0,527.0,488.0
529.0,480.0,496.0,550.0,472.0
548.0,513.0,498.0,571.0,479.0
551.0,549.0,505.0,567.0,497.0
542.0,511.0,512.0,575.0,492.0
508.0,479.0,487.0,565.0,513.0
495.0,516.0,503.0,569.0,527.0
496.0,486.0,534.0,523.0,525.0
494.0,468.0,585.0,534.0,522.0
504.0,434.0,568.0,509.0,501.0
481.0,418.0,543.0,398.0,524.0
487.0,469.0,569.0,405.0,508.0
486.0,486.0,581.0,442.0,509.0
514.0,529.0,493.0,446.0,524.0
509.0,492.0,466.0,501.0,534.0
497.0,474.0,512.0,497.0,535.0
519.0,474.0,527.0,522.0,517.0
541.0,510.0,571.0,530.0,500.0
515.0,522.0,544.0,516.0,517.0
537.0,564.0,464.0,446.0,493.0
544.0,587.0,474.0,508.0,484.0
532.0,517.0,444.0,599.0,497.0
539.0,540.0,511.0,654.0,483.0
512.0,500.0,506.0,636.0,514.0
496.0,509.0,499.0,568.0,529.0
501.0,469.0,453.0,519.0,525.0
498.0,439.0,432.0,502.0,518.0
477.0,427.0,445.0,451.0,538.0
492.0,426.0,488.0,426.0,529.0
519.0,549.0,513.0,461.0,498.0
523.0,546.0,457.0,489.0,491.0
500.0,515.0,524.0,498.0,503.0
516.0,534.0,558.0,515.0,501.0
516.0,506.0,648.0,474.0,510.0
525.0,467.0,610.0,453.0,502.0
515.0,481.0,755.0,554.0,493.0
503.0,520.0,809.0,571.0,522.0
508.0,509.0,641.0,574.0,511.0
534.0,507.0,394.0,526.0,497.0
514.0,469.0,400.0,582.0,519.0
498.0,496.0,408.0,563.0,531.0
502.0,551.0,485.0,538.0,525.0
501.0,584.0,574.0,525.0,525.0
502.0,580.0,533.0,466.0,527.0
487.0,565.0,397.0,420.0,552.0
508.0,564.0,444.0,451.0,518.0
523.0,551.0,447.0,509.0,501.0
533.0,511.0,534.0,532.0,473.0
534.0,456.0,568.0,539.0,465.0
519.0,405.0,578.0,498.0,483.0
502.0,522.0,629.0,452.0,507.0
535.0,558.0,650.0,459.0,489.0
534.0,553.0,611.0,521.0,482.0
535.0,541.0,517.0,572.0,487.0
531.0,461.0,443.0,576.0,485.0
531.0,482.0,513.0,611.0,482.0
518.0,492.0,540.0,587.0,506.0
497.0,514.0,497.0,566.0,534.0
500.0,541.0,553.0,551.0,520.0
508.0,511.0,489.0,510.0,499.0
475.0,526.0,513.0,459.0,530.0
508.0,564.0,541.0,476.0,519.0
502.0,539.0,661.0,504.0,507.0
506.0,490.0,724.0,484.0,503.0
495.0,447.0,631.0,438.0,530.0
489.0,429.0,420.0,406.0,504.0
525.0,532.0,591.0,482.0,452.0
533.0,553.0,638.0,532.0,447.0
535.0,501.0,530.0,572.0,465.0
542.0,525.0,480.0,613.0,491.0
532.0,520.0,573.0,608.0,502.0
520.0,518.0,539.0,549.0,518.0
508.0,495.0,431.0,556.0,552.0
525.0,507.0,437.0,540.0,530.0
508.0,454.0,413.0,485.0,531.0
485.0,448.0,384.0,503.0,522.0
488.0,475.0,437.0,508.0,487.0
474.0,468.0,534.0,488.0,521.0
483.0,527.0,609.0,491.0,505.0
500.0,519.0,586.0,418.0,514.0
498.0,526.0,476.0,454.0,535.0
511.0,482.0,478.0,486.0,519.0
534.0,516.0,502.0,503.0,512.0
530.0,558.0,544.0,458.0,509.0
510.0,537.0,624.0,487.0,524.0
531.0,580.0,687.0,504.0,527.0
544.0,498.0,481.0,548.0,501.0
528.0,475.0,398.0,609.0,511.0
531.0,540.0,472.0,611.0,503.0
523.0,586.0,538.0,577.0,504.0
488.0,523.0,484.0,529.0,556.0
494.0,597.0,524.0,510.0,558.0
492.0,571.0,539.0,510.0,549.0
494.0,534.0,525.0,494.0,542.0
501.0,504.0,450.0,480.0,528.0
491.0,481.0,514.0,473.0,530.0
510.0,503.0,596.0,526.0,502.0
511.0,458.0,535.0,472.0,504.0
501.0,443.0,613.0,421.0,500.0
493.0,475.0,675.0,411.0,526.0
501.0,487.0,597.0,441.0,526.0
529.0,516.0,552.0,518.0,512.0
534.0,468.0,437.0,609.0,508.0
551.0,488.0,436.0,617.0,489.0
569.0,531.0,529.0,651.0,444.0
547.0,538.0,520.0,681.0,459.0
494.0,485.0,515.0,550.0,545.0
476.0,481.0,457.0,434.0,563.0
490.0,610.0,533.0,483.0,533.0
502.0,550.0,530.0,504.0,515.0
481.0,511.0,436.0,510.0,528.0
468.0,468.0,430.0,491.0,550.0
490.0,486.0,460.0,457.0,533.0
529.0,455.0,520.0,454.0,497.0
509.0,427.0,546.0,452.0,511.0
511.0,429.0,521.0,481.0,502.0
503.0,413.0,458.0,476.0,501.0
502.0,474.0,485.0,492.0,510.0
547.0,557.0,542.0,546.0,473.0
560.0,689.0,612.0,561.0,483.0
552.0,635.0,599.0,581.0,498.0
539.0,571.0,676.0,640.0,496.0
512.0,526.0,541.0,587.0,529.0
504.0,501.0,521.0,592.0,560.0
503.0,458.0,367.0,488.0,558.0
500.0,478.0,441.0,510.0,504.0
480.0,475.0,472.0,471.0,500.0
482.0,540.0,561.0,451.0,494.0
510.0,512.0,606.0,419.0,495.0
520.0,467.0,541.0,438.0,514.0
529.0,480.0,487.0,460.0,476.0
547.0,521.0,600.0,483.0,476.0
540.0,555.0,554.0,500.0,493.0
505.0,564.0,515.0,516.0,497.0
509.0,506.0,441.0,466.0,504.0
529.0,473.0,470.0,529.0,464.0
549.0,484.0,542.0,609.0,439.0
528.0,441.0,616.0,630.0,452.0
517.0,532.0,611.0,601.0,472.0
497.0,547.0,450.0,563.0,502.0
522.0,627.0,412.0,556.0,490.0
505.0,584.0,540.0,559.0,509.0
489.0,540.0,470.0,490.0,551.0
487.0,525.0,447.0,477.0,559.0
494.0,506.0,430.0,458.0,549.0
492.0,476.0,590.0,457.0,548.0
492.0,475.0,623.0,457.0,560.0
506.0,482.0,538.0,390.0,527.0
500.0,453.0,423.0,445.0,513.0
524.0,485.0,573.0,505.0,495.0
542.0,501.0,565.0,496.0,489.0
556.0,490.0,516.0,499.0,487.0
567.0,483.0,549.0,528.0,479.0
559.0,522.0,584.0,577.0,477.0
534.0,550.0,564.0,610.0,503.0
507.0,552.0,617.0,618.0,534.0
498.0,516.0,588.0,583.0,558.0
486.0,515.0,422.0,539.0,586.0
482.0,527.0,494.0,452.0,599.0
490.0,537.0,515.0,479.0,554.0
497.0,558.0,505.0,495.0,539.0
503.0,526.0,467.0,487.0,535.0
503.0,467.0,418.0,501.0,523.0
501.0,463.0,451.0,485.0,522.0
520.0,449.0,506.0,469.0,506.0
526.0,424.0,552.0,478.0,498.0
515.0,445.0,523.0,490.0,501.0
510.0,489.0,530.0,522.0,499.0
507.0,493.0,622.0,617.0,506.0
492.0,470.0,572.0,560.0,530.0
514.0,626.0,507.0,526.0,531.0
546.0,627.0,516.0,551.0,494.0
539.0,582.0,481.0,578.0,471.0
517.0,501.0,475.0,583.0,489.0
507.0,526.0,450.0,575.0,482.0
498.0,536.0,543.0,565.0,496.0
474.0,483.0,530.0,496.0,543.0
494.0,508.0,538.0,466.0,550.0
497.0,490.0,557.0,447.0,558.0
486.0,487.0,504.0,416.0,563.0
504.0,501.0,471.0,438.0,511.0
519.0,506.0,534.0,483.0,477.0
514.0,485.0,639.0,514.0,486.0
520.0,492.0,668.0,502.0,483.0
537.0,534.0,592.0,464.0,475.0
521.0,511.0,462.0,476.0,495.0
524.0,554.0,490.0,511.0,509.0
536.0,537.0,511.0,553.0,509.0
539.0,572.0,497.0,629.0,520.0
533.0,554.0,471.0,616.0,513.0
506.0,502.0,464.0,574.0,521.0
473.0,486.0,423.0,530.0,538.0
487.0,440.0,466.0,528.0,533.0
487.0,374.0,572.0,549.0,548.0
506.0,489.0,675.0,571.0,509.0
493.0,565.0,533.0,465.0,514.0
500.0,565.0,456.0,433.0,524.0
496.0,565.0,519.0,454.0,529.0
508.0,538.0,454.0,438.0,525.0
526.0,516.0,456.0,482.0,505.0
539.0,504.0,476.0,522.0,478.0
529.0,516.0,573.0,532.0,499.0
539.0,552.0,657.0,565.0,493.0
537.0,522.0,622.0,595.0,480.0
534.0,536.0,511.0,510.0,516.0
516.0,533.0,496.0,531.0,545.0
526.0,548.0,511.0,563.0,536.0
514.0,542.0,486.0,571.0,516.0
500.0,515.0,452.0,538.0,520.0
512.0,481.0,474.0,499.0,522.0
497.0,503.0,547.0,490.0,537.0
489.0,480.0,514.0,482.0,515.0
492.0,427.0,371.0,443.0,519.0
503.0,421.0,496.0,453.0,509.0
493.0,444.0,564.0,514.0,503.0
510.0,558.0,570.0,464.0,491.0
515.0,534.0,541.0,450.0,488.0
514.0,548.0,528.0,510.0,509.0
536.0,556.0,544.0,560.0,501.0
544.0,559.0,573.0,561.0,497.0
535.0,557.0,550.0,579.0,510.0
544.0,550.0,482.0,560.0,509.0
528.0,523.0,460.0,561.0,491.0
513.0,489.0,471.0,555.0,506.0
512.0,457.0,463.0,503.0,511.0
493.0,476.0,460.0,497.0,508.0
504.0,541.0,555.0,530.0,499.0
506.0,549.0,545.0,498.0,502.0
503.0,487.0,443.0,473.0,495.0
493.0,493.0,498.0,513.0,460.0
500.0,494.0,528.0,502.0,512.0
503.0,515.0,554.0,445.0,541.0
494.0,433.0,429.0,386.0,545.0
519.0,408.0,435.0,444.0,514.0
516.0,395.0,480.0,504.0,522.0
526.0,544.0,531.0,551.0,496.0
543.0,590.0,566.0,558.0,481.0
533.0,604.0,566.0,579.0,517.0
534.0,548.0,535.0,594.0,501.0
543.0,533.0,601.0,618.0,511.0
523.0,538.0,556.0,615.0,531.0
517.0,551.0,562.0,578.0,531.0
520.0,554.0,630.0,546.0,540.0
518.0,527.0,572.0,463.0,523.0
515.0,485.0,382.0,385.0,526.0
503.0,422.0,358.0,386.0,515.0
507.0,400.0,391.0,441.0,495.0
502.0,408.0,451.0,469.0,508.0
496.0,410.0,468.0,460.0,518.0
493.0,466.0,511.0,485.0,526.0
498.0,564.0,646.0,535.0,534.0
503.0,606.0,594.0,526.0,541.0
506.0,576.0,682.0,582.0,521.0
514.0,536.0,594.0,560.0,510.0
514.0,503.0,473.0,533.0,510.0
514.0,502.0,500.0,524.0,512.0
527.0,576.0,548.0,579.0,508.0
496.0,523.0,494.0,566.0,539.0
499.0,525.0,475.0,534.0,551.0
499.0,503.0,478.0,536.0,564.0
501.0,517.0,465.0,512.0,562.0
507.0,534.0,478.0,490.0,532.0
521.0,522.0,515.0,468.0,504.0
506.0,496.0,517.0,463.0,495.0
501.0,469.0,517.0,477.0,497.0
509.0,477.0,496.0,465.0,500.0
509.0,467.0,472.0,472.0,496.0
511.0,504.0,525.0,529.0,490.0
523.0,522.0,529.0,553.0,491.0
541.0,529.0,548.0,554.0,491.0
535.0,554.0,535.0,598.0,495.0
533.0,559.0,576.0,556.0,516.0
537.0,560.0,595.0,554.0,500.0
516.0,511.0,560.0,551.0,532.0
509.0,485.0,456.0,537.0,560.0
501.0,426.0,466.0,512.0,541.0
488.0,508.0,487.0,494.0,545.0
491.0,559.0,415.0,451.0,534.0
493.0,501.0,436.0,444.0,523.0
499.0,503.0,500.0,461.0,508.0
505.0,497.0,522.0,486.0,501.0
507.0,497.0,474.0,481.0,503.0
517.0,458.0,511.0,486.0,498.0
532.0,430.0,542.0,509.0,488.0
524.0,428.0,554.0,505.0,495.0
513.0,541.0,584.0,534.0,486.0
550.0,599.0,594.0,598.0,479.0
533.0,565.0,491.0,578.0,512.0
533.0,566.0,572.0,599.0,508.0
525.0,534.0,577.0,644.0,514.0
512.0,533.0,578.0,577.0,522.0
492.0,528.0,477.0,532.0,545.0
504.0,502.0,460.0,479.0,538.0
499.0,483.0,415.0,459.0,527.0
489.0,461.0,469.0,498.0,528.0
491.0,467.0,498.0,460.0,510.0
527.0,485.0,515.0,460.0,474.0
513.0,467.0,457.0,439.0,495.0
511.0,466.0,494.0,446.0,516.0
531.0,526.0,545.0,472.0,494.0
538.0,524.0,508.0,502.0,493.0
527.0,503.0,559.0,512.0,507.0
544.0,518.0,612.0,525.0,483.0
535.0,541.0,584.0,552.0,493.0
518.0,545.0,547.0,593.0,505.0
511.0,535.0,540.0,614.0,511.0
515.0,539.0,480.0,604.0,527.0
499.0,522.0,452.0,527.0,531.0
494.0,551.0,587.0,522.0,517.0
506.0,507.0,539.0,470.0,485.0
504.0,475.0,479.0,441.0,509.0
479.0,441.0,452.0,462.0,545.0
489.0,503.0,453.0,462.0,526.0
521.0,523.0,529.0,472.0,537.0
519.0,511.0,522.0,480.0,530.0
506.0,490.0,504.0,485.0,536.0
502.0,473.0,491.0,536.0,510.0
510.0,482.0,514.0,535.0,493.0
527.0,481.0,518.0,502.0,481.0
519.0,430.0,524.0,558.0,491.0
532.0,474.0,607.0,567.0,491.0
533.0,514.0,572.0,586.0,511.0
503.0,470.0,568.0,590.0,521.0
505.0,556.0,569.0,597.0,534.0
495.0,519.0,469.0,503.0,553.0
482.0,515.0,433.0,463.0,565.0
495.0,568.0,522.0,524.0,513.0
504.0,578.0,526.0,502.0,527.0
506.0,525.0,439.0,476.0,498.0
519.0,513.0,427.0,460.0,451.0
529.0,508.0,479.0,468.0,436.0
508.0,489.0,491.0,461.0,503.0
508.0,481.0,521.0,454.0,527.0
513.0,470.0,567.0,464.0,525.0
531.0,494.0,609.0,510.0,506.0
540.0,521.0,615.0,575.0,497.0
524.0,527.0,445.0,550.0,536.0
526.0,507.0,431.0,556.0,529.0
536.0,539.0,539.0,588.0,502.0
517.0,564.0,518.0,591.0,517.0
497.0,546.0,487.0,560.0,546.0
495.0,530.0,477.0,545.0,541.0
514.0,524.0,553.0,517.0,518.0
491.0,502.0,625.0,519.0,529.0
488.0,514.0,546.0,468.0,537.0
502.0,500.0,447.0,431.0,514.0
511.0,489.0,455.0,450.0,503.0
507.0,470.0,449.0,481.0,510.0
512.0,439.0,560.0,487.0,498.0
530.0,455.0,566.0,518.0,461.0
510.0,434.0,526.0,507.0,507.0
531.0,499.0,464.0,545.0,501.0
553.0,548.0,501.0,595.0,480.0
536.0,538.0,584.0,556.0,484.0
529.0,516.0,574.0,496.0,475.0
511.0,583.0,540.0,525.0,510.0
522.0,574.0,463.0,544.0,515.0
503.0,538.0,417.0,531.0,540.0
499.0,520.0,500.0,507.0,551.0
484.0,484.0,608.0,552.0,579.0
473.0,437.0,547.0,482.0,586.0
482.0,412.0,415.0,411.0,563.0
512.0,543.0,399.0,479.0,535.0
522.0,553.0,492.0,501.0,508.0
515.0,515.0,487.0,464.0,506.0
521.0,485.0,486.0,459.0,506.0
524.0,507.0,525.0,482.0,495.0
535.0,520.0,549.0,509.0,495.0
527.0,510.0,505.0,528.0,489.0
533.0,511.0,505.0,540.0,498.0
536.0,514.0,518.0,567.0,494.0
527.0,531.0,544.0,602.0,502.0
521.0,514.0,513.0,595.0,528.0
508.0,513.0,513.0,578.0,531.0
503.0,549.0,504.0,531.0,518.0
490.0,526.0,484.0,502.0,528.0
504.0,510.0,491.0,492.0,523.0
519.0,495.0,493.0,493.0,511.0
505.0,489.0,498.0,487.0,516.0
498.0,467.0,496.0,471.0,532.0
504.0,459.0,494.0,445.0,514.0
522.0,494.0,571.0,453.0,492.0
522.0,491.0,548.0,464.0,506.0
537.0,540.0,591.0,503.0,495.0
523.0,515.0,616.0,541.0,477.0
524.0,518.0,624.0,543.0,475.0
530.0,514.0,521.0,539.0,507.0
516.0,513.0,414.0,513.0,511.0
527.0,548.0,454.0,586.0,504.0
530.0,562.0,482.0,604.0,498.0
529.0,541.0,471.0,578.0,498.0
516.0,525.0,486.0,548.0,513.0
488.0,501.0,549.0,521.0,544.0
484.0,474.0,524.0,454.0,554.0
492.0,469.0,430.0,460.0,529.0
487.0,453.0,599.0,515.0,517.0
486.0,472.0,618.0,462.0,515.0
503.0,498.0,528.0,386.0,505.0
508.0,506.0,591.0,464.0,513.0
523.0,499.0,522.0,500.0,496.0
538.0,480.0,396.0,480.0,467.0
530.0,482.0,505.0,530.0,491.0
534.0,455.0,484.0,546.0,505.0
523.0,439.0,466.0,568.0,502.0
516.0,493.0,555.0,608.0,510.0
537.0,590.0,584.0,629.0,492.0
514.0,515.0,468.0,552.0,521.0
497.0,525.0,414.0,520.0,521.0
504.0,546.0,523.0,517.0,504.0
519.0,537.0,584.0,552.0,479.0
511.0,500.0,457.0,485.0,491.0
504.0,501.0,467.0,471.0,497.0
517.0,522.0,501.0,463.0,492.0
527.0,498.0,477.0,462.0,476.0
515.0,475.0,505.0,453.0,519.0
514.0,518.0,576.0,476.0,533.0
522.0,527.0,578.0,488.0,517.0
530.0,514.0,514.0,473.0,497.0
528.0,517.0,486.0,510.0,507.0
527.0,526.0,559.0,552.0,506.0
513.0,516.0,561.0,560.0,516.0
495.0,496.0,514.0,550.0,540.0
501.0,546.0,486.0,558.0,525.0
510.0,538.0,487.0,615.0,520.0
499.0,490.0,472.0,588.0,545.0
488.0,481.0,471.0,549.0,543.0
465.0,487.0,455.0,492.0,567.0
485.0,528.0,525.0,444.0,548.0
496.0,517.0,541.0,425.0,534.0
500.0,493.0,530.0,430.0,516.0
487.0,469.0,506.0,453.0,524.0
497.0,449.0,490.0,453.0,516.0
519.0,498.0,552.0,465.0,502.0
517.0,507.0,527.0,493.0,498.0
536.0,531.0,495.0,541.0,478.0
541.0,535.0,542.0,555.0,470.0
547.0,525.0,559.0,577.0,460.0
535.0,519.0,505.0,592.0,485.0
515.0,530.0,519.0,601.0,493.0
524.0,564.0,568.0,586.0,505.0
507.0,554.0,531.0,552.0,542.0
507.0,521.0,485.0,538.0,547.0
506.0,486.0,476.0,528.0,537.0
493.0,429.0,412.0,458.0,529.0
496.0,451.0,558.0,507.0,517.0
498.0,440.0,559.0,494.0,516.0
508.0,546.0,580.0,465.0,508.0
509.0,471.0,487.0,392.0,519.0
507.0,476.0,552.0,467.0,511.0
500.0,519.0,569.0,477.0,515.0
513.0,526.0,525.0,441.0,517.0
521.0,517.0,526.0,489.0,525.0
542.0,526.0,601.0,563.0,499.0
541.0,529.0,510.0,588.0,499.0
531.0,514.0,417.0,558.0,506.0
538.0,573.0,513.0,569.0,460.0
527.0,550.0,470.0,591.0,467.0
529.0,534.0,488.0,573.0,474.0
514.0,525.0,565.0,553.0,488.0
497.0,501.0,529.0,516.0,517.0
491.0,476.0,411.0,483.0,515.0
498.0,508.0,420.0,461.0,505.0
496.0,501.0,507.0,465.0,545.0
494.0,486.0,518.0,454.0,553.0
499.0,492.0,553.0,460.0,556.0
511.0,487.0,536.0,450.0,531.0
508.0,480.0,477.0,457.0,523.0
519.0,499.0,500.0,534.0,500.0
532.0,525.0,533.0,549.0,495.0
538.0,529.0,515.0,536.0,499.0
535.0,533.0,530.0,568.0,492.0
527.0,533.0,520.0,574.0,509.0
526.0,532.0,501.0,574.0,516.0
510.0,528.0,494.0,565.0,514.0
497.0,528.0,476.0,542.0,517.0
499.0,510.0,491.0,515.0,524.0
503.0,492.0,491.0,501.0,513.0
501.0,499.0,465.0,490.0,531.0
499.0,501.0,482.0,486.0,521.0
509.0,496.0,525.0,478.0,498.0
502.0,484.0,554.0,466.0,496.0
490.0,481.0,554.0,447.0,518.0
514.0,489.0,497.0,460.0,488.0
512.0,490.0,488.0,497.0,490.0
521.0,496.0,522.0,513.0,512.0
532.0,518.0,538.0,536.0,505.0
532.0,525.0,545.0,564.0,514.0
532.0,530.0,538.0,577.0,509.0
528.0,532.0,530.0,573.0,513.0
518.0,519.0,523.0,564.0,517.0
508.0,512.0,485.0,555.0,518.0
500.0,519.0,481.0,537.0,529.0
482.0,493.0,468.0,518.0,537.0
501.0,499.0,494.0,502.0,531.0
497.0,483.0,501.0,494.0,521.0
500.0,505.0,526.0,489.0,521.0
505.0,502.0,490.0,456.0,518.0
504.0,477.0,498.0,440.0,509.0
511.0,470.0,518.0,457.0,521.0
520.0,468.0,497.0,464.0,514.0
535.0,504.0,523.0,493.0,501.0
546.0,532.0,540.0,512.0,483.0
547.0,535.0,541.0,545.0,494.0
543.0,536.0,532.0,565.0,509.0
542.0,539.0,535.0,567.0,503.0
530.0,529.0,562.0,584.0,506.0
502.0,507.0,516.0,572.0,525.0
478.0,501.0,462.0,545.0,541.0
475.0,503.0,491.0,525.0,546.0
485.0,499.0,481.0,484.0,536.0
488.0,493.0,476.0,516.0,527.0
487.0,471.0,494.0,489.0,522.0
499.0,470.0,513.0,481.0,507.0
504.0,484.0,505.0,473.0,508.0
500.0,434.0,476.0,444.0,516.0
497.0,458.0,509.0,462.0,530.0
514.0,528.0,559.0,491.0,507.0
524.0,540.0,572.0,518.0,488.0
539.0,534.0,533.0,541.0,477.0
536.0,518.0,519.0,542.0,482.0
536.0,508.0,515.0,566.0,481.0
523.0,499.0,532.0,555.0,508.0
528.0,568.0,553.0,566.0,515.0
526.0,564.0,552.0,580.0,512.0
497.0,532.0,531.0,556.0,538.0
487.0,507.0,513.0,500.0,533.0
479.0,484.0,481.0,490.0,532.0
501.0,518.0,450.0,494.0,519.0
508.0,507.0,468.0,472.0,509.0
509.0,486.0,489.0,459.0,515.0
509.0,490.0,511.0,466.0,513.0
501.0,475.0,510.0,452.0,521.0
509.0,488.0,531.0,463.0,518.0
511.0,481.0,540.0,511.0,508.0
513.0,490.0,555.0,528.0,508.0
526.0,503.0,503.0,530.0,505.0
531.0,515.0,485.0,554.0,503.0
538.0,555.0,520.0,593.0,490.0
531.0,562.0,540.0,572.0,492.0
525.0,543.0,518.0,565.0,508.0
517.0,535.0,501.0,559.0,520.0
508.0,526.0,487.0,539.0,524.0
496.0,519.0,489.0,521.0,543.0
492.0,501.0,487.0,494.0,543.0
499.0,493.0,496.0,484.0,525.0
503.0,490.0,509.0,476.0,515.0
514.0,491.0,498.0,469.0,507.0
513.0,490.0,491.0,460.0,506.0
510.0,481.0,505.0,456.0,515.0
516.0,489.0,515.0,469.0,497.0
525.0,499.0,526.0,493.0,493.0
529.0,506.0,531.0,513.0,498.0
530.0,516.0,533.0,537.0,497.0
537.0,523.0,534.0,558.0,501.0
534.0,537.0,535.0,576.0,504.0
524.0,538.0,526.0,577.0,503.0
517.0,532.0,513.0,571.0,510.0
503.0,520.0,490.0,555.0,529.0
494.0,512.0,475.0,528.0,536.0
489.0,502.0,486.0,506.0,539.0
491.0,495.0,483.0,491.0,534.0
493.0,491.0,486.0,475.0,533.0
499.0,485.0,492.0,467.0,517.0
502.0,482.0,499.0,465.0,513.0
504.0,479.0,503.0,457.0,516.0
513.0,483.0,514.0,467.0,508.0
513.0,486.0,518.0,480.0,508.0
518.0,498.0,528.0,498.0,496.0
522.0,508.0,533.0,522.0,496.0
525.0,520.0,538.0,546.0,496.0
521.0,527.0,535.0,564.0,504.0
521.0,534.0,530.0,572.0,505.0
516.0,533.0,519.0,573.0,515.0
511.0,528.0,514.0,571.0,518.0
496.0,517.0,494.0,547.0,532.0
507.0,509.0,488.0,522.0,527.0
511.0,506.0,489.0,506.0,522.0
514.0,500.0,492.0,488.0,520.0
507.0,490.0,491.0,474.0,519.0
511.0,490.0,501.0,470.0,514.0
507.0,483.0,503.0,461.0,515.0
509.0,478.0,503.0,456.0,511.0
510.0,483.0,515.0,470.0,501.0
521.0,493.0,527.0,491.0,496.0
523.0,500.0,527.0,501.0,497.0
529.0,512.0,533.0,524.0,500.0
538.0,522.0,538.0,551.0,495.0
540.0,533.0,536.0,573.0,498.0
532.0,535.0,526.0,575.0,503.0
517.0,532.0,519.0,568.0,516.0
504.0,523.0,503.0,558.0,525.0
491.0,517.0,488.0,538.0,533.0
485.0,507.0,485.0,518.0,536.0
488.0,499.0,486.0,499.0,538.0
489.0,494.0,487.0,483.0,537.0
494.0,487.0,492.0,472.0,531.0
498.0,487.0,500.0,465.0,529.0
498.0,481.0,503.0,458.0,525.0
509.0,480.0,507.0,459.0,520.0
516.0,483.0,518.0,469.0,511.0
504.0,488.0,522.0,487.0,502.0
489.0,500.0,529.0,511.0,502.0
481.0,509.0,532.0,538.0,504.0
478.0,519.0,533.0,555.0,497.0
471.0,527.0,530.0,571.0,501.0
466.0,527.0,520.0,570.0,510.0
473.0,528.0,510.0,564.0,513.0
480.0,514.0,492.0,547.0,531.0
493.0,508.0,483.0,526.0,541.0
537.0,511.0,486.0,512.0,523.0
560.0,510.0,490.0,500.0,515.0
540.0,501.0,495.0,488.0,515.0
532.0,493.0,501.0,474.0,507.0
529.0,487.0,504.0,464.0,507.0
528.0,484.0,510.0,458.0,520.0
521.0,485.0,514.0,463.0,543.0
524.0,492.0,522.0,478.0,536.0
524.0,499.0,527.0,496.0,538.0
537.0,513.0,534.0,521.0,518.0
548.0,524.0,542.0,546.0,495.0
550.0,533.0,539.0,565.0,487.0
549.0,537.0,532.0,577.0,495.0
539.0,534.0,520.0,572.0,514.0
528.0,531.0,511.0,566.0,525.0
509.0,519.0,496.0,546.0,541.0
503.0,511.0,487.0,526.0,541.0
505.0,503.0,486.0,506.0,539.0
515.0,501.0,491.0,491.0,522.0
515.0,489.0,489.0,473.0,496.0
521.0,489.0,496.0,466.0,480.0
523.0,480.0,503.0,461.0,491.0
517.0,476.0,502.0,457.0,506.0
528.0,486.0,516.0,467.0,505.0
530.0,494.0,525.0,487.0,497.0
531.0,499.0,525.0,500.0,498.0
538.0,510.0,534.0,526.0,498.0
540.0,522.0,535.0,549.0,486.0
544.0,532.0,535.0,566.0,477.0
539.0,535.0,526.0,575.0,496.0
529.0,532.0,516.0,568.0,507.0
523.0,527.0,505.0,561.0,503.0
511.0,514.0,491.0,542.0,507.0
509.0,505.0,485.0,518.0,519.0
505.0,500.0,485.0,496.0,520.0
502.0,487.0,486.0,480.0,521.0
504.0,488.0,493.0,470.0,524.0
508.0,489.0,504.0,468.0,523.0
510.0,483.0,506.0,461.0,519.0
509.0,479.0,509.0,458.0,519.0
493.0,483.0,518.0,471.0,549.0
505.0,493.0,532.0,492.0,500.0
516.0,503.0,532.0,510.0,474.0
530.0,514.0,536.0,531.0,482.0
527.0,525.0,539.0,558.0,506.0
527.0,533.0,535.0,565.0,517.0
516.0,532.0,527.0,572.0,537.0
511.0,528.0,519.0,561.0,545.0
511.0,523.0,501.0,551.0,544.0
511.0,517.0,492.0,533.0,528.0
506.0,505.0,489.0,517.0,506.0
497.0,496.0,484.0,492.0,507.0
499.0,489.0,490.0,479.0,495.0
505.0,483.0,495.0,470.0,492.0
516.0,484.0,504.0,467.0,490.0
511.0,478.0,504.0,459.0,508.0
505.0,481.0,508.0,459.0,511.0
516.0,483.0,518.0,477.0,507.0
522.0,493.0,526.0,493.0,503.0
525.0,503.0,533.0,517.0,495.0
532.0,517.0,537.0,540.0,496.0
535.0,527.0,537.0,558.0,499.0
541.0,535.0,537.0,572.0,509.0
540.0,534.0,527.0,568.0,512.0
529.0,529.0,513.0,563.0,503.0
521.0,520.0,497.0,546.0,515.0
508.0,510.0,488.0,525.0,516.0
493.0,500.0,484.0,503.0,519.0
494.0,493.0,486.0,486.0,503.0
491.0,490.0,492.0,477.0,491.0
479.0,487.0,501.0,473.0,502.0
496.0,484.0,508.0,468.0,507.0
504.0,480.0,509.0,460.0,519.0
503.0,485.0,518.0,465.0,543.0
508.0,492.0,525.0,480.0,531.0
522.0,500.0,535.0,506.0,512.0
531.0,512.0,537.0,528.0,496.0
527.0,520.0,539.0,546.0,506.0
522.0,531.0,539.0,564.0,512.0
521.0,536.0,532.0,572.0,506.0
511.0,530.0,518.0,564.0,517.0
509.0,526.0,508.0,556.0,549.0
499.0,513.0,490.0,533.0,554.0
480.0,502.0,483.0,514.0,553.0
477.0,497.0,485.0,503.0,554.0
478.0,494.0,492.0,486.0,564.0
484.0,487.0,496.0,474.0,549.0
496.0,484.0,500.0,467.0,524.0
492.0,479.0,505.0,461.0,523.0
495.0,474.0,505.0,458.0,500.0
515.0,484.0,518.0,477.0,491.0
522.0,491.0,525.0,483.0,501.0
540.0,502.0,531.0,505.0,498.0
538.0,514.0,537.0,530.0,487.0
552.0,528.0,541.0,554.0,472.0
561.0,538.0,539.0,571.0,479.0
543.0,536.0,527.0,571.0,473.0
520.0,530.0,516.0,566.0,491.0
504.0,527.0,502.0,554.0,497.0
495.0,512.0,489.0,532.0,507.0
483.0,503.0,486.0,515.0,516.0
471.0,490.0,483.0,494.0,513.0
484.0,494.0,493.0,481.0,516.0
510.0,491.0,499.0,472.0,507.0
528.0,485.0,503.0,462.0,511.0
533.0,481.0,503.0,457.0,515.0
532.0,482.0,510.0,459.0,509.0
525.0,483.0,518.0,471.0,526.0
525.0,491.0,527.0,489.0,525.0
527.0,503.0,533.0,515.0,511.0
519.0,516.0,540.0,544.0,504.0
522.0,525.0,539.0,560.0,510.0
525.0,533.0,534.0,573.0,519.0
517.0,530.0,522.0,568.0,528.0
510.0,530.0,514.0,569.0,534.0
498.0,520.0,497.0,549.0,559.0
502.0,514.0,491.0,526.0,556.0
501.0,508.0,488.0,507.0,545.0
500.0,495.0,487.0,492.0,532.0
499.0,487.0,490.0,474.0,523.0
510.0,490.0,500.0,470.0,521.0
512.0,485.0,506.0,465.0,510.0
510.0,480.0,506.0,459.0,495.0
524.0,484.0,511.0,464.0,472.0
528.0,489.0,521.0,483.0,486.0
532.0,499.0,529.0,503.0,484.0
531.0,509.0,532.0,524.0,510.0
537.0,524.0,538.0,546.0,512.0
543.0,532.0,535.0,563.0,508.0
538.0,534.0,528.0,571.0,506.0
525.0,530.0,516.0,566.0,529.0
526.0,532.0,508.0,561.0,553.0
515.0,519.0,493.0,541.0,551.0
511.0,509.0,486.0,518.0,535.0
508.0,500.0,488.0,500.0,513.0
508.0,492.0,486.0,485.0,492.0
508.0,487.0,491.0,472.0,488.0
504.0,482.0,497.0,466.0,500.0
488.0,480.0,504.0,464.0,493.0
493.0,478.0,506.0,460.0,489.0
504.0,484.0,518.0,472.0,481.0
516.0,493.0,526.0,490.0,498.0
529.0,504.0,531.0,508.0,510.0
539.0,516.0,536.0,534.0,498.0
545.0,525.0,542.0,552.0,503.0
543.0,532.0,534.0,569.0,507.0
542.0,535.0,525.0,572.0,515.0
524.0,530.0,514.0,565.0,554.0
507.0,523.0,503.0,550.0,575.0
495.0,514.0,491.0,534.0,572.0
487.0,507.0,491.0,513.0,574.0
480.0,496.0,488.0,492.0,559.0
488.0,492.0,495.0,480.0,549.0
476.0,486.0,496.0,468.0,567.0
495.0,491.0,503.0,467.0,531.0
511.0,480.0,505.0,457.0,537.0
527.0,486.0,511.0,462.0,505.0
533.0,485.0,518.0,474.0,461.0
534.0,495.0,529.0,494.0,469.0
532.0,505.0,533.0,513.0,473.0
528.0,514.0,534.0,535.0,474.0
506.0,519.0,531.0,555.0,486.0
494.0,528.0,530.0,572.0,488.0
503.0,532.0,522.0,573.0,484.0
514.0,529.0,514.0,568.0,487.0
503.0,520.0,497.0,549.0,494.0
501.0,514.0,486.0,528.0,497.0
501.0,504.0,485.0,510.0,508.0
509.0,501.0,490.0,495.0,511.0
516.0,497.0,495.0,482.0,520.0
517.0,489.0,499.0,472.0,519.0
514.0,485.0,503.0,464.0,515.0
509.0,478.0,503.0,459.0,514.0
511.0,483.0,515.0,469.0,509.0
505.0,487.0,522.0,479.0,520.0
499.0,496.0,527.0,499.0,520.0
519.0,510.0,534.0,524.0,513.0
528.0,522.0,536.0,544.0,506.0
536.0,532.0,538.0,563.0,514.0
533.0,535.0,530.0,572.0,534.0
522.0,533.0,520.0,570.0,536.0
518.0,530.0,511.0,561.0,537.0
498.0,518.0,495.0,540.0,549.0
503.0,506.0,486.0,522.0,518.0
500.0,498.0,483.0,504.0,494.0
494.0,491.0,486.0,486.0,497.0
497.0,485.0,489.0,473.0,500.0
505.0,483.0,497.0,468.0,507.0
509.0,481.0,503.0,465.0,506.0
511.0,478.0,506.0,462.0,501.0
514.0,483.0,516.0,470.0,520.0
518.0,493.0,525.0,487.0,511.0
525.0,501.0,528.0,504.0,524.0
533.0,516.0,532.0,527.0,506.0
540.0,523.0,537.0,550.0,498.0
532.0,533.0,535.0,565.0,511.0
528.0,534.0,528.0,569.0,532.0
522.0,532.0,516.0,566.0,539.0
512.0,527.0,504.0,556.0,539.0
503.0,514.0,492.0,536.0,537.0
509.0,507.0,486.0,516.0,522.0
505.0,500.0,486.0,498.0,528.0
489.0,493.0,490.0,484.0,512.0
489.0,490.0,498.0,477.0,496.0
508.0,485.0,505.0,471.0,501.0
513.0,481.0,505.0,462.0,508.0
517.0,477.0,507.0,460.0,497.0
513.0,483.0,517.0,477.0,498.0
511.0,494.0,528.0,496.0,486.0
523.0,508.0,534.0,516.0,510.0
535.0,516.0,536.0,537.0,493.0
540.0,529.0,539.0,560.0,497.0
536.0,537.0,532.0,576.0,502.0
526.0,531.0,521.0,569.0,507.0
514.0,527.0,513.0,565.0,509.0
502.0,520.0,501.0,552.0,521.0
493.0,512.0,491.0,530.0,543.0
492.0,502.0,486.0,510.0,554.0
497.0,495.0,488.0,492.0,546.0
500.0,490.0,493.0,480.0,539.0
504.0,488.0,499.0,471.0,524.0
501.0,482.0,504.0,465.0,510.0
503.0,476.0,506.0,463.0,495.0
511.0,480.0,518.0,469.0,487.0
514.0,486.0,521.0,482.0,498.0
517.0,496.0,529.0,500.0,508.0
524.0,510.0,538.0,524.0,507.0
525.0,520.0,540.0,546.0,513.0
539.0,532.0,544.0,564.0,503.0
536.0,536.0,534.0,575.0,501.0
524.0,528.0,519.0,567.0,509.0
520.0,531.0,509.0,564.0,524.0
502.0,517.0,496.0,544.0,530.0
498.0,508.0,493.0,523.0,530.0
503.0,500.0,487.0,502.0,532.0
503.0,495.0,491.0,490.0,525.0
497.0,485.0,493.0,474.0,512.0
501.0,485.0,501.0,469.0,509.0
505.0,484.0,507.0,466.0,526.0
503.0,480.0,509.0,463.0,520.0
506.0,482.0,518.0,472.0,508.0
512.0,491.0,525.0,488.0,500.0
521.0,500.0,529.0,505.0,501.0
547.0,513.0,540.0,527.0,508.0
557.0,528.0,544.0,551.0,497.0
563.0,534.0,537.0,570.0,476.0
548.0,533.0,527.0,576.0,493.0
519.0,525.0,514.0,562.0,517.0
497.0,518.0,499.0,551.0,531.0
470.0,513.0,493.0,540.0,542.0
478.0,508.0,493.0,522.0,521.0
483.0,500.0,489.0,500.0,537.0
494.0,493.0,492.0,486.0,531.0
497.0,485.0,496.0,471.0,523.0
506.0,484.0,502.0,467.0,523.0
509.0,478.0,510.0,461.0,525.0
513.0,479.0,510.0,466.0,517.0
519.0,483.0,518.0,476.0,504.0
526.0,490.0,524.0,492.0,503.0
532.0,504.0,532.0,514.0,503.0
541.0,517.0,536.0,537.0,500.0
547.0,528.0,538.0,557.0,504.0
541.0,533.0,535.0,572.0,508.0
524.0,531.0,524.0,573.0,509.0
509.0,526.0,512.0,565.0,501.0
501.0,518.0,499.0,554.0,507.0
479.0,512.0,490.0,531.0,526.0
480.0,502.0,489.0,520.0,529.0
489.0,494.0,490.0,496.0,528.0
497.0,490.0,494.0,482.0,525.0
504.0,486.0,505.0,472.0,513.0
508.0,485.0,506.0,466.0,506.0
508.0,479.0,507.0,461.0,508.0
518.0,481.0,513.0,466.0,501.0
521.0,490.0,520.0,480.0,498.0
523.0,496.0,529.0,498.0,502.0
530.0,511.0,537.0,523.0,497.0
533.0,523.0,541.0,546.0,498.0
530.0,529.0,537.0,562.0,497.0
527.0,532.0,530.0,573.0,500.0
516.0,531.0,517.0,567.0,505.0
508.0,525.0,509.0,562.0,508.0
500.0,517.0,496.0,543.0,518.0
496.0,508.0,488.0,524.0,532.0
495.0,501.0,487.0,505.0,546.0
498.0,498.0,489.0,489.0,537.0
504.0,489.0,494.0,480.0,526.0
511.0,487.0,507.0,472.0,513.0
508.0,481.0,507.0,467.0,512.0
499.0,480.0,508.0,468.0,519.0
503.0,481.0,518.0,472.0,514.0
514.0,489.0,526.0,488.0,507.0
520.0,500.0,530.0,505.0,504.0
529.0,511.0,535.0,528.0,490.0
540.0,525.0,540.0,552.0,479.0
535.0,533.0,537.0,569.0,480.0
525.0,533.0,533.0,572.0,497.0
515.0,531.0,517.0,570.0,504.0
507.0,525.0,505.0,558.0,518.0
492.0,513.0,492.0,536.0,549.0
492.0,506.0,488.0,517.0,535.0
496.0,499.0,488.0,506.0,532.0
500.0,493.0,491.0,487.0,521.0
504.0,487.0,497.0,476.0,517.0
504.0,486.0,501.0,468.0,508.0
501.0,480.0,506.0,463.0,517.0
504.0,478.0,510.0,464.0,518.0
515.0,486.0,517.0,476.0,523.0
524.0,495.0,530.0,496.0,510.0
528.0,504.0,533.0,513.0,507.0
531.0,515.0,537.0,535.0,512.0
532.0,526.0,539.0,555.0,504.0
530.0,531.0,538.0,570.0,501.0
520.0,531.0,524.0,573.0,472.0
513.0,526.0,512.0,564.0,492.0
502.0,518.0,498.0,552.0,496.0
494.0,511.0,489.0,532.0,513.0
500.0,501.0,486.0,512.0,518.0
509.0,499.0,490.0,504.0,522.0
505.0,491.0,493.0,483.0,530.0
511.0,488.0,499.0,479.0,504.0
506.0,483.0,506.0,467.0,506.0
493.0,477.0,505.0,460.0,543.0
504.0,483.0,517.0,467.0,539.0
521.0,492.0,526.0,483.0,534.0
529.0,498.0,529.0,502.0,532.0
543.0,510.0,535.0,519.0,520.0
545.0,521.0,539.0,546.0,501.0
531.0,526.0,535.0,560.0,470.0
519.0,531.0,530.0,571.0,485.0
506.0,529.0,522.0,574.0,482.0
497.0,529.0,518.0,568.0,474.0
496.0,519.0,502.0,549.0,506.0
494.0,511.0,491.0,527.0,521.0
494.0,501.0,485.0,505.0,556.0
502.0,497.0,490.0,490.0,562.0
496.0,490.0,495.0,479.0,532.0
509.0,488.0,502.0,472.0,516.0
510.0,484.0,507.0,467.0,514.0
511.0,479.0,512.0,462.0,520.0
522.0,487.0,518.0,472.0,520.0
525.0,492.0,524.0,488.0,510.0
527.0,498.0,528.0,504.0,507.0
538.0,514.0,538.0,528.0,498.0
540.0,523.0,538.0,550.0,492.0
529.0,531.0,535.0,567.0,495.0
521.0,534.0,529.0,572.0,497.0
513.0,531.0,518.0,567.0,510.0
506.0,525.0,505.0,558.0,516.0
497.0,518.0,495.0,539.0,530.0
496.0,511.0,492.0,522.0,531.0
494.0,501.0,489.0,503.0,527.0
500.0,498.0,492.0,489.0,525.0
503.0,489.0,498.0,475.0,518.0
505.0,484.0,501.0,468.0,515.0
510.0,480.0,505.0,463.0,512.0
508.0,478.0,509.0,462.0,515.0
513.0,485.0,520.0,474.0,518.0
520.0,495.0,525.0,491.0,506.0
531.0,504.0,532.0,511.0,503.0
537.0,515.0,538.0,534.0,500.0
543.0,527.0,539.0,555.0,498.0
544.0,534.0,534.0,568.0,499.0
531.0,531.0,525.0,572.0,509.0
519.0,529.0,516.0,565.0,513.0
496.0,516.0,500.0,551.0,525.0
497.0,518.0,493.0,534.0,535.0
499.0,508.0,490.0,514.0,540.0
504.0,500.0,490.0,497.0,531.0
506.0,493.0,493.0,482.0,526.0
499.0,487.0,499.0,473.0,519.0
496.0,486.0,506.0,469.0,515.0
505.0,479.0,510.0,465.0,514.0
506.0,481.0,518.0,466.0,513.0
515.0,489.0,524.0,481.0,508.0
526.0,500.0,527.0,499.0,494.0
534.0,513.0,533.0,520.0,490.0
536.0,519.0,537.0,540.0,491.0
526.0,527.0,535.0,560.0,498.0
520.0,532.0,530.0,572.0,496.0
516.0,528.0,517.0,565.0,508.0
514.0,527.0,511.0,562.0,518.0
498.0,518.0,497.0,546.0,531.0
493.0,510.0,490.0,529.0,539.0
491.0,504.0,486.0,506.0,534.0
497.0,497.0,489.0,491.0,528.0
504.0,491.0,493.0,480.0,528.0
507.0,487.0,503.0,471.0,523.0
507.0,483.0,506.0,466.0,520.0
501.0,478.0,507.0,462.0,514.0
508.0,482.0,517.0,469.0,507.0
516.0,490.0,525.0,485.0,503.0
522.0,499.0,530.0,504.0,502.0
526.0,510.0,536.0,528.0,493.0
534.0,524.0,540.0,554.0,492.0
530.0,531.0,537.0,571.0,495.0
525.0,534.0,529.0,572.0,502.0
517.0,530.0,517.0,564.0,511.0
509.0,526.0,506.0,558.0,521.0
497.0,517.0,494.0,538.0,533.0
490.0,508.0,488.0,517.0,539.0
491.0,501.0,488.0,501.0,536.0
496.0,496.0,492.0,488.0,530.0
502.0,490.0,496.0,475.0,528.0
508.0,487.0,501.0,468.0,515.0
507.0,482.0,506.0,464.0,524.0
509.0,480.0,509.0,463.0,519.0
519.0,486.0,520.0,475.0,511.0
525.0,495.0,528.0,496.0,503.0
528.0,501.0,531.0,509.0,499.0
535.0,514.0,537.0,533.0,496.0
538.0,528.0,541.0,553.0,496.0
536.0,533.0,539.0,569.0,501.0
523.0,532.0,525.0,566.0,521.0
509.0,526.0,514.0,562.0,527.0
498.0,520.0,504.0,551.0,530.0
497.0,516.0,493.0,533.0,537.0
484.0,504.0,488.0,512.0,564.0
497.0,499.0,490.0,503.0,538.0
493.0,492.0,491.0,482.0,520.0
499.0,489.0,499.0,473.0,493.0
510.0,488.0,507.0,470.0,483.0
506.0,481.0,507.0,465.0,508.0
505.0,482.0,513.0,463.0,515.0
522.0,487.0,519.0,477.0,508.0
526.0,496.0,527.0,497.0,509.0
541.0,509.0,535.0,520.0,492.0
544.0,521.0,540.0,541.0,489.0
536.0,527.0,537.0,558.0,504.0
527.0,538.0,530.0,569.0,508.0
521.0,531.0,521.0,569.0,508.0
515.0,528.0,512.0,561.0,517.0
500.0,519.0,502.0,545.0,526.0
493.0,511.0,490.0,527.0,527.0
497.0,504.0,489.0,511.0,512.0
496.0,497.0,490.0,491.0,531.0
495.0,490.0,494.0,477.0,540.0
508.0,490.0,503.0,473.0,527.0
510.0,484.0,506.0,466.0,522.0
506.0,477.0,506.0,461.0,518.0
513.0,481.0,515.0,468.0,509.0
519.0,490.0,524.0,484.0,497.0
527.0,500.0,530.0,507.0,498.0
533.0,509.0,535.0,525.0,497.0
539.0,525.0,540.0,549.0,490.0
537.0,530.0,537.0,565.0,489.0
530.0,533.0,529.0,570.0,494.0
519.0,529.0,517.0,566.0,498.0
511.0,525.0,507.0,558.0,505.0
498.0,516.0,495.0,539.0,533.0
490.0,507.0,487.0,517.0,553.0
499.0,502.0,491.0,505.0,537.0
498.0,496.0,492.0,492.0,538.0
503.0,489.0,499.0,475.0,533.0
510.0,485.0,500.0,468.0,510.0
509.0,483.0,508.0,466.0,510.0
504.0,479.0,510.0,464.0,505.0
513.0,485.0,520.0,475.0,498.0
522.0,494.0,528.0,492.0,504.0
525.0,501.0,532.0,509.0,505.0
534.0,515.0,538.0,536.0,500.0
535.0,525.0,539.0,554.0,497.0
532.0,534.0,537.0,568.0,502.0
523.0,533.0,526.0,566.0,513.0
516.0,528.0,516.0,564.0,522.0
506.0,520.0,500.0,551.0,529.0
499.0,512.0,492.0,533.0,536.0
502.0,505.0,488.0,517.0,538.0
499.0,503.0,488.0,498.0,537.0
497.0,493.0,494.0,485.0,532.0
501.0,489.0,500.0,476.0,528.0
509.0,485.0,505.0,470.0,519.0
510.0,480.0,507.0,464.0,516.0
509.0,480.0,512.0,466.0,515.0
515.0,486.0,520.0,478.0,509.0
520.0,494.0,527.0,495.0,505.0
529.0,508.0,536.0,520.0,490.0
531.0,520.0,541.0,542.0,500.0
536.0,530.0,541.0,561.0,516.0
533.0,534.0,533.0,577.0,509.0
524.0,533.0,526.0,569.0,519.0
503.0,527.0,512.0,562.0,524.0
490.0,517.0,496.0,545.0,528.0
489.0,510.0,489.0,528.0,534.0
493.0,505.0,489.0,510.0,532.0
502.0,499.0,491.0,495.0,522.0
501.0,490.0,497.0,482.0,520.0
500.0,488.0,500.0,474.0,514.0
507.0,486.0,505.0,468.0,511.0
511.0,485.0,507.0,463.0,513.0
518.0,484.0,515.0,470.0,508.0
520.0,489.0,524.0,485.0,503.0
518.0,496.0,527.0,502.0,496.0
522.0,507.0,536.0,524.0,486.0
534.0,524.0,541.0,550.0,487.0
532.0,529.0,535.0,562.0,493.0
529.0,533.0,530.0,571.0,503.0
519.0,529.0,518.0,567.0,509.0
510.0,526.0,507.0,559.0,518.0
499.0,515.0,495.0,542.0,526.0
490.0,506.0,487.0,521.0,529.0
494.0,502.0,488.0,505.0,533.0
501.0,496.0,496.0,491.0,528.0
498.0,488.0,494.0,476.0,527.0
505.0,489.0,502.0,470.0,519.0
506.0,484.0,507.0,465.0,520.0
507.0,479.0,509.0,463.0,520.0
513.0,487.0,518.0,472.0,515.0
518.0,492.0,527.0,491.0,507.0
523.0,499.0,529.0,508.0,501.0
532.0,514.0,535.0,532.0,496.0
533.0,524.0,540.0,555.0,498.0
530.0,531.0,535.0,568.0,500.0
527.0,534.0,527.0,573.0,513.0
517.0,529.0,517.0,566.0,520.0
503.0,522.0,500.0,553.0,529.0
495.0,515.0,492.0,535.0,536.0
498.0,509.0,490.0,521.0,535.0
498.0,503.0,486.0,497.0,525.0
501.0,498.0,493.0,484.0,524.0
508.0,491.0,500.0,476.0,522.0
513.0,487.0,506.0,470.0,516.0
511.0,481.0,506.0,463.0,523.0
519.0,482.0,514.0,464.0,522.0
521.0,490.0,519.0,476.0,512.0
520.0,492.0,524.0,493.0,502.0
518.0,503.0,533.0,517.0,485.0
525.0,516.0,538.0,542.0,482.0
534.0,527.0,539.0,560.0,496.0
532.0,534.0,533.0,571.0,502.0
522.0,531.0,523.0,568.0,505.0
517.0,527.0,511.0,561.0,516.0
503.0,518.0,497.0,547.0,533.0
495.0,510.0,490.0,528.0,542.0
494.0,505.0,489.0,511.0,541.0
500.0,502.0,491.0,495.0,530.0
498.0,491.0,494.0,481.0,525.0
504.0,489.0,501.0,475.0,499.0
507.0,485.0,507.0,468.0,499.0
505.0,481.0,509.0,465.0,515.0
509.0,484.0,518.0,471.0,529.0
511.0,490.0,526.0,487.0,514.0
523.0,498.0,534.0,504.0,499.0
532.0,509.0,535.0,522.0,486.0
540.0,524.0,541.0,548.0,497.0
536.0,529.0,536.0,563.0,502.0
531.0,534.0,531.0,571.0,507.0
521.0,529.0,520.0,569.0,519.0
516.0,528.0,510.0,560.0,521.0
503.0,518.0,495.0,540.0,539.0
496.0,508.0,490.0,521.0,543.0
496.0,501.0,486.0,503.0,533.0
500.0,497.0,492.0,491.0,526.0
502.0,491.0,495.0,478.0,517.0
503.0,488.0,502.0,473.0,517.0
503.0,483.0,506.0,466.0,515.0
506.0,479.0,507.0,463.0,504.0
514.0,485.0,519.0,474.0,502.0
521.0,494.0,528.0,492.0,503.0
525.0,499.0,529.0,506.0,497.0
533.0,514.0,537.0,534.0,492.0
536.0,525.0,542.0,552.0,490.0
533.0,531.0,536.0,566.0,492.0
526.0,534.0,528.0,571.0,505.0
515.0,531.0,516.0,564.0,514.0
505.0,522.0,502.0,554.0,524.0
497.0,514.0,492.0,535.0,527.0
498.0,508.0,489.0,516.0,531.0
491.0,499.0,487.0,498.0,535.0
496.0,495.0,493.0,485.0,531.0
499.0,491.0,497.0,476.0,528.0
503.0,488.0,506.0,471.0,523.0
507.0,483.0,511.0,463.0,519.0
505.0,481.0,515.0,463.0,523.0
516.0,491.0,519.0,476.0,507.0
527.0,494.0,527.0,494.0,502.0
532.0,507.0,534.0,516.0,496.0
537.0,517.0,537.0,537.0,489.0
536.0,527.0,538.0,557.0,490.0
534.0,534.0,534.0,569.0,497.0
522.0,530.0,524.0,567.0,506.0
515.0,529.0,514.0,563.0,518.0
508.0,520.0,502.0,547.0,530.0
496.0,512.0,489.0,530.0,534.0
494.0,504.0,487.0,514.0,535.0
495.0,499.0,491.0,495.0,531.0
497.0,493.0,495.0,482.0,527.0
503.0,490.0,503.0,476.0,520.0
508.0,487.0,507.0,470.0,517.0
508.0,482.0,509.0,465.0,519.0
515.0,485.0,517.0,471.0,513.0
520.0,490.0,524.0,487.0,507.0
523.0,498.0,527.0,503.0,499.0
534.0,509.0,535.0,523.0,492.0
537.0,521.0,540.0,546.0,493.0
534.0,528.0,537.0,561.0,495.0
535.0,534.0,531.0,572.0,502.0
524.0,531.0,522.0,565.0,518.0
514.0,527.0,510.0,561.0,529.0
498.0,517.0,496.0,543.0,536.0
489.0,510.0,491.0,524.0,538.0
485.0,504.0,488.0,505.0,535.0
492.0,498.0,493.0,491.0,536.0
499.0,491.0,496.0,478.0,529.0
503.0,486.0,502.0,473.0,518.0
503.0,482.0,506.0,466.0,502.0
508.0,479.0,507.0,464.0,494.0
512.0,483.0,516.0,471.0,489.0
515.0,491.0,526.0,489.0,490.0
521.0,505.0,531.0,509.0,505.0
530.0,516.0,539.0,530.0,512.0
536.0,524.0,538.0,550.0,503.0
538.0,531.0,536.0,565.0,491.0
533.0,533.0,527.0,568.0,501.0
523.0,529.0,517.0,564.0,505.0
508.0,523.0,503.0,553.0,521.0
497.0,514.0,494.0,536.0,529.0
491.0,507.0,490.0,517.0,532.0
495.0,501.0,490.0,500.0,534.0
499.0,494.0,493.0,489.0,530.0
499.0,486.0,497.0,478.0,526.0
503.0,486.0,505.0,473.0,518.0
505.0,481.0,508.0,466.0,517.0
505.0,480.0,511.0,464.0,515.0
512.0,485.0,521.0,476.0,504.0
516.0,495.0,526.0,494.0,499.0
525.0,504.0,534.0,515.0,497.0
529.0,515.0,538.0,537.0,496.0
532.0,526.0,540.0,556.0,499.0
533.0,533.0,535.0,570.0,505.0
521.0,532.0,525.0,569.0,512.0
513.0,529.0,515.0,563.0,523.0
500.0,519.0,498.0,548.0,530.0
495.0,513.0,491.0,531.0,536.0
497.0,506.0,488.0,512.0,537.0
493.0,502.0,490.0,495.0,533.0
498.0,494.0,494.0,482.0,533.0
503.0,491.0,502.0,476.0,520.0
507.0,485.0,505.0,467.0,508.0
506.0,479.0,508.0,461.0,507.0
514.0,482.0,518.0,467.0,496.0
522.0,487.0,520.0,478.0,493.0
524.0,496.0,528.0,498.0,494.0
532.0,509.0,535.0,522.0,490.0
537.0,521.0,540.0,544.0,491.0
534.0,528.0,535.0,558.0,496.0
535.0,534.0,529.0,569.0,504.0
520.0,529.0,520.0,564.0,514.0
513.0,527.0,509.0,560.0,524.0
503.0,520.0,497.0,543.0,536.0
495.0,510.0,490.0,527.0,541.0
493.0,503.0,487.0,505.0,532.0
494.0,498.0,490.0,491.0,530.0
494.0,491.0,496.0,478.0,520.0
501.0,490.0,503.0,472.0,516.0
504.0,486.0,508.0,467.0,517.0
506.0,482.0,510.0,464.0,506.0
515.0,486.0,520.0,474.0,498.0
523.0,494.0,527.0,489.0,496.0
527.0,501.0,531.0,506.0,494.0
534.0,514.0,540.0,528.0,491.0
534.0,524.0,539.0,550.0,495.0
534.0,533.0,540.0,562.0,509.0
526.0,533.0,532.0,568.0,513.0
516.0,530.0,518.0,565.0,513.0
506.0,524.0,500.0,553.0,523.0
495.0,515.0,493.0,535.0,533.0
492.0,508.0,489.0,518.0,535.0
498.0,502.0,489.0,500.0,528.0
501.0,495.0,497.0,486.0,522.0
500.0,489.0,498.0,475.0,522.0
505.0,486.0,504.0,468.0,517.0
505.0,482.0,506.0,462.0,526.0
509.0,480.0,511.0,463.0,520.0
517.0,487.0,520.0,481.0,503.0
525.0,494.0,527.0,492.0,498.0
528.0,505.0,533.0,512.0,499.0
529.0,517.0,538.0,537.0,492.0
532.0,529.0,540.0,557.0,492.0
528.0,534.0,536.0,568.0,505.0
519.0,532.0,524.0,568.0,512.0
512.0,527.0,512.0,562.0,521.0
502.0,520.0,498.0,548.0,535.0
498.0,512.0,490.0,529.0,530.0
497.0,507.0,489.0,513.0,529.0
495.0,498.0,489.0,494.0,518.0
498.0,493.0,492.0,481.0,515.0
504.0,490.0,501.0,475.0,516.0
505.0,489.0,507.0,467.0,512.0
506.0,482.0,509.0,465.0,520.0
511.0,484.0,516.0,468.0,514.0
518.0,489.0,523.0,481.0,506.0
523.0,497.0,528.0,497.0,500.0
531.0,510.0,535.0,519.0,496.0
540.0,524.0,541.0,544.0,496.0
539.0,532.0,539.0,561.0,495.0
535.0,535.0,532.0,571.0,498.0
524.0,532.0,524.0,569.0,502.0
516.0,526.0,510.0,559.0,508.0
493.0,515.0,495.0,541.0,531.0
486.0,510.0,490.0,524.0,547.0
489.0,503.0,488.0,505.0,542.0
495.0,497.0,491.0,490.0,528.0
503.0,492.0,495.0,478.0,519.0
505.0,489.0,503.0,476.0,516.0
507.0,486.0,508.0,467.0,520.0
506.0,480.0,510.0,466.0,519.0
516.0,486.0,520.0,476.0,509.0
527.0,492.0,526.0,487.0,508.0
532.0,506.0,529.0,505.0,504.0
537.0,512.0,536.0,528.0,496.0
535.0,525.0,540.0,549.0,490.0
526.0,536.0,536.0,565.0,492.0
527.0,534.0,529.0,571.0,504.0
509.0,532.0,519.0,566.0,508.0
499.0,525.0,505.0,560.0,524.0
492.0,516.0,494.0,537.0,533.0
495.0,509.0,490.0,520.0,533.0
494.0,501.0,489.0,505.0,536.0
494.0,497.0,493.0,489.0,529.0
497.0,493.0,497.0,476.0,525.0
508.0,488.0,508.0,469.0,517.0
507.0,485.0,509.0,469.0,508.0
509.0,482.0,511.0,464.0,512.0
517.0,487.0,521.0,476.0,511.0
524.0,496.0,529.0,493.0,509.0
532.0,507.0,534.0,514.0,506.0
535.0,518.0,538.0,535.0,498.0
538.0,527.0,538.0,555.0,485.0
535.0,533.0,533.0,569.0,485.0
517.0,533.0,523.0,575.0,501.0
514.0,530.0,515.0,567.0,511.0
502.0,520.0,498.0,548.0,523.0
492.0,513.0,493.0,533.0,531.0
489.0,508.0,491.0,513.0,531.0
494.0,500.0,491.0,497.0,530.0
499.0,498.0,493.0,482.0,527.0
506.0,490.0,500.0,474.0,518.0
506.0,487.0,504.0,467.0,512.0
510.0,482.0,504.0,462.0,517.0
511.0,481.0,512.0,466.0,514.0
520.0,488.0,522.0,480.0,505.0
525.0,498.0,529.0,498.0,502.0
534.0,511.0,537.0,520.0,498.0
537.0,520.0,539.0,541.0,490.0
533.0,529.0,538.0,559.0,496.0
530.0,535.0,533.0,571.0,505.0
520.0,532.0,523.0,563.0,513.0
513.0,530.0,511.0,562.0,514.0
501.0,518.0,497.0,543.0,525.0
497.0,509.0,488.0,523.0,533.0
496.0,505.0,488.0,511.0,534.0
497.0,496.0,491.0,491.0,527.0
495.0,488.0,493.0,477.0,526.0
502.0,489.0,502.0,472.0,518.0
509.0,486.0,508.0,468.0,518.0
506.0,479.0,509.0,463.0,521.0
513.0,484.0,517.0,473.0,505.0
522.0,492.0,525.0,486.0,496.0
528.0,500.0,531.0,505.0,497.0
538.0,513.0,536.0,529.0,491.0
534.0,522.0,539.0,549.0,492.0
533.0,531.0,536.0,564.0,494.0
528.0,533.0,527.0,571.0,501.0
518.0,533.0,517.0,565.0,511.0
509.0,528.0,505.0,555.0,519.0
500.0,517.0,495.0,537.0,535.0
497.0,509.0,490.0,520.0,536.0
498.0,502.0,489.0,502.0,529.0
500.0,497.0,493.0,488.0,522.0
502.0,493.0,495.0,476.0,522.0
509.0,486.0,504.0,470.0,508.0
509.0,484.0,509.0,468.0,509.0
507.0,480.0,510.0,463.0,514.0
519.0,486.0,520.0,474.0,504.0
528.0,493.0,528.0,492.0,498.0
532.0,503.0,532.0,510.0,503.0
535.0,514.0,537.0,533.0,500.0
532.0,525.0,539.0,555.0,494.0
523.0,531.0,536.0,569.0,495.0
520.0,532.0,527.0,570.0,508.0
508.0,529.0,517.0,564.0,515.0
499.0,520.0,499.0,549.0,524.0
493.0,512.0,490.0,531.0,534.0
491.0,507.0,489.0,514.0,535.0
497.0,504.0,490.0,499.0,534.0
499.0,494.0,493.0,483.0,534.0
500.0,490.0,499.0,474.0,531.0
508.0,490.0,505.0,468.0,518.0
506.0,481.0,508.0,462.0,517.0
506.0,481.0,514.0,465.0,514.0
514.0,489.0,525.0,479.0,504.0
520.0,497.0,533.0,498.0,498.0
531.0,507.0,537.0,517.0,489.0
535.0,524.0,539.0,547.0,483.0
535.0,528.0,537.0,560.0,488.0
531.0,534.0,533.0,570.0,497.0
521.0,537.0,522.0,569.0,511.0
515.0,529.0,514.0,561.0,521.0
500.0,519.0,499.0,545.0,534.0
493.0,508.0,491.0,527.0,539.0
493.0,504.0,489.0,506.0,533.0
498.0,500.0,492.0,492.0,530.0
503.0,492.0,493.0,479.0,528.0
505.0,487.0,500.0,470.0,518.0
506.0,486.0,507.0,468.0,518.0
505.0,481.0,509.0,463.0,516.0
511.0,485.0,517.0,470.0,511.0
520.0,492.0,527.0,486.0,507.0
525.0,499.0,531.0,503.0,504.0
536.0,512.0,537.0,526.0,503.0
542.0,524.0,540.0,548.0,499.0
541.0,529.0,536.0,563.0,502.0
532.0,531.0,526.0,567.0,504.0
524.0,530.0,522.0,564.0,515.0
509.0,526.0,508.0,558.0,521.0
490.0,516.0,495.0,541.0,523.0
486.0,507.0,488.0,518.0,528.0
491.0,501.0,489.0,502.0,531.0
496.0,497.0,493.0,488.0,530.0
500.0,490.0,497.0,477.0,525.0
503.0,491.0,504.0,470.0,517.0
505.0,483.0,508.0,466.0,514.0
506.0,483.0,508.0,462.0,512.0
514.0,485.0,519.0,473.0,507.0
520.0,497.0,527.0,491.0,507.0
525.0,507.0,533.0,510.0,509.0
532.0,516.0,538.0,537.0,501.0
535.0,525.0,539.0,557.0,494.0
535.0,533.0,535.0,566.0,487.0
528.0,534.0,527.0,571.0,502.0
517.0,530.0,516.0,563.0,508.0
505.0,521.0,504.0,554.0,517.0
494.0,513.0,492.0,532.0,540.0
496.0,507.0,491.0,515.0,538.0
496.0,499.0,490.0,497.0,533.0
498.0,493.0,492.0,483.0,524.0
498.0,491.0,496.0,473.0,518.0
509.0,487.0,506.0,468.0,516.0
511.0,482.0,508.0,463.0,517.0
514.0,481.0,513.0,465.0,513.0
522.0,488.0,522.0,478.0,510.0
528.0,496.0,529.0,497.0,505.0
530.0,505.0,534.0,517.0,502.0
531.0,521.0,542.0,543.0,489.0
528.0,527.0,539.0,560.0,484.0
528.0,532.0,534.0,570.0,486.0
521.0,531.0,524.0,569.0,499.0
512.0,531.0,514.0,562.0,509.0
496.0,517.0,498.0,547.0,531.0
494.0,510.0,490.0,526.0,546.0
491.0,503.0,488.0,508.0,536.0
496.0,498.0,495.0,493.0,527.0
500.0,492.0,492.0,479.0,523.0
507.0,490.0,501.0,473.0,516.0
516.0,486.0,510.0,468.0,513.0
509.0,481.0,509.0,464.0,517.0
512.0,485.0,518.0,471.0,517.0
520.0,490.0,527.0,485.0,506.0
526.0,498.0,529.0,502.0,497.0
531.0,509.0,536.0,525.0,495.0
541.0,526.0,539.0,548.0,491.0
533.0,530.0,538.0,564.0,495.0
526.0,531.0,530.0,570.0,502.0
517.0,530.0,520.0,565.0,514.0
508.0,525.0,508.0,557.0,519.0
498.0,516.0,496.0,540.0,530.0
496.0,511.0,491.0,522.0,534.0
496.0,501.0,487.0,501.0,530.0
502.0,496.0,491.0,488.0,528.0
502.0,490.0,497.0,480.0,527.0
504.0,488.0,504.0,472.0,519.0
505.0,483.0,508.0,467.0,513.0
505.0,479.0,510.0,463.0,513.0
515.0,484.0,523.0,474.0,507.0
524.0,493.0,528.0,491.0,502.0
531.0,504.0,533.0,510.0,500.0
539.0,518.0,538.0,532.0,494.0
536.0,525.0,540.0,555.0,493.0
528.0,529.0,535.0,572.0,495.0
521.0,533.0,531.0,571.0,509.0
516.0,530.0,518.0,564.0,521.0
502.0,521.0,502.0,551.0,529.0
496.0,514.0,494.0,534.0,536.0
495.0,507.0,490.0,517.0,538.0
497.0,502.0,490.0,499.0,536.0
499.0,495.0,495.0,485.0,530.0
500.0,489.0,499.0,475.0,523.0
503.0,487.0,506.0,470.0,518.0
503.0,482.0,508.0,469.0,514.0
504.0,481.0,517.0,466.0,507.0
514.0,488.0,522.0,479.0,502.0
524.0,496.0,529.0,499.0,497.0
532.0,507.0,535.0,517.0,492.0
537.0,520.0,540.0,541.0,489.0
535.0,526.0,538.0,558.0,493.0
533.0,533.0,533.0,565.0,497.0
525.0,530.0,527.0,568.0,508.0
517.0,530.0,514.0,563.0,515.0
500.0,520.0,498.0,545.0,531.0
493.0,513.0,488.0,526.0,535.0
493.0,505.0,489.0,510.0,531.0
495.0,499.0,490.0,493.0,528.0
497.0,493.0,493.0,480.0,525.0
505.0,491.0,501.0,475.0,521.0
508.0,487.0,509.0,472.0,520.0
512.0,482.0,508.0,462.0,524.0
524.0,485.0,519.0,468.0,516.0
527.0,491.0,525.0,483.0,511.0
529.0,498.0,528.0,501.0,503.0
535.0,510.0,536.0,523.0,498.0
537.0,525.0,540.0,549.0,494.0
528.0,528.0,536.0,562.0,494.0
521.0,532.0,529.0,571.0,502.0
514.0,531.0,519.0,572.0,509.0
501.0,525.0,508.0,561.0,520.0
494.0,519.0,494.0,541.0,527.0
488.0,509.0,490.0,523.0,525.0
490.0,503.0,489.0,505.0,531.0
496.0,496.0,491.0,489.0,525.0
501.0,490.0,496.0,478.0,523.0
505.0,487.0,504.0,472.0,515.0
508.0,484.0,507.0,470.0,516.0
509.0,480.0,509.0,466.0,518.0
516.0,484.0,518.0,472.0,512.0
524.0,493.0,523.0,490.0,509.0
529.0,503.0,532.0,509.0,506.0
535.0,516.0,539.0,532.0,500.0
534.0,525.0,540.0,553.0,499.0
530.0,532.0,537.0,569.0,499.0
523.0,532.0,526.0,569.0,506.0
514.0,529.0,517.0,570.0,508.0
505.0,521.0,502.0,553.0,514.0
493.0,512.0,491.0,533.0,526.0
492.0,506.0,489.0,517.0,531.0
492.0,502.0,487.0,498.0,534.0
496.0,494.0,493.0,484.0,532.0
500.0,491.0,499.0,475.0,522.0
504.0,491.0,505.0,469.0,521.0
507.0,482.0,507.0,463.0,514.0
507.0,484.0,510.0,463.0,509.0
517.0,488.0,521.0,474.0,503.0
524.0,496.0,529.0,496.0,504.0
529.0,507.0,533.0,516.0,503.0
537.0,520.0,540.0,539.0,495.0
535.0,527.0,537.0,558.0,495.0
531.0,534.0,534.0,569.0,501.0
521.0,536.0,522.0,569.0,512.0
514.0,530.0,515.0,563.0,525.0
498.0,520.0,498.0,546.0,535.0
492.0,513.0,490.0,528.0,541.0
492.0,508.0,487.0,509.0,535.0
497.0,500.0,489.0,495.0,531.0
496.0,495.0,492.0,480.0,530.0
502.0,489.0,501.0,474.0,523.0
505.0,487.0,505.0,466.0,521.0
504.0,480.0,508.0,463.0,515.0
511.0,483.0,515.0,469.0,504.0
523.0,492.0,526.0,487.0,497.0
526.0,498.0,529.0,501.0,499.0
530.0,508.0,535.0,523.0,495.0
532.0,522.0,541.0,547.0,495.0
530.0,529.0,537.0,563.0,495.0
527.0,534.0,532.0,572.0,502.0
518.0,530.0,520.0,567.0,511.0
509.0,526.0,511.0,559.0,521.0
501.0,517.0,497.0,544.0,532.0
493.0,509.0,489.0,522.0,533.0
491.0,502.0,488.0,504.0,535.0
496.0,497.0,493.0,490.0,528.0
502.0,494.0,494.0,478.0,526.0
507.0,487.0,503.0,471.0,522.0
511.0,485.0,508.0,466.0,510.0
511.0,480.0,509.0,463.0,511.0
517.0,487.0,518.0,471.0,507.0
523.0,492.0,530.0,488.0,504.0
522.0,498.0,531.0,505.0,498.0
534.0,512.0,535.0,529.0,494.0
537.0,525.0,541.0,552.0,496.0
530.0,531.0,537.0,569.0,497.0
522.0,531.0,528.0,572.0,507.0
517.0,527.0,517.0,563.0,516.0
503.0,520.0,503.0,554.0,529.0
497.0,512.0,494.0,535.0,535.0
494.0,506.0,489.0,518.0,532.0
491.0,500.0,489.0,497.0,530.0
498.0,494.0,493.0,485.0,525.0
500.0,488.0,498.0,475.0,522.0
507.0,488.0,506.0,470.0,519.0
507.0,484.0,510.0,466.0,518.0
507.0,482.0,513.0,465.0,515.0
517.0,490.0,521.0,477.0,509.0
522.0,495.0,528.0,494.0,498.0
531.0,507.0,536.0,516.0,494.0
534.0,518.0,539.0,538.0,491.0
535.0,529.0,540.0,558.0,494.0
535.0,532.0,534.0,569.0,497.0
526.0,532.0,524.0,568.0,510.0
514.0,533.0,514.0,563.0,521.0
504.0,523.0,498.0,547.0,539.0
500.0,515.0,492.0,530.0,540.0
496.0,504.0,488.0,509.0,537.0
498.0,500.0,491.0,495.0,531.0
499.0,492.0,494.0,481.0,525.0
501.0,489.0,501.0,474.0,517.0
506.0,486.0,508.0,469.0,513.0
504.0,482.0,513.0,462.0,515.0
511.0,485.0,517.0,469.0,507.0
517.0,490.0,526.0,483.0,503.0
521.0,496.0,530.0,497.0,498.0
531.0,510.0,536.0,522.0,494.0
535.0,520.0,540.0,544.0,493.0
534.0,529.0,537.0,561.0,495.0
528.0,533.0,532.0,571.0,505.0
520.0,531.0,521.0,566.0,513.0
511.0,527.0,511.0,560.0,522.0
497.0,518.0,497.0,543.0,531.0
493.0,509.0,489.0,523.0,533.0
494.0,503.0,490.0,510.0,536.0
498.0,498.0,489.0,488.0,526.0
498.0,490.0,493.0,475.0,523.0
505.0,490.0,502.0,471.0,517.0
509.0,486.0,508.0,467.0,516.0
508.0,481.0,509.0,462.0,518.0
516.0,485.0,518.0,472.0,513.0
519.0,492.0,529.0,489.0,504.0
523.0,500.0,532.0,508.0,499.0
533.0,513.0,536.0,530.0,496.0
537.0,525.0,540.0,551.0,489.0
535.0,532.0,537.0,564.0,494.0
525.0,536.0,528.0,575.0,504.0
517.0,529.0,517.0,565.0,517.0
508.0,522.0,500.0,552.0,532.0
494.0,516.0,494.0,540.0,543.0
491.0,511.0,491.0,519.0,542.0
494.0,502.0,493.0,500.0,538.0
492.0,497.0,491.0,484.0,535.0
499.0,490.0,498.0,479.0,528.0
503.0,487.0,503.0,470.0,516.0
508.0,484.0,509.0,466.0,505.0
513.0,481.0,512.0,464.0,505.0
517.0,487.0,521.0,477.0,496.0
524.0,494.0,528.0,494.0,496.0
523.0,503.0,531.0,512.0,495.0
536.0,521.0,537.0,536.0,492.0
537.0,525.0,537.0,555.0,486.0
533.0,533.0,534.0,569.0,498.0
522.0,533.0,524.0,569.0,510.0
515.0,530.0,515.0,564.0,520.0
499.0,521.0,499.0,548.0,534.0
493.0,514.0,492.0,531.0,541.0
491.0,503.0,487.0,511.0,541.0
493.0,500.0,490.0,495.0,540.0
496.0,494.0,493.0,481.0,533.0
503.0,490.0,500.0,478.0,519.0
504.0,489.0,507.0,469.0,509.0
506.0,481.0,508.0,465.0,511.0
515.0,485.0,520.0,468.0,501.0
520.0,494.0,522.0,481.0,503.0
522.0,497.0,528.0,498.0,509.0
534.0,509.0,533.0,520.0,498.0
536.0,522.0,540.0,545.0,491.0
533.0,528.0,540.0,561.0,482.0
529.0,533.0,533.0,570.0,491.0
521.0,532.0,521.0,569.0,502.0
512.0,528.0,511.0,562.0,516.0
498.0,518.0,495.0,545.0,532.0
493.0,508.0,491.0,525.0,534.0
499.0,504.0,491.0,509.0,537.0
496.0,498.0,493.0,491.0,527.0
497.0,491.0,494.0,479.0,531.0
503.0,489.0,503.0,471.0,529.0
505.0,485.0,508.0,467.0,519.0
510.0,480.0,512.0,463.0,517.0
512.0,483.0,520.0,473.0,506.0
523.0,494.0,524.0,487.0,507.0
524.0,499.0,528.0,503.0,506.0
533.0,513.0,536.0,529.0,493.0
537.0,524.0,539.0,550.0,489.0
539.0,534.0,536.0,566.0,492.0
533.0,535.0,530.0,573.0,497.0
517.0,530.0,518.0,565.0,512.0
500.0,521.0,503.0,553.0,527.0
489.0,514.0,493.0,538.0,529.0
490.0,507.0,488.0,518.0,533.0
492.0,500.0,488.0,502.0,532.0
498.0,496.0,493.0,487.0,530.0
499.0,490.0,496.0,480.0,528.0
504.0,488.0,508.0,474.0,518.0
507.0,482.0,507.0,465.0,509.0
511.0,482.0,506.0,462.0,506.0
519.0,484.0,518.0,474.0,495.0
527.0,494.0,527.0,495.0,493.0
530.0,505.0,533.0,514.0,496.0
531.0,518.0,538.0,537.0,493.0
539.0,529.0,540.0,558.0,496.0
532.0,532.0,533.0,569.0,500.0
526.0,533.0,526.0,570.0,508.0
517.0,530.0,514.0,568.0,513.0
506.0,519.0,498.0,548.0,527.0
499.0,510.0,490.0,530.0,532.0
497.0,507.0,489.0,514.0,534.0
496.0,498.0,488.0,496.0,530.0
496.0,491.0,491.0,483.0,530.0
497.0,487.0,498.0,474.0,524.0
503.0,487.0,505.0,469.0,515.0
505.0,483.0,508.0,463.0,517.0
511.0,483.0,515.0,466.0,509.0
517.0,489.0,523.0,482.0,503.0
528.0,498.0,532.0,500.0,500.0
533.0,510.0,535.0,522.0,495.0
539.0,520.0,538.0,543.0,493.0
535.0,527.0,536.0,559.0,500.0
532.0,534.0,532.0,571.0,509.0
522.0,532.0,521.0,569.0,514.0
514.0,528.0,515.0,567.0,520.0
497.0,517.0,498.0,545.0,533.0
493.0,511.0,494.0,526.0,531.0
492.0,504.0,489.0,509.0,531.0
495.0,498.0,490.0,494.0,530.0
500.0,494.0,495.0,480.0,526.0
503.0,488.0,502.0,476.0,522.0
505.0,483.0,507.0,468.0,515.0
504.0,479.0,506.0,462.0,515.0
514.0,482.0,515.0,469.0,506.0
521.0,490.0,524.0,485.0,500.0
525.0,500.0,530.0,504.0,498.0
531.0,511.0,536.0,527.0,493.0
536.0,523.0,540.0,550.0,492.0
535.0,532.0,537.0,569.0,495.0
526.0,531.0,528.0,571.0,503.0
521.0,531.0,523.0,568.0,512.0
507.0,524.0,505.0,556.0,526.0
500.0,516.0,494.0,536.0,533.0
496.0,508.0,489.0,520.0,537.0
496.0,502.0,489.0,502.0,536.0
498.0,494.0,491.0,487.0,533.0
500.0,489.0,497.0,476.0,527.0
507.0,488.0,505.0,472.0,519.0
510.0,485.0,509.0,466.0,515.0
508.0,484.0,508.0,463.0,515.0
515.0,485.0,519.0,474.0,508.0
521.0,499.0,528.0,492.0,502.0
529.0,505.0,533.0,513.0,498.0
534.0,516.0,534.0,534.0,491.0
536.0,527.0,538.0,555.0,493.0
534.0,534.0,535.0,569.0,501.0
522.0,531.0,523.0,568.0,508.0
516.0,530.0,519.0,562.0,519.0
504.0,522.0,500.0,550.0,532.0
496.0,513.0,492.0,532.0,537.0
494.0,507.0,488.0,513.0,538.0
495.0,500.0,489.0,493.0,532.0
496.0,498.0,492.0,483.0,527.0
503.0,491.0,500.0,475.0,522.0
506.0,486.0,505.0,470.0,519.0
507.0,482.0,507.0,466.0,516.0
509.0,486.0,513.0,466.0,513.0
518.0,489.0,522.0,480.0,506.0
524.0,497.0,528.0,497.0,506.0
534.0,510.0,540.0,519.0,502.0
535.0,521.0,540.0,542.0,497.0
537.0,530.0,538.0,560.0,500.0
531.0,533.0,532.0,568.0,499.0
528.0,533.0,524.0,567.0,505.0
514.0,529.0,512.0,561.0,512.0
503.0,520.0,497.0,544.0,522.0
498.0,512.0,490.0,525.0,530.0
496.0,503.0,487.0,508.0,529.0
496.0,499.0,491.0,490.0,530.0
498.0,492.0,494.0,477.0,530.0
501.0,488.0,500.0,472.0,522.0
503.0,489.0,506.0,468.0,516.0
505.0,482.0,509.0,463.0,518.0
514.0,485.0,518.0,471.0,513.0
526.0,495.0,526.0,487.0,510.0
527.0,499.0,529.0,502.0,504.0
538.0,515.0,533.0,525.0,497.0
539.0,524.0,540.0,550.0,492.0
533.0,531.0,537.0,565.0,501.0
525.0,533.0,528.0,570.0,506.0
518.0,532.0,517.0,565.0,514.0
501.0,524.0,504.0,556.0,526.0
492.0,515.0,493.0,539.0,528.0
492.0,509.0,490.0,520.0,529.0
494.0,502.0,487.0,502.0,526.0
500.0,497.0,493.0,487.0,525.0
504.0,488.0,493.0,473.0,522.0
511.0,485.0,499.0,467.0,519.0
506.0,483.0,505.0,466.0,525.0
505.0,481.0,508.0,461.0,525.0
510.0,487.0,519.0,474.0,511.0
523.0,497.0,528.0,493.0,500.0
532.0,504.0,533.0,512.0,478.0
540.0,516.0,536.0,534.0,468.0
538.0,528.0,538.0,554.0,483.0
534.0,535.0,536.0,571.0,478.0
518.0,532.0,526.0,566.0,506.0
511.0,530.0,515.0,563.0,526.0
503.0,523.0,500.0,550.0,545.0
494.0,515.0,494.0,531.0,547.0
493.0,508.0,489.0,515.0,539.0
495.0,500.0,488.0,502.0,534.0
497.0,492.0,490.0,482.0,526.0
501.0,489.0,497.0,473.0,522.0
505.0,486.0,503.0,467.0,515.0
506.0,482.0,507.0,464.0,515.0
508.0,482.0,513.0,466.0,510.0
517.0,486.0,521.0,479.0,500.0
525.0,497.0,528.0,497.0,497.0
532.0,508.0,535.0,520.0,494.0
537.0,521.0,540.0,541.0,497.0
535.0,527.0,536.0,559.0,500.0
532.0,533.0,531.0,567.0,503.0
523.0,534.0,523.0,569.0,514.0
514.0,527.0,512.0,562.0,521.0
497.0,517.0,494.0,543.0,535.0
491.0,510.0,489.0,526.0,537.0
495.0,505.0,490.0,510.0,537.0
493.0,500.0,490.0,492.0,534.0
498.0,492.0,494.0,482.0,531.0
503.0,490.0,502.0,474.0,521.0
505.0,490.0,506.0,466.0,514.0
505.0,480.0,508.0,462.0,513.0
514.0,483.0,516.0,469.0,512.0
520.0,489.0,523.0,482.0,511.0
528.0,499.0,529.0,502.0,510.0
537.0,511.0,536.0,525.0,506.0
542.0,524.0,540.0,548.0,505.0
539.0,530.0,535.0,562.0,501.0
529.0,533.0,529.0,569.0,501.0
515.0,529.0,519.0,565.0,501.0
505.0,524.0,505.0,555.0,513.0
494.0,516.0,494.0,540.0,525.0
490.0,508.0,489.0,522.0,525.0
488.0,498.0,487.0,501.0,528.0
494.0,495.0,490.0,487.0,522.0
498.0,489.0,495.0,475.0,523.0
505.0,489.0,504.0,471.0,518.0
509.0,485.0,509.0,467.0,513.0
509.0,482.0,511.0,463.0,519.0
517.0,487.0,519.0,474.0,510.0
524.0,499.0,525.0,489.0,502.0
529.0,503.0,529.0,507.0,495.0
535.0,517.0,539.0,534.0,493.0
540.0,527.0,540.0,553.0,493.0
533.0,533.0,535.0,569.0,499.0
522.0,534.0,525.0,572.0,505.0
518.0,532.0,519.0,567.0,510.0
501.0,522.0,501.0,551.0,527.0
495.0,515.0,493.0,534.0,534.0
496.0,509.0,490.0,517.0,534.0
500.0,501.0,492.0,502.0,531.0
501.0,496.0,490.0,482.0,524.0
501.0,491.0,498.0,474.0,519.0
507.0,487.0,505.0,468.0,518.0
512.0,484.0,510.0,465.0,516.0
511.0,483.0,513.0,465.0,514.0
518.0,487.0,521.0,478.0,509.0
525.0,495.0,529.0,498.0,500.0
530.0,507.0,535.0,518.0,495.0
536.0,521.0,538.0,540.0,490.0
534.0,529.0,538.0,559.0,492.0
532.0,535.0,534.0,569.0,500.0
521.0,532.0,522.0,569.0,509.0
513.0,527.0,513.0,561.0,519.0
504.0,518.0,496.0,544.0,531.0
494.0,510.0,490.0,526.0,536.0
494.0,504.0,489.0,510.0,534.0
495.0,498.0,490.0,495.0,532.0
497.0,491.0,493.0,479.0,524.0
504.0,488.0,503.0,474.0,518.0
505.0,484.0,506.0,466.0,514.0
504.0,480.0,508.0,465.0,513.0
511.0,484.0,516.0,469.0,505.0
519.0,495.0,526.0,486.0,502.0
522.0,498.0,528.0,502.0,500.0
534.0,511.0,541.0,524.0,500.0
535.0,522.0,539.0,545.0,506.0
535.0,536.0,537.0,563.0,511.0
530.0,532.0,529.0,576.0,509.0
526.0,531.0,521.0,565.0,513.0
512.0,526.0,508.0,558.0,522.0
502.0,518.0,496.0,540.0,529.0
499.0,511.0,490.0,521.0,537.0
496.0,503.0,492.0,501.0,538.0
492.0,499.0,493.0,488.0,532.0
500.0,489.0,495.0,477.0,517.0
504.0,487.0,503.0,469.0,508.0
511.0,486.0,512.0,466.0,511.0
506.0,482.0,511.0,464.0,515.0
511.0,485.0,519.0,473.0,514.0
519.0,493.0,526.0,489.0,504.0
526.0,503.0,532.0,508.0,499.0
533.0,516.0,538.0,528.0,495.0
537.0,527.0,541.0,554.0,493.0
534.0,534.0,535.0,571.0,494.0
523.0,532.0,526.0,569.0,502.0
517.0,532.0,515.0,564.0,514.0
510.0,525.0,500.0,551.0,524.0
500.0,515.0,493.0,535.0,534.0
496.0,505.0,488.0,516.0,533.0
496.0,498.0,488.0,498.0,529.0
502.0,498.0,492.0,485.0,523.0
502.0,488.0,498.0,475.0,519.0
505.0,486.0,504.0,471.0,514.0
507.0,482.0,509.0,465.0,520.0
508.0,481.0,513.0,465.0,519.0
517.0,488.0,521.0,478.0,511.0
526.0,498.0,527.0,495.0,501.0
534.0,507.0,535.0,517.0,493.0
539.0,520.0,541.0,541.0,493.0
538.0,528.0,541.0,557.0,493.0
534.0,532.0,533.0,568.0,496.0
529.0,532.0,523.0,568.0,506.0
514.0,528.0,514.0,562.0,513.0
499.0,518.0,498.0,546.0,524.0
491.0,514.0,489.0,527.0,534.0
491.0,504.0,492.0,509.0,535.0
494.0,497.0,490.0,492.0,527.0
498.0,492.0,494.0,479.0,521.0
503.0,489.0,501.0,472.0,514.0
505.0,486.0,508.0,468.0,511.0
505.0,481.0,510.0,464.0,513.0
508.0,481.0,517.0,470.0,513.0
517.0,490.0,524.0,484.0,507.0
525.0,498.0,529.0,500.0,501.0
533.0,510.0,536.0,524.0,497.0
532.0,521.0,539.0,544.0,493.0
534.0,530.0,538.0,561.0,495.0
530.0,534.0,535.0,568.0,502.0
524.0,534.0,520.0,566.0,506.0
513.0,525.0,510.0,559.0,517.0
502.0,517.0,496.0,541.0,528.0
496.0,509.0,489.0,521.0,530.0
494.0,500.0,489.0,503.0,532.0
495.0,497.0,493.0,490.0,529.0
498.0,489.0,497.0,480.0,526.0
504.0,487.0,503.0,471.0,514.0
505.0,484.0,508.0,463.0,516.0
503.0,481.0,509.0,461.0,515.0
510.0,485.0,519.0,472.0,508.0
521.0,494.0,529.0,490.0,503.0
524.0,500.0,530.0,506.0,499.0
530.0,511.0,536.0,529.0,496.0
533.0,526.0,541.0,553.0,494.0
532.0,531.0,536.0,566.0,495.0
526.0,534.0,528.0,576.0,504.0
515.0,529.0,518.0,565.0,518.0
506.0,522.0,500.0,551.0,533.0
498.0,513.0,493.0,532.0,536.0
492.0,508.0,490.0,517.0,536.0
494.0,500.0,490.0,499.0,533.0
496.0,495.0,492.0,483.0,524.0
501.0,489.0,498.0,474.0,520.0
507.0,489.0,506.0,470.0,517.0
507.0,483.0,509.0,464.0,514.0
509.0,481.0,511.0,463.0,512.0
515.0,487.0,521.0,477.0,507.0
523.0,495.0,529.0,495.0,504.0
528.0,504.0,534.0,514.0,497.0
533.0,517.0,539.0,538.0,490.0
535.0,527.0,539.0,557.0,492.0
532.0,533.0,535.0,570.0,499.0
521.0,532.0,524.0,569.0,508.0
513.0,528.0,515.0,562.0,516.0
499.0,520.0,500.0,547.0,526.0
493.0,512.0,490.0,528.0,534.0
494.0,506.0,490.0,511.0,535.0
497.0,498.0,490.0,492.0,527.0
498.0,493.0,494.0,480.0,525.0
505.0,489.0,504.0,472.0,519.0
508.0,489.0,505.0,466.0,511.0
506.0,481.0,508.0,463.0,513.0
511.0,483.0,516.0,467.0,508.0
519.0,491.0,525.0,483.0,504.0
522.0,497.0,528.0,499.0,499.0
530.0,510.0,536.0,523.0,494.0
533.0,521.0,538.0,544.0,492.0
534.0,529.0,537.0,561.0,495.0
529.0,535.0,531.0,570.0,503.0
520.0,532.0,521.0,566.0,510.0
511.0,527.0,510.0,559.0,521.0
498.0,522.0,496.0,540.0,532.0
493.0,510.0,491.0,523.0,536.0
488.0,502.0,486.0,504.0,532.0
501.0,498.0,497.0,494.0,528.0
501.0,492.0,500.0,476.0,523.0
502.0,489.0,502.0,471.0,518.0
506.0,485.0,505.0,464.0,516.0
508.0,482.0,510.0,463.0,510.0
515.0,487.0,519.0,473.0,504.0
520.0,493.0,525.0,488.0,498.0
525.0,503.0,532.0,507.0,500.0
529.0,514.0,537.0,529.0,496.0
535.0,526.0,541.0,553.0,493.0
533.0,533.0,535.0,564.0,500.0
531.0,537.0,529.0,571.0,510.0
521.0,535.0,517.0,564.0,524.0
505.0,523.0,502.0,552.0,533.0
496.0,515.0,493.0,534.0,542.0
495.0,508.0,491.0,517.0,532.0
492.0,498.0,488.0,497.0,526.0
498.0,495.0,494.0,485.0,526.0
500.0,488.0,497.0,473.0,520.0
505.0,484.0,505.0,468.0,511.0
508.0,481.0,508.0,465.0,511.0
508.0,481.0,513.0,463.0,512.0
517.0,487.0,525.0,475.0,505.0
522.0,494.0,529.0,492.0,499.0
530.0,507.0,535.0,516.0,496.0
533.0,519.0,539.0,538.0,494.0
535.0,525.0,538.0,556.0,497.0
533.0,538.0,534.0,569.0,500.0
523.0,532.0,525.0,568.0,511.0
514.0,529.0,516.0,564.0,523.0
504.0,518.0,503.0,551.0,525.0
495.0,512.0,488.0,527.0,537.0
491.0,504.0,488.0,509.0,533.0
493.0,498.0,491.0,495.0,532.0
497.0,491.0,493.0,480.0,526.0
504.0,487.0,501.0,475.0,515.0
510.0,487.0,506.0,469.0,510.0
506.0,481.0,512.0,462.0,512.0
514.0,483.0,515.0,468.0,505.0
519.0,487.0,523.0,483.0,490.0
525.0,496.0,529.0,500.0,489.0
534.0,510.0,537.0,527.0,484.0
535.0,519.0,539.0,543.0,486.0
537.0,529.0,538.0,560.0,493.0
532.0,534.0,532.0,569.0,510.0
521.0,528.0,520.0,568.0,517.0
511.0,526.0,510.0,560.0,524.0
497.0,517.0,497.0,542.0,524.0
492.0,509.0,491.0,524.0,525.0
492.0,505.0,491.0,508.0,528.0
495.0,496.0,492.0,490.0,524.0
498.0,491.0,496.0,478.0,523.0
503.0,488.0,503.0,470.0,521.0
504.0,487.0,507.0,464.0,518.0
506.0,481.0,510.0,463.0,517.0
515.0,487.0,518.0,472.0,511.0
518.0,490.0,524.0,486.0,500.0
522.0,499.0,530.0,505.0,497.0
529.0,512.0,536.0,528.0,499.0
538.0,524.0,540.0,552.0,494.0
534.0,528.0,534.0,563.0,497.0
527.0,532.0,527.0,569.0,506.0
518.0,529.0,518.0,565.0,516.0
508.0,524.0,505.0,554.0,532.0
497.0,512.0,494.0,535.0,536.0
495.0,508.0,490.0,521.0,536.0
495.0,501.0,490.0,501.0,536.0
499.0,494.0,493.0,489.0,529.0
503.0,488.0,497.0,474.0,521.0
507.0,486.0,504.0,470.0,508.0
507.0,483.0,509.0,464.0,506.0
509.0,481.0,512.0,463.0,508.0
516.0,486.0,522.0,476.0,505.0
521.0,494.0,528.0,493.0,502.0
527.0,507.0,534.0,514.0,497.0
533.0,521.0,539.0,536.0,490.0
535.0,528.0,539.0,557.0,491.0
533.0,534.0,535.0,569.0,497.0
524.0,530.0,524.0,568.0,506.0
513.0,528.0,514.0,562.0,518.0
500.0,519.0,497.0,545.0,531.0
497.0,513.0,490.0,528.0,536.0
495.0,507.0,490.0,511.0,536.0
493.0,499.0,490.0,495.0,529.0
495.0,492.0,494.0,481.0,522.0
504.0,490.0,501.0,473.0,518.0
504.0,489.0,507.0,472.0,515.0
505.0,482.0,509.0,463.0,516.0
511.0,483.0,516.0,466.0,509.0
518.0,487.0,522.0,479.0,501.0
526.0,497.0,529.0,498.0,498.0
534.0,513.0,535.0,521.0,493.0
540.0,521.0,539.0,542.0,491.0
535.0,529.0,538.0,560.0,498.0
524.0,536.0,530.0,570.0,507.0
520.0,532.0,522.0,567.0,512.0
513.0,528.0,512.0,560.0,520.0
498.0,518.0,495.0,541.0,535.0
492.0,509.0,488.0,522.0,536.0
496.0,504.0,493.0,506.0,538.0
493.0,498.0,493.0,491.0,535.0
496.0,492.0,497.0,480.0,521.0
507.0,488.0,504.0,471.0,507.0
506.0,483.0,506.0,464.0,506.0
505.0,481.0,508.0,465.0,508.0
510.0,484.0,517.0,471.0,501.0
516.0,492.0,526.0,487.0,500.0
522.0,501.0,535.0,507.0,499.0
533.0,515.0,539.0,529.0,494.0
536.0,523.0,537.0,548.0,497.0
533.0,530.0,536.0,563.0,501.0
529.0,533.0,527.0,570.0,506.0
521.0,530.0,518.0,565.0,512.0
509.0,523.0,504.0,554.0,526.0
500.0,516.0,494.0,541.0,535.0
495.0,508.0,489.0,517.0,535.0
496.0,502.0,490.0,502.0,530.0
497.0,496.0,493.0,486.0,527.0
497.0,490.0,497.0,475.0,523.0
503.0,487.0,504.0,472.0,520.0
505.0,482.0,508.0,465.0,513.0
505.0,479.0,509.0,462.0,515.0
511.0,486.0,519.0,474.0,506.0
522.0,494.0,527.0,493.0,501.0
528.0,504.0,533.0,513.0,493.0
534.0,516.0,536.0,534.0,486.0
535.0,527.0,538.0,555.0,492.0
533.0,535.0,536.0,568.0,503.0
525.0,532.0,523.0,567.0,508.0
516.0,530.0,517.0,564.0,519.0
502.0,523.0,501.0,550.0,529.0
498.0,515.0,493.0,532.0,535.0
495.0,507.0,490.0,513.0,534.0
496.0,500.0,490.0,497.0,529.0
497.0,494.0,494.0,482.0,524.0
499.0,489.0,501.0,475.0,518.0
507.0,487.0,509.0,467.0,513.0
503.0,483.0,512.0,463.0,513.0
509.0,483.0,515.0,465.0,507.0
516.0,487.0,522.0,479.0,505.0
521.0,502.0,528.0,498.0,500.0
531.0,512.0,538.0,522.0,496.0
535.0,522.0,541.0,543.0,488.0
534.0,531.0,539.0,561.0,496.0
527.0,534.0,533.0,571.0,500.0
524.0,533.0,523.0,567.0,514.0
513.0,530.0,513.0,561.0,528.0
499.0,519.0,498.0,543.0,542.0
493.0,511.0,490.0,525.0,537.0
494.0,504.0,489.0,510.0,531.0
496.0,499.0,491.0,493.0,523.0
500.0,492.0,495.0,478.0,521.0
508.0,489.0,503.0,476.0,517.0
507.0,484.0,506.0,468.0,514.0
508.0,480.0,509.0,462.0,515.0
515.0,485.0,519.0,471.0,502.0
518.0,491.0,525.0,485.0,503.0
520.0,500.0,530.0,504.0,503.0
528.0,513.0,538.0,528.0,491.0
533.0,525.0,542.0,551.0,488.0
532.0,531.0,538.0,564.0,492.0
527.0,534.0,530.0,570.0,508.0
521.0,530.0,519.0,565.0,517.0
511.0,526.0,505.0,557.0,527.0
501.0,513.0,496.0,539.0,533.0
496.0,507.0,488.0,519.0,531.0
493.0,502.0,488.0,500.0,532.0
493.0,496.0,493.0,488.0,528.0
497.0,489.0,497.0,479.0,522.0
503.0,486.0,506.0,469.0,514.0
506.0,483.0,508.0,465.0,514.0
507.0,485.0,510.0,464.0,513.0
518.0,487.0,521.0,476.0,509.0
528.0,495.0,527.0,493.0,504.0
531.0,503.0,536.0,512.0,497.0
531.0,515.0,538.0,535.0,495.0
536.0,526.0,541.0,555.0,495.0
530.0,533.0,535.0,569.0,501.0
521.0,533.0,527.0,572.0,507.0
516.0,530.0,515.0,564.0,516.0
501.0,520.0,501.0,550.0,530.0
494.0,514.0,496.0,531.0,533.0
493.0,505.0,488.0,513.0,529.0
496.0,499.0,490.0,497.0,528.0
500.0,495.0,494.0,486.0,527.0
507.0,493.0,499.0,476.0,515.0
506.0,484.0,505.0,467.0,507.0
504.0,481.0,509.0,461.0,514.0
507.0,484.0,512.0,464.0,509.0
518.0,492.0,521.0,478.0,501.0
522.0,497.0,528.0,498.0,498.0
530.0,509.0,536.0,521.0,495.0
535.0,520.0,540.0,543.0,496.0
534.0,529.0,536.0,561.0,495.0
531.0,534.0,532.0,569.0,503.0
523.0,531.0,523.0,568.0,514.0
515.0,530.0,514.0,563.0,522.0
500.0,523.0,497.0,545.0,532.0
495.0,511.0,490.0,525.0,536.0
492.0,507.0,488.0,506.0,535.0
496.0,496.0,494.0,490.0,528.0
499.0,491.0,495.0,479.0,526.0
505.0,489.0,502.0,472.0,527.0
509.0,486.0,507.0,466.0,523.0
508.0,480.0,508.0,463.0,518.0
512.0,483.0,517.0,470.0,508.0
518.0,492.0,526.0,486.0,505.0
521.0,499.0,531.0,504.0,500.0
528.0,511.0,537.0,527.0,495.0
536.0,523.0,540.0,549.0,491.0
536.0,532.0,538.0,565.0,495.0
528.0,533.0,529.0,569.0,511.0
522.0,532.0,519.0,566.0,515.0
512.0,526.0,507.0,557.0,522.0
501.0,516.0,495.0,539.0,533.0
492.0,509.0,490.0,521.0,539.0
494.0,504.0,491.0,504.0,535.0
499.0,497.0,493.0,491.0,534.0
501.0,491.0,495.0,474.0,524.0
505.0,485.0,502.0,469.0,519.0
506.0,483.0,508.0,465.0,509.0
503.0,480.0,510.0,463.0,510.0
512.0,485.0,519.0,474.0,505.0
522.0,494.0,528.0,494.0,503.0
530.0,504.0,535.0,511.0,496.0
534.0,517.0,539.0,535.0,490.0
535.0,526.0,539.0,555.0,491.0
533.0,534.0,536.0,569.0,499.0
524.0,538.0,525.0,571.0,518.0
520.0,531.0,515.0,566.0,522.0
511.0,522.0,500.0,550.0,527.0
498.0,515.0,493.0,534.0,535.0
495.0,511.0,490.0,515.0,530.0
495.0,500.0,490.0,499.0,529.0
500.0,494.0,494.0,485.0,527.0
504.0,490.0,501.0,476.0,522.0
506.0,490.0,505.0,469.0,522.0
508.0,481.0,508.0,465.0,516.0
510.0,479.0,511.0,464.0,512.0
517.0,487.0,521.0,479.0,504.0
525.0,497.0,528.0,497.0,505.0
531.0,508.0,535.0,519.0,498.0
539.0,521.0,541.0,542.0,496.0
533.0,527.0,536.0,559.0,495.0
532.0,534.0,534.0,572.0,503.0
523.0,532.0,523.0,567.0,507.0
515.0,532.0,513.0,562.0,516.0
500.0,519.0,497.0,547.0,529.0
495.0,511.0,490.0,527.0,532.0
496.0,503.0,489.0,509.0,534.0
499.0,498.0,491.0,492.0,527.0
503.0,492.0,495.0,479.0,527.0
510.0,494.0,500.0,474.0,519.0
508.0,484.0,505.0,466.0,514.0
504.0,479.0,513.0,461.0,511.0
509.0,484.0,517.0,470.0,507.0
518.0,492.0,527.0,487.0,502.0
521.0,503.0,529.0,502.0,498.0
529.0,510.0,540.0,523.0,493.0
535.0,524.0,540.0,548.0,494.0
536.0,530.0,534.0,562.0,495.0
528.0,534.0,530.0,572.0,503.0
518.0,532.0,519.0,566.0,512.0
506.0,526.0,506.0,557.0,522.0
497.0,516.0,495.0,539.0,530.0
493.0,509.0,490.0,522.0,534.0
498.0,503.0,488.0,504.0,534.0
497.0,495.0,492.0,487.0,528.0
501.0,490.0,496.0,477.0,524.0
507.0,489.0,505.0,472.0,519.0
512.0,484.0,508.0,469.0,517.0
506.0,480.0,509.0,462.0,517.0
513.0,484.0,518.0,472.0,512.0
518.0,498.0,527.0,491.0,506.0
525.0,503.0,532.0,509.0,505.0
532.0,515.0,538.0,533.0,503.0
538.0,530.0,541.0,556.0,501.0
528.0,532.0,536.0,569.0,499.0
521.0,534.0,528.0,573.0,505.0
514.0,531.0,517.0,568.0,502.0
503.0,520.0,502.0,553.0,518.0
494.0,513.0,492.0,534.0,530.0
493.0,507.0,490.0,516.0,526.0
495.0,501.0,490.0,499.0,531.0
496.0,492.0,492.0,482.0,529.0
501.0,488.0,497.0,478.0,521.0
509.0,488.0,506.0,470.0,517.0
509.0,488.0,508.0,465.0,521.0
507.0,480.0,510.0,463.0,506.0
513.0,488.0,522.0,479.0,503.0
523.0,499.0,530.0,495.0,500.0
526.0,509.0,534.0,517.0,494.0
534.0,524.0,540.0,541.0,495.0
535.0,529.0,539.0,558.0,495.0
535.0,537.0,535.0,571.0,501.0
523.0,532.0,523.0,569.0,510.0
513.0,530.0,513.0,562.0,517.0
499.0,519.0,503.0,547.0,525.0
493.0,511.0,491.0,527.0,531.0
495.0,505.0,490.0,511.0,534.0
496.0,499.0,492.0,494.0,526.0
499.0,493.0,495.0,481.0,525.0
501.0,492.0,501.0,473.0,519.0
505.0,484.0,506.0,466.0,511.0
506.0,482.0,509.0,462.0,510.0
514.0,484.0,518.0,470.0,505.0
522.0,491.0,526.0,485.0,502.0
528.0,499.0,530.0,506.0,503.0
532.0,512.0,534.0,524.0,500.0
536.0,523.0,541.0,549.0,488.0
532.0,530.0,536.0,563.0,487.0
525.0,533.0,530.0,571.0,497.0
518.0,532.0,520.0,570.0,507.0
509.0,525.0,507.0,557.0,532.0
499.0,517.0,496.0,541.0,539.0
493.0,508.0,491.0,521.0,540.0
493.0,502.0,489.0,504.0,535.0
498.0,497.0,494.0,490.0,527.0
499.0,490.0,497.0,479.0,524.0
505.0,488.0,504.0,471.0,515.0
509.0,486.0,508.0,470.0,516.0
510.0,482.0,511.0,464.0,514.0
519.0,485.0,520.0,476.0,507.0
521.0,493.0,527.0,488.0,499.0
526.0,502.0,532.0,512.0,501.0
529.0,516.0,537.0,532.0,492.0
536.0,526.0,545.0,553.0,493.0
534.0,533.0,535.0,567.0,497.0
531.0,534.0,527.0,570.0,504.0
517.0,533.0,516.0,564.0,511.0
502.0,521.0,502.0,551.0,526.0
495.0,513.0,491.0,533.0,532.0
494.0,508.0,490.0,516.0,533.0
495.0,501.0,490.0,499.0,531.0
497.0,494.0,493.0,485.0,527.0
499.0,488.0,497.0,473.0,521.0
506.0,486.0,505.0,469.0,513.0
509.0,485.0,510.0,466.0,514.0
510.0,482.0,514.0,465.0,514.0
516.0,486.0,521.0,477.0,513.0
522.0,496.0,529.0,495.0,511.0
532.0,509.0,538.0,518.0,504.0
540.0,521.0,540.0,539.0,497.0
538.0,529.0,538.0,558.0,500.0
532.0,532.0,532.0,568.0,494.0
527.0,533.0,525.0,568.0,504.0
517.0,528.0,514.0,562.0,509.0
497.0,519.0,497.0,545.0,529.0
490.0,512.0,491.0,527.0,536.0
491.0,507.0,490.0,510.0,535.0
498.0,500.0,493.0,500.0,529.0
499.0,491.0,494.0,478.0,519.0
500.0,489.0,502.0,470.0,512.0
505.0,488.0,508.0,468.0,510.0
506.0,482.0,512.0,465.0,509.0
511.0,483.0,516.0,468.0,505.0
520.0,489.0,522.0,481.0,500.0
524.0,501.0,529.0,500.0,501.0
532.0,511.0,536.0,526.0,499.0
536.0,523.0,541.0,547.0,494.0
535.0,531.0,538.0,562.0,498.0
529.0,533.0,531.0,569.0,506.0
521.0,533.0,522.0,570.0,509.0
511.0,526.0,510.0,558.0,516.0
499.0,518.0,498.0,542.0,527.0
494.0,510.0,491.0,523.0,531.0
491.0,505.0,487.0,504.0,527.0
497.0,498.0,493.0,493.0,524.0
499.0,491.0,497.0,479.0,521.0
505.0,488.0,504.0,473.0,515.0
505.0,482.0,507.0,465.0,514.0
506.0,480.0,509.0,462.0,515.0
514.0,485.0,520.0,473.0,507.0
522.0,493.0,527.0,488.0,509.0
524.0,504.0,529.0,505.0,504.0
530.0,513.0,536.0,529.0,500.0
536.0,526.0,541.0,558.0,497.0
532.0,531.0,536.0,566.0,502.0
527.0,532.0,527.0,568.0,505.0
519.0,530.0,518.0,565.0,516.0
506.0,521.0,503.0,555.0,528.0
498.0,515.0,498.0,534.0,534.0
494.0,506.0,489.0,517.0,532.0
494.0,500.0,490.0,498.0,533.0
497.0,494.0,493.0,483.0,529.0
501.0,488.0,498.0,473.0,525.0
507.0,488.0,506.0,469.0,519.0
512.0,483.0,510.0,466.0,514.0
509.0,480.0,513.0,465.0,514.0
517.0,485.0,522.0,481.0,513.0
519.0,493.0,526.0,495.0,501.0
532.0,506.0,537.0,515.0,494.0
532.0,518.0,541.0,539.0,499.0
533.0,526.0,540.0,557.0,504.0
529.0,531.0,533.0,568.0,506.0
522.0,532.0,526.0,567.0,515.0
513.0,528.0,513.0,562.0,517.0
501.0,519.0,498.0,546.0,523.0
494.0,510.0,490.0,528.0,525.0
492.0,505.0,490.0,514.0,530.0
494.0,499.0,488.0,495.0,524.0
501.0,492.0,497.0,482.0,522.0
502.0,488.0,502.0,474.0,518.0
505.0,485.0,507.0,468.0,514.0
504.0,480.0,507.0,463.0,512.0
508.0,482.0,520.0,468.0,507.0
515.0,489.0,522.0,483.0,502.0
524.0,498.0,529.0,499.0,496.0
533.0,515.0,536.0,523.0,492.0
537.0,521.0,541.0,551.0,491.0
535.0,529.0,536.0,560.0,492.0
531.0,533.0,531.0,570.0,498.0
522.0,529.0,522.0,574.0,508.0
514.0,528.0,512.0,561.0,517.0
507.0,517.0,496.0,543.0,533.0
498.0,509.0,492.0,525.0,539.0
495.0,502.0,488.0,504.0,540.0
497.0,496.0,491.0,491.0,538.0
501.0,490.0,496.0,474.0,526.0
504.0,487.0,503.0,471.0,518.0
501.0,483.0,508.0,467.0,517.0
496.0,480.0,514.0,464.0,513.0
507.0,484.0,518.0,473.0,512.0
518.0,492.0,526.0,489.0,506.0
526.0,502.0,532.0,513.0,503.0
533.0,514.0,537.0,533.0,500.0
536.0,525.0,540.0,549.0,495.0
533.0,533.0,536.0,566.0,493.0
527.0,534.0,528.0,572.0,498.0
518.0,530.0,516.0,566.0,509.0
503.0,521.0,500.0,553.0,525.0
493.0,513.0,493.0,536.0,532.0
490.0,509.0,489.0,517.0,527.0
491.0,501.0,489.0,500.0,529.0
496.0,495.0,495.0,485.0,525.0
500.0,488.0,497.0,474.0,520.0
506.0,490.0,504.0,469.0,515.0
509.0,484.0,509.0,466.0,511.0
508.0,480.0,511.0,465.0,511.0
516.0,486.0,521.0,477.0,504.0
523.0,496.0,529.0,496.0,501.0
528.0,508.0,533.0,519.0,497.0
535.0,518.0,539.0,538.0,491.0
536.0,528.0,539.0,561.0,494.0
536.0,533.0,536.0,571.0,501.0
522.0,532.0,529.0,568.0,508.0
518.0,529.0,518.0,563.0,519.0
502.0,521.0,500.0,548.0,532.0
496.0,514.0,492.0,529.0,542.0
495.0,507.0,491.0,513.0,540.0
499.0,499.0,495.0,495.0,533.0
498.0,491.0,493.0,480.0,524.0
504.0,489.0,500.0,473.0,513.0
506.0,490.0,506.0,468.0,509.0
508.0,482.0,510.0,465.0,512.0
509.0,484.0,517.0,470.0,507.0
516.0,490.0,526.0,482.0,503.0
519.0,498.0,527.0,499.0,504.0
529.0,510.0,535.0,523.0,499.0
534.0,521.0,539.0,543.0,494.0
535.0,530.0,537.0,561.0,493.0
531.0,535.0,531.0,569.0,501.0
520.0,532.0,521.0,569.0,506.0
511.0,527.0,511.0,561.0,517.0
501.0,519.0,500.0,542.0,529.0
491.0,509.0,489.0,523.0,532.0
492.0,504.0,488.0,506.0,527.0
498.0,498.0,492.0,491.0,524.0
501.0,493.0,496.0,478.0,521.0
505.0,487.0,501.0,471.0,512.0
504.0,489.0,507.0,467.0,513.0
505.0,481.0,515.0,464.0,512.0
514.0,486.0,516.0,472.0,503.0
521.0,493.0,526.0,488.0,506.0
524.0,499.0,529.0,505.0,501.0
530.0,512.0,537.0,527.0,495.0
536.0,528.0,540.0,551.0,495.0
537.0,536.0,535.0,564.0,495.0
529.0,535.0,529.0,570.0,505.0
520.0,533.0,518.0,566.0,513.0
507.0,524.0,504.0,555.0,525.0
499.0,517.0,495.0,537.0,533.0
494.0,510.0,492.0,519.0,538.0
496.0,500.0,488.0,498.0,532.0
502.0,496.0,498.0,485.0,529.0
499.0,490.0,497.0,475.0,524.0
506.0,489.0,505.0,474.0,521.0
509.0,485.0,511.0,467.0,512.0
508.0,482.0,512.0,465.0,511.0
516.0,488.0,522.0,478.0,506.0
521.0,495.0,530.0,493.0,500.0
528.0,505.0,534.0,519.0,494.0
535.0,518.0,540.0,541.0,489.0
536.0,528.0,539.0,557.0,493.0
532.0,532.0,534.0,569.0,497.0
523.0,532.0,525.0,569.0,506.0
514.0,529.0,514.0,564.0,515.0
503.0,520.0,499.0,550.0,530.0
498.0,513.0,492.0,531.0,533.0
493.0,508.0,489.0,512.0,532.0
495.0,497.0,488.0,493.0,530.0
499.0,491.0,492.0,480.0,524.0
503.0,487.0,498.0,472.0,524.0
505.0,485.0,506.0,467.0,523.0
511.0,483.0,513.0,465.0,522.0
513.0,483.0,516.0,469.0,515.0
519.0,489.0,524.0,482.0,504.0
526.0,496.0,528.0,502.0,503.0
530.0,508.0,537.0,523.0,490.0
532.0,518.0,539.0,543.0,487.0
533.0,528.0,537.0,560.0,498.0
535.0,533.0,533.0,569.0,504.0
516.0,529.0,521.0,569.0,512.0
510.0,528.0,514.0,564.0,516.0
496.0,519.0,499.0,545.0,527.0
492.0,511.0,491.0,527.0,534.0
492.0,504.0,489.0,510.0,532.0
496.0,497.0,492.0,495.0,526.0
498.0,491.0,494.0,477.0,520.0
505.0,489.0,502.0,471.0,514.0
508.0,486.0,507.0,467.0,509.0
506.0,481.0,509.0,464.0,507.0
513.0,485.0,519.0,473.0,503.0
520.0,493.0,527.0,488.0,503.0
523.0,501.0,532.0,507.0,504.0
528.0,513.0,537.0,529.0,499.0
530.0,524.0,539.0,548.0,495.0
533.0,534.0,538.0,565.0,494.0
527.0,532.0,529.0,572.0,499.0
516.0,531.0,518.0,566.0,510.0
505.0,523.0,504.0,555.0,523.0
495.0,514.0,496.0,535.0,528.0
490.0,508.0,490.0,517.0,527.0
494.0,502.0,489.0,501.0,531.0
502.0,495.0,492.0,486.0,525.0
501.0,490.0,501.0,474.0,520.0
506.0,490.0,503.0,468.0,513.0
506.0,484.0,509.0,465.0,510.0
505.0,481.0,510.0,464.0,511.0
513.0,486.0,520.0,473.0,504.0
522.0,494.0,527.0,492.0,498.0
528.0,505.0,534.0,513.0,494.0
532.0,517.0,539.0,535.0,490.0
536.0,527.0,541.0,554.0,490.0
531.0,534.0,536.0,570.0,505.0
520.0,531.0,525.0,567.0,512.0
519.0,532.0,517.0,565.0,515.0
505.0,521.0,499.0,547.0,528.0
496.0,513.0,491.0,531.0,534.0
494.0,510.0,488.0,512.0,535.0
495.0,500.0,491.0,496.0,533.0
497.0,493.0,498.0,482.0,525.0
504.0,489.0,501.0,473.0,519.0
506.0,486.0,505.0,467.0,509.0
506.0,482.0,509.0,464.0,511.0
509.0,481.0,514.0,465.0,509.0
517.0,488.0,523.0,480.0,507.0
523.0,495.0,528.0,498.0,510.0
532.0,508.0,534.0,519.0,493.0
541.0,522.0,540.0,542.0,488.0
534.0,527.0,536.0,558.0,497.0
528.0,532.0,532.0,569.0,500.0
520.0,531.0,522.0,566.0,508.0
517.0,527.0,512.0,558.0,514.0
501.0,519.0,497.0,544.0,528.0
497.0,511.0,490.0,525.0,533.0
497.0,505.0,494.0,509.0,528.0
501.0,499.0,492.0,490.0,522.0
503.0,492.0,495.0,478.0,519.0
503.0,488.0,502.0,472.0,512.0
500.0,484.0,509.0,464.0,514.0
498.0,481.0,511.0,464.0,512.0
508.0,483.0,522.0,469.0,508.0
518.0,491.0,526.0,486.0,506.0
524.0,501.0,531.0,504.0,507.0
536.0,513.0,536.0,527.0,502.0
536.0,523.0,540.0,549.0,493.0
534.0,532.0,538.0,565.0,497.0
523.0,532.0,526.0,569.0,497.0
514.0,531.0,520.0,569.0,506.0
503.0,523.0,506.0,557.0,520.0
494.0,517.0,494.0,538.0,527.0
492.0,508.0,490.0,519.0,529.0
496.0,501.0,491.0,504.0,526.0
495.0,495.0,492.0,485.0,522.0
498.0,490.0,496.0,475.0,519.0
505.0,488.0,504.0,471.0,513.0
507.0,487.0,508.0,467.0,514.0
506.0,480.0,514.0,465.0,516.0
513.0,485.0,519.0,474.0,505.0
521.0,494.0,527.0,491.0,498.0
526.0,506.0,533.0,512.0,497.0
532.0,517.0,539.0,536.0,493.0
536.0,527.0,537.0,553.0,492.0
531.0,531.0,535.0,566.0,497.0
521.0,532.0,524.0,568.0,505.0
513.0,529.0,516.0,570.0,516.0
498.0,524.0,500.0,549.0,530.0
493.0,512.0,491.0,531.0,533.0
496.0,507.0,489.0,514.0,532.0
496.0,500.0,492.0,498.0,532.0
496.0,493.0,493.0,482.0,523.0
501.0,490.0,500.0,475.0,517.0
508.0,489.0,508.0,470.0,515.0
508.0,483.0,509.0,465.0,513.0
508.0,483.0,515.0,468.0,509.0
519.0,490.0,524.0,481.0,511.0
522.0,495.0,527.0,496.0,507.0
531.0,508.0,535.0,519.0,502.0
535.0,518.0,539.0,540.0,486.0
535.0,528.0,538.0,560.0,490.0
533.0,534.0,534.0,571.0,499.0
522.0,532.0,523.0,568.0,508.0
514.0,532.0,510.0,561.0,516.0
500.0,519.0,498.0,544.0,528.0
497.0,511.0,490.0,524.0,535.0
493.0,504.0,489.0,508.0,535.0
495.0,498.0,492.0,492.0,531.0
500.0,492.0,496.0,479.0,528.0
502.0,491.0,503.0,474.0,519.0
505.0,485.0,505.0,465.0,516.0
507.0,481.0,510.0,464.0,510.0
516.0,484.0,517.0,469.0,501.0
522.0,492.0,526.0,486.0,499.0
528.0,498.0,529.0,505.0,498.0
532.0,511.0,536.0,526.0,495.0
537.0,522.0,539.0,548.0,494.0
535.0,531.0,537.0,563.0,501.0
525.0,532.0,529.0,570.0,501.0
519.0,531.0,521.0,568.0,508.0
509.0,524.0,506.0,556.0,521.0
498.0,516.0,495.0,538.0,534.0
498.0,508.0,490.0,524.0,535.0
492.0,499.0,489.0,501.0,534.0
494.0,495.0,491.0,491.0,528.0
501.0,489.0,496.0,475.0,519.0
508.0,487.0,504.0,471.0,515.0
506.0,484.0,509.0,467.0,510.0
505.0,479.0,510.0,464.0,510.0
514.0,487.0,520.0,475.0,509.0
522.0,494.0,528.0,495.0,508.0
529.0,503.0,533.0,511.0,498.0
533.0,515.0,536.0,531.0,488.0
536.0,525.0,539.0,554.0,492.0
531.0,531.0,534.0,565.0,499.0
525.0,533.0,526.0,570.0,509.0
515.0,529.0,517.0,565.0,509.0
499.0,519.0,501.0,551.0,519.0
495.0,513.0,492.0,533.0,531.0
496.0,507.0,489.0,515.0,530.0
499.0,500.0,490.0,497.0,536.0
501.0,494.0,494.0,483.0,536.0
502.0,490.0,501.0,475.0,532.0
503.0,488.0,508.0,469.0,514.0
507.0,483.0,510.0,467.0,510.0
508.0,481.0,512.0,465.0,506.0
517.0,487.0,521.0,479.0,492.0
520.0,495.0,530.0,498.0,482.0
529.0,508.0,534.0,520.0,478.0
536.0,520.0,541.0,542.0,482.0
533.0,527.0,538.0,562.0,492.0
530.0,533.0,533.0,569.0,499.0
519.0,534.0,523.0,572.0,521.0
513.0,530.0,518.0,565.0,523.0
502.0,521.0,499.0,551.0,528.0
493.0,512.0,491.0,527.0,532.0
492.0,508.0,489.0,509.0,531.0
497.0,499.0,492.0,493.0,533.0
499.0,491.0,495.0,479.0,532.0
506.0,489.0,503.0,473.0,523.0
508.0,489.0,506.0,467.0,516.0
508.0,481.0,512.0,462.0,516.0
516.0,483.0,522.0,469.0,505.0
517.0,492.0,523.0,483.0,500.0
525.0,496.0,529.0,502.0,497.0
536.0,511.0,541.0,524.0,493.0
534.0,521.0,539.0,546.0,492.0
536.0,531.0,539.0,562.0,497.0
528.0,532.0,528.0,569.0,503.0
522.0,534.0,521.0,566.0,511.0
510.0,527.0,509.0,558.0,522.0
498.0,517.0,497.0,540.0,533.0
491.0,510.0,491.0,522.0,537.0
493.0,500.0,488.0,503.0,530.0
499.0,496.0,493.0,489.0,527.0
502.0,491.0,497.0,477.0,523.0
505.0,487.0,504.0,470.0,517.0
505.0,482.0,510.0,468.0,517.0
505.0,479.0,510.0,463.0,516.0
511.0,486.0,521.0,475.0,505.0
520.0,493.0,528.0,495.0,499.0
527.0,503.0,531.0,509.0,494.0
535.0,513.0,535.0,532.0,491.0
537.0,526.0,541.0,554.0,497.0
533.0,532.0,537.0,571.0,497.0
525.0,536.0,525.0,569.0,508.0
516.0,530.0,517.0,564.0,520.0
502.0,521.0,501.0,551.0,530.0
495.0,513.0,492.0,534.0,535.0
494.0,508.0,490.0,516.0,536.0
495.0,500.0,491.0,499.0,534.0
497.0,493.0,493.0,484.0,523.0
500.0,489.0,498.0,477.0,518.0
506.0,486.0,506.0,469.0,514.0
509.0,485.0,510.0,467.0,512.0
510.0,482.0,514.0,466.0,512.0
517.0,487.0,523.0,482.0,505.0
521.0,495.0,528.0,496.0,501.0
528.0,505.0,534.0,517.0,494.0
539.0,519.0,543.0,539.0,497.0
533.0,527.0,538.0,559.0,494.0
531.0,534.0,533.0,573.0,498.0
522.0,529.0,523.0,567.0,507.0
515.0,526.0,512.0,562.0,517.0
500.0,518.0,497.0,545.0,535.0
496.0,513.0,490.0,527.0,539.0
497.0,505.0,489.0,509.0,535.0
504.0,503.0,493.0,495.0,534.0
499.0,489.0,494.0,481.0,534.0
503.0,487.0,500.0,472.0,520.0
504.0,486.0,507.0,469.0,515.0
504.0,481.0,509.0,463.0,518.0
512.0,485.0,518.0,470.0,510.0
519.0,492.0,525.0,485.0,499.0
524.0,498.0,528.0,501.0,496.0
532.0,510.0,536.0,524.0,489.0
538.0,523.0,540.0,548.0,492.0
537.0,528.0,536.0,561.0,492.0
529.0,533.0,530.0,572.0,501.0
520.0,531.0,520.0,567.0,508.0
514.0,527.0,512.0,558.0,522.0
502.0,519.0,499.0,540.0,531.0
493.0,510.0,490.0,521.0,531.0
492.0,503.0,489.0,504.0,531.0
498.0,498.0,493.0,489.0,530.0
499.0,492.0,499.0,476.0,527.0
505.0,489.0,504.0,471.0,526.0
507.0,485.0,508.0,466.0,522.0
509.0,481.0,513.0,465.0,522.0
515.0,485.0,518.0,472.0,504.0
519.0,494.0,527.0,491.0,491.0
527.0,503.0,533.0,510.0,487.0
534.0,516.0,537.0,532.0,482.0
539.0,527.0,541.0,553.0,485.0
533.0,532.0,535.0,566.0,497.0
524.0,534.0,527.0,571.0,504.0
514.0,532.0,517.0,568.0,527.0
504.0,523.0,503.0,553.0,531.0
498.0,515.0,494.0,535.0,531.0
493.0,509.0,490.0,521.0,531.0
488.0,500.0,488.0,498.0,530.0
491.0,498.0,492.0,485.0,525.0
499.0,491.0,499.0,477.0,521.0
502.0,487.0,503.0,469.0,515.0
507.0,484.0,509.0,466.0,511.0
508.0,482.0,510.0,464.0,511.0
518.0,489.0,522.0,480.0,507.0
519.0,493.0,527.0,495.0,506.0
528.0,508.0,535.0,517.0,503.0
533.0,519.0,539.0,539.0,497.0
533.0,527.0,538.0,558.0,501.0
531.0,533.0,534.0,570.0,502.0
522.0,532.0,523.0,569.0,512.0
516.0,531.0,514.0,569.0,520.0
501.0,521.0,499.0,548.0,533.0
495.0,518.0,489.0,529.0,535.0
497.0,505.0,488.0,508.0,533.0
499.0,505.0,491.0,493.0,531.0
