CH1,CH2,CH3,CH4,CH5
495.0,507.0,504.0,500.0,528.0
492.0,500.0,508.0,489.0,524.0
498.0,502.0,520.0,485.0,522.0
501.0,492.0,521.0,476.0,518.0
504.0,490.0,527.0,475.0,519.0
509.0,490.0,529.0,476.0,511.0
515.0,491.0,532.0,486.0,506.0
523.0,494.0,526.0,496.0,497.0
533.0,503.0,528.0,513.0,489.0
539.0,509.0,523.0,529.0,487.0
538.0,516.0,516.0,539.0,484.0
532.0,522.0,510.0,546.0,496.0
520.0,519.0,499.0,540.0,512.0
514.0,522.0,496.0,542.0,519.0
501.0,515.0,486.0,528.0,530.0
498.0,513.0,494.0,517.0,533.0
499.0,510.0,495.0,505.0,532.0
497.0,504.0,507.0,493.0,529.0
495.0,503.0,511.0,485.0,529.0
502.0,499.0,522.0,482.0,523.0
498.0,492.0,525.0,479.0,522.0
501.0,490.0,529.0,476.0,520.0
514.0,490.0,530.0,479.0,513.0
524.0,491.0,528.0,489.0,496.0
531.0,498.0,529.0,506.0,500.0
537.0,504.0,525.0,518.0,490.0
542.0,515.0,523.0,533.0,494.0
536.0,520.0,517.0,545.0,495.0
528.0,518.0,504.0,542.0,498.0
521.0,520.0,499.0,544.0,501.0
508.0,515.0,487.0,534.0,512.0
492.0,512.0,487.0,524.0,531.0
491.0,512.0,496.0,514.0,535.0
491.0,508.0,505.0,503.0,533.0
494.0,505.0,515.0,493.0,529.0
500.0,501.0,519.0,484.0,519.0
504.0,502.0,524.0,483.0,513.0
504.0,490.0,518.0,476.0,509.0
506.0,488.0,524.0,477.0,504.0
503.0,489.0,528.0,482.0,506.0
520.0,492.0,529.0,492.0,497.0
533.0,501.0,532.0,509.0,494.0
535.0,510.0,526.0,525.0,493.0
533.0,515.0,518.0,537.0,496.0
531.0,522.0,514.0,544.0,497.0
519.0,519.0,500.0,544.0,508.0
521.0,524.0,498.0,544.0,509.0
505.0,517.0,490.0,533.0,526.0
497.0,514.0,486.0,520.0,534.0
495.0,511.0,494.0,511.0,543.0
493.0,509.0,503.0,501.0,545.0
492.0,501.0,509.0,486.0,545.0
503.0,499.0,519.0,488.0,538.0
508.0,494.0,522.0,480.0,524.0
501.0,490.0,524.0,476.0,508.0
509.0,490.0,531.0,482.0,485.0
514.0,490.0,529.0,488.0,483.0
523.0,495.0,527.0,498.0,484.0
529.0,503.0,526.0,512.0,477.0
531.0,510.0,524.0,531.0,479.0
533.0,517.0,516.0,543.0,472.0
532.0,520.0,507.0,548.0,477.0
530.0,521.0,500.0,546.0,519.0
522.0,522.0,494.0,544.0,512.0
501.0,514.0,487.0,531.0,539.0
494.0,511.0,491.0,517.0,549.0
494.0,512.0,501.0,508.0,530.0
498.0,505.0,504.0,500.0,516.0
500.0,501.0,511.0,488.0,523.0
510.0,501.0,520.0,482.0,522.0
503.0,488.0,522.0,477.0,519.0
511.0,490.0,528.0,479.0,508.0
518.0,486.0,527.0,480.0,491.0
525.0,494.0,531.0,492.0,489.0
528.0,498.0,528.0,504.0,499.0
532.0,505.0,527.0,519.0,509.0
537.0,515.0,522.0,535.0,498.0
537.0,521.0,517.0,546.0,496.0
525.0,520.0,505.0,543.0,503.0
516.0,521.0,498.0,549.0,519.0
505.0,518.0,488.0,537.0,527.0
492.0,513.0,487.0,527.0,529.0
493.0,512.0,497.0,517.0,526.0
495.0,508.0,502.0,505.0,525.0
498.0,503.0,507.0,497.0,521.0
501.0,497.0,514.0,485.0,518.0
507.0,495.0,523.0,484.0,515.0
508.0,490.0,523.0,477.0,517.0
508.0,489.0,527.0,478.0,514.0
512.0,490.0,530.0,486.0,511.0
519.0,494.0,530.0,497.0,499.0
527.0,501.0,527.0,511.0,494.0
535.0,511.0,527.0,527.0,492.0
534.0,514.0,519.0,539.0,497.0
531.0,520.0,512.0,548.0,498.0
518.0,519.0,500.0,546.0,508.0
515.0,524.0,500.0,548.0,512.0
500.0,516.0,484.0,533.0,525.0
491.0,513.0,491.0,523.0,535.0
495.0,515.0,495.0,514.0,533.0
497.0,508.0,503.0,505.0,526.0
501.0,503.0,510.0,494.0,520.0
502.0,500.0,518.0,488.0,515.0
500.0,494.0,527.0,481.0,520.0
502.0,488.0,524.0,478.0,516.0
509.0,488.0,530.0,482.0,511.0
517.0,492.0,531.0,491.0,504.0
520.0,495.0,527.0,500.0,505.0
537.0,501.0,526.0,515.0,496.0
541.0,512.0,525.0,532.0,495.0
538.0,517.0,518.0,544.0,499.0
525.0,521.0,509.0,547.0,502.0
505.0,519.0,499.0,547.0,516.0
499.0,520.0,494.0,541.0,520.0
489.0,516.0,487.0,533.0,528.0
490.0,517.0,490.0,519.0,525.0
492.0,512.0,495.0,508.0,527.0
498.0,506.0,507.0,500.0,527.0
510.0,501.0,515.0,493.0,521.0
518.0,501.0,521.0,486.0,514.0
513.0,491.0,523.0,479.0,518.0
515.0,493.0,526.0,477.0,508.0
521.0,490.0,530.0,485.0,505.0
522.0,495.0,531.0,494.0,494.0
530.0,498.0,529.0,507.0,491.0
536.0,506.0,525.0,518.0,489.0
544.0,513.0,522.0,535.0,488.0
540.0,519.0,516.0,547.0,488.0
527.0,517.0,502.0,545.0,500.0
523.0,520.0,497.0,543.0,513.0
510.0,515.0,488.0,537.0,529.0
503.0,515.0,486.0,525.0,533.0
496.0,512.0,493.0,515.0,532.0
497.0,509.0,500.0,507.0,534.0
497.0,505.0,509.0,496.0,526.0
498.0,498.0,514.0,488.0,520.0
504.0,496.0,522.0,482.0,514.0
505.0,490.0,524.0,478.0,519.0
510.0,488.0,527.0,479.0,511.0
515.0,492.0,531.0,484.0,511.0
532.0,495.0,529.0,497.0,497.0
540.0,503.0,531.0,511.0,487.0
539.0,509.0,525.0,524.0,483.0
534.0,514.0,519.0,536.0,488.0
526.0,520.0,511.0,548.0,500.0
512.0,515.0,497.0,543.0,503.0
519.0,522.0,498.0,547.0,506.0
508.0,516.0,487.0,531.0,528.0
497.0,516.0,488.0,522.0,539.0
495.0,511.0,494.0,512.0,532.0
497.0,507.0,502.0,502.0,530.0
501.0,502.0,509.0,492.0,528.0
505.0,499.0,517.0,486.0,518.0
504.0,494.0,522.0,480.0,505.0
501.0,492.0,526.0,479.0,508.0
507.0,490.0,531.0,483.0,493.0
515.0,497.0,535.0,490.0,499.0
517.0,496.0,529.0,504.0,508.0
527.0,506.0,528.0,517.0,498.0
539.0,515.0,525.0,531.0,486.0
534.0,518.0,517.0,544.0,502.0
527.0,522.0,510.0,546.0,497.0
512.0,521.0,500.0,552.0,503.0
510.0,522.0,494.0,545.0,501.0
491.0,512.0,484.0,529.0,523.0
500.0,514.0,489.0,518.0,539.0
500.0,509.0,495.0,508.0,530.0
499.0,504.0,504.0,499.0,524.0
500.0,499.0,511.0,487.0,520.0
503.0,495.0,520.0,486.0,511.0
506.0,492.0,526.0,484.0,512.0
509.0,492.0,530.0,481.0,504.0
513.0,489.0,529.0,483.0,500.0
524.0,498.0,532.0,495.0,492.0
531.0,498.0,528.0,504.0,486.0
534.0,505.0,526.0,523.0,498.0
536.0,514.0,521.0,537.0,496.0
534.0,524.0,515.0,547.0,496.0
528.0,521.0,504.0,547.0,507.0
521.0,520.0,497.0,550.0,515.0
507.0,517.0,487.0,538.0,529.0
498.0,513.0,487.0,527.0,541.0
497.0,512.0,495.0,517.0,540.0
494.0,508.0,499.0,505.0,521.0
498.0,504.0,508.0,496.0,522.0
500.0,498.0,515.0,489.0,518.0
505.0,497.0,525.0,485.0,513.0
509.0,493.0,525.0,478.0,510.0
508.0,489.0,528.0,479.0,501.0
513.0,488.0,529.0,486.0,502.0
522.0,494.0,529.0,497.0,498.0
530.0,501.0,529.0,512.0,495.0
535.0,509.0,526.0,529.0,489.0
535.0,515.0,519.0,540.0,485.0
531.0,522.0,512.0,548.0,498.0
521.0,520.0,502.0,545.0,510.0
517.0,524.0,498.0,547.0,515.0
501.0,516.0,487.0,535.0,532.0
493.0,513.0,486.0,522.0,533.0
492.0,510.0,493.0,513.0,530.0
494.0,509.0,504.0,504.0,526.0
496.0,504.0,513.0,494.0,523.0
500.0,500.0,519.0,487.0,515.0
504.0,496.0,526.0,484.0,514.0
503.0,489.0,523.0,477.0,512.0
520.0,493.0,530.0,482.0,505.0
520.0,490.0,526.0,488.0,495.0
526.0,497.0,529.0,501.0,495.0
531.0,505.0,526.0,515.0,492.0
536.0,512.0,524.0,532.0,488.0
536.0,520.0,518.0,543.0,493.0
529.0,522.0,509.0,548.0,498.0
519.0,521.0,499.0,547.0,509.0
517.0,521.0,495.0,545.0,517.0
499.0,517.0,487.0,532.0,525.0
494.0,514.0,490.0,521.0,529.0
490.0,510.0,494.0,507.0,530.0
498.0,505.0,503.0,500.0,529.0
498.0,501.0,513.0,491.0,521.0
500.0,497.0,519.0,485.0,515.0
503.0,492.0,523.0,482.0,519.0
504.0,488.0,526.0,479.0,517.0
509.0,490.0,529.0,483.0,509.0
524.0,494.0,531.0,495.0,501.0
536.0,499.0,525.0,503.0,493.0
535.0,509.0,527.0,522.0,495.0
532.0,514.0,523.0,536.0,496.0
533.0,522.0,517.0,547.0,495.0
526.0,525.0,507.0,548.0,506.0
520.0,522.0,497.0,545.0,510.0
507.0,518.0,490.0,539.0,521.0
496.0,513.0,487.0,525.0,530.0
493.0,513.0,492.0,515.0,534.0
498.0,510.0,500.0,505.0,535.0
496.0,504.0,508.0,496.0,528.0
497.0,498.0,515.0,488.0,523.0
509.0,497.0,524.0,485.0,519.0
506.0,490.0,523.0,476.0,520.0
512.0,491.0,529.0,478.0,514.0
517.0,490.0,529.0,485.0,503.0
525.0,495.0,530.0,497.0,500.0
530.0,503.0,529.0,513.0,490.0
535.0,510.0,528.0,529.0,483.0
538.0,518.0,522.0,541.0,485.0
530.0,519.0,509.0,546.0,491.0
521.0,520.0,502.0,547.0,505.0
515.0,522.0,496.0,545.0,507.0
500.0,517.0,489.0,535.0,524.0
489.0,512.0,485.0,522.0,529.0
488.0,510.0,497.0,513.0,524.0
489.0,509.0,504.0,504.0,522.0
490.0,503.0,510.0,493.0,519.0
497.0,500.0,518.0,487.0,515.0
502.0,494.0,524.0,483.0,518.0
500.0,487.0,524.0,474.0,512.0
508.0,490.0,530.0,480.0,505.0
537.0,493.0,530.0,489.0,492.0
543.0,497.0,529.0,499.0,477.0
544.0,505.0,529.0,517.0,483.0
538.0,510.0,524.0,531.0,489.0
534.0,517.0,515.0,546.0,491.0
530.0,522.0,509.0,548.0,499.0
517.0,519.0,497.0,545.0,514.0
517.0,524.0,493.0,543.0,520.0
508.0,514.0,487.0,531.0,532.0
501.0,512.0,490.0,518.0,543.0
491.0,508.0,495.0,507.0,541.0
497.0,506.0,506.0,499.0,542.0
498.0,504.0,514.0,490.0,537.0
499.0,498.0,519.0,485.0,522.0
501.0,490.0,524.0,480.0,520.0
510.0,488.0,524.0,478.0,497.0
522.0,491.0,529.0,481.0,492.0
528.0,492.0,530.0,493.0,489.0
529.0,497.0,528.0,505.0,483.0
531.0,505.0,527.0,525.0,481.0
533.0,513.0,522.0,537.0,487.0
532.0,521.0,516.0,548.0,492.0
525.0,519.0,504.0,547.0,502.0
519.0,521.0,497.0,546.0,513.0
507.0,517.0,487.0,536.0,522.0
503.0,515.0,488.0,528.0,530.0
497.0,511.0,492.0,516.0,531.0
495.0,507.0,500.0,504.0,529.0
498.0,502.0,507.0,495.0,526.0
501.0,499.0,522.0,490.0,520.0
508.0,496.0,523.0,485.0,512.0
504.0,486.0,522.0,477.0,511.0
508.0,492.0,529.0,480.0,506.0
515.0,490.0,529.0,486.0,501.0
521.0,492.0,529.0,497.0,501.0
533.0,500.0,529.0,512.0,490.0
534.0,507.0,526.0,528.0,487.0
533.0,515.0,520.0,541.0,493.0
529.0,525.0,514.0,551.0,498.0
523.0,521.0,501.0,547.0,506.0
517.0,525.0,499.0,548.0,515.0
501.0,515.0,488.0,534.0,528.0
494.0,511.0,487.0,527.0,535.0
493.0,510.0,497.0,512.0,532.0
494.0,505.0,504.0,504.0,525.0
496.0,499.0,508.0,492.0,524.0
505.0,499.0,518.0,492.0,518.0
506.0,495.0,524.0,484.0,515.0
501.0,486.0,523.0,478.0,516.0
513.0,490.0,531.0,484.0,505.0
518.0,489.0,529.0,491.0,499.0
526.0,497.0,530.0,504.0,487.0
534.0,502.0,525.0,516.0,479.0
539.0,512.0,524.0,533.0,490.0
539.0,520.0,521.0,546.0,497.0
529.0,520.0,512.0,548.0,499.0
514.0,519.0,499.0,547.0,524.0
506.0,518.0,493.0,544.0,527.0
499.0,517.0,487.0,532.0,534.0
493.0,511.0,491.0,524.0,544.0
491.0,507.0,498.0,508.0,543.0
493.0,504.0,505.0,499.0,533.0
496.0,497.0,511.0,491.0,529.0
506.0,497.0,520.0,487.0,514.0
511.0,490.0,523.0,482.0,507.0
513.0,489.0,527.0,480.0,508.0
515.0,488.0,526.0,482.0,502.0
526.0,493.0,530.0,495.0,498.0
527.0,497.0,529.0,505.0,498.0
535.0,507.0,526.0,522.0,496.0
537.0,514.0,525.0,542.0,492.0
534.0,521.0,514.0,547.0,493.0
526.0,522.0,506.0,550.0,505.0
515.0,520.0,496.0,545.0,511.0
506.0,517.0,490.0,539.0,525.0
496.0,512.0,488.0,526.0,530.0
494.0,515.0,493.0,517.0,534.0
493.0,507.0,499.0,505.0,532.0
495.0,502.0,505.0,495.0,526.0
504.0,503.0,515.0,493.0,522.0
506.0,496.0,522.0,485.0,512.0
504.0,488.0,523.0,478.0,514.0
510.0,490.0,529.0,483.0,509.0
514.0,487.0,527.0,485.0,504.0
521.0,494.0,529.0,498.0,502.0
528.0,501.0,529.0,511.0,496.0
535.0,510.0,527.0,528.0,489.0
535.0,516.0,523.0,545.0,491.0
534.0,522.0,511.0,549.0,496.0
524.0,521.0,502.0,548.0,508.0
518.0,524.0,503.0,549.0,515.0
501.0,516.0,488.0,534.0,525.0
495.0,513.0,489.0,523.0,533.0
491.0,510.0,494.0,516.0,531.0
495.0,507.0,504.0,507.0,530.0
497.0,502.0,510.0,492.0,525.0
501.0,497.0,520.0,486.0,516.0
505.0,493.0,525.0,483.0,515.0
503.0,484.0,522.0,474.0,513.0
511.0,490.0,530.0,480.0,507.0
532.0,507.0,521.0,533.0,491.0
533.0,516.0,516.0,542.0,493.0
527.0,518.0,505.0,538.0,504.0
517.0,518.0,500.0,536.0,517.0
503.0,515.0,486.0,524.0,527.0
493.0,515.0,487.0,517.0,532.0
498.0,515.0,493.0,513.0,529.0
497.0,514.0,506.0,510.0,529.0
500.0,509.0,506.0,501.0,526.0
499.0,506.0,517.0,498.0,513.0
507.0,506.0,523.0,496.0,512.0
505.0,496.0,525.0,491.0,511.0
511.0,493.0,527.0,496.0,510.0
515.0,493.0,529.0,497.0,503.0
520.0,495.0,527.0,509.0,503.0
534.0,504.0,527.0,516.0,497.0
535.0,504.0,525.0,528.0,488.0
535.0,506.0,514.0,532.0,495.0
532.0,515.0,510.0,542.0,499.0
519.0,512.0,499.0,536.0,511.0
511.0,515.0,494.0,533.0,522.0
497.0,515.0,488.0,525.0,532.0
494.0,515.0,488.0,519.0,532.0
493.0,516.0,495.0,510.0,534.0
493.0,514.0,502.0,506.0,526.0
501.0,511.0,512.0,501.0,526.0
503.0,507.0,520.0,499.0,519.0
500.0,501.0,523.0,492.0,514.0
504.0,496.0,525.0,487.0,510.0
515.0,492.0,529.0,491.0,503.0
522.0,494.0,531.0,499.0,503.0
524.0,496.0,527.0,508.0,500.0
541.0,502.0,529.0,521.0,488.0
538.0,505.0,523.0,531.0,490.0
535.0,511.0,516.0,538.0,495.0
530.0,514.0,505.0,540.0,502.0
520.0,514.0,499.0,536.0,511.0
502.0,512.0,492.0,531.0,528.0
495.0,514.0,488.0,523.0,530.0
494.0,514.0,492.0,517.0,530.0
495.0,515.0,498.0,510.0,532.0
495.0,511.0,506.0,503.0,527.0
499.0,506.0,512.0,497.0,527.0
510.0,505.0,522.0,496.0,519.0
505.0,496.0,523.0,491.0,515.0
509.0,493.0,526.0,489.0,511.0
513.0,490.0,528.0,493.0,506.0
521.0,493.0,529.0,502.0,499.0
530.0,498.0,531.0,513.0,496.0
538.0,501.0,525.0,522.0,491.0
532.0,506.0,520.0,532.0,491.0
527.0,511.0,514.0,538.0,494.0
516.0,510.0,502.0,537.0,502.0
512.0,513.0,497.0,534.0,515.0
494.0,511.0,485.0,527.0,534.0
491.0,512.0,485.0,517.0,537.0
509.0,516.0,493.0,512.0,533.0
503.0,514.0,504.0,507.0,527.0
503.0,512.0,510.0,503.0,523.0
498.0,509.0,520.0,502.0,508.0
497.0,505.0,528.0,496.0,512.0
501.0,497.0,524.0,490.0,525.0
503.0,492.0,527.0,491.0,516.0
519.0,496.0,532.0,498.0,505.0
528.0,493.0,527.0,503.0,495.0
537.0,499.0,528.0,513.0,493.0
537.0,503.0,525.0,528.0,487.0
535.0,506.0,517.0,535.0,489.0
531.0,513.0,511.0,539.0,494.0
523.0,515.0,503.0,538.0,509.0
511.0,511.0,492.0,532.0,518.0
502.0,513.0,488.0,524.0,530.0
489.0,517.0,490.0,518.0,535.0
485.0,512.0,493.0,511.0,532.0
490.0,513.0,507.0,505.0,524.0
492.0,507.0,509.0,498.0,521.0
499.0,506.0,521.0,497.0,517.0
511.0,501.0,523.0,494.0,511.0
514.0,494.0,526.0,488.0,516.0
514.0,490.0,528.0,489.0,505.0
523.0,493.0,531.0,499.0,500.0
526.0,494.0,530.0,506.0,495.0
533.0,501.0,528.0,521.0,491.0
535.0,505.0,528.0,531.0,491.0
533.0,509.0,513.0,536.0,493.0
532.0,515.0,508.0,540.0,504.0
518.0,515.0,500.0,536.0,510.0
503.0,509.0,488.0,531.0,525.0
494.0,512.0,485.0,522.0,530.0
493.0,514.0,492.0,517.0,538.0
489.0,513.0,496.0,507.0,533.0
496.0,509.0,510.0,505.0,527.0
501.0,507.0,514.0,496.0,522.0
508.0,504.0,521.0,493.0,511.0
511.0,499.0,524.0,493.0,510.0
509.0,493.0,527.0,489.0,510.0
515.0,493.0,530.0,495.0,502.0
521.0,492.0,529.0,500.0,501.0
527.0,499.0,530.0,512.0,505.0
532.0,502.0,527.0,525.0,495.0
535.0,507.0,521.0,534.0,496.0
533.0,513.0,519.0,539.0,494.0
524.0,513.0,503.0,538.0,492.0
519.0,516.0,498.0,538.0,498.0
503.0,511.0,489.0,526.0,514.0
494.0,513.0,486.0,519.0,541.0
487.0,514.0,493.0,514.0,546.0
489.0,515.0,502.0,506.0,534.0
492.0,511.0,509.0,501.0,529.0
501.0,506.0,517.0,497.0,520.0
503.0,499.0,521.0,492.0,516.0
508.0,497.0,526.0,490.0,512.0
519.0,492.0,526.0,487.0,502.0
526.0,492.0,528.0,493.0,497.0
530.0,493.0,527.0,501.0,499.0
529.0,498.0,528.0,513.0,502.0
532.0,507.0,531.0,529.0,498.0
535.0,507.0,517.0,535.0,494.0
527.0,514.0,511.0,540.0,496.0
518.0,513.0,505.0,541.0,504.0
511.0,514.0,495.0,533.0,516.0
498.0,514.0,489.0,528.0,528.0
488.0,513.0,486.0,518.0,530.0
491.0,516.0,496.0,513.0,532.0
492.0,513.0,502.0,506.0,525.0
499.0,514.0,511.0,499.0,524.0
502.0,506.0,518.0,496.0,517.0
509.0,502.0,523.0,490.0,515.0
507.0,495.0,525.0,488.0,517.0
511.0,491.0,526.0,488.0,507.0
520.0,494.0,530.0,499.0,500.0
522.0,497.0,526.0,504.0,496.0
532.0,505.0,526.0,516.0,491.0
536.0,505.0,523.0,529.0,492.0
532.0,509.0,516.0,535.0,497.0
534.0,513.0,507.0,538.0,508.0
517.0,513.0,500.0,538.0,512.0
508.0,514.0,492.0,532.0,529.0
495.0,512.0,486.0,524.0,530.0
498.0,518.0,492.0,518.0,529.0
494.0,513.0,498.0,510.0,531.0
506.0,512.0,507.0,504.0,522.0
501.0,507.0,513.0,497.0,521.0
503.0,504.0,522.0,495.0,518.0
508.0,501.0,526.0,491.0,512.0
506.0,491.0,524.0,486.0,512.0
517.0,493.0,528.0,492.0,514.0
521.0,492.0,529.0,499.0,504.0
526.0,498.0,529.0,510.0,495.0
529.0,502.0,526.0,523.0,491.0
531.0,504.0,520.0,532.0,493.0
531.0,513.0,514.0,538.0,497.0
524.0,515.0,505.0,538.0,513.0
517.0,514.0,497.0,538.0,514.0
503.0,512.0,488.0,528.0,526.0
496.0,514.0,488.0,522.0,534.0
488.0,514.0,493.0,514.0,529.0
488.0,514.0,501.0,508.0,528.0
485.0,510.0,508.0,501.0,529.0
491.0,508.0,518.0,497.0,523.0
503.0,505.0,526.0,493.0,517.0
510.0,498.0,527.0,489.0,516.0
509.0,494.0,530.0,490.0,512.0
526.0,493.0,528.0,491.0,499.0
531.0,495.0,530.0,503.0,496.0
536.0,499.0,528.0,514.0,492.0
537.0,502.0,524.0,525.0,492.0
538.0,508.0,517.0,534.0,494.0
540.0,514.0,513.0,540.0,500.0
526.0,514.0,503.0,538.0,504.0
514.0,514.0,496.0,536.0,519.0
501.0,513.0,486.0,526.0,527.0
497.0,514.0,490.0,519.0,532.0
493.0,512.0,491.0,509.0,533.0
497.0,513.0,504.0,506.0,531.0
498.0,508.0,511.0,499.0,527.0
501.0,504.0,518.0,495.0,520.0
508.0,501.0,525.0,493.0,518.0
505.0,494.0,525.0,488.0,516.0
510.0,491.0,527.0,489.0,510.0
518.0,494.0,531.0,498.0,504.0
522.0,495.0,528.0,504.0,498.0
526.0,500.0,526.0,517.0,497.0
539.0,506.0,524.0,529.0,491.0
540.0,512.0,517.0,538.0,496.0
539.0,516.0,510.0,539.0,503.0
529.0,516.0,500.0,536.0,508.0
509.0,512.0,490.0,531.0,525.0
495.0,511.0,487.0,524.0,537.0
489.0,514.0,491.0,519.0,541.0
486.0,514.0,501.0,514.0,546.0
490.0,512.0,507.0,506.0,536.0
498.0,507.0,513.0,499.0,522.0
504.0,504.0,522.0,496.0,512.0
505.0,498.0,524.0,490.0,506.0
502.0,492.0,524.0,488.0,505.0
509.0,491.0,529.0,490.0,496.0
513.0,490.0,527.0,500.0,491.0
524.0,496.0,528.0,511.0,489.0
528.0,500.0,526.0,524.0,503.0
535.0,506.0,521.0,531.0,501.0
541.0,513.0,514.0,537.0,500.0
531.0,513.0,504.0,539.0,509.0
524.0,517.0,497.0,537.0,514.0
505.0,512.0,487.0,529.0,530.0
496.0,513.0,486.0,522.0,532.0
490.0,514.0,491.0,517.0,534.0
494.0,518.0,501.0,510.0,524.0
494.0,510.0,508.0,501.0,526.0
498.0,508.0,518.0,502.0,524.0
502.0,504.0,524.0,497.0,516.0
504.0,497.0,524.0,491.0,514.0
508.0,494.0,528.0,490.0,517.0
511.0,491.0,526.0,491.0,509.0
525.0,495.0,529.0,503.0,498.0
536.0,499.0,530.0,513.0,487.0
540.0,504.0,525.0,527.0,485.0
537.0,509.0,519.0,536.0,490.0
531.0,511.0,509.0,539.0,498.0
525.0,515.0,503.0,541.0,506.0
515.0,513.0,493.0,534.0,517.0
504.0,513.0,488.0,527.0,532.0
498.0,513.0,488.0,518.0,533.0
493.0,514.0,495.0,513.0,535.0
489.0,512.0,502.0,507.0,529.0
490.0,506.0,510.0,500.0,523.0
505.0,508.0,520.0,498.0,516.0
507.0,502.0,524.0,494.0,507.0
508.0,494.0,525.0,488.0,513.0
517.0,493.0,528.0,491.0,506.0
518.0,490.0,529.0,497.0,512.0
524.0,495.0,530.0,506.0,511.0
530.0,500.0,527.0,518.0,501.0
536.0,506.0,525.0,531.0,488.0
534.0,512.0,518.0,539.0,485.0
525.0,511.0,506.0,538.0,499.0
518.0,516.0,502.0,538.0,513.0
501.0,510.0,488.0,528.0,525.0
495.0,513.0,485.0,524.0,532.0
489.0,513.0,492.0,517.0,536.0
489.0,515.0,498.0,510.0,533.0
494.0,513.0,506.0,503.0,530.0
499.0,507.0,512.0,497.0,526.0
506.0,505.0,522.0,496.0,520.0
503.0,499.0,524.0,490.0,517.0
502.0,492.0,524.0,486.0,516.0
524.0,493.0,529.0,490.0,507.0
527.0,494.0,527.0,497.0,504.0
526.0,498.0,529.0,508.0,505.0
537.0,504.0,529.0,521.0,496.0
537.0,510.0,522.0,532.0,496.0
531.0,513.0,515.0,539.0,498.0
526.0,518.0,505.0,539.0,505.0
522.0,516.0,499.0,539.0,510.0
506.0,515.0,489.0,528.0,520.0
495.0,512.0,486.0,521.0,525.0
497.0,517.0,494.0,517.0,528.0
493.0,514.0,499.0,506.0,538.0
498.0,511.0,508.0,500.0,532.0
500.0,507.0,515.0,494.0,525.0
510.0,502.0,525.0,497.0,517.0
509.0,498.0,530.0,491.0,515.0
510.0,495.0,528.0,490.0,509.0
516.0,492.0,531.0,495.0,504.0
520.0,493.0,528.0,504.0,499.0
525.0,501.0,528.0,516.0,502.0
534.0,505.0,527.0,525.0,495.0
534.0,510.0,518.0,533.0,499.0
531.0,513.0,512.0,538.0,498.0
526.0,519.0,503.0,540.0,506.0
516.0,515.0,495.0,536.0,516.0
500.0,513.0,488.0,527.0,533.0
494.0,515.0,488.0,518.0,537.0
491.0,513.0,494.0,512.0,538.0
493.0,515.0,504.0,506.0,536.0
495.0,510.0,510.0,499.0,524.0
502.0,506.0,518.0,495.0,509.0
508.0,503.0,522.0,491.0,511.0
507.0,496.0,525.0,489.0,516.0
515.0,494.0,528.0,490.0,509.0
527.0,494.0,529.0,496.0,506.0
529.0,496.0,528.0,506.0,506.0
535.0,502.0,527.0,518.0,500.0
541.0,506.0,525.0,531.0,497.0
535.0,510.0,515.0,536.0,496.0
532.0,516.0,510.0,540.0,504.0
521.0,516.0,502.0,539.0,506.0
502.0,512.0,490.0,532.0,518.0
492.0,513.0,486.0,524.0,530.0
488.0,513.0,491.0,518.0,533.0
491.0,516.0,499.0,511.0,533.0
492.0,512.0,505.0,503.0,528.0
495.0,504.0,511.0,497.0,521.0
501.0,505.0,522.0,500.0,512.0
504.0,500.0,526.0,493.0,510.0
505.0,493.0,525.0,488.0,509.0
511.0,490.0,528.0,494.0,511.0
520.0,493.0,531.0,500.0,502.0
525.0,497.0,530.0,511.0,498.0
530.0,502.0,528.0,523.0,499.0
538.0,506.0,521.0,530.0,498.0
525.0,511.0,514.0,541.0,505.0
527.0,514.0,503.0,538.0,510.0
515.0,513.0,498.0,537.0,515.0
499.0,512.0,488.0,528.0,530.0
496.0,513.0,488.0,520.0,538.0
507.0,519.0,494.0,515.0,531.0
500.0,516.0,500.0,507.0,525.0
496.0,511.0,510.0,502.0,524.0
501.0,507.0,518.0,499.0,516.0
505.0,500.0,523.0,493.0,512.0
509.0,498.0,527.0,493.0,512.0
508.0,491.0,528.0,489.0,511.0
518.0,491.0,529.0,494.0,498.0
525.0,498.0,530.0,503.0,499.0
531.0,497.0,528.0,512.0,494.0
537.0,504.0,527.0,525.0,495.0
535.0,507.0,518.0,532.0,501.0
531.0,513.0,512.0,537.0,513.0
519.0,515.0,504.0,537.0,503.0
510.0,516.0,500.0,535.0,509.0
492.0,511.0,488.0,524.0,529.0
483.0,511.0,488.0,517.0,535.0
483.0,516.0,496.0,512.0,545.0
487.0,512.0,502.0,506.0,534.0
494.0,506.0,510.0,499.0,534.0
506.0,507.0,521.0,499.0,521.0
511.0,501.0,525.0,494.0,514.0
509.0,494.0,525.0,490.0,508.0
513.0,494.0,531.0,491.0,506.0
515.0,493.0,530.0,495.0,499.0
533.0,495.0,529.0,507.0,497.0
538.0,499.0,530.0,517.0,493.0
536.0,505.0,525.0,529.0,489.0
527.0,509.0,517.0,537.0,501.0
524.0,517.0,511.0,537.0,514.0
516.0,514.0,500.0,537.0,511.0
506.0,514.0,491.0,532.0,524.0
495.0,511.0,486.0,522.0,531.0
498.0,517.0,494.0,517.0,536.0
493.0,513.0,496.0,507.0,535.0
503.0,513.0,507.0,506.0,532.0
506.0,509.0,515.0,499.0,524.0
507.0,504.0,522.0,496.0,511.0
509.0,498.0,526.0,491.0,513.0
514.0,494.0,526.0,488.0,513.0
516.0,491.0,529.0,494.0,506.0
519.0,492.0,530.0,499.0,505.0
524.0,495.0,529.0,510.0,496.0
533.0,501.0,530.0,522.0,490.0
537.0,507.0,522.0,530.0,485.0
534.0,513.0,516.0,538.0,487.0
524.0,511.0,504.0,536.0,491.0
519.0,516.0,500.0,538.0,508.0
502.0,511.0,486.0,528.0,536.0
495.0,514.0,488.0,519.0,543.0
491.0,513.0,491.0,512.0,539.0
493.0,515.0,502.0,508.0,534.0
492.0,511.0,508.0,500.0,526.0
497.0,507.0,518.0,498.0,517.0
504.0,503.0,524.0,495.0,511.0
507.0,499.0,526.0,491.0,509.0
509.0,492.0,527.0,489.0,504.0
521.0,492.0,530.0,493.0,497.0
522.0,491.0,527.0,501.0,500.0
530.0,499.0,529.0,513.0,493.0
534.0,504.0,529.0,531.0,491.0
529.0,507.0,518.0,532.0,495.0
540.0,515.0,513.0,542.0,496.0
527.0,514.0,503.0,539.0,505.0
518.0,516.0,497.0,534.0,519.0
501.0,513.0,487.0,524.0,530.0
497.0,515.0,488.0,518.0,535.0
497.0,515.0,493.0,515.0,530.0
501.0,513.0,504.0,507.0,529.0
508.0,510.0,512.0,501.0,528.0
509.0,508.0,519.0,497.0,522.0
512.0,502.0,523.0,495.0,522.0
512.0,496.0,525.0,489.0,516.0
510.0,492.0,529.0,492.0,506.0
515.0,494.0,532.0,499.0,496.0
515.0,494.0,527.0,504.0,490.0
519.0,498.0,530.0,519.0,494.0
528.0,505.0,524.0,529.0,491.0
532.0,511.0,519.0,537.0,497.0
524.0,513.0,506.0,538.0,501.0
527.0,517.0,503.0,540.0,511.0
514.0,512.0,491.0,529.0,524.0
504.0,515.0,487.0,522.0,531.0
499.0,514.0,491.0,516.0,532.0
498.0,512.0,495.0,508.0,521.0
499.0,510.0,505.0,505.0,521.0
498.0,508.0,514.0,499.0,530.0
502.0,505.0,522.0,497.0,518.0
503.0,496.0,523.0,490.0,512.0
505.0,496.0,525.0,487.0,511.0
511.0,491.0,529.0,492.0,501.0
521.0,494.0,529.0,504.0,497.0
527.0,499.0,530.0,510.0,504.0
530.0,501.0,527.0,522.0,502.0
536.0,506.0,523.0,531.0,493.0
533.0,513.0,517.0,540.0,495.0
527.0,514.0,505.0,539.0,503.0
520.0,520.0,501.0,538.0,512.0
505.0,511.0,488.0,525.0,525.0
498.0,512.0,487.0,521.0,534.0
490.0,513.0,491.0,512.0,533.0
493.0,515.0,503.0,513.0,532.0
496.0,511.0,511.0,502.0,528.0
497.0,506.0,515.0,498.0,521.0
499.0,502.0,523.0,497.0,518.0
512.0,497.0,526.0,492.0,514.0
510.0,491.0,526.0,489.0,506.0
517.0,492.0,534.0,495.0,496.0
519.0,490.0,526.0,501.0,497.0
532.0,499.0,530.0,518.0,491.0
542.0,503.0,526.0,525.0,491.0
538.0,507.0,519.0,532.0,497.0
529.0,516.0,512.0,540.0,501.0
520.0,516.0,502.0,541.0,507.0
521.0,516.0,499.0,537.0,518.0
504.0,515.0,489.0,525.0,531.0
497.0,514.0,493.0,520.0,538.0
495.0,516.0,494.0,511.0,538.0
491.0,513.0,500.0,505.0,534.0
496.0,513.0,510.0,500.0,531.0
501.0,509.0,523.0,497.0,516.0
499.0,502.0,524.0,494.0,514.0
499.0,496.0,525.0,491.0,517.0
515.0,493.0,529.0,490.0,512.0
525.0,493.0,529.0,499.0,503.0
527.0,495.0,528.0,506.0,504.0
533.0,499.0,525.0,517.0,497.0
538.0,504.0,523.0,529.0,494.0
542.0,512.0,518.0,537.0,485.0
538.0,516.0,510.0,540.0,491.0
524.0,515.0,501.0,538.0,501.0
507.0,512.0,491.0,532.0,522.0
493.0,511.0,486.0,525.0,529.0
489.0,515.0,491.0,518.0,531.0
487.0,515.0,499.0,517.0,532.0
484.0,513.0,505.0,504.0,530.0
487.0,507.0,513.0,499.0,528.0
503.0,507.0,522.0,497.0,524.0
511.0,499.0,524.0,491.0,519.0
517.0,496.0,527.0,487.0,517.0
520.0,491.0,527.0,489.0,512.0
532.0,494.0,532.0,496.0,503.0
534.0,495.0,528.0,506.0,493.0
531.0,500.0,528.0,523.0,482.0
526.0,506.0,524.0,535.0,487.0
522.0,511.0,515.0,540.0,494.0
522.0,515.0,508.0,541.0,509.0
514.0,516.0,497.0,537.0,509.0
504.0,514.0,488.0,528.0,525.0
495.0,511.0,485.0,520.0,527.0
498.0,517.0,493.0,514.0,525.0
495.0,515.0,501.0,509.0,524.0
496.0,510.0,507.0,502.0,526.0
502.0,510.0,518.0,499.0,521.0
504.0,504.0,523.0,494.0,515.0
507.0,497.0,524.0,489.0,511.0
511.0,495.0,528.0,489.0,512.0
517.0,492.0,527.0,492.0,500.0
523.0,495.0,530.0,503.0,493.0
530.0,500.0,528.0,515.0,494.0
532.0,507.0,529.0,526.0,493.0
524.0,507.0,518.0,534.0,501.0
522.0,514.0,513.0,540.0,499.0
526.0,514.0,503.0,540.0,502.0
514.0,515.0,496.0,537.0,513.0
497.0,514.0,488.0,530.0,524.0
498.0,515.0,490.0,520.0,521.0
494.0,518.0,493.0,512.0,523.0
507.0,516.0,503.0,511.0,522.0
503.0,510.0,508.0,496.0,534.0
504.0,511.0,518.0,496.0,528.0
509.0,503.0,527.0,492.0,514.0
508.0,497.0,526.0,489.0,508.0
511.0,491.0,525.0,489.0,503.0
521.0,495.0,531.0,497.0,501.0
520.0,494.0,528.0,505.0,517.0
528.0,500.0,528.0,519.0,500.0
536.0,506.0,525.0,526.0,491.0
538.0,512.0,518.0,537.0,494.0
535.0,516.0,508.0,539.0,501.0
521.0,517.0,502.0,538.0,510.0
505.0,510.0,489.0,531.0,525.0
495.0,513.0,486.0,523.0,536.0
490.0,514.0,490.0,520.0,541.0
488.0,515.0,496.0,510.0,535.0
489.0,510.0,503.0,503.0,529.0
493.0,508.0,511.0,499.0,525.0
498.0,505.0,521.0,495.0,519.0
499.0,498.0,524.0,489.0,517.0
505.0,494.0,526.0,489.0,512.0
521.0,493.0,527.0,488.0,505.0
525.0,494.0,530.0,501.0,501.0
530.0,494.0,527.0,508.0,496.0
539.0,503.0,527.0,522.0,492.0
538.0,506.0,525.0,534.0,493.0
535.0,512.0,515.0,536.0,495.0
527.0,513.0,504.0,541.0,505.0
520.0,517.0,500.0,539.0,509.0
505.0,512.0,489.0,534.0,525.0
497.0,514.0,486.0,521.0,534.0
496.0,516.0,493.0,517.0,535.0
494.0,513.0,500.0,508.0,531.0
495.0,509.0,508.0,502.0,530.0
501.0,508.0,517.0,498.0,523.0
503.0,503.0,522.0,494.0,518.0
505.0,496.0,526.0,487.0,512.0
512.0,492.0,527.0,488.0,510.0
517.0,491.0,529.0,494.0,503.0
522.0,491.0,528.0,501.0,500.0
529.0,499.0,530.0,517.0,496.0
531.0,502.0,525.0,525.0,494.0
536.0,506.0,519.0,534.0,494.0
530.0,512.0,515.0,542.0,498.0
520.0,512.0,502.0,539.0,509.0
510.0,513.0,496.0,538.0,517.0
503.0,514.0,488.0,528.0,534.0
493.0,513.0,489.0,520.0,538.0
494.0,515.0,494.0,514.0,533.0
492.0,512.0,502.0,508.0,528.0
495.0,508.0,510.0,501.0,522.0
502.0,507.0,519.0,499.0,515.0
503.0,501.0,523.0,492.0,511.0
504.0,495.0,525.0,489.0,510.0
513.0,495.0,530.0,490.0,507.0
518.0,493.0,529.0,495.0,498.0
523.0,493.0,526.0,505.0,495.0
534.0,499.0,527.0,514.0,489.0
538.0,505.0,525.0,529.0,493.0
533.0,506.0,515.0,537.0,494.0
529.0,514.0,510.0,542.0,504.0
521.0,515.0,501.0,542.0,510.0
509.0,515.0,493.0,535.0,524.0
498.0,512.0,486.0,525.0,532.0
495.0,516.0,492.0,520.0,535.0
489.0,515.0,496.0,516.0,527.0
496.0,513.0,505.0,509.0,526.0
498.0,509.0,514.0,500.0,520.0
502.0,504.0,521.0,495.0,513.0
504.0,495.0,522.0,489.0,507.0
509.0,493.0,526.0,486.0,510.0
515.0,491.0,525.0,489.0,501.0
523.0,493.0,531.0,499.0,496.0
526.0,496.0,528.0,507.0,497.0
531.0,502.0,529.0,525.0,495.0
532.0,506.0,523.0,531.0,498.0
526.0,511.0,517.0,541.0,503.0
516.0,513.0,506.0,540.0,503.0
515.0,516.0,500.0,543.0,508.0
503.0,513.0,486.0,531.0,519.0
489.0,512.0,486.0,522.0,523.0
494.0,515.0,496.0,515.0,530.0
499.0,514.0,499.0,510.0,527.0
495.0,511.0,506.0,503.0,524.0
511.0,507.0,516.0,498.0,520.0
511.0,503.0,524.0,495.0,519.0
509.0,498.0,523.0,488.0,516.0
508.0,493.0,525.0,487.0,510.0
515.0,493.0,530.0,493.0,506.0
517.0,492.0,526.0,499.0,498.0
528.0,499.0,531.0,514.0,490.0
533.0,502.0,526.0,525.0,487.0
537.0,507.0,519.0,534.0,482.0
539.0,513.0,515.0,540.0,489.0
530.0,515.0,501.0,539.0,498.0
512.0,518.0,499.0,540.0,511.0
497.0,513.0,487.0,531.0,532.0
485.0,514.0,488.0,522.0,540.0
489.0,515.0,495.0,514.0,532.0
500.0,513.0,502.0,508.0,530.0
506.0,514.0,508.0,502.0,527.0
511.0,508.0,520.0,498.0,517.0
511.0,502.0,524.0,492.0,514.0
512.0,494.0,524.0,485.0,515.0
511.0,493.0,529.0,489.0,513.0
515.0,493.0,531.0,497.0,503.0
521.0,492.0,526.0,504.0,500.0
530.0,500.0,528.0,517.0,498.0
531.0,504.0,522.0,529.0,492.0
530.0,509.0,517.0,537.0,490.0
533.0,514.0,509.0,539.0,494.0
527.0,515.0,501.0,540.0,509.0
510.0,513.0,491.0,533.0,521.0
495.0,513.0,486.0,528.0,529.0
496.0,515.0,491.0,520.0,528.0
494.0,512.0,497.0,512.0,523.0
498.0,515.0,506.0,507.0,523.0
497.0,507.0,512.0,499.0,525.0
505.0,505.0,520.0,494.0,511.0
506.0,501.0,529.0,492.0,512.0
509.0,498.0,527.0,488.0,510.0
511.0,491.0,528.0,490.0,509.0
519.0,492.0,529.0,496.0,506.0
531.0,497.0,532.0,512.0,499.0
535.0,502.0,527.0,521.0,492.0
538.0,506.0,522.0,532.0,496.0
531.0,511.0,515.0,538.0,506.0
532.0,518.0,506.0,539.0,509.0
524.0,517.0,501.0,542.0,515.0
509.0,513.0,487.0,530.0,522.0
500.0,515.0,486.0,523.0,526.0
493.0,516.0,493.0,518.0,526.0
489.0,513.0,499.0,509.0,525.0
492.0,509.0,506.0,502.0,521.0
497.0,507.0,519.0,499.0,520.0
501.0,505.0,522.0,492.0,518.0
499.0,497.0,525.0,487.0,513.0
504.0,493.0,525.0,490.0,512.0
515.0,493.0,529.0,494.0,503.0
524.0,492.0,530.0,498.0,496.0
535.0,500.0,529.0,512.0,489.0
536.0,501.0,524.0,523.0,488.0
537.0,508.0,521.0,534.0,493.0
530.0,513.0,513.0,544.0,500.0
523.0,518.0,504.0,540.0,504.0
511.0,515.0,496.0,538.0,512.0
503.0,514.0,487.0,528.0,526.0
499.0,513.0,487.0,517.0,527.0
490.0,514.0,494.0,510.0,529.0
497.0,516.0,503.0,508.0,528.0
501.0,509.0,509.0,500.0,532.0
503.0,505.0,516.0,495.0,522.0
506.0,504.0,528.0,492.0,519.0
506.0,498.0,527.0,490.0,516.0
514.0,491.0,529.0,490.0,512.0
522.0,494.0,531.0,496.0,505.0
523.0,494.0,529.0,503.0,500.0
530.0,502.0,528.0,516.0,495.0
536.0,503.0,524.0,529.0,487.0
533.0,508.0,518.0,535.0,495.0
529.0,513.0,508.0,539.0,499.0
528.0,517.0,503.0,546.0,502.0
511.0,512.0,491.0,533.0,516.0
501.0,512.0,485.0,526.0,533.0
496.0,514.0,489.0,518.0,536.0
494.0,514.0,496.0,515.0,533.0
497.0,513.0,505.0,505.0,530.0
498.0,507.0,512.0,498.0,525.0
503.0,504.0,519.0,494.0,520.0
507.0,504.0,526.0,491.0,517.0
504.0,494.0,526.0,487.0,515.0
518.0,491.0,529.0,490.0,503.0
526.0,492.0,528.0,498.0,493.0
526.0,495.0,527.0,506.0,492.0
531.0,501.0,527.0,521.0,487.0
533.0,505.0,522.0,533.0,493.0
531.0,511.0,516.0,539.0,492.0
526.0,512.0,508.0,543.0,513.0
519.0,516.0,500.0,540.0,513.0
505.0,511.0,487.0,531.0,528.0
497.0,518.0,487.0,527.0,539.0
494.0,518.0,491.0,515.0,533.0
494.0,514.0,500.0,511.0,533.0
495.0,510.0,508.0,504.0,528.0
499.0,505.0,514.0,498.0,522.0
504.0,505.0,525.0,495.0,515.0
507.0,497.0,531.0,490.0,510.0
507.0,492.0,526.0,487.0,506.0
517.0,491.0,534.0,492.0,504.0
522.0,492.0,529.0,501.0,498.0
531.0,500.0,528.0,511.0,496.0
533.0,503.0,528.0,524.0,497.0
536.0,507.0,518.0,532.0,494.0
532.0,513.0,515.0,541.0,498.0
522.0,513.0,504.0,540.0,508.0
511.0,514.0,499.0,539.0,514.0
496.0,513.0,489.0,531.0,527.0
490.0,514.0,487.0,519.0,533.0
495.0,514.0,495.0,515.0,533.0
496.0,515.0,504.0,508.0,526.0
497.0,509.0,511.0,500.0,520.0
500.0,505.0,518.0,497.0,517.0
499.0,502.0,525.0,493.0,516.0
495.0,495.0,526.0,487.0,519.0
500.0,491.0,528.0,490.0,513.0
519.0,491.0,530.0,496.0,496.0
531.0,492.0,526.0,503.0,496.0
534.0,497.0,527.0,516.0,497.0
533.0,504.0,527.0,529.0,498.0
530.0,509.0,518.0,540.0,496.0
533.0,513.0,511.0,540.0,509.0
519.0,513.0,501.0,542.0,510.0
505.0,511.0,492.0,537.0,520.0
491.0,511.0,486.0,525.0,531.0
494.0,512.0,494.0,519.0,532.0
490.0,512.0,496.0,512.0,533.0
488.0,509.0,504.0,504.0,533.0
495.0,507.0,511.0,499.0,528.0
515.0,506.0,521.0,495.0,515.0
522.0,500.0,525.0,490.0,512.0
527.0,495.0,528.0,487.0,511.0
527.0,491.0,526.0,488.0,505.0
526.0,494.0,532.0,499.0,500.0
525.0,496.0,528.0,508.0,490.0
533.0,501.0,527.0,522.0,486.0
538.0,505.0,523.0,532.0,492.0
534.0,509.0,514.0,538.0,510.0
526.0,514.0,506.0,539.0,510.0
514.0,515.0,500.0,539.0,510.0
506.0,514.0,490.0,534.0,524.0
496.0,512.0,487.0,524.0,529.0
494.0,517.0,493.0,518.0,528.0
492.0,515.0,496.0,508.0,529.0
495.0,511.0,508.0,502.0,530.0
497.0,507.0,515.0,495.0,526.0
503.0,505.0,528.0,493.0,519.0
503.0,498.0,525.0,489.0,516.0
509.0,494.0,529.0,488.0,514.0
515.0,494.0,527.0,490.0,507.0
525.0,498.0,528.0,499.0,495.0
525.0,498.0,528.0,510.0,496.0
535.0,504.0,527.0,523.0,485.0
539.0,508.0,521.0,537.0,498.0
530.0,512.0,513.0,542.0,501.0
526.0,518.0,504.0,539.0,510.0
515.0,516.0,499.0,539.0,517.0
502.0,512.0,488.0,528.0,529.0
494.0,513.0,488.0,520.0,530.0
496.0,515.0,494.0,514.0,521.0
498.0,513.0,503.0,507.0,521.0
498.0,508.0,507.0,499.0,525.0
504.0,506.0,518.0,496.0,528.0
506.0,503.0,523.0,492.0,516.0
507.0,497.0,526.0,490.0,513.0
510.0,493.0,529.0,489.0,505.0
515.0,491.0,530.0,496.0,503.0
521.0,493.0,528.0,503.0,499.0
533.0,499.0,532.0,518.0,491.0
535.0,507.0,524.0,528.0,486.0
533.0,507.0,516.0,536.0,494.0
528.0,513.0,510.0,544.0,502.0
520.0,515.0,502.0,539.0,516.0
511.0,513.0,494.0,535.0,524.0
497.0,510.0,489.0,524.0,531.0
493.0,515.0,491.0,518.0,534.0
491.0,513.0,497.0,514.0,534.0
496.0,514.0,506.0,504.0,531.0
497.0,507.0,508.0,497.0,524.0
505.0,509.0,521.0,496.0,521.0
504.0,500.0,525.0,490.0,520.0
507.0,495.0,528.0,489.0,518.0
515.0,496.0,529.0,490.0,508.0
519.0,492.0,530.0,497.0,503.0
526.0,497.0,531.0,506.0,496.0
528.0,498.0,525.0,519.0,493.0
534.0,506.0,526.0,530.0,496.0
531.0,510.0,516.0,538.0,504.0
525.0,514.0,506.0,540.0,504.0
518.0,518.0,499.0,538.0,508.0
506.0,513.0,488.0,533.0,523.0
497.0,513.0,485.0,520.0,534.0
493.0,514.0,492.0,516.0,537.0
497.0,516.0,498.0,507.0,532.0
498.0,512.0,509.0,504.0,529.0
503.0,507.0,514.0,497.0,521.0
506.0,503.0,521.0,493.0,513.0
507.0,498.0,527.0,490.0,516.0
505.0,491.0,526.0,486.0,509.0
515.0,490.0,533.0,494.0,504.0
521.0,491.0,528.0,500.0,497.0
528.0,496.0,529.0,512.0,490.0
537.0,505.0,527.0,524.0,486.0
537.0,509.0,520.0,533.0,492.0
534.0,513.0,510.0,540.0,499.0
524.0,514.0,504.0,542.0,512.0
514.0,517.0,501.0,540.0,521.0
501.0,513.0,490.0,530.0,535.0
490.0,512.0,488.0,518.0,538.0
494.0,515.0,497.0,516.0,535.0
495.0,515.0,505.0,509.0,524.0
493.0,509.0,510.0,500.0,527.0
502.0,508.0,515.0,499.0,520.0
509.0,503.0,526.0,494.0,513.0
508.0,497.0,524.0,487.0,513.0
510.0,493.0,528.0,488.0,513.0
519.0,491.0,529.0,493.0,502.0
524.0,493.0,528.0,502.0,499.0
529.0,501.0,529.0,515.0,496.0
531.0,505.0,525.0,525.0,491.0
531.0,510.0,522.0,536.0,494.0
530.0,513.0,515.0,543.0,494.0
526.0,514.0,511.0,544.0,507.0
514.0,515.0,501.0,536.0,520.0
507.0,514.0,487.0,530.0,527.0
495.0,513.0,486.0,520.0,529.0
489.0,513.0,491.0,511.0,539.0
493.0,512.0,501.0,502.0,539.0
493.0,507.0,513.0,493.0,535.0
502.0,505.0,519.0,493.0,525.0
504.0,499.0,523.0,489.0,517.0
505.0,493.0,526.0,488.0,514.0
512.0,494.0,530.0,491.0,510.0
517.0,492.0,528.0,495.0,503.0
525.0,496.0,529.0,507.0,499.0
531.0,501.0,525.0,517.0,493.0
536.0,506.0,523.0,530.0,494.0
532.0,510.0,515.0,537.0,500.0
523.0,514.0,506.0,539.0,510.0
515.0,516.0,500.0,539.0,509.0
503.0,512.0,489.0,534.0,523.0
497.0,513.0,486.0,526.0,527.0
493.0,515.0,492.0,518.0,533.0
489.0,514.0,498.0,508.0,536.0
498.0,512.0,506.0,501.0,529.0
502.0,510.0,516.0,497.0,522.0
506.0,504.0,524.0,493.0,512.0
505.0,496.0,530.0,489.0,514.0
509.0,493.0,532.0,485.0,513.0
513.0,490.0,533.0,491.0,506.0
525.0,496.0,537.0,501.0,504.0
529.0,499.0,529.0,511.0,498.0
533.0,503.0,516.0,525.0,497.0
534.0,508.0,513.0,532.0,494.0
531.0,511.0,506.0,541.0,504.0
529.0,514.0,498.0,539.0,507.0
516.0,515.0,495.0,539.0,517.0
502.0,514.0,490.0,527.0,531.0
490.0,512.0,489.0,517.0,536.0
493.0,516.0,495.0,516.0,530.0
497.0,516.0,502.0,511.0,521.0
495.0,511.0,507.0,505.0,528.0
503.0,511.0,519.0,500.0,520.0
510.0,506.0,525.0,499.0,507.0
511.0,500.0,528.0,495.0,506.0
515.0,495.0,518.0,492.0,500.0
513.0,488.0,513.0,493.0,505.0
522.0,487.0,511.0,502.0,505.0
535.0,489.0,512.0,514.0,490.0
550.0,497.0,519.0,533.0,475.0
541.0,500.0,516.0,539.0,484.0
520.0,504.0,507.0,536.0,499.0
517.0,508.0,499.0,527.0,511.0
504.0,513.0,502.0,525.0,525.0
497.0,513.0,491.0,522.0,530.0
496.0,518.0,498.0,517.0,539.0
498.0,518.0,504.0,513.0,534.0
493.0,514.0,512.0,510.0,529.0
499.0,511.0,530.0,498.0,524.0
503.0,510.0,545.0,498.0,516.0
504.0,501.0,543.0,488.0,516.0
516.0,500.0,547.0,487.0,513.0
512.0,489.0,542.0,487.0,516.0
518.0,484.0,509.0,492.0,505.0
527.0,481.0,514.0,503.0,501.0
530.0,482.0,517.0,515.0,495.0
532.0,491.0,520.0,528.0,496.0
532.0,499.0,514.0,537.0,498.0
529.0,493.0,498.0,537.0,503.0
527.0,496.0,487.0,546.0,503.0
506.0,510.0,487.0,527.0,519.0
503.0,531.0,510.0,526.0,524.0
497.0,516.0,514.0,516.0,528.0
496.0,514.0,509.0,508.0,535.0
496.0,512.0,503.0,496.0,529.0
490.0,495.0,486.0,483.0,526.0
504.0,496.0,498.0,478.0,523.0
509.0,474.0,525.0,489.0,509.0
508.0,478.0,529.0,496.0,511.0
509.0,484.0,537.0,494.0,510.0
519.0,488.0,542.0,496.0,510.0
525.0,505.0,497.0,504.0,507.0
537.0,537.0,511.0,518.0,494.0
543.0,551.0,509.0,540.0,486.0
536.0,524.0,471.0,555.0,493.0
531.0,516.0,474.0,554.0,496.0
512.0,512.0,466.0,549.0,504.0
500.0,511.0,461.0,530.0,526.0
500.0,514.0,475.0,524.0,533.0
492.0,518.0,482.0,518.0,534.0
496.0,526.0,490.0,510.0,534.0
500.0,518.0,502.0,505.0,529.0
515.0,516.0,517.0,508.0,512.0
517.0,514.0,516.0,498.0,517.0
500.0,505.0,528.0,487.0,520.0
510.0,498.0,526.0,490.0,506.0
518.0,495.0,539.0,505.0,490.0
529.0,504.0,549.0,522.0,492.0
545.0,505.0,549.0,529.0,486.0
545.0,515.0,552.0,535.0,486.0
532.0,517.0,544.0,530.0,493.0
525.0,516.0,530.0,526.0,498.0
517.0,515.0,527.0,531.0,505.0
515.0,513.0,505.0,529.0,524.0
502.0,510.0,499.0,521.0,530.0
494.0,512.0,495.0,512.0,530.0
493.0,513.0,500.0,504.0,530.0
500.0,512.0,509.0,499.0,527.0
511.0,504.0,511.0,492.0,514.0
518.0,497.0,518.0,491.0,506.0
502.0,486.0,510.0,480.0,517.0
505.0,485.0,525.0,483.0,516.0
513.0,484.0,531.0,490.0,500.0
520.0,496.0,543.0,514.0,492.0
526.0,499.0,539.0,515.0,495.0
529.0,506.0,531.0,526.0,497.0
533.0,513.0,532.0,537.0,499.0
526.0,506.0,520.0,544.0,500.0
527.0,505.0,509.0,551.0,501.0
518.0,510.0,500.0,552.0,505.0
508.0,512.0,485.0,539.0,521.0
500.0,521.0,482.0,527.0,534.0
497.0,522.0,485.0,521.0,531.0
489.0,516.0,506.0,518.0,528.0
506.0,504.0,511.0,507.0,513.0
517.0,494.0,517.0,499.0,510.0
503.0,478.0,543.0,499.0,512.0
491.0,461.0,558.0,499.0,525.0
505.0,448.0,560.0,500.0,519.0
501.0,434.0,557.0,504.0,519.0
518.0,465.0,526.0,513.0,505.0
540.0,511.0,511.0,514.0,490.0
543.0,524.0,530.0,540.0,478.0
540.0,523.0,512.0,535.0,482.0
535.0,529.0,497.0,516.0,493.0
530.0,525.0,483.0,529.0,515.0
511.0,510.0,470.0,547.0,523.0
490.0,511.0,464.0,533.0,540.0
490.0,529.0,469.0,525.0,542.0
501.0,537.0,472.0,528.0,534.0
507.0,537.0,494.0,543.0,525.0
506.0,523.0,501.0,550.0,514.0
506.0,526.0,511.0,535.0,509.0
506.0,500.0,511.0,515.0,508.0
502.0,477.0,511.0,503.0,509.0
516.0,494.0,529.0,505.0,506.0
518.0,496.0,522.0,501.0,509.0
519.0,487.0,507.0,523.0,508.0
529.0,484.0,522.0,542.0,495.0
535.0,506.0,529.0,556.0,487.0
531.0,519.0,516.0,557.0,490.0
538.0,543.0,508.0,562.0,493.0
523.0,523.0,472.0,565.0,507.0
511.0,509.0,467.0,558.0,527.0
494.0,487.0,458.0,548.0,548.0
487.0,490.0,472.0,539.0,543.0
490.0,512.0,505.0,538.0,542.0
490.0,512.0,493.0,530.0,538.0
490.0,490.0,496.0,495.0,532.0
505.0,497.0,477.0,492.0,519.0
511.0,521.0,537.0,532.0,512.0
513.0,508.0,540.0,543.0,506.0
514.0,486.0,547.0,546.0,493.0
526.0,487.0,546.0,556.0,487.0
540.0,498.0,497.0,550.0,492.0
537.0,510.0,534.0,558.0,497.0
530.0,515.0,544.0,569.0,504.0
533.0,553.0,540.0,571.0,492.0
531.0,547.0,518.0,591.0,500.0
519.0,508.0,494.0,576.0,513.0
507.0,493.0,495.0,580.0,515.0
502.0,481.0,510.0,580.0,526.0
494.0,475.0,501.0,558.0,526.0
495.0,479.0,491.0,555.0,525.0
509.0,512.0,521.0,575.0,509.0
508.0,518.0,519.0,571.0,494.0
507.0,531.0,519.0,560.0,507.0
494.0,509.0,509.0,535.0,533.0
512.0,544.0,554.0,510.0,511.0
521.0,534.0,584.0,508.0,498.0
533.0,517.0,564.0,553.0,482.0
537.0,513.0,540.0,569.0,481.0
539.0,521.0,472.0,546.0,487.0
529.0,528.0,504.0,559.0,496.0
537.0,526.0,556.0,580.0,492.0
540.0,523.0,540.0,578.0,502.0
516.0,533.0,558.0,572.0,517.0
483.0,516.0,476.0,559.0,544.0
498.0,504.0,426.0,510.0,547.0
502.0,485.0,490.0,512.0,534.0
504.0,495.0,486.0,499.0,524.0
479.0,483.0,519.0,493.0,552.0
488.0,473.0,501.0,496.0,532.0
505.0,505.0,539.0,527.0,529.0
522.0,495.0,566.0,562.0,507.0
543.0,516.0,640.0,555.0,479.0
526.0,525.0,608.0,544.0,477.0
520.0,472.0,536.0,508.0,491.0
512.0,417.0,473.0,527.0,513.0
530.0,377.0,474.0,560.0,495.0
540.0,433.0,502.0,602.0,486.0
530.0,493.0,545.0,644.0,499.0
519.0,504.0,498.0,656.0,511.0
507.0,485.0,505.0,602.0,520.0
486.0,508.0,460.0,543.0,538.0
496.0,518.0,490.0,544.0,521.0
503.0,501.0,501.0,536.0,523.0
493.0,484.0,483.0,560.0,508.0
487.0,478.0,538.0,542.0,526.0
489.0,506.0,577.0,486.0,531.0
501.0,550.0,561.0,493.0,526.0
516.0,570.0,536.0,528.0,511.0
521.0,529.0,491.0,539.0,487.0
546.0,509.0,557.0,567.0,477.0
548.0,535.0,612.0,611.0,473.0
549.0,547.0,596.0,599.0,482.0
550.0,523.0,592.0,566.0,494.0
525.0,501.0,567.0,599.0,507.0
516.0,513.0,563.0,631.0,498.0
497.0,541.0,554.0,614.0,506.0
494.0,525.0,484.0,538.0,523.0
487.0,480.0,499.0,535.0,540.0
479.0,450.0,496.0,483.0,562.0
489.0,462.0,479.0,473.0,545.0
502.0,507.0,530.0,525.0,525.0
499.0,535.0,520.0,562.0,517.0
522.0,528.0,496.0,568.0,497.0
523.0,527.0,583.0,526.0,500.0
509.0,503.0,550.0,411.0,523.0
527.0,473.0,555.0,417.0,493.0
527.0,441.0,560.0,494.0,474.0
525.0,460.0,631.0,571.0,479.0
526.0,532.0,651.0,641.0,473.0
531.0,563.0,572.0,628.0,494.0
533.0,530.0,521.0,602.0,486.0
523.0,550.0,525.0,611.0,487.0
525.0,522.0,460.0,588.0,503.0
525.0,482.0,419.0,583.0,503.0
516.0,420.0,444.0,582.0,502.0
512.0,504.0,473.0,619.0,498.0
483.0,494.0,539.0,582.0,541.0
473.0,484.0,612.0,497.0,547.0
484.0,497.0,649.0,481.0,534.0
503.0,537.0,609.0,468.0,539.0
508.0,509.0,525.0,452.0,532.0
515.0,478.0,524.0,495.0,505.0
517.0,494.0,492.0,498.0,494.0
530.0,556.0,512.0,483.0,495.0
530.0,544.0,476.0,559.0,494.0
538.0,532.0,500.0,602.0,489.0
534.0,499.0,588.0,578.0,488.0
552.0,466.0,709.0,610.0,468.0
532.0,461.0,653.0,616.0,487.0
498.0,438.0,329.0,541.0,532.0
489.0,482.0,322.0,505.0,541.0
474.0,488.0,373.0,497.0,543.0
490.0,494.0,427.0,481.0,531.0
482.0,506.0,502.0,482.0,540.0
509.0,554.0,547.0,524.0,509.0
521.0,602.0,624.0,540.0,512.0
529.0,568.0,596.0,580.0,500.0
514.0,505.0,496.0,574.0,508.0
534.0,459.0,503.0,578.0,480.0
514.0,427.0,471.0,563.0,483.0
517.0,448.0,481.0,585.0,489.0
532.0,487.0,575.0,544.0,492.0
544.0,507.0,592.0,488.0,470.0
524.0,518.0,583.0,549.0,492.0
514.0,518.0,448.0,561.0,511.0
520.0,502.0,418.0,536.0,509.0
523.0,486.0,457.0,506.0,506.0
492.0,456.0,530.0,524.0,538.0
477.0,497.0,638.0,541.0,539.0
485.0,524.0,524.0,513.0,543.0
496.0,546.0,425.0,491.0,532.0
499.0,525.0,507.0,445.0,522.0
521.0,550.0,600.0,527.0,494.0
503.0,508.0,557.0,537.0,520.0
498.0,453.0,560.0,501.0,529.0
507.0,475.0,547.0,528.0,515.0
515.0,468.0,620.0,540.0,498.0
533.0,509.0,678.0,523.0,481.0
533.0,508.0,586.0,522.0,496.0
533.0,533.0,504.0,554.0,494.0
535.0,493.0,651.0,579.0,497.0
524.0,522.0,617.0,597.0,512.0
524.0,503.0,555.0,530.0,499.0
503.0,533.0,365.0,484.0,514.0
501.0,528.0,391.0,530.0,504.0
527.0,515.0,476.0,509.0,476.0
511.0,484.0,523.0,470.0,498.0
484.0,469.0,572.0,548.0,492.0
491.0,434.0,476.0,541.0,485.0
511.0,431.0,479.0,435.0,491.0
503.0,405.0,477.0,412.0,505.0
511.0,495.0,512.0,468.0,502.0
515.0,499.0,535.0,516.0,506.0
521.0,521.0,600.0,512.0,514.0
532.0,505.0,625.0,504.0,499.0
550.0,555.0,560.0,561.0,478.0
536.0,616.0,598.0,617.0,483.0
519.0,557.0,563.0,578.0,488.0
517.0,497.0,505.0,472.0,501.0
502.0,432.0,596.0,473.0,515.0
486.0,436.0,549.0,543.0,555.0
512.0,457.0,656.0,555.0,546.0
470.0,458.0,482.0,441.0,557.0
496.0,580.0,486.0,425.0,530.0
518.0,593.0,440.0,493.0,510.0
509.0,547.0,414.0,426.0,529.0
500.0,495.0,539.0,519.0,547.0
494.0,496.0,560.0,525.0,531.0
510.0,475.0,569.0,506.0,517.0
517.0,447.0,510.0,470.0,501.0
501.0,454.0,449.0,419.0,533.0
547.0,457.0,559.0,506.0,470.0
544.0,500.0,687.0,530.0,484.0
526.0,540.0,570.0,515.0,494.0
497.0,575.0,330.0,463.0,535.0
507.0,600.0,449.0,521.0,532.0
515.0,595.0,501.0,583.0,502.0
514.0,611.0,591.0,549.0,510.0
490.0,539.0,534.0,537.0,538.0
485.0,501.0,441.0,506.0,539.0
480.0,503.0,471.0,479.0,545.0
493.0,523.0,526.0,483.0,518.0
515.0,549.0,559.0,449.0,517.0
509.0,517.0,533.0,432.0,524.0
504.0,496.0,541.0,450.0,512.0
503.0,500.0,621.0,463.0,512.0
531.0,558.0,618.0,475.0,489.0
532.0,540.0,602.0,472.0,511.0
518.0,503.0,497.0,504.0,504.0
535.0,549.0,520.0,522.0,501.0
524.0,540.0,575.0,555.0,511.0
524.0,513.0,599.0,509.0,519.0
519.0,496.0,631.0,540.0,507.0
493.0,491.0,485.0,514.0,545.0
485.0,419.0,421.0,456.0,560.0
490.0,402.0,607.0,482.0,529.0
495.0,415.0,646.0,458.0,509.0
477.0,416.0,556.0,398.0,549.0
479.0,492.0,539.0,377.0,551.0
500.0,565.0,506.0,467.0,513.0
518.0,643.0,573.0,567.0,513.0
526.0,619.0,536.0,541.0,491.0
515.0,523.0,460.0,462.0,487.0
509.0,505.0,413.0,435.0,517.0
528.0,502.0,495.0,500.0,469.0
534.0,493.0,559.0,526.0,496.0
529.0,504.0,603.0,554.0,497.0
532.0,472.0,535.0,561.0,513.0
524.0,494.0,534.0,556.0,492.0
523.0,459.0,519.0,527.0,503.0
512.0,509.0,501.0,495.0,515.0
494.0,529.0,560.0,480.0,540.0
497.0,534.0,619.0,478.0,514.0
502.0,503.0,567.0,495.0,509.0
506.0,469.0,504.0,529.0,494.0
489.0,526.0,583.0,490.0,513.0
488.0,457.0,424.0,404.0,523.0
494.0,475.0,447.0,486.0,523.0
514.0,504.0,514.0,487.0,507.0
516.0,559.0,470.0,409.0,498.0
525.0,523.0,477.0,467.0,484.0
543.0,569.0,686.0,500.0,470.0
545.0,534.0,707.0,554.0,470.0
528.0,485.0,547.0,581.0,479.0
509.0,517.0,503.0,532.0,508.0
533.0,515.0,560.0,538.0,488.0
492.0,468.0,595.0,518.0,572.0
489.0,494.0,540.0,468.0,569.0
502.0,591.0,577.0,476.0,531.0
509.0,572.0,600.0,470.0,522.0
503.0,510.0,620.0,471.0,536.0
478.0,467.0,481.0,503.0,518.0
495.0,528.0,408.0,439.0,530.0
494.0,522.0,461.0,405.0,550.0
532.0,472.0,581.0,484.0,508.0
523.0,486.0,614.0,528.0,499.0
508.0,442.0,608.0,526.0,502.0
520.0,485.0,626.0,522.0,483.0
544.0,522.0,634.0,490.0,468.0
536.0,547.0,544.0,472.0,479.0
546.0,503.0,474.0,515.0,466.0
523.0,456.0,456.0,546.0,470.0
509.0,504.0,670.0,587.0,494.0
484.0,558.0,605.0,547.0,522.0
487.0,537.0,401.0,491.0,522.0
497.0,521.0,341.0,470.0,519.0
514.0,542.0,542.0,500.0,500.0
531.0,489.0,662.0,518.0,518.0
513.0,393.0,520.0,446.0,544.0
476.0,442.0,463.0,434.0,543.0
455.0,509.0,491.0,479.0,574.0
507.0,577.0,541.0,464.0,535.0
533.0,611.0,518.0,494.0,494.0
527.0,580.0,573.0,537.0,490.0
523.0,583.0,604.0,534.0,506.0
532.0,557.0,594.0,517.0,484.0
526.0,530.0,571.0,469.0,519.0
536.0,520.0,567.0,456.0,502.0
531.0,525.0,575.0,490.0,513.0
509.0,505.0,552.0,545.0,539.0
515.0,494.0,508.0,555.0,511.0
496.0,497.0,442.0,531.0,532.0
488.0,515.0,472.0,494.0,544.0
501.0,503.0,492.0,513.0,513.0
484.0,491.0,502.0,447.0,534.0
502.0,536.0,561.0,491.0,521.0
514.0,535.0,504.0,514.0,511.0
512.0,507.0,543.0,468.0,502.0
514.0,499.0,563.0,476.0,509.0
509.0,485.0,587.0,485.0,522.0
507.0,462.0,553.0,485.0,525.0
529.0,464.0,546.0,479.0,499.0
538.0,469.0,525.0,522.0,476.0
519.0,490.0,553.0,538.0,490.0
536.0,559.0,556.0,531.0,489.0
539.0,595.0,601.0,528.0,500.0
524.0,556.0,578.0,544.0,487.0
500.0,484.0,521.0,541.0,517.0
472.0,484.0,516.0,578.0,558.0
476.0,481.0,663.0,502.0,568.0
499.0,478.0,478.0,435.0,531.0
475.0,418.0,374.0,470.0,543.0
484.0,531.0,459.0,462.0,524.0
540.0,602.0,566.0,480.0,479.0
529.0,582.0,574.0,466.0,516.0
515.0,561.0,521.0,466.0,518.0
524.0,530.0,482.0,496.0,510.0
544.0,502.0,509.0,500.0,492.0
527.0,421.0,502.0,501.0,503.0
510.0,414.0,525.0,515.0,522.0
514.0,471.0,493.0,533.0,522.0
519.0,552.0,514.0,544.0,521.0
530.0,546.0,513.0,536.0,520.0
517.0,474.0,504.0,498.0,532.0
485.0,438.0,517.0,501.0,543.0
506.0,529.0,508.0,544.0,512.0
510.0,535.0,561.0,511.0,522.0
500.0,576.0,592.0,480.0,523.0
481.0,519.0,521.0,468.0,527.0
508.0,568.0,542.0,471.0,525.0
508.0,507.0,628.0,501.0,513.0
514.0,456.0,537.0,480.0,481.0
512.0,464.0,420.0,460.0,493.0
514.0,523.0,513.0,501.0,499.0
517.0,493.0,558.0,522.0,509.0
523.0,521.0,570.0,505.0,482.0
544.0,591.0,554.0,552.0,491.0
536.0,559.0,516.0,528.0,507.0
521.0,532.0,561.0,585.0,498.0
530.0,541.0,527.0,550.0,532.0
511.0,511.0,418.0,493.0,520.0
496.0,488.0,451.0,484.0,534.0
482.0,451.0,526.0,504.0,551.0
475.0,456.0,478.0,476.0,574.0
492.0,535.0,460.0,483.0,545.0
517.0,566.0,476.0,528.0,504.0
507.0,538.0,502.0,469.0,521.0
509.0,496.0,540.0,474.0,510.0
517.0,471.0,570.0,500.0,497.0
511.0,454.0,556.0,462.0,510.0
510.0,438.0,500.0,455.0,516.0
534.0,525.0,564.0,514.0,494.0
533.0,526.0,641.0,543.0,478.0
530.0,521.0,611.0,552.0,485.0
517.0,512.0,488.0,528.0,501.0
517.0,506.0,498.0,503.0,506.0
505.0,528.0,518.0,548.0,508.0
501.0,521.0,547.0,539.0,529.0
497.0,529.0,560.0,507.0,530.0
504.0,503.0,534.0,512.0,512.0
492.0,423.0,427.0,466.0,513.0
498.0,385.0,408.0,461.0,489.0
518.0,478.0,486.0,520.0,502.0
504.0,580.0,563.0,501.0,524.0
497.0,551.0,541.0,467.0,527.0
511.0,561.0,560.0,519.0,521.0
527.0,514.0,589.0,517.0,516.0
520.0,470.0,534.0,497.0,524.0
515.0,464.0,432.0,450.0,531.0
533.0,484.0,509.0,518.0,508.0
535.0,533.0,526.0,539.0,490.0
524.0,532.0,437.0,547.0,511.0
509.0,474.0,413.0,519.0,538.0
509.0,497.0,535.0,555.0,518.0
482.0,512.0,524.0,515.0,540.0
490.0,527.0,543.0,476.0,534.0
493.0,552.0,614.0,511.0,541.0
509.0,570.0,587.0,530.0,513.0
507.0,555.0,476.0,480.0,515.0
520.0,541.0,533.0,484.0,508.0
525.0,534.0,559.0,480.0,497.0
526.0,506.0,566.0,485.0,508.0
509.0,506.0,600.0,457.0,521.0
521.0,531.0,559.0,498.0,494.0
542.0,510.0,539.0,535.0,498.0
528.0,489.0,543.0,564.0,510.0
518.0,489.0,489.0,534.0,508.0
524.0,519.0,480.0,542.0,488.0
531.0,538.0,488.0,544.0,480.0
532.0,534.0,482.0,537.0,482.0
514.0,511.0,507.0,539.0,498.0
503.0,528.0,509.0,517.0,523.0
484.0,514.0,443.0,485.0,538.0
499.0,481.0,515.0,547.0,520.0
478.0,477.0,536.0,512.0,551.0
473.0,444.0,572.0,442.0,553.0
489.0,537.0,531.0,456.0,546.0
508.0,541.0,509.0,487.0,535.0
518.0,503.0,521.0,506.0,508.0
541.0,510.0,576.0,489.0,479.0
536.0,484.0,550.0,498.0,493.0
526.0,464.0,573.0,525.0,493.0
523.0,477.0,722.0,559.0,469.0
527.0,437.0,539.0,485.0,511.0
520.0,403.0,457.0,475.0,517.0
515.0,492.0,483.0,572.0,525.0
532.0,575.0,466.0,594.0,502.0
509.0,574.0,465.0,537.0,534.0
519.0,567.0,420.0,502.0,525.0
528.0,562.0,473.0,540.0,530.0
534.0,546.0,486.0,526.0,519.0
480.0,517.0,503.0,499.0,526.0
477.0,498.0,581.0,493.0,519.0
472.0,479.0,520.0,439.0,549.0
480.0,430.0,484.0,376.0,553.0
505.0,438.0,447.0,459.0,532.0
520.0,504.0,501.0,497.0,502.0
534.0,553.0,589.0,535.0,496.0
544.0,542.0,699.0,549.0,492.0
537.0,538.0,735.0,578.0,494.0
518.0,487.0,504.0,558.0,524.0
522.0,490.0,353.0,517.0,502.0
532.0,552.0,480.0,557.0,491.0
530.0,532.0,469.0,544.0,496.0
499.0,491.0,414.0,532.0,521.0
484.0,482.0,446.0,512.0,531.0
489.0,491.0,471.0,493.0,545.0
499.0,520.0,533.0,484.0,541.0
506.0,506.0,609.0,495.0,530.0
499.0,487.0,556.0,468.0,529.0
513.0,518.0,450.0,458.0,515.0
524.0,539.0,512.0,490.0,496.0
523.0,505.0,536.0,487.0,499.0
536.0,498.0,528.0,494.0,491.0
529.0,491.0,588.0,550.0,495.0
526.0,475.0,594.0,553.0,487.0
527.0,448.0,496.0,535.0,492.0
516.0,423.0,420.0,526.0,501.0
516.0,522.0,496.0,571.0,500.0
527.0,560.0,438.0,553.0,498.0
503.0,592.0,500.0,507.0,530.0
497.0,581.0,480.0,475.0,555.0
507.0,556.0,448.0,479.0,549.0
496.0,517.0,462.0,513.0,537.0
493.0,498.0,479.0,538.0,550.0
508.0,521.0,511.0,509.0,526.0
505.0,471.0,530.0,480.0,512.0
490.0,441.0,543.0,457.0,516.0
497.0,455.0,539.0,464.0,521.0
520.0,474.0,554.0,510.0,499.0
547.0,528.0,581.0,523.0,485.0
524.0,462.0,571.0,487.0,502.0
526.0,532.0,589.0,499.0,500.0
532.0,588.0,509.0,523.0,495.0
541.0,570.0,450.0,531.0,477.0
551.0,546.0,490.0,559.0,460.0
522.0,498.0,476.0,574.0,486.0
488.0,478.0,511.0,569.0,515.0
493.0,500.0,538.0,539.0,526.0
494.0,508.0,468.0,519.0,529.0
496.0,554.0,511.0,485.0,520.0
500.0,576.0,545.0,472.0,542.0
489.0,520.0,495.0,487.0,527.0
500.0,512.0,577.0,500.0,529.0
501.0,503.0,543.0,499.0,543.0
513.0,496.0,417.0,458.0,524.0
526.0,510.0,536.0,519.0,497.0
534.0,493.0,582.0,556.0,491.0
535.0,492.0,534.0,511.0,517.0
540.0,472.0,499.0,505.0,504.0
545.0,480.0,472.0,537.0,491.0
522.0,483.0,529.0,524.0,504.0
518.0,504.0,528.0,521.0,502.0
498.0,495.0,492.0,561.0,532.0
488.0,530.0,524.0,557.0,519.0
496.0,503.0,535.0,523.0,501.0
512.0,556.0,472.0,482.0,501.0
503.0,535.0,454.0,478.0,517.0
502.0,505.0,507.0,504.0,509.0
504.0,496.0,527.0,502.0,521.0
495.0,451.0,523.0,501.0,536.0
517.0,463.0,533.0,499.0,528.0
524.0,511.0,595.0,491.0,529.0
518.0,469.0,575.0,482.0,513.0
529.0,497.0,601.0,552.0,488.0
521.0,464.0,437.0,540.0,495.0
525.0,532.0,441.0,518.0,488.0
538.0,524.0,565.0,534.0,502.0
522.0,495.0,607.0,536.0,517.0
507.0,554.0,556.0,514.0,534.0
495.0,541.0,359.0,521.0,561.0
504.0,524.0,428.0,542.0,544.0
496.0,482.0,416.0,521.0,551.0
486.0,420.0,445.0,487.0,550.0
476.0,416.0,472.0,506.0,534.0
495.0,565.0,551.0,521.0,513.0
506.0,481.0,609.0,518.0,532.0
510.0,535.0,604.0,489.0,509.0
517.0,524.0,490.0,425.0,489.0
537.0,531.0,480.0,484.0,474.0
535.0,518.0,558.0,525.0,477.0
528.0,515.0,513.0,522.0,482.0
531.0,472.0,472.0,517.0,490.0
527.0,452.0,476.0,539.0,489.0
548.0,486.0,486.0,553.0,486.0
530.0,547.0,522.0,566.0,514.0
509.0,578.0,587.0,548.0,523.0
495.0,606.0,563.0,512.0,553.0
497.0,554.0,522.0,511.0,548.0
493.0,509.0,492.0,523.0,543.0
502.0,534.0,552.0,542.0,521.0
500.0,528.0,488.0,484.0,524.0
505.0,519.0,490.0,482.0,512.0
499.0,487.0,455.0,473.0,511.0
506.0,476.0,495.0,488.0,492.0
534.0,465.0,508.0,499.0,486.0
539.0,445.0,527.0,540.0,492.0
534.0,530.0,534.0,571.0,471.0
530.0,545.0,481.0,463.0,486.0
516.0,492.0,482.0,490.0,516.0
529.0,484.0,494.0,569.0,497.0
517.0,528.0,493.0,541.0,508.0
512.0,528.0,486.0,531.0,525.0
508.0,536.0,548.0,538.0,527.0
486.0,536.0,587.0,535.0,566.0
479.0,500.0,408.0,498.0,566.0
491.0,504.0,409.0,493.0,530.0
496.0,489.0,477.0,516.0,523.0
503.0,504.0,486.0,509.0,522.0
502.0,483.0,455.0,464.0,518.0
510.0,495.0,526.0,477.0,505.0
518.0,519.0,542.0,507.0,503.0
522.0,490.0,509.0,491.0,500.0
517.0,469.0,551.0,524.0,505.0
535.0,528.0,590.0,528.0,504.0
552.0,525.0,550.0,545.0,487.0
547.0,490.0,531.0,553.0,477.0
530.0,528.0,537.0,544.0,486.0
520.0,520.0,515.0,504.0,507.0
517.0,532.0,496.0,522.0,501.0
496.0,521.0,470.0,529.0,525.0
485.0,512.0,488.0,560.0,538.0
479.0,510.0,514.0,538.0,538.0
482.0,487.0,475.0,502.0,541.0
492.0,482.0,504.0,507.0,539.0
495.0,472.0,539.0,519.0,507.0
519.0,514.0,572.0,504.0,504.0
510.0,525.0,523.0,449.0,515.0
506.0,511.0,542.0,452.0,512.0
522.0,483.0,511.0,496.0,503.0
517.0,457.0,450.0,516.0,505.0
537.0,494.0,500.0,537.0,486.0
548.0,500.0,510.0,545.0,475.0
533.0,503.0,501.0,554.0,476.0
524.0,530.0,518.0,550.0,488.0
513.0,524.0,566.0,556.0,520.0
498.0,528.0,578.0,551.0,545.0
502.0,523.0,481.0,530.0,545.0
504.0,495.0,427.0,515.0,523.0
490.0,483.0,458.0,482.0,530.0
489.0,500.0,492.0,509.0,533.0
489.0,502.0,488.0,508.0,527.0
508.0,505.0,508.0,491.0,530.0
517.0,520.0,525.0,496.0,508.0
524.0,514.0,517.0,525.0,493.0
508.0,494.0,487.0,506.0,518.0
512.0,505.0,512.0,500.0,528.0
521.0,534.0,544.0,510.0,510.0
535.0,523.0,532.0,527.0,492.0
533.0,519.0,515.0,544.0,502.0
535.0,534.0,522.0,561.0,497.0
525.0,529.0,513.0,574.0,507.0
516.0,516.0,500.0,558.0,517.0
505.0,500.0,482.0,543.0,527.0
497.0,513.0,501.0,531.0,543.0
490.0,487.0,490.0,518.0,538.0
496.0,494.0,480.0,526.0,527.0
499.0,482.0,491.0,505.0,530.0
502.0,451.0,495.0,502.0,532.0
486.0,507.0,525.0,516.0,543.0
499.0,538.0,548.0,479.0,527.0
514.0,518.0,541.0,450.0,516.0
517.0,510.0,531.0,514.0,512.0
517.0,503.0,492.0,537.0,502.0
533.0,509.0,520.0,525.0,484.0
539.0,506.0,523.0,553.0,480.0
534.0,502.0,528.0,566.0,496.0
528.0,495.0,508.0,547.0,502.0
523.0,520.0,477.0,539.0,510.0
524.0,536.0,494.0,562.0,497.0
495.0,511.0,504.0,556.0,537.0
493.0,522.0,546.0,541.0,544.0
499.0,501.0,508.0,534.0,532.0
493.0,509.0,478.0,513.0,537.0
494.0,507.0,480.0,506.0,527.0
505.0,518.0,502.0,506.0,521.0
510.0,510.0,544.0,505.0,508.0
505.0,487.0,503.0,498.0,516.0
511.0,479.0,516.0,487.0,514.0
514.0,484.0,493.0,515.0,505.0
531.0,505.0,518.0,529.0,496.0
533.0,509.0,528.0,543.0,495.0
531.0,502.0,520.0,568.0,486.0
536.0,525.0,526.0,591.0,493.0
534.0,523.0,505.0,553.0,496.0
525.0,521.0,502.0,561.0,507.0
513.0,509.0,482.0,544.0,512.0
506.0,504.0,474.0,537.0,518.0
493.0,488.0,480.0,537.0,527.0
487.0,502.0,473.0,523.0,525.0
495.0,510.0,496.0,514.0,542.0
499.0,520.0,510.0,508.0,537.0
497.0,492.0,503.0,514.0,520.0
500.0,482.0,508.0,499.0,523.0
503.0,463.0,538.0,498.0,510.0
516.0,506.0,563.0,514.0,507.0
525.0,508.0,489.0,515.0,507.0
537.0,508.0,548.0,531.0,505.0
527.0,502.0,540.0,547.0,495.0
528.0,512.0,483.0,524.0,493.0
532.0,528.0,504.0,559.0,485.0
538.0,525.0,515.0,567.0,484.0
534.0,524.0,498.0,581.0,496.0
501.0,519.0,482.0,564.0,526.0
496.0,509.0,470.0,538.0,526.0
488.0,519.0,505.0,541.0,539.0
490.0,523.0,560.0,529.0,539.0
493.0,515.0,536.0,520.0,539.0
492.0,499.0,437.0,504.0,532.0
503.0,505.0,495.0,508.0,517.0
508.0,501.0,516.0,514.0,511.0
513.0,493.0,506.0,507.0,511.0
523.0,490.0,511.0,511.0,494.0
520.0,494.0,527.0,525.0,484.0
528.0,502.0,559.0,540.0,492.0
535.0,509.0,550.0,553.0,485.0
535.0,512.0,471.0,556.0,497.0
537.0,510.0,492.0,571.0,490.0
531.0,503.0,494.0,569.0,503.0
513.0,494.0,482.0,558.0,516.0
497.0,509.0,475.0,542.0,530.0
493.0,521.0,480.0,544.0,530.0
495.0,523.0,488.0,539.0,532.0
493.0,512.0,486.0,525.0,533.0
498.0,512.0,495.0,518.0,526.0
501.0,508.0,507.0,521.0,511.0
506.0,498.0,510.0,512.0,516.0
496.0,492.0,510.0,505.0,535.0
510.0,497.0,522.0,515.0,508.0
510.0,493.0,522.0,519.0,509.0
519.0,498.0,523.0,532.0,500.0
527.0,503.0,527.0,552.0,495.0
532.0,506.0,524.0,559.0,498.0
530.0,508.0,510.0,569.0,497.0
519.0,512.0,496.0,573.0,504.0
505.0,515.0,500.0,572.0,516.0
493.0,508.0,480.0,563.0,529.0
483.0,505.0,472.0,551.0,532.0
480.0,507.0,476.0,542.0,530.0
477.0,510.0,483.0,535.0,533.0
478.0,506.0,493.0,529.0,532.0
478.0,498.0,495.0,518.0,528.0
497.0,504.0,503.0,514.0,522.0
527.0,502.0,513.0,513.0,519.0
538.0,501.0,518.0,515.0,506.0
528.0,491.0,519.0,515.0,508.0
522.0,495.0,520.0,525.0,511.0
529.0,497.0,521.0,537.0,501.0
533.0,503.0,523.0,557.0,495.0
530.0,506.0,515.0,563.0,495.0
531.0,515.0,509.0,576.0,496.0
522.0,514.0,498.0,578.0,500.0
519.0,515.0,493.0,576.0,509.0
502.0,511.0,477.0,560.0,519.0
506.0,512.0,476.0,552.0,526.0
497.0,509.0,476.0,541.0,525.0
493.0,512.0,484.0,531.0,531.0
506.0,512.0,493.0,524.0,527.0
527.0,507.0,501.0,519.0,520.0
521.0,505.0,511.0,518.0,523.0
518.0,502.0,515.0,514.0,531.0
520.0,494.0,516.0,513.0,517.0
508.0,491.0,518.0,520.0,508.0
492.0,490.0,519.0,527.0,504.0
490.0,495.0,519.0,543.0,501.0
485.0,499.0,517.0,556.0,496.0
483.0,502.0,510.0,566.0,499.0
478.0,507.0,501.0,574.0,497.0
484.0,510.0,494.0,574.0,509.0
478.0,510.0,487.0,569.0,518.0
499.0,510.0,473.0,556.0,524.0
556.0,517.0,478.0,549.0,520.0
549.0,517.0,484.0,544.0,518.0
529.0,513.0,490.0,538.0,520.0
504.0,511.0,497.0,522.0,530.0
505.0,508.0,503.0,520.0,530.0
514.0,500.0,510.0,515.0,515.0
512.0,494.0,512.0,513.0,515.0
520.0,493.0,516.0,515.0,517.0
536.0,495.0,520.0,518.0,520.0
552.0,501.0,525.0,536.0,515.0
551.0,506.0,521.0,542.0,505.0
548.0,509.0,518.0,557.0,497.0
540.0,510.0,509.0,569.0,499.0
531.0,513.0,501.0,567.0,500.0
540.0,518.0,495.0,567.0,495.0
525.0,514.0,485.0,562.0,495.0
513.0,515.0,479.0,552.0,503.0
513.0,517.0,483.0,547.0,531.0
519.0,518.0,486.0,532.0,547.0
525.0,514.0,496.0,526.0,541.0
514.0,509.0,502.0,516.0,539.0
512.0,503.0,509.0,517.0,532.0
512.0,500.0,514.0,517.0,528.0
511.0,497.0,519.0,509.0,531.0
509.0,491.0,519.0,507.0,515.0
518.0,493.0,521.0,520.0,494.0
523.0,501.0,522.0,533.0,483.0
520.0,500.0,522.0,548.0,480.0
523.0,508.0,516.0,559.0,481.0
525.0,513.0,504.0,564.0,504.0
512.0,516.0,494.0,559.0,509.0
494.0,516.0,490.0,560.0,522.0
480.0,515.0,479.0,552.0,534.0
472.0,515.0,476.0,543.0,540.0
475.0,512.0,477.0,531.0,545.0
506.0,518.0,489.0,523.0,558.0
529.0,515.0,497.0,518.0,544.0
521.0,507.0,508.0,516.0,535.0
517.0,508.0,518.0,511.0,538.0
518.0,499.0,521.0,510.0,525.0
526.0,496.0,524.0,509.0,514.0
540.0,497.0,521.0,509.0,494.0
539.0,494.0,522.0,517.0,463.0
530.0,496.0,524.0,535.0,465.0
536.0,504.0,522.0,548.0,464.0
539.0,507.0,516.0,557.0,472.0
530.0,512.0,510.0,564.0,493.0
513.0,513.0,501.0,560.0,526.0
502.0,516.0,495.0,559.0,549.0
487.0,514.0,481.0,545.0,585.0
492.0,516.0,479.0,531.0,597.0
493.0,514.0,487.0,526.0,577.0
500.0,516.0,498.0,523.0,534.0
493.0,508.0,502.0,518.0,512.0
502.0,500.0,509.0,510.0,498.0
526.0,503.0,518.0,506.0,473.0
529.0,495.0,518.0,502.0,488.0
525.0,490.0,519.0,502.0,477.0
526.0,493.0,522.0,511.0,474.0
519.0,492.0,521.0,517.0,471.0
521.0,497.0,523.0,532.0,468.0
531.0,503.0,522.0,548.0,447.0
542.0,508.0,511.0,555.0,456.0
537.0,513.0,507.0,558.0,491.0
522.0,512.0,496.0,556.0,502.0
516.0,512.0,487.0,549.0,506.0
503.0,512.0,481.0,539.0,530.0
498.0,513.0,488.0,531.0,536.0
493.0,513.0,488.0,522.0,537.0
494.0,511.0,501.0,514.0,541.0
500.0,509.0,506.0,507.0,536.0
505.0,507.0,519.0,504.0,522.0
497.0,500.0,522.0,502.0,516.0
495.0,495.0,524.0,498.0,504.0
499.0,491.0,523.0,500.0,495.0
509.0,494.0,528.0,512.0,488.0
517.0,495.0,526.0,521.0,487.0
529.0,499.0,523.0,532.0,494.0
547.0,505.0,515.0,545.0,483.0
543.0,511.0,511.0,553.0,503.0
534.0,517.0,505.0,554.0,544.0
532.0,519.0,498.0,553.0,550.0
515.0,515.0,485.0,543.0,556.0
492.0,513.0,481.0,532.0,550.0
487.0,512.0,485.0,521.0,532.0
487.0,510.0,490.0,515.0,528.0
503.0,508.0,504.0,507.0,501.0
516.0,503.0,505.0,499.0,516.0
522.0,502.0,514.0,498.0,517.0
519.0,497.0,517.0,494.0,524.0
514.0,493.0,521.0,492.0,528.0
526.0,495.0,526.0,501.0,508.0
526.0,495.0,526.0,511.0,483.0
518.0,499.0,526.0,526.0,456.0
512.0,497.0,519.0,535.0,461.0
511.0,501.0,509.0,549.0,474.0
516.0,512.0,508.0,556.0,480.0
514.0,514.0,500.0,554.0,503.0
504.0,516.0,494.0,553.0,519.0
504.0,512.0,479.0,535.0,524.0
535.0,519.0,485.0,532.0,513.0
525.0,517.0,489.0,521.0,525.0
516.0,517.0,501.0,515.0,531.0
511.0,516.0,506.0,507.0,528.0
520.0,510.0,515.0,502.0,529.0
523.0,507.0,520.0,500.0,527.0
523.0,502.0,520.0,491.0,522.0
526.0,495.0,524.0,494.0,491.0
529.0,494.0,526.0,502.0,482.0
529.0,493.0,522.0,510.0,495.0
538.0,501.0,524.0,524.0,498.0
540.0,506.0,522.0,538.0,485.0
538.0,510.0,514.0,547.0,481.0
524.0,515.0,509.0,550.0,499.0
522.0,520.0,499.0,548.0,501.0
508.0,514.0,489.0,541.0,516.0
495.0,513.0,483.0,533.0,550.0
488.0,512.0,484.0,523.0,547.0
477.0,511.0,487.0,511.0,542.0
470.0,507.0,496.0,506.0,543.0
477.0,508.0,507.0,503.0,554.0
485.0,506.0,518.0,499.0,553.0
490.0,503.0,522.0,496.0,549.0
506.0,497.0,524.0,494.0,528.0
533.0,497.0,529.0,501.0,516.0
527.0,493.0,525.0,504.0,493.0
534.0,497.0,525.0,517.0,474.0
530.0,499.0,522.0,528.0,480.0
534.0,507.0,519.0,539.0,497.0
528.0,508.0,507.0,544.0,516.0
529.0,513.0,499.0,546.0,524.0
522.0,516.0,495.0,545.0,512.0
519.0,512.0,481.0,534.0,513.0
509.0,513.0,481.0,529.0,524.0
499.0,518.0,488.0,523.0,527.0
496.0,520.0,493.0,512.0,534.0
494.0,511.0,502.0,505.0,536.0
498.0,508.0,509.0,497.0,524.0
503.0,503.0,517.0,494.0,527.0
510.0,497.0,518.0,488.0,514.0
525.0,493.0,523.0,488.0,479.0
530.0,490.0,523.0,495.0,488.0
526.0,493.0,522.0,503.0,493.0
529.0,499.0,524.0,519.0,476.0
536.0,505.0,522.0,532.0,474.0
535.0,507.0,514.0,539.0,503.0
530.0,512.0,507.0,549.0,505.0
528.0,519.0,498.0,546.0,496.0
520.0,517.0,493.0,545.0,520.0
502.0,514.0,482.0,532.0,553.0
497.0,515.0,483.0,525.0,559.0
498.0,516.0,489.0,517.0,549.0
496.0,513.0,497.0,510.0,543.0
495.0,509.0,505.0,507.0,538.0
497.0,506.0,511.0,496.0,522.0
503.0,501.0,517.0,493.0,509.0
509.0,496.0,520.0,487.0,514.0
515.0,493.0,523.0,487.0,510.0
532.0,493.0,525.0,496.0,473.0
535.0,493.0,522.0,504.0,477.0
539.0,499.0,522.0,519.0,467.0
554.0,504.0,519.0,533.0,468.0
544.0,509.0,512.0,542.0,485.0
518.0,511.0,504.0,544.0,518.0
481.0,512.0,496.0,542.0,557.0
464.0,513.0,489.0,540.0,561.0
479.0,517.0,484.0,531.0,564.0
474.0,514.0,486.0,521.0,564.0
463.0,509.0,488.0,508.0,579.0
472.0,508.0,496.0,501.0,550.0
487.0,505.0,503.0,494.0,533.0
518.0,505.0,516.0,492.0,521.0
551.0,506.0,523.0,492.0,498.0
545.0,500.0,529.0,494.0,519.0
531.0,496.0,528.0,490.0,542.0
538.0,498.0,530.0,499.0,531.0
546.0,502.0,526.0,508.0,488.0
545.0,504.0,524.0,523.0,466.0
534.0,505.0,520.0,536.0,463.0
523.0,508.0,509.0,542.0,446.0
519.0,514.0,506.0,549.0,443.0
511.0,515.0,499.0,548.0,485.0
501.0,508.0,479.0,530.0,527.0
494.0,509.0,478.0,519.0,510.0
489.0,511.0,485.0,513.0,514.0
490.0,510.0,493.0,506.0,530.0
497.0,508.0,501.0,497.0,516.0
506.0,503.0,508.0,490.0,523.0
510.0,502.0,517.0,485.0,523.0
507.0,497.0,520.0,479.0,524.0
519.0,494.0,524.0,480.0,513.0
530.0,496.0,528.0,486.0,507.0
528.0,495.0,526.0,495.0,501.0
534.0,499.0,525.0,505.0,487.0
536.0,505.0,524.0,521.0,474.0
533.0,505.0,514.0,529.0,497.0
527.0,509.0,507.0,534.0,500.0
514.0,511.0,497.0,536.0,516.0
515.0,521.0,495.0,536.0,529.0
499.0,513.0,483.0,523.0,542.0
490.0,513.0,485.0,518.0,559.0
493.0,515.0,489.0,505.0,550.0
506.0,515.0,499.0,498.0,522.0
510.0,511.0,505.0,493.0,541.0
497.0,505.0,512.0,484.0,549.0
501.0,502.0,520.0,480.0,524.0
514.0,498.0,523.0,476.0,520.0
517.0,493.0,524.0,475.0,506.0
532.0,493.0,525.0,482.0,487.0
534.0,495.0,523.0,488.0,513.0
533.0,499.0,524.0,506.0,509.0
540.0,507.0,524.0,522.0,495.0
528.0,509.0,513.0,528.0,496.0
521.0,510.0,505.0,533.0,494.0
522.0,516.0,500.0,533.0,505.0
516.0,519.0,490.0,527.0,521.0
496.0,511.0,479.0,514.0,529.0
494.0,512.0,484.0,507.0,529.0
500.0,513.0,490.0,499.0,527.0
504.0,514.0,499.0,490.0,521.0
500.0,506.0,505.0,482.0,524.0
498.0,501.0,512.0,475.0,527.0
501.0,499.0,522.0,473.0,522.0
505.0,494.0,524.0,473.0,500.0
513.0,492.0,524.0,476.0,492.0
518.0,493.0,528.0,483.0,484.0
523.0,496.0,526.0,494.0,482.0
531.0,503.0,525.0,505.0,482.0
534.0,507.0,522.0,517.0,493.0
529.0,508.0,507.0,520.0,536.0
525.0,513.0,499.0,523.0,545.0
526.0,517.0,499.0,524.0,544.0
512.0,510.0,481.0,511.0,547.0
506.0,512.0,484.0,504.0,559.0
502.0,514.0,486.0,494.0,553.0
496.0,513.0,498.0,485.0,547.0
493.0,510.0,501.0,479.0,521.0
485.0,504.0,507.0,472.0,505.0
490.0,501.0,517.0,472.0,490.0
486.0,498.0,521.0,467.0,492.0
491.0,493.0,525.0,464.0,489.0
496.0,489.0,525.0,467.0,490.0
501.0,492.0,528.0,478.0,489.0
517.0,497.0,527.0,491.0,470.0
535.0,503.0,525.0,507.0,460.0
539.0,507.0,516.0,512.0,474.0
543.0,513.0,507.0,519.0,488.0
537.0,519.0,502.0,520.0,525.0
525.0,520.0,497.0,521.0,532.0
504.0,512.0,485.0,507.0,543.0
491.0,511.0,486.0,500.0,536.0
494.0,513.0,487.0,485.0,523.0
485.0,508.0,494.0,477.0,506.0
466.0,503.0,501.0,464.0,533.0
469.0,504.0,514.0,464.0,536.0
495.0,502.0,522.0,463.0,515.0
514.0,495.0,522.0,458.0,498.0
531.0,492.0,524.0,453.0,510.0
537.0,489.0,523.0,456.0,515.0
547.0,493.0,523.0,465.0,520.0
549.0,500.0,524.0,482.0,508.0
543.0,505.0,521.0,498.0,492.0
544.0,510.0,515.0,510.0,485.0
540.0,512.0,506.0,513.0,486.0
527.0,514.0,495.0,509.0,503.0
513.0,514.0,487.0,506.0,516.0
491.0,512.0,484.0,499.0,530.0
494.0,517.0,488.0,490.0,530.0
481.0,512.0,491.0,478.0,529.0
482.0,511.0,500.0,470.0,539.0
488.0,505.0,505.0,462.0,526.0
505.0,504.0,517.0,459.0,517.0
506.0,499.0,521.0,453.0,514.0
502.0,491.0,522.0,452.0,515.0
516.0,491.0,528.0,452.0,509.0
511.0,495.0,529.0,464.0,505.0
524.0,500.0,531.0,475.0,494.0
553.0,507.0,527.0,493.0,486.0
547.0,509.0,519.0,500.0,487.0
535.0,508.0,509.0,508.0,498.0
527.0,514.0,508.0,512.0,505.0
520.0,516.0,501.0,512.0,510.0
508.0,514.0,487.0,500.0,521.0
498.0,512.0,482.0,492.0,520.0
495.0,512.0,486.0,484.0,521.0
495.0,515.0,497.0,478.0,524.0
493.0,507.0,503.0,469.0,521.0
498.0,504.0,511.0,463.0,519.0
513.0,502.0,521.0,461.0,512.0
513.0,497.0,521.0,457.0,530.0
518.0,494.0,527.0,454.0,532.0
523.0,492.0,526.0,460.0,516.0
526.0,494.0,526.0,468.0,505.0
540.0,499.0,527.0,481.0,496.0
535.0,503.0,524.0,495.0,494.0
522.0,505.0,516.0,505.0,490.0
511.0,511.0,510.0,515.0,487.0
522.0,514.0,500.0,518.0,503.0
514.0,516.0,498.0,513.0,515.0
502.0,512.0,484.0,500.0,530.0
495.0,513.0,484.0,493.0,535.0
493.0,512.0,490.0,486.0,530.0
492.0,510.0,498.0,478.0,523.0
492.0,506.0,505.0,471.0,522.0
498.0,503.0,516.0,468.0,518.0
501.0,501.0,521.0,464.0,514.0
503.0,497.0,525.0,459.0,517.0
507.0,489.0,525.0,458.0,517.0
519.0,491.0,528.0,464.0,515.0
521.0,492.0,526.0,475.0,509.0
533.0,501.0,528.0,492.0,492.0
533.0,506.0,524.0,502.0,499.0
531.0,509.0,514.0,508.0,510.0
534.0,511.0,504.0,511.0,509.0
526.0,515.0,501.0,515.0,511.0
521.0,517.0,491.0,512.0,515.0
502.0,512.0,481.0,501.0,515.0
482.0,508.0,484.0,493.0,527.0
484.0,513.0,493.0,487.0,529.0
495.0,510.0,501.0,480.0,519.0
501.0,504.0,507.0,473.0,516.0
506.0,503.0,517.0,470.0,499.0
511.0,496.0,521.0,463.0,490.0
513.0,494.0,525.0,462.0,507.0
517.0,491.0,529.0,464.0,511.0
526.0,492.0,527.0,472.0,499.0
537.0,498.0,527.0,484.0,489.0
532.0,501.0,524.0,497.0,490.0
532.0,507.0,522.0,512.0,493.0
526.0,512.0,513.0,516.0,504.0
520.0,515.0,506.0,517.0,511.0
516.0,519.0,497.0,518.0,518.0
499.0,509.0,483.0,507.0,531.0
503.0,513.0,484.0,501.0,540.0
496.0,513.0,485.0,493.0,537.0
490.0,513.0,496.0,489.0,529.0
495.0,509.0,504.0,482.0,519.0
501.0,505.0,512.0,473.0,524.0
502.0,500.0,519.0,469.0,519.0
504.0,495.0,522.0,466.0,505.0
510.0,492.0,525.0,465.0,509.0
518.0,491.0,527.0,468.0,510.0
521.0,491.0,525.0,478.0,500.0
533.0,499.0,527.0,492.0,490.0
539.0,507.0,525.0,503.0,487.0
535.0,510.0,518.0,517.0,498.0
529.0,516.0,508.0,520.0,510.0
522.0,515.0,501.0,521.0,515.0
515.0,519.0,496.0,522.0,532.0
500.0,516.0,487.0,511.0,537.0
494.0,513.0,481.0,498.0,533.0
499.0,516.0,492.0,494.0,527.0
491.0,513.0,498.0,487.0,519.0
488.0,507.0,505.0,479.0,525.0
495.0,499.0,512.0,473.0,527.0
501.0,501.0,522.0,473.0,518.0
502.0,492.0,523.0,469.0,511.0
513.0,492.0,526.0,470.0,505.0
527.0,491.0,526.0,476.0,497.0
528.0,494.0,525.0,484.0,493.0
535.0,501.0,526.0,503.0,488.0
538.0,506.0,524.0,512.0,484.0
533.0,514.0,513.0,521.0,496.0
531.0,518.0,505.0,526.0,506.0
523.0,517.0,499.0,523.0,509.0
516.0,521.0,496.0,521.0,521.0
499.0,513.0,483.0,510.0,531.0
491.0,513.0,486.0,502.0,536.0
495.0,517.0,493.0,495.0,526.0
493.0,509.0,500.0,487.0,525.0
498.0,504.0,509.0,482.0,524.0
500.0,501.0,515.0,475.0,518.0
503.0,498.0,522.0,472.0,517.0
507.0,496.0,526.0,470.0,515.0
507.0,490.0,526.0,472.0,517.0
520.0,493.0,528.0,481.0,500.0
537.0,497.0,528.0,495.0,484.0
536.0,502.0,523.0,502.0,470.0
529.0,506.0,520.0,518.0,489.0
526.0,512.0,512.0,524.0,496.0
529.0,517.0,505.0,529.0,508.0
520.0,521.0,495.0,529.0,527.0
507.0,516.0,487.0,520.0,521.0
500.0,511.0,482.0,510.0,540.0
501.0,513.0,487.0,500.0,543.0
505.0,516.0,497.0,494.0,539.0
502.0,507.0,503.0,486.0,534.0
505.0,506.0,513.0,479.0,526.0
512.0,500.0,517.0,476.0,513.0
511.0,497.0,523.0,479.0,509.0
509.0,497.0,524.0,475.0,513.0
515.0,497.0,527.0,480.0,521.0
514.0,497.0,526.0,488.0,520.0
518.0,501.0,526.0,500.0,508.0
532.0,509.0,524.0,515.0,504.0
532.0,506.0,513.0,522.0,498.0
529.0,511.0,509.0,528.0,494.0
519.0,517.0,499.0,527.0,500.0
507.0,520.0,493.0,530.0,509.0
496.0,515.0,482.0,518.0,528.0
487.0,515.0,481.0,508.0,540.0
485.0,515.0,489.0,503.0,544.0
485.0,513.0,500.0,496.0,545.0
505.0,510.0,508.0,483.0,527.0
510.0,502.0,514.0,478.0,517.0
513.0,502.0,524.0,483.0,507.0
511.0,499.0,527.0,476.0,512.0
513.0,495.0,523.0,474.0,510.0
523.0,495.0,528.0,482.0,501.0
519.0,492.0,525.0,489.0,509.0
531.0,504.0,527.0,506.0,494.0
538.0,504.0,521.0,515.0,479.0
537.0,509.0,515.0,527.0,481.0
524.0,513.0,507.0,533.0,487.0
515.0,515.0,502.0,533.0,498.0
511.0,516.0,495.0,528.0,512.0
495.0,512.0,483.0,515.0,532.0
501.0,515.0,488.0,508.0,535.0
494.0,510.0,495.0,499.0,527.0
496.0,511.0,501.0,493.0,538.0
495.0,505.0,506.0,485.0,530.0
502.0,501.0,513.0,481.0,517.0
505.0,497.0,525.0,482.0,500.0
509.0,494.0,524.0,479.0,499.0
516.0,491.0,528.0,479.0,499.0
520.0,494.0,526.0,484.0,501.0
526.0,497.0,526.0,499.0,509.0
532.0,503.0,525.0,512.0,498.0
533.0,505.0,521.0,519.0,490.0
532.0,509.0,512.0,530.0,501.0
522.0,513.0,503.0,532.0,508.0
521.0,515.0,496.0,531.0,508.0
512.0,511.0,486.0,524.0,514.0
496.0,511.0,484.0,515.0,532.0
489.0,511.0,489.0,508.0,529.0
489.0,509.0,495.0,500.0,525.0
493.0,508.0,505.0,494.0,526.0
497.0,502.0,511.0,487.0,519.0
503.0,499.0,517.0,482.0,504.0
503.0,495.0,524.0,480.0,517.0
507.0,490.0,525.0,476.0,515.0
515.0,492.0,533.0,482.0,504.0
524.0,493.0,525.0,488.0,495.0
528.0,497.0,528.0,503.0,491.0
529.0,501.0,524.0,516.0,491.0
533.0,511.0,518.0,526.0,490.0
531.0,512.0,508.0,531.0,498.0
527.0,517.0,503.0,535.0,509.0
522.0,518.0,496.0,534.0,515.0
501.0,512.0,486.0,524.0,533.0
489.0,512.0,487.0,514.0,529.0
487.0,512.0,490.0,506.0,525.0
487.0,512.0,499.0,500.0,520.0
485.0,505.0,503.0,495.0,512.0
489.0,499.0,512.0,486.0,514.0
515.0,500.0,521.0,483.0,512.0
515.0,495.0,522.0,476.0,509.0
519.0,491.0,526.0,481.0,503.0
520.0,490.0,525.0,484.0,497.0
521.0,493.0,526.0,495.0,499.0
527.0,498.0,525.0,507.0,496.0
533.0,504.0,523.0,522.0,492.0
539.0,510.0,516.0,530.0,498.0
538.0,513.0,505.0,532.0,498.0
532.0,516.0,500.0,536.0,508.0
520.0,515.0,491.0,532.0,515.0
504.0,513.0,486.0,527.0,531.0
496.0,513.0,487.0,512.0,534.0
496.0,512.0,493.0,506.0,531.0
498.0,509.0,499.0,497.0,522.0
501.0,505.0,507.0,491.0,520.0
507.0,502.0,517.0,486.0,518.0
506.0,496.0,522.0,482.0,513.0
509.0,492.0,524.0,480.0,512.0
516.0,491.0,529.0,483.0,508.0
523.0,491.0,526.0,490.0,500.0
531.0,496.0,529.0,501.0,491.0
533.0,500.0,525.0,512.0,483.0
539.0,508.0,526.0,527.0,485.0
532.0,508.0,511.0,533.0,497.0
525.0,516.0,505.0,537.0,517.0
517.0,515.0,497.0,535.0,513.0
507.0,513.0,487.0,528.0,527.0
499.0,510.0,484.0,519.0,532.0
495.0,512.0,488.0,510.0,536.0
490.0,510.0,494.0,501.0,535.0
490.0,506.0,503.0,496.0,531.0
495.0,505.0,513.0,493.0,522.0
499.0,500.0,523.0,485.0,516.0
503.0,495.0,523.0,482.0,519.0
505.0,494.0,523.0,478.0,521.0
516.0,491.0,527.0,484.0,510.0
521.0,492.0,531.0,496.0,495.0
534.0,497.0,527.0,506.0,500.0
545.0,503.0,524.0,520.0,496.0
545.0,509.0,518.0,527.0,498.0
537.0,513.0,508.0,532.0,505.0
532.0,516.0,501.0,538.0,511.0
522.0,517.0,497.0,536.0,510.0
491.0,513.0,484.0,524.0,528.0
478.0,511.0,484.0,514.0,532.0
487.0,513.0,492.0,510.0,522.0
490.0,512.0,500.0,503.0,521.0
492.0,505.0,505.0,494.0,517.0
503.0,506.0,512.0,487.0,512.0
514.0,501.0,520.0,486.0,517.0
514.0,500.0,522.0,481.0,519.0
510.0,492.0,525.0,479.0,509.0
516.0,493.0,529.0,488.0,502.0
519.0,493.0,528.0,497.0,484.0
526.0,500.0,527.0,510.0,477.0
527.0,505.0,525.0,520.0,495.0
537.0,511.0,515.0,530.0,495.0
531.0,513.0,506.0,535.0,503.0
524.0,519.0,502.0,537.0,515.0
517.0,516.0,494.0,531.0,524.0
502.0,514.0,486.0,521.0,536.0
492.0,513.0,486.0,513.0,537.0
487.0,513.0,492.0,506.0,540.0
489.0,510.0,500.0,500.0,535.0
497.0,508.0,511.0,493.0,531.0
506.0,506.0,516.0,488.0,517.0
511.0,500.0,527.0,488.0,496.0
512.0,495.0,526.0,484.0,493.0
513.0,491.0,527.0,485.0,494.0
514.0,493.0,528.0,491.0,513.0
525.0,499.0,526.0,500.0,519.0
530.0,503.0,526.0,515.0,503.0
534.0,508.0,521.0,529.0,490.0
530.0,512.0,511.0,537.0,497.0
528.0,516.0,503.0,537.0,506.0
523.0,516.0,497.0,536.0,507.0
505.0,513.0,484.0,531.0,530.0
496.0,513.0,485.0,522.0,524.0
496.0,515.0,490.0,514.0,528.0
495.0,514.0,496.0,506.0,530.0
494.0,508.0,501.0,496.0,527.0
501.0,507.0,510.0,492.0,526.0
501.0,501.0,519.0,487.0,517.0
502.0,496.0,525.0,488.0,509.0
502.0,492.0,526.0,482.0,493.0
516.0,495.0,529.0,487.0,490.0
527.0,494.0,527.0,494.0,485.0
527.0,500.0,529.0,506.0,488.0
527.0,503.0,527.0,519.0,506.0
532.0,509.0,520.0,532.0,500.0
527.0,510.0,508.0,535.0,503.0
529.0,516.0,505.0,536.0,507.0
521.0,517.0,498.0,538.0,514.0
501.0,513.0,485.0,526.0,536.0
497.0,513.0,483.0,518.0,534.0
502.0,516.0,490.0,508.0,524.0
495.0,511.0,497.0,500.0,524.0
497.0,507.0,507.0,494.0,527.0
499.0,505.0,516.0,490.0,520.0
499.0,499.0,525.0,484.0,521.0
506.0,497.0,525.0,482.0,519.0
515.0,494.0,526.0,480.0,512.0
514.0,492.0,527.0,487.0,509.0
518.0,494.0,528.0,497.0,506.0
540.0,503.0,527.0,511.0,496.0
543.0,506.0,524.0,526.0,491.0
540.0,510.0,515.0,533.0,487.0
529.0,514.0,505.0,537.0,494.0
517.0,516.0,499.0,537.0,507.0
512.0,519.0,494.0,534.0,517.0
498.0,512.0,483.0,523.0,528.0
497.0,514.0,485.0,517.0,534.0
494.0,512.0,493.0,507.0,527.0
499.0,512.0,503.0,506.0,520.0
504.0,508.0,509.0,496.0,522.0
504.0,501.0,515.0,488.0,517.0
509.0,497.0,523.0,487.0,513.0
511.0,497.0,525.0,482.0,508.0
511.0,491.0,526.0,484.0,507.0
519.0,494.0,532.0,490.0,503.0
524.0,495.0,525.0,502.0,494.0
535.0,502.0,526.0,515.0,488.0
535.0,506.0,522.0,530.0,489.0
532.0,512.0,513.0,536.0,496.0
526.0,517.0,507.0,539.0,510.0
519.0,518.0,498.0,538.0,513.0
507.0,515.0,487.0,531.0,524.0
496.0,513.0,483.0,523.0,527.0
491.0,515.0,489.0,515.0,528.0
491.0,514.0,495.0,507.0,531.0
492.0,509.0,504.0,499.0,535.0
497.0,506.0,511.0,491.0,526.0
502.0,502.0,516.0,487.0,518.0
507.0,498.0,524.0,485.0,520.0
512.0,495.0,526.0,484.0,514.0
512.0,491.0,526.0,487.0,509.0
526.0,493.0,527.0,500.0,496.0
529.0,497.0,528.0,507.0,494.0
537.0,506.0,528.0,523.0,492.0
536.0,508.0,518.0,532.0,491.0
532.0,512.0,508.0,535.0,501.0
524.0,513.0,499.0,537.0,505.0
519.0,518.0,497.0,539.0,507.0
497.0,512.0,484.0,528.0,530.0
494.0,514.0,484.0,520.0,533.0
492.0,510.0,488.0,513.0,533.0
499.0,513.0,500.0,508.0,531.0
500.0,508.0,505.0,497.0,525.0
499.0,504.0,513.0,492.0,520.0
516.0,500.0,519.0,486.0,520.0
514.0,498.0,524.0,483.0,515.0
509.0,490.0,526.0,485.0,509.0
517.0,492.0,527.0,490.0,502.0
524.0,491.0,524.0,498.0,499.0
531.0,498.0,526.0,511.0,494.0
532.0,502.0,521.0,524.0,487.0
535.0,509.0,515.0,534.0,490.0
529.0,512.0,507.0,539.0,502.0
523.0,518.0,499.0,538.0,515.0
514.0,517.0,494.0,536.0,516.0
501.0,514.0,486.0,526.0,526.0
490.0,511.0,485.0,517.0,530.0
492.0,514.0,494.0,511.0,527.0
495.0,510.0,501.0,503.0,530.0
498.0,505.0,506.0,492.0,528.0
499.0,501.0,515.0,489.0,528.0
504.0,499.0,522.0,486.0,520.0
506.0,495.0,525.0,487.0,516.0
513.0,491.0,527.0,485.0,505.0
526.0,495.0,530.0,493.0,505.0
526.0,495.0,526.0,502.0,503.0
532.0,501.0,525.0,516.0,501.0
545.0,511.0,521.0,528.0,502.0
539.0,510.0,512.0,535.0,503.0
533.0,516.0,503.0,538.0,508.0
525.0,518.0,500.0,543.0,511.0
512.0,515.0,490.0,531.0,522.0
499.0,513.0,482.0,522.0,528.0
489.0,512.0,487.0,515.0,521.0
489.0,514.0,496.0,508.0,526.0
493.0,510.0,503.0,500.0,525.0
490.0,503.0,509.0,493.0,521.0
500.0,499.0,516.0,491.0,512.0
503.0,495.0,522.0,486.0,507.0
507.0,492.0,523.0,483.0,505.0
508.0,490.0,528.0,489.0,504.0
513.0,492.0,527.0,495.0,501.0
525.0,499.0,526.0,512.0,495.0
529.0,505.0,526.0,523.0,489.0
526.0,507.0,522.0,534.0,495.0
521.0,512.0,510.0,538.0,501.0
523.0,517.0,507.0,543.0,506.0
529.0,518.0,498.0,540.0,511.0
510.0,514.0,488.0,534.0,527.0
500.0,513.0,484.0,520.0,532.0
502.0,512.0,490.0,513.0,533.0
500.0,513.0,501.0,506.0,530.0
497.0,508.0,505.0,498.0,526.0
502.0,505.0,511.0,491.0,522.0
508.0,500.0,521.0,487.0,504.0
509.0,494.0,523.0,483.0,510.0
514.0,494.0,528.0,485.0,521.0
521.0,491.0,526.0,489.0,501.0
527.0,494.0,527.0,499.0,504.0
529.0,496.0,524.0,511.0,499.0
537.0,506.0,525.0,526.0,501.0
537.0,508.0,516.0,535.0,501.0
531.0,513.0,507.0,540.0,496.0
525.0,516.0,501.0,539.0,506.0
515.0,518.0,493.0,538.0,525.0
501.0,519.0,485.0,526.0,543.0
491.0,514.0,486.0,519.0,539.0
494.0,515.0,494.0,512.0,537.0
490.0,512.0,503.0,505.0,530.0
489.0,505.0,507.0,496.0,529.0
483.0,499.0,514.0,487.0,522.0
497.0,497.0,525.0,487.0,515.0
499.0,493.0,525.0,483.0,511.0
506.0,493.0,527.0,486.0,505.0
532.0,492.0,528.0,494.0,500.0
541.0,495.0,527.0,503.0,496.0
551.0,501.0,525.0,517.0,497.0
550.0,506.0,520.0,529.0,501.0
538.0,511.0,513.0,537.0,498.0
528.0,514.0,508.0,541.0,505.0
522.0,517.0,499.0,539.0,510.0
518.0,513.0,489.0,534.0,515.0
496.0,513.0,485.0,523.0,522.0
502.0,518.0,491.0,519.0,527.0
496.0,512.0,495.0,508.0,531.0
497.0,509.0,507.0,499.0,526.0
505.0,506.0,510.0,499.0,522.0
503.0,503.0,517.0,488.0,520.0
506.0,496.0,523.0,485.0,513.0
514.0,495.0,527.0,484.0,503.0
517.0,490.0,527.0,488.0,505.0
523.0,494.0,529.0,498.0,503.0
529.0,498.0,529.0,509.0,493.0
537.0,504.0,529.0,523.0,493.0
537.0,508.0,519.0,535.0,495.0
532.0,513.0,511.0,537.0,502.0
524.0,515.0,502.0,540.0,511.0
524.0,519.0,498.0,541.0,515.0
502.0,513.0,486.0,534.0,535.0
497.0,517.0,484.0,521.0,532.0
494.0,511.0,488.0,513.0,528.0
496.0,514.0,500.0,508.0,527.0
497.0,511.0,507.0,499.0,524.0
499.0,503.0,518.0,492.0,520.0
506.0,501.0,522.0,489.0,524.0
508.0,496.0,525.0,486.0,517.0
512.0,493.0,528.0,490.0,512.0
519.0,492.0,529.0,492.0,502.0
524.0,493.0,527.0,499.0,505.0
534.0,500.0,527.0,513.0,497.0
538.0,506.0,523.0,525.0,495.0
534.0,511.0,517.0,536.0,502.0
528.0,513.0,508.0,538.0,503.0
524.0,520.0,502.0,542.0,507.0
515.0,517.0,495.0,540.0,513.0
498.0,514.0,490.0,528.0,526.0
491.0,513.0,486.0,520.0,533.0
490.0,512.0,492.0,511.0,539.0
497.0,513.0,501.0,503.0,531.0
498.0,507.0,508.0,500.0,527.0
503.0,503.0,517.0,495.0,525.0
506.0,500.0,527.0,488.0,518.0
503.0,492.0,524.0,484.0,511.0
513.0,491.0,528.0,490.0,502.0
518.0,490.0,529.0,496.0,499.0
526.0,495.0,527.0,504.0,497.0
530.0,502.0,526.0,515.0,497.0
532.0,508.0,523.0,530.0,492.0
531.0,512.0,515.0,539.0,499.0
527.0,514.0,504.0,539.0,504.0
520.0,518.0,501.0,541.0,513.0
506.0,512.0,487.0,533.0,527.0
497.0,512.0,485.0,524.0,536.0
496.0,513.0,490.0,518.0,540.0
494.0,513.0,494.0,506.0,528.0
494.0,509.0,504.0,502.0,530.0
505.0,505.0,513.0,495.0,526.0
501.0,500.0,520.0,489.0,518.0
504.0,496.0,523.0,485.0,510.0
514.0,494.0,527.0,490.0,502.0
522.0,491.0,527.0,488.0,497.0
527.0,493.0,530.0,497.0,496.0
529.0,496.0,526.0,508.0,495.0
536.0,504.0,529.0,522.0,494.0
534.0,507.0,519.0,531.0,499.0
531.0,513.0,510.0,539.0,500.0
523.0,517.0,505.0,542.0,510.0
519.0,521.0,499.0,541.0,515.0
503.0,512.0,486.0,530.0,524.0
501.0,511.0,483.0,520.0,526.0
495.0,512.0,491.0,514.0,529.0
492.0,513.0,501.0,506.0,535.0
488.0,505.0,504.0,497.0,530.0
493.0,503.0,515.0,495.0,524.0
496.0,500.0,521.0,490.0,508.0
505.0,495.0,524.0,488.0,498.0
519.0,493.0,528.0,485.0,491.0
526.0,493.0,530.0,493.0,494.0
524.0,493.0,527.0,499.0,512.0
533.0,499.0,529.0,514.0,509.0
533.0,504.0,521.0,525.0,496.0
533.0,507.0,514.0,533.0,502.0
524.0,512.0,507.0,538.0,509.0
520.0,516.0,501.0,541.0,515.0
513.0,518.0,496.0,539.0,524.0
499.0,513.0,484.0,524.0,537.0
496.0,514.0,487.0,522.0,541.0
491.0,512.0,492.0,511.0,541.0
494.0,512.0,503.0,505.0,534.0
493.0,506.0,509.0,497.0,525.0
496.0,501.0,516.0,492.0,500.0
503.0,499.0,522.0,493.0,509.0
514.0,496.0,526.0,485.0,510.0
517.0,495.0,528.0,486.0,508.0
517.0,492.0,530.0,494.0,502.0
524.0,496.0,531.0,504.0,498.0
529.0,501.0,528.0,518.0,493.0
532.0,508.0,524.0,533.0,493.0
543.0,511.0,513.0,537.0,494.0
533.0,516.0,508.0,543.0,502.0
522.0,517.0,501.0,540.0,511.0
508.0,515.0,490.0,534.0,525.0
501.0,514.0,485.0,524.0,532.0
495.0,515.0,491.0,518.0,534.0
490.0,512.0,495.0,508.0,533.0
493.0,509.0,508.0,502.0,530.0
495.0,505.0,510.0,495.0,525.0
496.0,503.0,518.0,488.0,523.0
502.0,496.0,525.0,488.0,520.0
502.0,493.0,527.0,485.0,516.0
531.0,493.0,530.0,490.0,508.0
534.0,491.0,529.0,498.0,499.0
534.0,497.0,531.0,508.0,495.0
532.0,500.0,525.0,522.0,490.0
532.0,506.0,519.0,534.0,488.0
528.0,512.0,511.0,545.0,496.0
521.0,515.0,503.0,543.0,501.0
514.0,515.0,498.0,543.0,509.0
508.0,513.0,488.0,532.0,525.0
493.0,512.0,483.0,521.0,527.0
495.0,513.0,492.0,515.0,533.0
491.0,512.0,499.0,506.0,534.0
502.0,507.0,506.0,500.0,529.0
501.0,506.0,515.0,495.0,521.0
504.0,500.0,521.0,491.0,513.0
505.0,495.0,524.0,487.0,515.0
510.0,494.0,527.0,487.0,513.0
513.0,491.0,528.0,491.0,508.0
518.0,494.0,528.0,501.0,507.0
535.0,500.0,527.0,516.0,495.0
543.0,505.0,526.0,528.0,489.0
540.0,509.0,517.0,537.0,493.0
533.0,512.0,504.0,538.0,501.0
527.0,515.0,502.0,543.0,509.0
520.0,519.0,495.0,541.0,506.0
502.0,512.0,488.0,531.0,526.0
494.0,513.0,486.0,518.0,533.0
494.0,512.0,495.0,510.0,534.0
497.0,513.0,503.0,504.0,529.0
498.0,509.0,510.0,497.0,521.0
500.0,502.0,516.0,491.0,518.0
505.0,499.0,522.0,492.0,517.0
504.0,494.0,524.0,486.0,507.0
510.0,490.0,528.0,490.0,499.0
519.0,491.0,530.0,496.0,496.0
524.0,494.0,527.0,504.0,477.0
533.0,501.0,528.0,519.0,482.0
535.0,504.0,519.0,529.0,491.0
534.0,510.0,514.0,538.0,499.0
525.0,513.0,504.0,540.0,502.0
524.0,518.0,502.0,544.0,500.0
511.0,513.0,487.0,534.0,503.0
499.0,512.0,489.0,527.0,518.0
493.0,513.0,489.0,518.0,528.0
491.0,512.0,494.0,510.0,561.0
494.0,511.0,504.0,502.0,547.0
494.0,503.0,511.0,495.0,532.0
500.0,501.0,519.0,491.0,523.0
504.0,497.0,522.0,487.0,512.0
507.0,493.0,528.0,487.0,513.0
517.0,491.0,529.0,490.0,507.0
526.0,493.0,527.0,500.0,506.0
530.0,497.0,529.0,510.0,499.0
533.0,502.0,530.0,523.0,496.0
536.0,506.0,522.0,530.0,492.0
531.0,511.0,511.0,538.0,499.0
521.0,513.0,502.0,539.0,508.0
516.0,520.0,500.0,542.0,514.0
496.0,513.0,486.0,528.0,527.0
489.0,513.0,486.0,522.0,538.0
489.0,511.0,488.0,511.0,536.0
500.0,518.0,501.0,506.0,533.0
502.0,509.0,507.0,499.0,529.0
504.0,506.0,515.0,493.0,521.0
504.0,500.0,520.0,488.0,512.0
504.0,494.0,524.0,486.0,513.0
510.0,492.0,527.0,486.0,510.0
516.0,491.0,528.0,493.0,508.0
520.0,494.0,528.0,500.0,499.0
526.0,499.0,526.0,513.0,492.0
530.0,509.0,526.0,528.0,491.0
530.0,508.0,516.0,534.0,491.0
526.0,513.0,509.0,540.0,504.0
526.0,514.0,500.0,537.0,510.0
527.0,517.0,497.0,540.0,517.0
503.0,512.0,486.0,528.0,527.0
494.0,515.0,492.0,519.0,535.0
490.0,513.0,494.0,511.0,532.0
491.0,510.0,503.0,505.0,528.0
497.0,508.0,511.0,497.0,528.0
502.0,502.0,517.0,490.0,523.0
507.0,498.0,523.0,487.0,518.0
510.0,495.0,526.0,486.0,506.0
516.0,495.0,527.0,485.0,503.0
520.0,493.0,531.0,495.0,502.0
525.0,495.0,528.0,502.0,499.0
532.0,502.0,531.0,516.0,495.0
535.0,505.0,526.0,528.0,491.0
530.0,511.0,516.0,537.0,502.0
520.0,513.0,506.0,540.0,505.0
518.0,519.0,499.0,539.0,505.0
509.0,516.0,491.0,535.0,516.0
499.0,514.0,486.0,525.0,526.0
492.0,513.0,489.0,518.0,536.0
492.0,514.0,497.0,509.0,531.0
495.0,510.0,505.0,503.0,520.0
495.0,504.0,511.0,494.0,517.0
501.0,501.0,521.0,487.0,519.0
506.0,498.0,525.0,488.0,512.0
513.0,494.0,527.0,484.0,509.0
517.0,492.0,531.0,488.0,505.0
522.0,494.0,530.0,497.0,501.0
521.0,498.0,528.0,511.0,493.0
525.0,505.0,529.0,524.0,491.0
526.0,509.0,519.0,533.0,490.0
519.0,512.0,513.0,540.0,499.0
519.0,515.0,505.0,541.0,499.0
517.0,518.0,500.0,546.0,502.0
508.0,516.0,488.0,531.0,517.0
501.0,513.0,485.0,522.0,533.0
496.0,515.0,492.0,515.0,548.0
503.0,513.0,499.0,504.0,537.0
507.0,508.0,506.0,499.0,523.0
504.0,505.0,514.0,495.0,524.0
506.0,501.0,522.0,488.0,517.0
508.0,496.0,522.0,487.0,502.0
509.0,493.0,530.0,490.0,509.0
513.0,492.0,528.0,491.0,511.0
520.0,493.0,528.0,499.0,498.0
536.0,500.0,530.0,515.0,495.0
540.0,508.0,525.0,526.0,481.0
535.0,507.0,517.0,536.0,480.0
536.0,511.0,507.0,541.0,511.0
536.0,519.0,502.0,541.0,513.0
522.0,517.0,496.0,544.0,516.0
504.0,515.0,485.0,527.0,529.0
495.0,512.0,487.0,520.0,531.0
497.0,514.0,495.0,513.0,532.0
497.0,512.0,503.0,505.0,529.0
499.0,506.0,512.0,495.0,523.0
502.0,502.0,517.0,496.0,518.0
507.0,499.0,524.0,489.0,516.0
509.0,493.0,524.0,481.0,512.0
513.0,490.0,530.0,489.0,506.0
516.0,491.0,529.0,495.0,500.0
518.0,493.0,527.0,503.0,499.0
532.0,502.0,528.0,519.0,498.0
537.0,503.0,523.0,530.0,493.0
534.0,510.0,514.0,538.0,495.0
524.0,512.0,506.0,542.0,507.0
520.0,518.0,499.0,542.0,517.0
512.0,515.0,490.0,532.0,531.0
499.0,514.0,486.0,526.0,534.0
494.0,518.0,491.0,519.0,538.0
493.0,513.0,497.0,511.0,534.0
494.0,510.0,505.0,503.0,532.0
494.0,506.0,513.0,496.0,522.0
495.0,500.0,518.0,490.0,512.0
504.0,495.0,523.0,491.0,505.0
516.0,493.0,528.0,485.0,503.0
515.0,492.0,527.0,487.0,498.0
522.0,492.0,529.0,498.0,495.0
521.0,495.0,526.0,507.0,495.0
531.0,504.0,527.0,522.0,496.0
530.0,505.0,520.0,533.0,499.0
526.0,511.0,512.0,544.0,501.0
526.0,515.0,503.0,544.0,498.0
527.0,519.0,501.0,544.0,507.0
509.0,512.0,488.0,532.0,524.0
501.0,513.0,486.0,527.0,534.0
493.0,513.0,491.0,515.0,533.0
497.0,514.0,497.0,506.0,529.0
499.0,507.0,506.0,500.0,527.0
505.0,506.0,516.0,496.0,520.0
504.0,499.0,521.0,489.0,517.0
505.0,495.0,525.0,485.0,514.0
507.0,492.0,528.0,483.0,512.0
518.0,491.0,527.0,489.0,506.0
525.0,495.0,530.0,500.0,507.0
528.0,499.0,527.0,511.0,498.0
537.0,505.0,526.0,526.0,494.0
532.0,508.0,518.0,535.0,497.0
529.0,513.0,508.0,540.0,503.0
525.0,517.0,502.0,543.0,506.0
515.0,519.0,497.0,542.0,508.0
497.0,515.0,488.0,531.0,526.0
489.0,511.0,485.0,520.0,533.0
493.0,515.0,494.0,512.0,537.0
495.0,513.0,502.0,504.0,535.0
497.0,508.0,508.0,496.0,531.0
500.0,501.0,516.0,488.0,518.0
510.0,500.0,524.0,489.0,515.0
507.0,496.0,525.0,485.0,512.0
513.0,491.0,526.0,487.0,513.0
519.0,492.0,529.0,494.0,508.0
522.0,496.0,527.0,506.0,496.0
530.0,501.0,526.0,517.0,487.0
535.0,506.0,524.0,531.0,488.0
530.0,510.0,513.0,537.0,496.0
527.0,512.0,505.0,541.0,506.0
524.0,517.0,500.0,541.0,511.0
509.0,514.0,489.0,537.0,525.0
499.0,514.0,484.0,525.0,535.0
495.0,514.0,488.0,517.0,532.0
498.0,517.0,495.0,513.0,539.0
496.0,514.0,502.0,503.0,533.0
497.0,505.0,511.0,495.0,523.0
502.0,502.0,522.0,489.0,523.0
505.0,497.0,524.0,486.0,517.0
510.0,491.0,524.0,483.0,509.0
516.0,491.0,528.0,489.0,506.0
522.0,493.0,530.0,498.0,498.0
531.0,498.0,528.0,511.0,488.0
536.0,503.0,527.0,522.0,483.0
540.0,510.0,522.0,533.0,485.0
531.0,511.0,509.0,538.0,487.0
523.0,518.0,504.0,541.0,512.0
514.0,518.0,498.0,540.0,520.0
499.0,511.0,487.0,532.0,533.0
489.0,511.0,484.0,523.0,536.0
488.0,518.0,492.0,516.0,537.0
489.0,512.0,499.0,509.0,533.0
500.0,508.0,504.0,499.0,526.0
507.0,505.0,515.0,495.0,524.0
514.0,500.0,520.0,489.0,520.0
512.0,497.0,527.0,484.0,515.0
508.0,492.0,527.0,485.0,514.0
516.0,490.0,529.0,491.0,514.0
527.0,495.0,528.0,501.0,507.0
535.0,497.0,528.0,513.0,503.0
542.0,506.0,527.0,526.0,499.0
538.0,508.0,517.0,534.0,500.0
531.0,513.0,510.0,540.0,508.0
520.0,515.0,502.0,539.0,517.0
511.0,516.0,498.0,541.0,523.0
487.0,510.0,486.0,528.0,527.0
481.0,512.0,488.0,520.0,533.0
481.0,510.0,490.0,511.0,528.0
490.0,511.0,501.0,506.0,521.0
492.0,508.0,510.0,499.0,517.0
512.0,505.0,518.0,495.0,517.0
514.0,500.0,526.0,490.0,515.0
508.0,495.0,527.0,488.0,514.0
513.0,495.0,531.0,489.0,508.0
514.0,493.0,531.0,497.0,499.0
518.0,492.0,528.0,506.0,490.0
526.0,501.0,528.0,518.0,489.0
536.0,505.0,524.0,531.0,495.0
540.0,512.0,516.0,539.0,501.0
529.0,513.0,509.0,542.0,509.0
532.0,518.0,500.0,546.0,498.0
524.0,516.0,491.0,538.0,514.0
504.0,512.0,484.0,526.0,533.0
495.0,513.0,488.0,518.0,533.0
492.0,512.0,493.0,511.0,528.0
495.0,511.0,504.0,505.0,524.0
502.0,507.0,512.0,497.0,526.0
503.0,501.0,519.0,492.0,520.0
505.0,497.0,528.0,490.0,517.0
507.0,494.0,527.0,488.0,511.0
509.0,489.0,528.0,490.0,506.0
521.0,492.0,529.0,498.0,502.0
527.0,494.0,526.0,507.0,495.0
541.0,504.0,525.0,522.0,489.0
537.0,508.0,521.0,537.0,488.0
534.0,512.0,513.0,541.0,490.0
528.0,515.0,507.0,542.0,500.0
521.0,518.0,499.0,542.0,509.0
501.0,511.0,487.0,532.0,545.0
496.0,513.0,485.0,523.0,539.0
493.0,512.0,491.0,515.0,534.0
496.0,512.0,499.0,509.0,532.0
498.0,508.0,507.0,501.0,526.0
504.0,505.0,514.0,496.0,525.0
497.0,498.0,519.0,492.0,522.0
504.0,496.0,524.0,492.0,516.0
511.0,492.0,527.0,487.0,510.0
512.0,489.0,528.0,492.0,505.0
518.0,491.0,527.0,501.0,502.0
524.0,497.0,528.0,515.0,492.0
530.0,504.0,526.0,527.0,494.0
530.0,507.0,519.0,540.0,498.0
525.0,510.0,508.0,540.0,502.0
530.0,516.0,502.0,546.0,507.0
521.0,520.0,497.0,540.0,509.0
503.0,511.0,486.0,530.0,527.0
493.0,513.0,487.0,519.0,533.0
493.0,511.0,492.0,513.0,527.0
494.0,513.0,504.0,507.0,530.0
496.0,508.0,510.0,498.0,530.0
500.0,503.0,518.0,491.0,518.0
503.0,499.0,524.0,492.0,514.0
510.0,494.0,526.0,486.0,521.0
509.0,492.0,529.0,486.0,515.0
516.0,491.0,530.0,494.0,504.0
523.0,494.0,531.0,503.0,500.0
531.0,501.0,526.0,517.0,495.0
536.0,507.0,526.0,535.0,494.0
533.0,511.0,515.0,538.0,497.0
525.0,513.0,506.0,541.0,505.0
518.0,515.0,497.0,540.0,508.0
512.0,516.0,492.0,536.0,524.0
498.0,513.0,485.0,524.0,530.0
499.0,515.0,491.0,519.0,533.0
496.0,513.0,494.0,509.0,529.0
496.0,509.0,503.0,503.0,529.0
499.0,506.0,513.0,496.0,524.0
500.0,501.0,517.0,490.0,523.0
501.0,498.0,527.0,489.0,519.0
509.0,495.0,526.0,490.0,509.0
517.0,492.0,528.0,488.0,504.0
524.0,494.0,531.0,498.0,502.0
527.0,499.0,529.0,510.0,496.0
530.0,503.0,528.0,521.0,495.0
532.0,508.0,523.0,533.0,493.0
526.0,512.0,513.0,541.0,501.0
524.0,516.0,505.0,541.0,504.0
520.0,518.0,499.0,540.0,509.0
506.0,516.0,489.0,533.0,525.0
497.0,515.0,486.0,523.0,529.0
494.0,515.0,492.0,516.0,532.0
492.0,513.0,499.0,509.0,529.0
493.0,509.0,506.0,500.0,530.0
499.0,507.0,517.0,496.0,524.0
502.0,499.0,520.0,488.0,516.0
508.0,495.0,526.0,488.0,511.0
514.0,497.0,529.0,488.0,512.0
517.0,491.0,530.0,493.0,506.0
526.0,494.0,529.0,501.0,501.0
531.0,497.0,525.0,510.0,494.0
535.0,505.0,524.0,526.0,489.0
528.0,509.0,521.0,540.0,494.0
524.0,513.0,510.0,540.0,502.0
514.0,515.0,503.0,542.0,508.0
510.0,518.0,498.0,542.0,514.0
499.0,516.0,491.0,530.0,533.0
501.0,514.0,487.0,520.0,535.0
503.0,516.0,499.0,515.0,540.0
506.0,514.0,502.0,505.0,536.0
502.0,507.0,507.0,496.0,536.0
499.0,505.0,518.0,496.0,529.0
509.0,501.0,523.0,490.0,509.0
508.0,496.0,532.0,488.0,508.0
505.0,491.0,528.0,488.0,506.0
508.0,491.0,534.0,496.0,501.0
513.0,495.0,529.0,504.0,500.0
519.0,499.0,527.0,517.0,497.0
527.0,504.0,525.0,530.0,493.0
546.0,512.0,519.0,539.0,491.0
549.0,513.0,506.0,541.0,499.0
525.0,513.0,499.0,542.0,505.0
513.0,516.0,495.0,536.0,518.0
498.0,512.0,486.0,525.0,529.0
504.0,517.0,489.0,518.0,530.0
500.0,513.0,495.0,507.0,532.0
496.0,511.0,504.0,503.0,532.0
495.0,505.0,511.0,497.0,528.0
489.0,502.0,519.0,492.0,522.0
491.0,499.0,524.0,489.0,505.0
493.0,494.0,528.0,488.0,496.0
500.0,489.0,527.0,489.0,501.0
523.0,498.0,530.0,496.0,502.0
527.0,496.0,529.0,511.0,500.0
551.0,503.0,527.0,519.0,494.0
547.0,507.0,522.0,533.0,495.0
543.0,513.0,515.0,541.0,505.0
538.0,514.0,504.0,543.0,512.0
533.0,519.0,499.0,544.0,508.0
514.0,513.0,487.0,532.0,525.0
508.0,514.0,483.0,523.0,532.0
500.0,514.0,496.0,515.0,534.0
497.0,511.0,497.0,507.0,534.0
494.0,512.0,507.0,503.0,530.0
499.0,505.0,516.0,496.0,518.0
505.0,499.0,519.0,490.0,515.0
511.0,498.0,526.0,489.0,511.0
512.0,492.0,528.0,486.0,508.0
521.0,493.0,530.0,493.0,516.0
525.0,493.0,527.0,499.0,506.0
533.0,501.0,530.0,514.0,500.0
534.0,504.0,525.0,525.0,497.0
538.0,510.0,522.0,537.0,497.0
532.0,512.0,510.0,541.0,497.0
527.0,515.0,503.0,543.0,498.0
518.0,516.0,497.0,542.0,507.0
505.0,514.0,487.0,530.0,521.0
494.0,511.0,485.0,520.0,534.0
492.0,513.0,494.0,514.0,548.0
495.0,511.0,500.0,506.0,533.0
498.0,506.0,512.0,501.0,527.0
505.0,504.0,516.0,494.0,520.0
502.0,497.0,521.0,489.0,514.0
509.0,497.0,527.0,489.0,511.0
513.0,492.0,529.0,485.0,513.0
520.0,493.0,535.0,496.0,508.0
524.0,494.0,528.0,505.0,502.0
529.0,500.0,527.0,521.0,497.0
534.0,505.0,524.0,530.0,490.0
536.0,513.0,517.0,540.0,494.0
526.0,513.0,504.0,542.0,502.0
522.0,518.0,502.0,543.0,507.0
510.0,514.0,489.0,536.0,518.0
499.0,514.0,486.0,526.0,531.0
491.0,511.0,487.0,518.0,541.0
493.0,512.0,496.0,513.0,536.0
497.0,512.0,503.0,505.0,530.0
497.0,505.0,512.0,496.0,530.0
501.0,501.0,520.0,493.0,519.0
506.0,500.0,525.0,488.0,516.0
507.0,494.0,528.0,485.0,513.0
513.0,492.0,531.0,489.0,512.0
519.0,493.0,532.0,497.0,508.0
527.0,498.0,526.0,508.0,496.0
536.0,502.0,529.0,526.0,492.0
539.0,507.0,522.0,531.0,494.0
532.0,512.0,513.0,541.0,498.0
523.0,514.0,504.0,542.0,504.0
517.0,519.0,501.0,548.0,505.0
500.0,514.0,487.0,532.0,520.0
494.0,511.0,483.0,523.0,533.0
493.0,517.0,492.0,517.0,540.0
493.0,514.0,499.0,509.0,534.0
497.0,509.0,507.0,501.0,529.0
501.0,505.0,513.0,496.0,524.0
500.0,498.0,519.0,493.0,524.0
505.0,497.0,525.0,487.0,516.0
506.0,493.0,530.0,485.0,515.0
516.0,495.0,533.0,491.0,507.0
519.0,491.0,527.0,500.0,492.0
526.0,497.0,527.0,512.0,487.0
536.0,503.0,525.0,525.0,486.0
538.0,508.0,522.0,537.0,493.0
531.0,512.0,509.0,541.0,498.0
521.0,513.0,500.0,542.0,504.0
518.0,519.0,499.0,543.0,508.0
501.0,513.0,487.0,529.0,521.0
496.0,513.0,486.0,523.0,531.0
494.0,513.0,493.0,513.0,536.0
494.0,512.0,501.0,505.0,533.0
496.0,507.0,510.0,500.0,536.0
498.0,503.0,516.0,492.0,526.0
500.0,497.0,521.0,487.0,516.0
510.0,495.0,525.0,491.0,509.0
509.0,493.0,529.0,487.0,507.0
523.0,493.0,530.0,495.0,496.0
527.0,493.0,527.0,503.0,494.0
533.0,499.0,528.0,520.0,493.0
537.0,504.0,524.0,530.0,501.0
535.0,509.0,516.0,539.0,500.0
531.0,512.0,507.0,540.0,504.0
524.0,515.0,499.0,541.0,508.0
515.0,519.0,493.0,537.0,522.0
502.0,512.0,486.0,526.0,531.0
495.0,517.0,490.0,520.0,537.0
493.0,512.0,495.0,512.0,535.0
492.0,508.0,503.0,505.0,530.0
497.0,507.0,512.0,499.0,530.0
501.0,501.0,519.0,493.0,525.0
506.0,494.0,524.0,488.0,517.0
510.0,498.0,528.0,487.0,513.0
512.0,490.0,528.0,487.0,502.0
515.0,490.0,529.0,497.0,497.0
518.0,495.0,529.0,509.0,493.0
524.0,500.0,526.0,520.0,495.0
528.0,507.0,523.0,535.0,490.0
524.0,511.0,513.0,540.0,494.0
529.0,515.0,504.0,542.0,508.0
530.0,518.0,497.0,541.0,511.0
512.0,514.0,489.0,532.0,527.0
499.0,511.0,486.0,521.0,532.0
492.0,512.0,491.0,515.0,537.0
489.0,510.0,498.0,510.0,533.0
489.0,506.0,506.0,498.0,529.0
495.0,504.0,516.0,502.0,520.0
496.0,499.0,521.0,492.0,517.0
510.0,496.0,525.0,489.0,508.0
511.0,491.0,528.0,489.0,509.0
519.0,490.0,532.0,491.0,502.0
519.0,491.0,525.0,497.0,500.0
534.0,496.0,528.0,512.0,498.0
541.0,503.0,526.0,527.0,490.0
537.0,509.0,520.0,537.0,499.0
531.0,510.0,509.0,538.0,503.0
525.0,515.0,502.0,545.0,512.0
515.0,517.0,498.0,542.0,517.0
496.0,512.0,488.0,535.0,531.0
488.0,511.0,483.0,520.0,534.0
487.0,512.0,494.0,515.0,535.0
494.0,514.0,503.0,507.0,527.0
507.0,508.0,508.0,501.0,517.0
509.0,502.0,517.0,494.0,517.0
506.0,497.0,521.0,485.0,517.0
505.0,492.0,524.0,484.0,514.0
511.0,491.0,529.0,489.0,510.0
524.0,492.0,531.0,496.0,494.0
525.0,493.0,532.0,506.0,488.0
533.0,500.0,528.0,518.0,487.0
537.0,507.0,526.0,528.0,486.0
530.0,510.0,517.0,539.0,494.0
521.0,512.0,506.0,541.0,504.0
515.0,514.0,500.0,540.0,510.0
502.0,512.0,489.0,535.0,523.0
493.0,513.0,487.0,527.0,537.0
492.0,512.0,487.0,517.0,535.0
496.0,513.0,496.0,512.0,537.0
505.0,511.0,505.0,505.0,531.0
508.0,510.0,512.0,497.0,525.0
504.0,501.0,519.0,489.0,517.0
506.0,498.0,528.0,489.0,515.0
510.0,494.0,527.0,487.0,507.0
521.0,491.0,531.0,489.0,504.0
526.0,493.0,529.0,498.0,499.0
529.0,494.0,527.0,508.0,494.0
537.0,500.0,526.0,521.0,492.0
539.0,507.0,522.0,533.0,493.0
534.0,511.0,514.0,539.0,495.0
524.0,513.0,503.0,541.0,510.0
518.0,517.0,500.0,542.0,515.0
503.0,512.0,487.0,532.0,532.0
494.0,513.0,487.0,525.0,537.0
491.0,512.0,490.0,521.0,539.0
501.0,514.0,499.0,511.0,530.0
506.0,508.0,508.0,501.0,521.0
502.0,504.0,515.0,495.0,521.0
506.0,501.0,520.0,491.0,516.0
509.0,499.0,522.0,486.0,512.0
515.0,498.0,529.0,487.0,513.0
521.0,492.0,526.0,490.0,506.0
522.0,494.0,532.0,501.0,503.0
526.0,499.0,527.0,514.0,493.0
531.0,503.0,525.0,526.0,486.0
533.0,508.0,518.0,536.0,485.0
529.0,514.0,511.0,542.0,492.0
519.0,515.0,502.0,544.0,497.0
518.0,520.0,502.0,543.0,503.0
499.0,512.0,485.0,530.0,530.0
492.0,511.0,485.0,520.0,542.0
492.0,513.0,494.0,515.0,541.0
496.0,514.0,506.0,507.0,535.0
496.0,507.0,506.0,497.0,527.0
505.0,507.0,517.0,493.0,528.0
501.0,498.0,521.0,488.0,521.0
505.0,495.0,524.0,486.0,511.0
510.0,493.0,529.0,489.0,506.0
514.0,493.0,531.0,495.0,498.0
520.0,495.0,531.0,506.0,495.0
527.0,500.0,528.0,517.0,496.0
531.0,508.0,526.0,531.0,503.0
531.0,510.0,515.0,539.0,492.0
525.0,513.0,507.0,541.0,501.0
519.0,516.0,501.0,541.0,510.0
509.0,516.0,496.0,538.0,521.0
497.0,514.0,487.0,528.0,533.0
492.0,516.0,491.0,520.0,537.0
489.0,513.0,496.0,508.0,533.0
495.0,511.0,505.0,505.0,534.0
496.0,506.0,512.0,497.0,529.0
501.0,501.0,518.0,492.0,521.0
509.0,499.0,523.0,488.0,512.0
509.0,493.0,527.0,487.0,507.0
515.0,492.0,527.0,490.0,501.0
520.0,491.0,528.0,498.0,491.0
525.0,497.0,528.0,508.0,492.0
529.0,504.0,526.0,520.0,488.0
533.0,508.0,523.0,534.0,493.0
533.0,514.0,513.0,541.0,492.0
528.0,516.0,506.0,542.0,499.0
523.0,517.0,499.0,542.0,504.0
508.0,515.0,489.0,536.0,523.0
496.0,512.0,485.0,524.0,532.0
496.0,515.0,492.0,517.0,533.0
493.0,513.0,497.0,506.0,531.0
496.0,510.0,506.0,505.0,531.0
501.0,507.0,516.0,496.0,521.0
501.0,500.0,520.0,486.0,515.0
501.0,495.0,524.0,488.0,512.0
515.0,495.0,529.0,488.0,505.0
520.0,491.0,528.0,492.0,501.0
526.0,494.0,530.0,501.0,500.0
529.0,499.0,531.0,512.0,491.0
536.0,506.0,528.0,528.0,491.0
530.0,506.0,517.0,536.0,494.0
523.0,513.0,512.0,542.0,501.0
515.0,515.0,503.0,542.0,502.0
508.0,518.0,497.0,546.0,511.0
495.0,513.0,487.0,532.0,526.0
488.0,513.0,489.0,524.0,537.0
499.0,515.0,493.0,515.0,533.0
506.0,512.0,502.0,505.0,526.0
506.0,507.0,508.0,500.0,521.0
510.0,506.0,518.0,496.0,516.0
510.0,500.0,522.0,489.0,514.0
513.0,498.0,526.0,487.0,506.0
510.0,491.0,526.0,489.0,508.0
516.0,490.0,531.0,495.0,503.0
523.0,494.0,529.0,507.0,497.0
524.0,498.0,526.0,516.0,494.0
533.0,506.0,525.0,530.0,495.0
537.0,512.0,522.0,545.0,496.0
527.0,512.0,506.0,541.0,503.0
522.0,516.0,504.0,543.0,512.0
512.0,515.0,493.0,538.0,515.0
497.0,512.0,486.0,530.0,523.0
487.0,514.0,485.0,518.0,522.0
485.0,512.0,495.0,513.0,520.0
485.0,510.0,502.0,504.0,532.0
505.0,506.0,510.0,495.0,532.0
513.0,502.0,521.0,491.0,522.0
509.0,498.0,521.0,488.0,519.0
510.0,492.0,524.0,485.0,514.0
522.0,491.0,528.0,489.0,501.0
524.0,492.0,531.0,500.0,498.0
528.0,497.0,529.0,508.0,496.0
533.0,502.0,530.0,522.0,491.0
533.0,507.0,523.0,533.0,490.0
531.0,514.0,516.0,543.0,494.0
520.0,513.0,503.0,540.0,506.0
514.0,518.0,499.0,544.0,513.0
499.0,514.0,487.0,536.0,525.0
493.0,516.0,488.0,526.0,533.0
497.0,516.0,492.0,517.0,527.0
505.0,517.0,497.0,509.0,530.0
499.0,510.0,506.0,503.0,533.0
504.0,509.0,516.0,498.0,519.0
506.0,501.0,523.0,489.0,513.0
507.0,496.0,524.0,486.0,505.0
513.0,497.0,529.0,488.0,505.0
514.0,493.0,530.0,491.0,517.0
522.0,496.0,534.0,503.0,499.0
530.0,500.0,530.0,513.0,488.0
535.0,506.0,527.0,530.0,487.0
532.0,508.0,520.0,538.0,491.0
530.0,515.0,508.0,541.0,494.0
523.0,517.0,503.0,541.0,504.0
517.0,518.0,499.0,543.0,520.0
508.0,519.0,487.0,529.0,530.0
493.0,513.0,487.0,520.0,538.0
494.0,515.0,496.0,513.0,534.0
494.0,513.0,501.0,508.0,528.0
495.0,507.0,508.0,498.0,528.0
508.0,508.0,520.0,496.0,522.0
503.0,498.0,521.0,488.0,515.0
507.0,496.0,526.0,489.0,516.0
515.0,494.0,529.0,488.0,503.0
518.0,492.0,528.0,492.0,496.0
524.0,499.0,530.0,504.0,495.0
530.0,500.0,527.0,516.0,489.0
534.0,507.0,526.0,530.0,494.0
531.0,509.0,517.0,537.0,496.0
524.0,514.0,508.0,542.0,506.0
520.0,516.0,501.0,543.0,508.0
512.0,515.0,493.0,537.0,517.0
500.0,514.0,486.0,527.0,530.0
497.0,513.0,488.0,519.0,533.0
498.0,514.0,495.0,512.0,534.0
497.0,510.0,503.0,503.0,529.0
495.0,505.0,509.0,496.0,522.0
500.0,503.0,520.0,493.0,518.0
506.0,500.0,526.0,490.0,515.0
503.0,491.0,527.0,484.0,516.0
514.0,492.0,529.0,490.0,512.0
520.0,492.0,528.0,495.0,491.0
526.0,497.0,529.0,508.0,492.0
531.0,502.0,524.0,520.0,493.0
538.0,506.0,524.0,534.0,496.0
533.0,513.0,515.0,541.0,501.0
522.0,514.0,506.0,543.0,512.0
522.0,519.0,501.0,543.0,508.0
505.0,513.0,489.0,536.0,518.0
493.0,511.0,486.0,524.0,530.0
491.0,513.0,491.0,518.0,530.0
494.0,515.0,499.0,510.0,531.0
497.0,511.0,507.0,501.0,527.0
497.0,504.0,515.0,492.0,518.0
502.0,500.0,520.0,490.0,515.0
510.0,500.0,526.0,488.0,509.0
511.0,497.0,528.0,486.0,507.0
515.0,490.0,528.0,489.0,501.0
528.0,493.0,529.0,500.0,500.0
533.0,499.0,528.0,509.0,490.0
535.0,506.0,527.0,526.0,495.0
534.0,508.0,521.0,536.0,496.0
530.0,511.0,511.0,540.0,498.0
520.0,515.0,503.0,544.0,505.0
515.0,520.0,499.0,542.0,506.0
500.0,512.0,488.0,530.0,526.0
496.0,515.0,487.0,521.0,534.0
488.0,511.0,493.0,514.0,537.0
490.0,510.0,501.0,505.0,539.0
489.0,506.0,507.0,496.0,527.0
496.0,505.0,519.0,494.0,522.0
500.0,499.0,518.0,486.0,516.0
511.0,496.0,526.0,486.0,513.0
517.0,495.0,529.0,487.0,509.0
518.0,492.0,530.0,496.0,512.0
523.0,494.0,527.0,501.0,506.0
532.0,499.0,526.0,515.0,498.0
537.0,506.0,525.0,529.0,488.0
532.0,512.0,518.0,539.0,491.0
524.0,512.0,505.0,540.0,494.0
515.0,517.0,502.0,545.0,501.0
501.0,512.0,491.0,537.0,520.0
492.0,514.0,486.0,527.0,540.0
488.0,516.0,491.0,521.0,538.0
493.0,514.0,496.0,513.0,535.0
497.0,512.0,504.0,510.0,530.0
502.0,508.0,512.0,496.0,526.0
507.0,503.0,519.0,490.0,518.0
516.0,498.0,521.0,485.0,515.0
516.0,496.0,527.0,485.0,509.0
514.0,492.0,529.0,487.0,507.0
515.0,492.0,529.0,497.0,500.0
513.0,494.0,527.0,507.0,498.0
522.0,502.0,528.0,520.0,497.0
530.0,505.0,521.0,531.0,499.0
544.0,513.0,515.0,540.0,504.0
536.0,514.0,505.0,541.0,515.0
533.0,520.0,500.0,539.0,511.0
525.0,514.0,492.0,531.0,518.0
507.0,512.0,485.0,526.0,520.0
504.0,516.0,492.0,518.0,518.0
494.0,512.0,496.0,512.0,526.0
489.0,508.0,503.0,501.0,535.0
504.0,510.0,515.0,497.0,513.0
506.0,499.0,517.0,490.0,508.0
507.0,498.0,526.0,487.0,514.0
507.0,492.0,526.0,485.0,514.0
515.0,493.0,530.0,491.0,507.0
521.0,493.0,528.0,499.0,495.0
529.0,500.0,529.0,514.0,487.0
535.0,505.0,525.0,525.0,484.0
534.0,509.0,520.0,536.0,498.0
531.0,515.0,512.0,542.0,508.0
525.0,514.0,500.0,540.0,512.0
526.0,520.0,499.0,544.0,516.0
504.0,512.0,485.0,531.0,530.0
494.0,516.0,486.0,523.0,527.0
486.0,512.0,492.0,516.0,529.0
490.0,513.0,502.0,510.0,527.0
494.0,508.0,507.0,499.0,523.0
499.0,504.0,516.0,497.0,511.0
499.0,497.0,520.0,489.0,512.0
507.0,496.0,526.0,492.0,511.0
512.0,492.0,528.0,485.0,511.0
521.0,495.0,530.0,494.0,507.0
523.0,494.0,528.0,502.0,502.0
530.0,500.0,532.0,515.0,498.0
537.0,504.0,524.0,529.0,493.0
532.0,511.0,518.0,538.0,495.0
525.0,514.0,508.0,542.0,501.0
517.0,515.0,501.0,543.0,508.0
513.0,519.0,495.0,540.0,520.0
496.0,513.0,484.0,527.0,530.0
492.0,515.0,493.0,519.0,534.0
488.0,517.0,494.0,510.0,533.0
493.0,512.0,507.0,505.0,532.0
496.0,507.0,511.0,499.0,527.0
506.0,503.0,519.0,492.0,521.0
504.0,498.0,523.0,488.0,517.0
506.0,494.0,525.0,486.0,512.0
513.0,496.0,529.0,489.0,509.0
520.0,495.0,530.0,497.0,501.0
524.0,497.0,527.0,505.0,495.0
534.0,504.0,527.0,522.0,494.0
535.0,510.0,521.0,533.0,491.0
534.0,517.0,516.0,542.0,494.0
522.0,513.0,502.0,539.0,504.0
518.0,519.0,500.0,544.0,511.0
504.0,514.0,488.0,534.0,528.0
495.0,513.0,485.0,525.0,536.0
492.0,515.0,490.0,517.0,536.0
492.0,511.0,496.0,508.0,534.0
494.0,510.0,506.0,501.0,532.0
499.0,507.0,515.0,496.0,526.0
501.0,500.0,519.0,490.0,519.0
504.0,495.0,520.0,486.0,513.0
508.0,493.0,530.0,486.0,511.0
513.0,492.0,530.0,491.0,506.0
518.0,493.0,529.0,498.0,502.0
522.0,496.0,528.0,511.0,496.0
529.0,503.0,530.0,525.0,493.0
525.0,506.0,519.0,535.0,498.0
522.0,512.0,512.0,541.0,506.0
518.0,512.0,501.0,540.0,514.0
526.0,518.0,499.0,543.0,517.0
504.0,513.0,487.0,530.0,526.0
496.0,510.0,486.0,521.0,531.0
502.0,515.0,494.0,519.0,529.0
502.0,512.0,501.0,507.0,529.0
500.0,506.0,510.0,497.0,526.0
504.0,503.0,516.0,494.0,524.0
506.0,499.0,521.0,486.0,523.0
505.0,495.0,525.0,483.0,518.0
508.0,492.0,529.0,488.0,509.0
516.0,493.0,531.0,494.0,500.0
529.0,495.0,528.0,504.0,493.0
531.0,503.0,532.0,516.0,494.0
536.0,506.0,524.0,528.0,485.0
535.0,511.0,519.0,538.0,494.0
528.0,512.0,505.0,538.0,501.0
528.0,517.0,502.0,544.0,507.0
517.0,517.0,495.0,536.0,521.0
503.0,514.0,489.0,530.0,531.0
499.0,516.0,489.0,519.0,532.0
495.0,512.0,494.0,510.0,538.0
497.0,509.0,509.0,503.0,532.0
498.0,506.0,512.0,498.0,514.0
505.0,503.0,520.0,495.0,501.0
502.0,497.0,522.0,488.0,500.0
505.0,492.0,525.0,485.0,500.0
506.0,491.0,528.0,488.0,527.0
512.0,491.0,528.0,493.0,513.0
520.0,495.0,528.0,507.0,500.0
530.0,502.0,527.0,520.0,498.0
542.0,508.0,524.0,533.0,498.0
538.0,514.0,513.0,541.0,501.0
525.0,514.0,505.0,540.0,522.0
526.0,518.0,499.0,546.0,509.0
512.0,512.0,488.0,534.0,520.0
501.0,512.0,486.0,524.0,530.0
496.0,513.0,491.0,520.0,532.0
494.0,513.0,499.0,511.0,530.0
499.0,510.0,505.0,503.0,530.0
497.0,505.0,515.0,496.0,523.0
500.0,500.0,520.0,492.0,520.0
502.0,497.0,523.0,488.0,510.0
502.0,491.0,526.0,486.0,509.0
509.0,490.0,528.0,490.0,500.0
513.0,490.0,531.0,497.0,495.0
517.0,497.0,529.0,512.0,496.0
525.0,504.0,527.0,525.0,495.0
532.0,510.0,521.0,541.0,492.0
526.0,511.0,512.0,542.0,509.0
530.0,512.0,500.0,540.0,508.0
517.0,516.0,499.0,543.0,515.0
501.0,515.0,488.0,533.0,526.0
491.0,516.0,489.0,523.0,538.0
498.0,514.0,493.0,515.0,533.0
504.0,512.0,501.0,508.0,528.0
505.0,510.0,508.0,502.0,525.0
510.0,507.0,519.0,499.0,516.0
508.0,499.0,522.0,487.0,513.0
512.0,495.0,527.0,487.0,508.0
515.0,493.0,528.0,488.0,511.0
522.0,496.0,529.0,492.0,513.0
525.0,497.0,527.0,504.0,504.0
532.0,500.0,528.0,515.0,495.0
538.0,507.0,526.0,529.0,489.0
534.0,510.0,518.0,544.0,494.0
525.0,513.0,508.0,541.0,505.0
517.0,516.0,502.0,545.0,512.0
510.0,518.0,495.0,540.0,518.0
501.0,516.0,487.0,530.0,528.0
489.0,513.0,488.0,519.0,529.0
492.0,513.0,496.0,517.0,529.0
500.0,512.0,504.0,506.0,526.0
497.0,505.0,510.0,496.0,531.0
498.0,503.0,519.0,493.0,529.0
501.0,496.0,522.0,486.0,519.0
511.0,493.0,527.0,487.0,508.0
513.0,490.0,528.0,489.0,507.0
522.0,491.0,530.0,497.0,501.0
536.0,497.0,529.0,507.0,496.0
544.0,506.0,528.0,521.0,492.0
539.0,505.0,522.0,531.0,494.0
536.0,512.0,516.0,538.0,498.0
524.0,513.0,504.0,542.0,509.0
518.0,517.0,501.0,543.0,512.0
504.0,514.0,490.0,535.0,529.0
496.0,513.0,485.0,524.0,531.0
494.0,513.0,490.0,520.0,534.0
497.0,514.0,497.0,509.0,531.0
494.0,509.0,508.0,501.0,527.0
497.0,505.0,515.0,497.0,525.0
501.0,500.0,520.0,490.0,521.0
504.0,495.0,525.0,487.0,519.0
510.0,493.0,530.0,487.0,511.0
512.0,488.0,526.0,489.0,505.0
520.0,493.0,529.0,501.0,501.0
527.0,498.0,529.0,513.0,494.0
534.0,507.0,531.0,525.0,493.0
532.0,508.0,517.0,534.0,492.0
532.0,514.0,513.0,540.0,501.0
524.0,514.0,500.0,539.0,509.0
517.0,520.0,500.0,543.0,514.0
503.0,512.0,485.0,531.0,529.0
496.0,513.0,488.0,523.0,533.0
491.0,511.0,492.0,515.0,535.0
493.0,513.0,501.0,510.0,531.0
493.0,508.0,509.0,500.0,527.0
498.0,506.0,519.0,496.0,520.0
502.0,497.0,518.0,487.0,520.0
501.0,493.0,525.0,486.0,516.0
506.0,491.0,531.0,492.0,512.0
523.0,491.0,529.0,493.0,506.0
525.0,494.0,528.0,503.0,501.0
531.0,499.0,528.0,515.0,496.0
531.0,504.0,524.0,528.0,495.0
535.0,511.0,517.0,538.0,495.0
531.0,513.0,508.0,542.0,504.0
521.0,516.0,500.0,541.0,508.0
514.0,518.0,496.0,540.0,518.0
501.0,512.0,485.0,528.0,526.0
496.0,514.0,488.0,520.0,532.0
493.0,512.0,493.0,511.0,532.0
495.0,510.0,504.0,504.0,531.0
497.0,506.0,511.0,497.0,524.0
504.0,504.0,518.0,494.0,520.0
504.0,497.0,522.0,487.0,516.0
509.0,493.0,527.0,490.0,512.0
515.0,491.0,529.0,490.0,500.0
525.0,492.0,531.0,498.0,494.0
528.0,494.0,526.0,505.0,490.0
533.0,502.0,526.0,520.0,497.0
535.0,508.0,523.0,532.0,500.0
532.0,513.0,515.0,541.0,503.0
523.0,511.0,503.0,540.0,512.0
520.0,518.0,502.0,541.0,514.0
505.0,513.0,486.0,533.0,525.0
496.0,517.0,487.0,527.0,531.0
492.0,514.0,490.0,518.0,531.0
492.0,512.0,497.0,511.0,534.0
497.0,510.0,507.0,502.0,530.0
498.0,504.0,513.0,493.0,523.0
502.0,501.0,523.0,489.0,521.0
507.0,497.0,521.0,487.0,514.0
510.0,494.0,525.0,489.0,507.0
516.0,495.0,528.0,492.0,505.0
523.0,492.0,527.0,500.0,498.0
534.0,501.0,528.0,515.0,491.0
536.0,504.0,525.0,525.0,486.0
536.0,510.0,519.0,537.0,492.0
529.0,511.0,512.0,542.0,504.0
522.0,512.0,501.0,539.0,509.0
515.0,517.0,496.0,541.0,513.0
501.0,513.0,487.0,529.0,530.0
493.0,511.0,486.0,522.0,538.0
493.0,513.0,492.0,516.0,537.0
492.0,511.0,502.0,506.0,531.0
495.0,508.0,508.0,498.0,531.0
505.0,505.0,517.0,496.0,519.0
504.0,496.0,520.0,489.0,515.0
507.0,492.0,524.0,489.0,511.0
515.0,494.0,531.0,490.0,507.0
518.0,493.0,531.0,494.0,498.0
526.0,493.0,528.0,503.0,495.0
531.0,497.0,527.0,515.0,488.0
536.0,510.0,525.0,529.0,491.0
528.0,510.0,516.0,537.0,500.0
526.0,514.0,510.0,542.0,510.0
522.0,515.0,501.0,542.0,513.0
517.0,518.0,496.0,540.0,522.0
499.0,513.0,487.0,530.0,530.0
492.0,513.0,489.0,520.0,533.0
492.0,513.0,495.0,513.0,531.0
492.0,511.0,502.0,505.0,530.0
498.0,507.0,512.0,499.0,527.0
506.0,504.0,521.0,496.0,517.0
500.0,494.0,521.0,487.0,522.0
507.0,495.0,528.0,486.0,515.0
510.0,491.0,531.0,487.0,506.0
518.0,493.0,536.0,496.0,505.0
524.0,496.0,526.0,507.0,500.0
532.0,500.0,525.0,521.0,493.0
538.0,507.0,523.0,534.0,490.0
530.0,510.0,514.0,542.0,495.0
522.0,513.0,504.0,541.0,507.0
518.0,516.0,500.0,542.0,513.0
504.0,513.0,490.0,539.0,525.0
496.0,514.0,488.0,528.0,531.0
493.0,514.0,493.0,521.0,534.0
491.0,511.0,497.0,511.0,533.0
493.0,506.0,504.0,503.0,527.0
498.0,504.0,520.0,499.0,522.0
504.0,503.0,523.0,493.0,516.0
504.0,498.0,525.0,487.0,514.0
513.0,495.0,528.0,490.0,509.0
516.0,492.0,525.0,487.0,507.0
522.0,493.0,522.0,499.0,501.0
530.0,499.0,525.0,510.0,493.0
535.0,506.0,519.0,522.0,490.0
531.0,508.0,511.0,536.0,495.0
527.0,512.0,505.0,545.0,502.0
522.0,515.0,498.0,549.0,513.0
516.0,517.0,497.0,550.0,518.0
502.0,512.0,486.0,537.0,527.0
496.0,513.0,486.0,524.0,536.0
495.0,513.0,490.0,507.0,531.0
495.0,513.0,504.0,496.0,527.0
498.0,509.0,514.0,492.0,524.0
505.0,507.0,523.0,491.0,510.0
507.0,500.0,533.0,488.0,511.0
512.0,497.0,536.0,482.0,512.0
512.0,492.0,536.0,484.0,508.0
516.0,493.0,531.0,492.0,508.0
520.0,493.0,527.0,499.0,504.0
529.0,496.0,524.0,517.0,500.0
533.0,504.0,524.0,535.0,491.0
537.0,515.0,520.0,539.0,497.0
529.0,516.0,513.0,543.0,505.0
523.0,515.0,504.0,542.0,507.0
517.0,517.0,496.0,542.0,518.0
499.0,510.0,485.0,529.0,534.0
493.0,514.0,483.0,519.0,538.0
491.0,512.0,491.0,511.0,540.0
496.0,511.0,502.0,504.0,532.0
498.0,507.0,513.0,497.0,529.0
503.0,506.0,524.0,496.0,519.0
506.0,499.0,530.0,492.0,517.0
507.0,496.0,536.0,485.0,510.0
515.0,493.0,548.0,492.0,511.0
519.0,490.0,555.0,499.0,506.0
526.0,492.0,532.0,508.0,497.0
532.0,495.0,525.0,521.0,497.0
532.0,498.0,519.0,528.0,495.0
543.0,498.0,484.0,536.0,494.0
540.0,501.0,473.0,536.0,492.0
527.0,510.0,487.0,541.0,499.0
508.0,503.0,485.0,532.0,520.0
498.0,508.0,483.0,521.0,534.0
492.0,503.0,486.0,509.0,544.0
491.0,516.0,492.0,505.0,536.0
498.0,521.0,511.0,509.0,531.0
498.0,510.0,524.0,506.0,519.0
503.0,505.0,530.0,505.0,513.0
499.0,498.0,520.0,497.0,510.0
507.0,493.0,520.0,498.0,520.0
518.0,495.0,528.0,496.0,508.0
522.0,497.0,531.0,510.0,497.0
531.0,508.0,535.0,518.0,496.0
537.0,506.0,521.0,519.0,494.0
534.0,504.0,497.0,519.0,495.0
532.0,509.0,500.0,527.0,499.0
531.0,512.0,499.0,536.0,514.0
526.0,516.0,500.0,550.0,519.0
508.0,515.0,491.0,537.0,533.0
495.0,517.0,482.0,523.0,532.0
491.0,514.0,486.0,522.0,533.0
500.0,519.0,500.0,514.0,525.0
505.0,525.0,522.0,514.0,518.0
502.0,515.0,527.0,506.0,512.0
493.0,501.0,521.0,488.0,513.0
501.0,498.0,523.0,489.0,516.0
506.0,493.0,511.0,489.0,517.0
515.0,492.0,519.0,500.0,508.0
522.0,493.0,528.0,511.0,504.0
527.0,475.0,516.0,522.0,500.0
532.0,475.0,522.0,537.0,498.0
534.0,483.0,519.0,545.0,504.0
529.0,479.0,507.0,540.0,505.0
518.0,486.0,500.0,535.0,513.0
505.0,498.0,473.0,533.0,521.0
501.0,528.0,493.0,529.0,526.0
501.0,543.0,507.0,528.0,522.0
510.0,529.0,506.0,526.0,521.0
502.0,522.0,516.0,519.0,524.0
498.0,530.0,527.0,507.0,533.0
505.0,512.0,530.0,498.0,520.0
516.0,505.0,538.0,501.0,514.0
510.0,514.0,533.0,493.0,515.0
504.0,508.0,533.0,494.0,511.0
522.0,506.0,533.0,496.0,497.0
530.0,513.0,533.0,508.0,495.0
529.0,510.0,534.0,524.0,494.0
538.0,512.0,532.0,540.0,487.0
537.0,518.0,530.0,550.0,501.0
521.0,514.0,522.0,549.0,516.0
523.0,512.0,493.0,543.0,511.0
511.0,502.0,468.0,536.0,528.0
496.0,493.0,465.0,526.0,537.0
493.0,501.0,476.0,522.0,535.0
492.0,517.0,489.0,516.0,532.0
496.0,536.0,505.0,503.0,527.0
497.0,528.0,517.0,502.0,523.0
515.0,514.0,517.0,504.0,513.0
510.0,491.0,513.0,492.0,517.0
511.0,481.0,508.0,486.0,508.0
515.0,483.0,504.0,493.0,512.0
516.0,487.0,497.0,511.0,504.0
525.0,490.0,510.0,519.0,496.0
537.0,506.0,518.0,541.0,486.0
540.0,533.0,525.0,578.0,492.0
541.0,529.0,531.0,572.0,492.0
525.0,516.0,536.0,571.0,507.0
514.0,508.0,540.0,576.0,511.0
501.0,499.0,524.0,561.0,530.0
489.0,480.0,495.0,547.0,539.0
485.0,457.0,467.0,494.0,548.0
494.0,467.0,466.0,496.0,532.0
495.0,472.0,493.0,516.0,529.0
500.0,479.0,513.0,507.0,517.0
500.0,490.0,519.0,492.0,525.0
517.0,532.0,543.0,486.0,512.0
521.0,568.0,568.0,484.0,510.0
524.0,536.0,543.0,502.0,496.0
526.0,502.0,541.0,523.0,491.0
537.0,497.0,530.0,539.0,484.0
534.0,502.0,527.0,544.0,489.0
539.0,497.0,521.0,550.0,497.0
529.0,481.0,494.0,540.0,505.0
507.0,486.0,514.0,530.0,524.0
508.0,487.0,511.0,544.0,519.0
488.0,469.0,506.0,571.0,532.0
476.0,489.0,519.0,564.0,542.0
489.0,517.0,476.0,545.0,540.0
508.0,547.0,470.0,532.0,517.0
511.0,557.0,486.0,538.0,507.0
517.0,555.0,501.0,538.0,504.0
510.0,535.0,517.0,516.0,511.0
509.0,517.0,533.0,518.0,518.0
513.0,496.0,527.0,521.0,513.0
524.0,486.0,534.0,527.0,504.0
520.0,468.0,545.0,532.0,512.0
532.0,482.0,532.0,532.0,497.0
535.0,521.0,524.0,548.0,494.0
525.0,524.0,489.0,549.0,502.0
524.0,526.0,467.0,536.0,500.0
537.0,564.0,495.0,558.0,490.0
514.0,548.0,493.0,552.0,526.0
507.0,530.0,494.0,515.0,530.0
502.0,524.0,504.0,515.0,532.0
502.0,495.0,531.0,520.0,529.0
506.0,490.0,555.0,520.0,526.0
503.0,479.0,565.0,514.0,529.0
497.0,454.0,541.0,496.0,520.0
499.0,466.0,525.0,519.0,510.0
522.0,515.0,560.0,564.0,492.0
533.0,495.0,576.0,604.0,485.0
515.0,500.0,547.0,550.0,504.0
520.0,515.0,531.0,564.0,499.0
532.0,506.0,502.0,601.0,485.0
529.0,493.0,521.0,560.0,497.0
529.0,477.0,519.0,549.0,498.0
522.0,470.0,512.0,563.0,510.0
519.0,489.0,487.0,578.0,519.0
491.0,487.0,469.0,530.0,550.0
492.0,516.0,469.0,529.0,542.0
502.0,572.0,489.0,542.0,518.0
499.0,568.0,541.0,558.0,513.0
491.0,528.0,543.0,551.0,539.0
508.0,479.0,525.0,533.0,516.0
497.0,449.0,490.0,519.0,517.0
501.0,476.0,507.0,518.0,519.0
518.0,502.0,519.0,502.0,515.0
539.0,509.0,523.0,504.0,496.0
553.0,500.0,541.0,504.0,474.0
528.0,533.0,558.0,524.0,491.0
538.0,548.0,587.0,575.0,484.0
536.0,528.0,567.0,601.0,494.0
518.0,517.0,501.0,587.0,516.0
506.0,533.0,500.0,541.0,511.0
517.0,535.0,558.0,616.0,497.0
512.0,514.0,535.0,645.0,526.0
515.0,501.0,534.0,580.0,514.0
499.0,485.0,486.0,524.0,540.0
485.0,479.0,530.0,497.0,557.0
483.0,466.0,516.0,497.0,550.0
483.0,426.0,501.0,479.0,546.0
489.0,410.0,502.0,454.0,534.0
501.0,386.0,498.0,460.0,509.0
519.0,407.0,553.0,512.0,496.0
516.0,456.0,611.0,544.0,511.0
521.0,492.0,561.0,535.0,503.0
531.0,595.0,571.0,598.0,490.0
553.0,647.0,589.0,613.0,486.0
547.0,587.0,566.0,592.0,482.0
531.0,542.0,524.0,563.0,486.0
522.0,533.0,470.0,542.0,500.0
514.0,522.0,502.0,546.0,516.0
503.0,530.0,535.0,523.0,527.0
501.0,511.0,541.0,502.0,518.0
498.0,472.0,476.0,500.0,526.0
507.0,499.0,486.0,505.0,525.0
518.0,514.0,588.0,508.0,511.0
530.0,562.0,606.0,550.0,494.0
505.0,508.0,500.0,545.0,489.0
502.0,476.0,501.0,538.0,503.0
506.0,480.0,604.0,520.0,523.0
526.0,516.0,674.0,511.0,505.0
523.0,507.0,694.0,503.0,494.0
513.0,492.0,561.0,537.0,509.0
526.0,505.0,559.0,566.0,486.0
536.0,516.0,565.0,612.0,487.0
525.0,462.0,415.0,581.0,502.0
514.0,451.0,384.0,587.0,504.0
517.0,526.0,463.0,575.0,491.0
527.0,541.0,491.0,542.0,501.0
508.0,526.0,589.0,558.0,510.0
476.0,456.0,602.0,552.0,529.0
487.0,467.0,471.0,502.0,541.0
506.0,486.0,477.0,520.0,506.0
492.0,466.0,467.0,442.0,527.0
495.0,517.0,452.0,432.0,541.0
496.0,507.0,516.0,496.0,531.0
503.0,492.0,470.0,527.0,534.0
537.0,458.0,492.0,594.0,491.0
523.0,413.0,577.0,610.0,483.0
495.0,350.0,550.0,547.0,516.0
513.0,493.0,468.0,472.0,532.0
526.0,585.0,407.0,508.0,496.0
526.0,572.0,469.0,580.0,484.0
544.0,548.0,513.0,579.0,496.0
509.0,492.0,466.0,507.0,531.0
519.0,518.0,533.0,536.0,498.0
510.0,523.0,571.0,560.0,508.0
498.0,525.0,596.0,542.0,523.0
503.0,492.0,568.0,499.0,503.0
494.0,480.0,517.0,465.0,541.0
503.0,467.0,522.0,462.0,525.0
511.0,489.0,578.0,579.0,497.0
529.0,522.0,592.0,531.0,479.0
531.0,523.0,468.0,520.0,481.0
516.0,470.0,502.0,538.0,496.0
525.0,462.0,599.0,546.0,487.0
536.0,542.0,595.0,553.0,480.0
554.0,518.0,528.0,573.0,478.0
532.0,479.0,619.0,537.0,500.0
511.0,424.0,549.0,548.0,503.0
495.0,430.0,462.0,535.0,527.0
482.0,442.0,412.0,486.0,533.0
484.0,519.0,365.0,451.0,536.0
518.0,677.0,547.0,497.0,512.0
510.0,624.0,580.0,521.0,520.0
495.0,545.0,454.0,493.0,530.0
500.0,498.0,392.0,471.0,526.0
521.0,473.0,459.0,463.0,510.0
526.0,465.0,541.0,551.0,484.0
519.0,397.0,634.0,556.0,477.0
497.0,377.0,684.0,488.0,506.0
483.0,385.0,667.0,402.0,526.0
507.0,544.0,471.0,404.0,529.0
531.0,608.0,448.0,559.0,501.0
551.0,640.0,538.0,652.0,461.0
542.0,605.0,477.0,561.0,476.0
535.0,553.0,433.0,523.0,494.0
535.0,473.0,450.0,548.0,490.0
498.0,450.0,457.0,527.0,513.0
465.0,433.0,571.0,482.0,543.0
471.0,482.0,707.0,464.0,530.0
489.0,462.0,604.0,480.0,531.0
498.0,396.0,422.0,486.0,528.0
518.0,366.0,447.0,427.0,517.0
535.0,434.0,518.0,476.0,488.0
499.0,489.0,541.0,525.0,503.0
503.0,567.0,641.0,473.0,519.0
534.0,701.0,624.0,479.0,505.0
544.0,621.0,628.0,503.0,491.0
541.0,529.0,639.0,575.0,487.0
518.0,430.0,471.0,507.0,502.0
521.0,423.0,332.0,531.0,484.0
510.0,532.0,395.0,525.0,511.0
521.0,601.0,472.0,528.0,519.0
515.0,586.0,603.0,577.0,526.0
503.0,554.0,679.0,508.0,528.0
469.0,486.0,524.0,400.0,549.0
461.0,502.0,392.0,403.0,584.0
476.0,533.0,414.0,457.0,552.0
506.0,597.0,475.0,527.0,509.0
516.0,563.0,486.0,489.0,500.0
525.0,572.0,494.0,485.0,491.0
529.0,522.0,498.0,496.0,486.0
528.0,488.0,528.0,490.0,481.0
511.0,425.0,559.0,482.0,497.0
526.0,468.0,616.0,498.0,504.0
531.0,431.0,592.0,521.0,499.0
495.0,400.0,573.0,497.0,514.0
494.0,430.0,463.0,553.0,523.0
514.0,473.0,365.0,522.0,512.0
527.0,505.0,459.0,554.0,492.0
514.0,534.0,505.0,506.0,501.0
511.0,570.0,485.0,447.0,503.0
500.0,579.0,530.0,437.0,525.0
526.0,588.0,576.0,521.0,504.0
