CH1,CH2,CH3,CH4,CH5
523.0,519.0,511.0,539.0,502.0
519.0,522.0,504.0,544.0,512.0
504.0,514.0,489.0,529.0,526.0
498.0,512.0,487.0,519.0,533.0
494.0,509.0,491.0,510.0,533.0
493.0,507.0,498.0,502.0,532.0
489.0,502.0,504.0,492.0,533.0
495.0,499.0,513.0,489.0,530.0
502.0,494.0,520.0,487.0,513.0
506.0,492.0,525.0,487.0,516.0
506.0,491.0,523.0,484.0,512.0
515.0,492.0,529.0,492.0,508.0
521.0,496.0,529.0,500.0,505.0
526.0,501.0,530.0,513.0,497.0
532.0,509.0,527.0,525.0,494.0
544.0,515.0,520.0,534.0,492.0
534.0,520.0,516.0,541.0,494.0
523.0,521.0,506.0,538.0,500.0
518.0,523.0,502.0,537.0,510.0
501.0,514.0,490.0,523.0,522.0
499.0,512.0,489.0,512.0,534.0
493.0,509.0,494.0,504.0,535.0
490.0,506.0,499.0,498.0,530.0
493.0,504.0,508.0,495.0,531.0
501.0,500.0,515.0,493.0,531.0
510.0,500.0,524.0,493.0,524.0
507.0,491.0,524.0,492.0,516.0
513.0,493.0,530.0,494.0,512.0
528.0,497.0,529.0,499.0,499.0
530.0,498.0,530.0,507.0,503.0
535.0,505.0,531.0,517.0,497.0
539.0,511.0,525.0,527.0,490.0
536.0,515.0,518.0,530.0,493.0
531.0,521.0,510.0,533.0,499.0
521.0,524.0,506.0,532.0,508.0
509.0,519.0,496.0,524.0,518.0
499.0,515.0,488.0,516.0,530.0
492.0,512.0,490.0,508.0,537.0
492.0,509.0,495.0,503.0,539.0
495.0,505.0,502.0,500.0,534.0
497.0,501.0,509.0,500.0,531.0
503.0,499.0,518.0,499.0,523.0
509.0,497.0,526.0,497.0,516.0
512.0,494.0,525.0,497.0,513.0
516.0,492.0,528.0,501.0,509.0
520.0,495.0,529.0,504.0,500.0
527.0,502.0,531.0,514.0,497.0
531.0,508.0,529.0,521.0,496.0
534.0,514.0,524.0,525.0,494.0
533.0,520.0,518.0,528.0,493.0
529.0,522.0,511.0,528.0,505.0
523.0,521.0,502.0,525.0,510.0
509.0,515.0,490.0,512.0,527.0
497.0,513.0,488.0,508.0,537.0
491.0,509.0,489.0,504.0,533.0
494.0,509.0,496.0,502.0,531.0
497.0,507.0,503.0,501.0,529.0
487.0,502.0,515.0,504.0,524.0
495.0,498.0,522.0,504.0,516.0
503.0,497.0,525.0,501.0,514.0
508.0,492.0,527.0,501.0,506.0
514.0,491.0,530.0,503.0,507.0
521.0,495.0,529.0,507.0,500.0
529.0,503.0,531.0,518.0,493.0
536.0,511.0,526.0,519.0,497.0
536.0,516.0,522.0,521.0,497.0
537.0,521.0,518.0,525.0,492.0
529.0,522.0,506.0,521.0,499.0
522.0,522.0,502.0,522.0,512.0
507.0,515.0,490.0,510.0,528.0
498.0,516.0,487.0,505.0,537.0
495.0,510.0,493.0,505.0,538.0
496.0,507.0,502.0,502.0,532.0
493.0,501.0,507.0,502.0,526.0
500.0,498.0,515.0,507.0,508.0
504.0,496.0,522.0,503.0,510.0
505.0,493.0,525.0,503.0,514.0
509.0,492.0,529.0,503.0,516.0
515.0,492.0,531.0,507.0,511.0
522.0,498.0,530.0,509.0,516.0
529.0,503.0,528.0,514.0,498.0
538.0,512.0,527.0,520.0,486.0
537.0,517.0,518.0,523.0,488.0
530.0,519.0,511.0,524.0,494.0
525.0,521.0,504.0,517.0,505.0
514.0,520.0,496.0,510.0,512.0
498.0,514.0,487.0,507.0,527.0
491.0,511.0,488.0,502.0,530.0
488.0,508.0,494.0,503.0,533.0
494.0,505.0,502.0,505.0,527.0
493.0,501.0,509.0,504.0,526.0
508.0,500.0,519.0,506.0,515.0
509.0,494.0,521.0,504.0,515.0
510.0,492.0,527.0,504.0,517.0
515.0,491.0,527.0,504.0,509.0
521.0,492.0,528.0,507.0,501.0
531.0,499.0,528.0,513.0,496.0
535.0,504.0,527.0,517.0,492.0
538.0,513.0,522.0,521.0,492.0
537.0,519.0,518.0,523.0,493.0
528.0,519.0,507.0,521.0,500.0
521.0,522.0,502.0,517.0,506.0
509.0,517.0,492.0,507.0,526.0
494.0,512.0,486.0,502.0,534.0
494.0,511.0,492.0,504.0,535.0
492.0,507.0,495.0,503.0,531.0
497.0,504.0,505.0,508.0,529.0
498.0,500.0,513.0,507.0,525.0
501.0,497.0,519.0,506.0,519.0
505.0,493.0,525.0,506.0,520.0
510.0,492.0,528.0,505.0,516.0
512.0,492.0,526.0,506.0,507.0
522.0,498.0,527.0,510.0,506.0
530.0,500.0,529.0,512.0,498.0
538.0,509.0,528.0,519.0,496.0
536.0,516.0,523.0,519.0,497.0
533.0,520.0,514.0,518.0,496.0
529.0,522.0,507.0,516.0,502.0
522.0,522.0,501.0,513.0,509.0
503.0,512.0,487.0,503.0,522.0
498.0,511.0,487.0,501.0,531.0
491.0,508.0,488.0,501.0,534.0
488.0,511.0,501.0,505.0,535.0
489.0,502.0,509.0,506.0,531.0
497.0,499.0,516.0,508.0,519.0
502.0,496.0,524.0,505.0,513.0
509.0,492.0,526.0,505.0,516.0
513.0,493.0,530.0,507.0,511.0
517.0,493.0,530.0,505.0,504.0
521.0,496.0,529.0,510.0,505.0
529.0,505.0,529.0,516.0,492.0
534.0,509.0,529.0,519.0,491.0
531.0,514.0,518.0,518.0,493.0
529.0,523.0,511.0,519.0,502.0
523.0,521.0,506.0,514.0,507.0
513.0,520.0,498.0,509.0,516.0
497.0,514.0,489.0,504.0,532.0
496.0,513.0,492.0,502.0,533.0
493.0,508.0,494.0,503.0,534.0
495.0,505.0,503.0,504.0,534.0
496.0,500.0,509.0,504.0,529.0
501.0,496.0,517.0,506.0,522.0
504.0,497.0,524.0,507.0,525.0
508.0,493.0,526.0,506.0,522.0
515.0,489.0,528.0,505.0,517.0
526.0,495.0,531.0,509.0,507.0
527.0,497.0,527.0,510.0,500.0
533.0,505.0,527.0,515.0,490.0
537.0,513.0,526.0,518.0,482.0
530.0,515.0,517.0,517.0,488.0
528.0,520.0,510.0,514.0,497.0
515.0,520.0,503.0,511.0,507.0
503.0,514.0,491.0,504.0,529.0
501.0,514.0,487.0,499.0,538.0
496.0,514.0,490.0,504.0,537.0
497.0,507.0,496.0,504.0,534.0
491.0,502.0,504.0,506.0,527.0
495.0,501.0,510.0,507.0,528.0
505.0,498.0,522.0,512.0,518.0
504.0,495.0,526.0,510.0,513.0
508.0,492.0,528.0,510.0,509.0
520.0,495.0,529.0,510.0,509.0
526.0,495.0,530.0,510.0,504.0
534.0,502.0,530.0,514.0,496.0
539.0,514.0,529.0,518.0,488.0
536.0,513.0,522.0,517.0,489.0
526.0,518.0,514.0,514.0,494.0
520.0,520.0,505.0,511.0,501.0
520.0,524.0,499.0,509.0,515.0
502.0,513.0,489.0,499.0,533.0
491.0,512.0,488.0,499.0,541.0
492.0,508.0,491.0,501.0,537.0
497.0,509.0,502.0,508.0,530.0
497.0,502.0,507.0,506.0,530.0
499.0,498.0,516.0,510.0,523.0
504.0,498.0,523.0,513.0,521.0
509.0,493.0,526.0,510.0,515.0
513.0,491.0,532.0,509.0,509.0
522.0,493.0,532.0,513.0,505.0
529.0,494.0,527.0,511.0,498.0
533.0,502.0,529.0,513.0,493.0
535.0,511.0,528.0,517.0,496.0
533.0,513.0,519.0,514.0,490.0
530.0,519.0,513.0,513.0,491.0
522.0,518.0,504.0,509.0,507.0
518.0,521.0,499.0,507.0,513.0
498.0,512.0,488.0,500.0,529.0
491.0,511.0,489.0,499.0,532.0
491.0,509.0,494.0,502.0,535.0
492.0,505.0,503.0,507.0,528.0
495.0,500.0,509.0,507.0,523.0
501.0,497.0,519.0,512.0,523.0
509.0,497.0,527.0,512.0,522.0
508.0,491.0,526.0,508.0,521.0
513.0,490.0,529.0,508.0,516.0
524.0,494.0,533.0,509.0,510.0
522.0,495.0,527.0,510.0,507.0
528.0,505.0,529.0,516.0,495.0
529.0,510.0,524.0,515.0,492.0
527.0,517.0,517.0,514.0,491.0
530.0,519.0,508.0,509.0,493.0
525.0,525.0,504.0,509.0,506.0
511.0,517.0,493.0,502.0,519.0
497.0,513.0,490.0,500.0,532.0
496.0,513.0,493.0,503.0,541.0
489.0,508.0,495.0,501.0,536.0
495.0,505.0,508.0,505.0,531.0
500.0,501.0,513.0,508.0,526.0
503.0,498.0,521.0,512.0,519.0
504.0,494.0,526.0,508.0,516.0
515.0,497.0,528.0,510.0,517.0
516.0,492.0,529.0,509.0,511.0
523.0,496.0,531.0,509.0,498.0
529.0,502.0,530.0,514.0,490.0
532.0,512.0,527.0,519.0,488.0
534.0,514.0,522.0,513.0,494.0
532.0,520.0,515.0,514.0,500.0
525.0,521.0,506.0,510.0,499.0
521.0,522.0,501.0,508.0,505.0
503.0,514.0,488.0,499.0,521.0
497.0,516.0,488.0,499.0,531.0
491.0,509.0,492.0,502.0,531.0
494.0,509.0,501.0,506.0,533.0
494.0,504.0,506.0,507.0,529.0
498.0,500.0,519.0,510.0,522.0
505.0,499.0,524.0,514.0,516.0
505.0,490.0,524.0,509.0,512.0
513.0,491.0,529.0,510.0,508.0
519.0,492.0,532.0,511.0,506.0
523.0,494.0,528.0,509.0,500.0
531.0,503.0,530.0,514.0,494.0
537.0,511.0,528.0,517.0,488.0
535.0,514.0,519.0,514.0,495.0
534.0,521.0,510.0,511.0,495.0
524.0,519.0,505.0,511.0,507.0
518.0,521.0,499.0,507.0,514.0
501.0,514.0,492.0,498.0,530.0
492.0,511.0,488.0,501.0,533.0
493.0,510.0,496.0,502.0,534.0
493.0,505.0,503.0,506.0,531.0
498.0,503.0,512.0,509.0,527.0
501.0,500.0,519.0,511.0,518.0
507.0,499.0,526.0,513.0,519.0
504.0,493.0,526.0,511.0,512.0
514.0,492.0,530.0,509.0,501.0
521.0,493.0,531.0,514.0,493.0
526.0,497.0,529.0,512.0,496.0
533.0,505.0,530.0,515.0,493.0
536.0,512.0,527.0,514.0,498.0
533.0,516.0,517.0,514.0,509.0
530.0,518.0,510.0,516.0,501.0
523.0,521.0,503.0,509.0,501.0
506.0,515.0,492.0,503.0,520.0
497.0,513.0,488.0,499.0,530.0
493.0,511.0,493.0,500.0,533.0
493.0,507.0,496.0,502.0,531.0
496.0,503.0,505.0,507.0,526.0
496.0,500.0,514.0,510.0,528.0
503.0,502.0,520.0,511.0,522.0
508.0,496.0,524.0,509.0,517.0
509.0,493.0,529.0,511.0,512.0
512.0,491.0,529.0,509.0,507.0
516.0,491.0,529.0,507.0,508.0
527.0,502.0,531.0,517.0,504.0
533.0,507.0,528.0,515.0,503.0
536.0,513.0,523.0,513.0,497.0
536.0,520.0,516.0,514.0,499.0
532.0,520.0,508.0,512.0,507.0
526.0,522.0,507.0,510.0,511.0
505.0,511.0,488.0,500.0,522.0
492.0,511.0,486.0,500.0,526.0
487.0,508.0,493.0,504.0,522.0
492.0,506.0,501.0,511.0,527.0
494.0,503.0,509.0,508.0,527.0
496.0,498.0,515.0,506.0,521.0
501.0,496.0,524.0,511.0,512.0
505.0,495.0,526.0,509.0,513.0
507.0,490.0,532.0,506.0,511.0
516.0,493.0,532.0,510.0,508.0
518.0,493.0,528.0,508.0,504.0
528.0,504.0,531.0,514.0,496.0
538.0,511.0,528.0,517.0,492.0
538.0,516.0,521.0,516.0,490.0
534.0,520.0,514.0,515.0,493.0
522.0,521.0,508.0,510.0,503.0
517.0,520.0,498.0,508.0,513.0
500.0,514.0,488.0,500.0,537.0
493.0,516.0,490.0,500.0,539.0
494.0,510.0,495.0,503.0,536.0
495.0,507.0,504.0,508.0,530.0
495.0,502.0,510.0,508.0,525.0
500.0,503.0,517.0,515.0,519.0
506.0,499.0,526.0,512.0,517.0
510.0,493.0,528.0,510.0,524.0
510.0,490.0,529.0,508.0,512.0
516.0,494.0,531.0,511.0,501.0
523.0,498.0,528.0,511.0,498.0
531.0,505.0,529.0,516.0,496.0
535.0,511.0,525.0,516.0,492.0
533.0,515.0,516.0,513.0,491.0
531.0,520.0,509.0,514.0,495.0
522.0,522.0,504.0,509.0,499.0
509.0,515.0,492.0,502.0,515.0
495.0,517.0,489.0,499.0,536.0
493.0,511.0,492.0,503.0,539.0
493.0,508.0,497.0,505.0,529.0
496.0,506.0,505.0,509.0,530.0
501.0,502.0,513.0,511.0,526.0
504.0,499.0,521.0,513.0,524.0
511.0,495.0,529.0,514.0,517.0
512.0,493.0,529.0,513.0,510.0
515.0,491.0,529.0,507.0,507.0
523.0,495.0,531.0,511.0,500.0
529.0,502.0,530.0,516.0,487.0
536.0,508.0,528.0,518.0,483.0
534.0,512.0,523.0,515.0,491.0
531.0,518.0,514.0,511.0,493.0
524.0,519.0,506.0,506.0,505.0
515.0,526.0,502.0,505.0,515.0
502.0,518.0,490.0,498.0,533.0
493.0,512.0,487.0,496.0,534.0
492.0,516.0,493.0,502.0,537.0
493.0,508.0,500.0,508.0,530.0
495.0,505.0,509.0,511.0,528.0
496.0,500.0,514.0,513.0,525.0
501.0,497.0,522.0,515.0,514.0
509.0,495.0,527.0,515.0,511.0
511.0,492.0,529.0,514.0,508.0
515.0,491.0,530.0,515.0,506.0
521.0,495.0,529.0,514.0,498.0
530.0,504.0,532.0,516.0,493.0
536.0,510.0,525.0,512.0,488.0
542.0,515.0,519.0,511.0,491.0
536.0,521.0,514.0,510.0,497.0
524.0,521.0,504.0,504.0,500.0
522.0,522.0,505.0,504.0,507.0
504.0,515.0,488.0,496.0,529.0
497.0,513.0,489.0,501.0,525.0
498.0,512.0,496.0,506.0,515.0
495.0,508.0,503.0,510.0,524.0
495.0,503.0,509.0,513.0,531.0
498.0,500.0,519.0,515.0,526.0
503.0,496.0,525.0,517.0,524.0
507.0,494.0,528.0,516.0,523.0
511.0,490.0,528.0,514.0,510.0
515.0,493.0,532.0,516.0,506.0
521.0,496.0,529.0,514.0,498.0
534.0,504.0,528.0,513.0,496.0
539.0,511.0,526.0,513.0,499.0
535.0,515.0,515.0,509.0,500.0
531.0,520.0,509.0,506.0,510.0
524.0,520.0,503.0,503.0,514.0
514.0,517.0,492.0,498.0,524.0
502.0,513.0,487.0,495.0,529.0
498.0,513.0,493.0,503.0,530.0
490.0,510.0,497.0,508.0,527.0
508.0,516.0,494.0,533.0,522.0
493.0,511.0,487.0,523.0,530.0
491.0,511.0,489.0,515.0,534.0
491.0,507.0,493.0,507.0,536.0
494.0,505.0,502.0,500.0,534.0
495.0,500.0,506.0,494.0,527.0
504.0,499.0,517.0,493.0,523.0
512.0,495.0,523.0,490.0,523.0
513.0,492.0,523.0,488.0,514.0
516.0,493.0,530.0,495.0,508.0
525.0,495.0,531.0,502.0,498.0
532.0,503.0,535.0,517.0,495.0
536.0,507.0,532.0,525.0,492.0
540.0,513.0,531.0,533.0,492.0
537.0,520.0,520.0,546.0,493.0
527.0,518.0,512.0,542.0,500.0
521.0,523.0,505.0,546.0,504.0
505.0,513.0,490.0,528.0,516.0
493.0,509.0,484.0,518.0,530.0
492.0,508.0,487.0,511.0,531.0
493.0,506.0,494.0,504.0,535.0
496.0,502.0,499.0,496.0,528.0
504.0,501.0,510.0,492.0,527.0
511.0,499.0,518.0,490.0,520.0
509.0,494.0,520.0,488.0,518.0
514.0,496.0,526.0,489.0,511.0
522.0,494.0,530.0,493.0,507.0
522.0,497.0,533.0,505.0,499.0
532.0,507.0,537.0,519.0,491.0
540.0,513.0,536.0,532.0,489.0
539.0,517.0,526.0,537.0,488.0
531.0,521.0,520.0,542.0,499.0
522.0,520.0,510.0,540.0,511.0
514.0,519.0,500.0,536.0,519.0
501.0,518.0,490.0,529.0,530.0
490.0,511.0,487.0,517.0,535.0
495.0,511.0,490.0,510.0,536.0
498.0,506.0,498.0,507.0,527.0
499.0,499.0,504.0,497.0,527.0
500.0,500.0,513.0,492.0,524.0
505.0,499.0,522.0,490.0,520.0
505.0,495.0,524.0,488.0,516.0
518.0,492.0,529.0,490.0,508.0
521.0,496.0,532.0,498.0,505.0
522.0,500.0,531.0,508.0,499.0
530.0,506.0,533.0,521.0,492.0
533.0,518.0,531.0,533.0,486.0
533.0,518.0,525.0,540.0,488.0
528.0,518.0,513.0,540.0,493.0
523.0,523.0,508.0,541.0,507.0
507.0,515.0,492.0,530.0,532.0
500.0,513.0,487.0,521.0,537.0
495.0,510.0,488.0,514.0,540.0
490.0,508.0,494.0,504.0,540.0
493.0,507.0,499.0,499.0,534.0
494.0,500.0,508.0,500.0,528.0
504.0,501.0,518.0,499.0,522.0
505.0,499.0,520.0,489.0,515.0
511.0,497.0,524.0,489.0,514.0
515.0,493.0,529.0,492.0,506.0
520.0,497.0,535.0,501.0,499.0
528.0,504.0,535.0,514.0,492.0
534.0,511.0,535.0,528.0,486.0
533.0,516.0,529.0,538.0,488.0
533.0,520.0,523.0,541.0,500.0
524.0,520.0,509.0,540.0,505.0
522.0,522.0,505.0,544.0,506.0
501.0,513.0,491.0,530.0,527.0
490.0,511.0,487.0,520.0,534.0
492.0,509.0,491.0,513.0,537.0
492.0,504.0,496.0,504.0,536.0
494.0,505.0,503.0,498.0,534.0
497.0,499.0,511.0,494.0,528.0
508.0,497.0,518.0,492.0,522.0
507.0,493.0,523.0,487.0,517.0
510.0,491.0,531.0,489.0,516.0
515.0,493.0,532.0,495.0,506.0
524.0,502.0,531.0,506.0,502.0
533.0,503.0,533.0,516.0,491.0
534.0,511.0,534.0,529.0,485.0
539.0,516.0,524.0,540.0,487.0
535.0,519.0,519.0,543.0,494.0
525.0,521.0,510.0,542.0,505.0
512.0,517.0,500.0,534.0,515.0
500.0,514.0,490.0,525.0,533.0
493.0,510.0,488.0,517.0,537.0
493.0,509.0,492.0,510.0,534.0
496.0,505.0,495.0,501.0,531.0
497.0,500.0,505.0,495.0,533.0
503.0,499.0,514.0,493.0,525.0
507.0,494.0,518.0,489.0,519.0
511.0,494.0,525.0,490.0,517.0
512.0,492.0,527.0,489.0,509.0
525.0,495.0,533.0,500.0,501.0
527.0,496.0,531.0,507.0,493.0
537.0,506.0,532.0,522.0,487.0
541.0,512.0,530.0,533.0,486.0
535.0,517.0,522.0,540.0,495.0
526.0,520.0,515.0,542.0,502.0
517.0,518.0,505.0,541.0,505.0
505.0,515.0,493.0,532.0,522.0
495.0,509.0,487.0,522.0,539.0
497.0,508.0,489.0,513.0,537.0
490.0,503.0,492.0,504.0,536.0
496.0,505.0,501.0,500.0,533.0
493.0,498.0,506.0,493.0,527.0
501.0,497.0,517.0,491.0,523.0
507.0,499.0,521.0,489.0,518.0
507.0,490.0,523.0,487.0,514.0
518.0,493.0,530.0,492.0,510.0
522.0,494.0,531.0,501.0,506.0
530.0,504.0,534.0,514.0,497.0
536.0,509.0,533.0,528.0,491.0
537.0,513.0,529.0,536.0,488.0
534.0,518.0,521.0,544.0,489.0
524.0,521.0,511.0,540.0,495.0
518.0,522.0,505.0,542.0,508.0
498.0,512.0,489.0,526.0,525.0
492.0,510.0,487.0,518.0,537.0
494.0,508.0,487.0,510.0,533.0
497.0,506.0,496.0,506.0,535.0
495.0,501.0,501.0,496.0,537.0
503.0,500.0,513.0,494.0,533.0
510.0,497.0,519.0,492.0,522.0
508.0,491.0,519.0,488.0,518.0
514.0,492.0,528.0,488.0,519.0
517.0,494.0,531.0,495.0,509.0
521.0,503.0,532.0,506.0,506.0
528.0,504.0,532.0,517.0,495.0
532.0,511.0,532.0,529.0,486.0
535.0,516.0,526.0,539.0,484.0
530.0,519.0,518.0,544.0,489.0
517.0,517.0,507.0,540.0,497.0
514.0,519.0,498.0,536.0,508.0
501.0,513.0,487.0,525.0,520.0
498.0,512.0,488.0,518.0,526.0
497.0,509.0,489.0,507.0,528.0
498.0,505.0,497.0,505.0,528.0
502.0,500.0,505.0,496.0,526.0
503.0,500.0,515.0,493.0,523.0
503.0,494.0,519.0,486.0,522.0
512.0,494.0,525.0,488.0,514.0
513.0,491.0,528.0,491.0,506.0
520.0,494.0,535.0,499.0,503.0
524.0,500.0,533.0,509.0,498.0
534.0,511.0,534.0,523.0,497.0
544.0,517.0,532.0,535.0,489.0
541.0,519.0,524.0,547.0,490.0
525.0,518.0,515.0,544.0,497.0
522.0,519.0,506.0,542.0,505.0
504.0,512.0,491.0,531.0,523.0
495.0,511.0,487.0,521.0,536.0
489.0,512.0,488.0,517.0,539.0
490.0,507.0,493.0,506.0,537.0
492.0,502.0,499.0,498.0,533.0
495.0,499.0,506.0,494.0,530.0
502.0,496.0,517.0,491.0,520.0
504.0,493.0,520.0,488.0,514.0
512.0,495.0,525.0,489.0,512.0
518.0,493.0,529.0,493.0,503.0
525.0,496.0,532.0,502.0,500.0
535.0,503.0,535.0,516.0,495.0
539.0,512.0,536.0,528.0,495.0
532.0,513.0,529.0,532.0,497.0
528.0,519.0,519.0,542.0,491.0
523.0,521.0,512.0,542.0,499.0
515.0,520.0,505.0,538.0,505.0
502.0,514.0,491.0,529.0,525.0
494.0,509.0,489.0,517.0,531.0
492.0,509.0,490.0,512.0,536.0
491.0,505.0,495.0,504.0,535.0
493.0,503.0,502.0,498.0,535.0
505.0,501.0,514.0,494.0,524.0
507.0,495.0,516.0,490.0,518.0
506.0,494.0,524.0,486.0,520.0
517.0,492.0,527.0,489.0,517.0
525.0,495.0,531.0,496.0,509.0
531.0,498.0,531.0,505.0,505.0
531.0,503.0,532.0,518.0,496.0
539.0,511.0,532.0,532.0,490.0
538.0,517.0,525.0,542.0,491.0
533.0,522.0,519.0,544.0,498.0
524.0,520.0,509.0,543.0,502.0
512.0,517.0,499.0,535.0,512.0
497.0,512.0,488.0,525.0,526.0
492.0,510.0,487.0,517.0,533.0
492.0,506.0,490.0,508.0,533.0
496.0,504.0,498.0,502.0,533.0
497.0,500.0,503.0,493.0,532.0
505.0,499.0,514.0,494.0,526.0
506.0,496.0,520.0,492.0,522.0
508.0,492.0,521.0,486.0,520.0
514.0,493.0,530.0,491.0,516.0
521.0,497.0,531.0,498.0,505.0
524.0,500.0,534.0,510.0,501.0
529.0,506.0,533.0,523.0,490.0
532.0,511.0,529.0,533.0,484.0
533.0,518.0,520.0,540.0,483.0
530.0,521.0,514.0,543.0,492.0
523.0,522.0,509.0,540.0,505.0
516.0,515.0,492.0,530.0,524.0
499.0,513.0,486.0,521.0,530.0
496.0,512.0,490.0,515.0,536.0
491.0,507.0,493.0,502.0,531.0
492.0,502.0,498.0,498.0,529.0
496.0,499.0,505.0,494.0,528.0
504.0,500.0,517.0,493.0,519.0
506.0,495.0,520.0,488.0,518.0
511.0,492.0,524.0,488.0,519.0
519.0,493.0,527.0,493.0,507.0
522.0,495.0,528.0,500.0,501.0
532.0,504.0,533.0,518.0,496.0
535.0,510.0,533.0,528.0,492.0
534.0,515.0,528.0,539.0,493.0
531.0,519.0,522.0,540.0,494.0
526.0,521.0,513.0,543.0,503.0
524.0,520.0,504.0,541.0,504.0
508.0,514.0,493.0,531.0,524.0
492.0,511.0,487.0,518.0,532.0
492.0,505.0,490.0,515.0,532.0
493.0,505.0,496.0,504.0,529.0
495.0,502.0,500.0,495.0,527.0
498.0,499.0,513.0,496.0,523.0
506.0,497.0,519.0,490.0,518.0
507.0,495.0,522.0,485.0,517.0
514.0,492.0,529.0,490.0,516.0
515.0,492.0,531.0,495.0,506.0
524.0,498.0,534.0,506.0,501.0
535.0,503.0,535.0,517.0,495.0
535.0,509.0,532.0,532.0,486.0
525.0,514.0,525.0,537.0,487.0
526.0,521.0,519.0,544.0,489.0
523.0,522.0,509.0,543.0,499.0
515.0,515.0,496.0,536.0,507.0
500.0,511.0,487.0,522.0,527.0
494.0,510.0,488.0,516.0,534.0
493.0,508.0,492.0,507.0,538.0
493.0,504.0,498.0,500.0,538.0
498.0,503.0,507.0,494.0,533.0
500.0,498.0,518.0,489.0,521.0
507.0,497.0,521.0,489.0,519.0
509.0,492.0,522.0,487.0,512.0
516.0,494.0,528.0,490.0,510.0
520.0,494.0,531.0,497.0,504.0
525.0,499.0,532.0,508.0,497.0
533.0,507.0,532.0,522.0,492.0
537.0,513.0,532.0,533.0,488.0
534.0,519.0,522.0,542.0,490.0
526.0,518.0,514.0,542.0,497.0
520.0,521.0,507.0,541.0,505.0
505.0,513.0,491.0,530.0,522.0
495.0,511.0,486.0,521.0,534.0
491.0,513.0,488.0,515.0,539.0
490.0,507.0,493.0,503.0,540.0
492.0,502.0,500.0,498.0,537.0
498.0,498.0,507.0,492.0,531.0
505.0,496.0,517.0,491.0,520.0
506.0,493.0,521.0,488.0,518.0
510.0,492.0,526.0,488.0,516.0
518.0,494.0,531.0,493.0,508.0
524.0,496.0,531.0,503.0,498.0
531.0,504.0,535.0,515.0,490.0
538.0,510.0,534.0,527.0,488.0
537.0,516.0,528.0,539.0,486.0
531.0,520.0,522.0,545.0,494.0
519.0,518.0,510.0,542.0,508.0
516.0,521.0,504.0,539.0,511.0
500.0,513.0,488.0,526.0,529.0
491.0,511.0,485.0,517.0,530.0
488.0,508.0,491.0,511.0,534.0
495.0,506.0,496.0,503.0,538.0
499.0,501.0,500.0,494.0,533.0
501.0,498.0,511.0,493.0,530.0
506.0,497.0,519.0,490.0,524.0
505.0,493.0,526.0,487.0,524.0
511.0,493.0,528.0,491.0,515.0
515.0,495.0,531.0,498.0,511.0
520.0,498.0,532.0,506.0,505.0
527.0,506.0,534.0,520.0,499.0
536.0,515.0,533.0,532.0,490.0
538.0,518.0,525.0,541.0,488.0
533.0,521.0,518.0,545.0,487.0
524.0,520.0,507.0,542.0,500.0
514.0,518.0,496.0,538.0,513.0
499.0,512.0,487.0,525.0,526.0
494.0,511.0,488.0,514.0,535.0
492.0,508.0,491.0,508.0,542.0
490.0,500.0,496.0,502.0,538.0
495.0,500.0,505.0,495.0,536.0
499.0,499.0,514.0,493.0,529.0
509.0,496.0,521.0,489.0,527.0
510.0,493.0,524.0,488.0,515.0
515.0,490.0,526.0,491.0,507.0
526.0,496.0,531.0,500.0,503.0
533.0,501.0,531.0,508.0,497.0
536.0,511.0,532.0,523.0,492.0
539.0,514.0,529.0,533.0,492.0
533.0,516.0,525.0,541.0,497.0
525.0,519.0,513.0,543.0,499.0
519.0,520.0,506.0,542.0,502.0
502.0,512.0,490.0,530.0,516.0
492.0,511.0,485.0,520.0,529.0
493.0,509.0,489.0,512.0,536.0
487.0,506.0,494.0,505.0,536.0
490.0,503.0,499.0,498.0,536.0
496.0,499.0,503.0,492.0,528.0
511.0,502.0,519.0,492.0,525.0
506.0,494.0,522.0,487.0,522.0
513.0,493.0,526.0,489.0,516.0
519.0,493.0,529.0,496.0,505.0
524.0,495.0,531.0,499.0,495.0
532.0,504.0,535.0,515.0,492.0
537.0,511.0,535.0,530.0,489.0
540.0,517.0,528.0,538.0,491.0
531.0,519.0,519.0,546.0,494.0
523.0,519.0,508.0,538.0,502.0
516.0,520.0,503.0,542.0,510.0
501.0,512.0,488.0,527.0,527.0
493.0,509.0,486.0,518.0,534.0
493.0,509.0,491.0,511.0,535.0
493.0,505.0,496.0,504.0,530.0
493.0,500.0,502.0,500.0,528.0
499.0,499.0,512.0,493.0,523.0
503.0,495.0,518.0,489.0,520.0
502.0,492.0,522.0,489.0,523.0
509.0,491.0,527.0,489.0,516.0
517.0,494.0,532.0,498.0,509.0
531.0,499.0,533.0,505.0,500.0
537.0,506.0,532.0,520.0,491.0
537.0,511.0,530.0,531.0,488.0
535.0,516.0,522.0,537.0,488.0
528.0,520.0,516.0,542.0,496.0
521.0,520.0,508.0,542.0,502.0
510.0,516.0,495.0,534.0,514.0
499.0,511.0,487.0,525.0,525.0
493.0,511.0,488.0,515.0,532.0
492.0,506.0,490.0,508.0,539.0
495.0,504.0,498.0,500.0,535.0
495.0,499.0,506.0,494.0,531.0
502.0,499.0,516.0,492.0,527.0
504.0,495.0,520.0,487.0,523.0
507.0,491.0,526.0,486.0,520.0
513.0,492.0,528.0,490.0,510.0
520.0,499.0,531.0,503.0,500.0
528.0,501.0,533.0,511.0,491.0
534.0,509.0,534.0,524.0,486.0
537.0,515.0,531.0,536.0,487.0
532.0,519.0,520.0,540.0,494.0
526.0,520.0,514.0,539.0,501.0
522.0,523.0,507.0,542.0,508.0
504.0,514.0,490.0,530.0,519.0
497.0,512.0,487.0,521.0,532.0
495.0,510.0,487.0,512.0,531.0
496.0,509.0,495.0,507.0,535.0
496.0,502.0,500.0,498.0,532.0
498.0,502.0,506.0,496.0,532.0
509.0,498.0,517.0,491.0,519.0
504.0,495.0,520.0,489.0,512.0
509.0,494.0,529.0,487.0,511.0
517.0,494.0,529.0,491.0,505.0
526.0,495.0,531.0,500.0,498.0
533.0,502.0,530.0,513.0,490.0
537.0,509.0,532.0,527.0,493.0
533.0,516.0,526.0,537.0,495.0
537.0,520.0,519.0,542.0,501.0
527.0,522.0,507.0,539.0,511.0
521.0,523.0,505.0,541.0,516.0
505.0,514.0,491.0,524.0,527.0
498.0,511.0,486.0,521.0,530.0
501.0,508.0,487.0,508.0,530.0
493.0,505.0,494.0,502.0,524.0
489.0,501.0,504.0,497.0,520.0
495.0,499.0,511.0,493.0,522.0
501.0,496.0,519.0,488.0,526.0
504.0,493.0,522.0,488.0,524.0
513.0,492.0,527.0,489.0,513.0
520.0,494.0,531.0,497.0,505.0
524.0,498.0,533.0,504.0,502.0
527.0,504.0,531.0,517.0,496.0
532.0,511.0,530.0,531.0,489.0
528.0,515.0,522.0,536.0,491.0
524.0,519.0,515.0,543.0,496.0
519.0,521.0,509.0,542.0,506.0
503.0,515.0,493.0,533.0,519.0
508.0,515.0,488.0,526.0,528.0
502.0,509.0,487.0,518.0,531.0
493.0,511.0,490.0,507.0,536.0
496.0,507.0,499.0,502.0,529.0
499.0,501.0,504.0,494.0,525.0
503.0,498.0,513.0,490.0,520.0
508.0,496.0,521.0,489.0,521.0
512.0,493.0,523.0,487.0,518.0
520.0,490.0,527.0,490.0,512.0
524.0,497.0,532.0,500.0,512.0
528.0,500.0,536.0,507.0,494.0
539.0,509.0,533.0,524.0,486.0
540.0,515.0,530.0,535.0,483.0
539.0,521.0,521.0,540.0,493.0
526.0,519.0,509.0,540.0,499.0
521.0,523.0,505.0,541.0,506.0
501.0,513.0,488.0,527.0,522.0
495.0,513.0,486.0,520.0,537.0
492.0,509.0,487.0,516.0,533.0
493.0,506.0,495.0,508.0,533.0
496.0,503.0,501.0,498.0,529.0
497.0,499.0,507.0,492.0,525.0
503.0,497.0,515.0,489.0,517.0
506.0,494.0,520.0,488.0,517.0
511.0,492.0,526.0,488.0,513.0
518.0,492.0,530.0,494.0,510.0
523.0,496.0,532.0,502.0,502.0
531.0,503.0,533.0,516.0,497.0
539.0,511.0,532.0,528.0,486.0
536.0,515.0,524.0,537.0,487.0
534.0,521.0,519.0,543.0,493.0
524.0,524.0,509.0,546.0,501.0
514.0,518.0,500.0,538.0,509.0
499.0,510.0,486.0,526.0,525.0
493.0,510.0,486.0,518.0,532.0
490.0,506.0,489.0,508.0,531.0
494.0,506.0,500.0,504.0,530.0
502.0,504.0,504.0,498.0,529.0
505.0,499.0,510.0,490.0,524.0
507.0,496.0,516.0,487.0,517.0
509.0,497.0,522.0,489.0,515.0
516.0,492.0,527.0,488.0,506.0
522.0,493.0,531.0,495.0,497.0
525.0,497.0,531.0,505.0,496.0
529.0,505.0,534.0,521.0,493.0
533.0,511.0,533.0,533.0,486.0
529.0,514.0,523.0,538.0,494.0
525.0,520.0,516.0,541.0,500.0
519.0,520.0,511.0,538.0,502.0
509.0,516.0,496.0,533.0,520.0
497.0,510.0,486.0,521.0,531.0
492.0,510.0,492.0,514.0,537.0
489.0,506.0,490.0,504.0,536.0
493.0,505.0,500.0,501.0,535.0
498.0,505.0,505.0,493.0,527.0
502.0,496.0,515.0,488.0,519.0
505.0,494.0,521.0,486.0,520.0
510.0,493.0,525.0,486.0,515.0
518.0,490.0,527.0,489.0,508.0
529.0,496.0,533.0,505.0,500.0
529.0,498.0,533.0,511.0,493.0
535.0,510.0,538.0,523.0,489.0
538.0,515.0,531.0,534.0,489.0
534.0,517.0,520.0,539.0,491.0
525.0,519.0,511.0,540.0,498.0
520.0,521.0,506.0,539.0,506.0
500.0,516.0,492.0,528.0,526.0
492.0,511.0,485.0,519.0,530.0
491.0,511.0,488.0,514.0,534.0
491.0,507.0,493.0,504.0,534.0
493.0,501.0,502.0,494.0,531.0
499.0,500.0,509.0,493.0,528.0
506.0,497.0,518.0,490.0,520.0
510.0,493.0,521.0,487.0,517.0
512.0,497.0,527.0,488.0,516.0
518.0,492.0,530.0,494.0,507.0
524.0,496.0,531.0,501.0,501.0
533.0,504.0,535.0,517.0,496.0
535.0,509.0,532.0,526.0,491.0
533.0,515.0,524.0,536.0,489.0
530.0,518.0,518.0,540.0,494.0
524.0,522.0,510.0,544.0,499.0
518.0,520.0,501.0,540.0,504.0
504.0,513.0,490.0,529.0,525.0
495.0,512.0,487.0,517.0,533.0
489.0,509.0,492.0,509.0,539.0
489.0,504.0,496.0,501.0,534.0
492.0,499.0,502.0,494.0,533.0
503.0,497.0,509.0,489.0,533.0
503.0,495.0,518.0,487.0,526.0
505.0,496.0,523.0,487.0,522.0
508.0,492.0,528.0,489.0,514.0
516.0,496.0,533.0,501.0,507.0
520.0,497.0,532.0,505.0,501.0
533.0,507.0,533.0,519.0,491.0
535.0,513.0,533.0,533.0,485.0
540.0,518.0,525.0,541.0,485.0
536.0,521.0,516.0,544.0,490.0
522.0,520.0,506.0,544.0,505.0
510.0,515.0,494.0,533.0,517.0
500.0,513.0,487.0,528.0,527.0
496.0,509.0,488.0,515.0,529.0
492.0,505.0,490.0,505.0,531.0
494.0,505.0,499.0,499.0,531.0
496.0,500.0,505.0,493.0,533.0
502.0,498.0,515.0,493.0,525.0
505.0,496.0,521.0,488.0,522.0
507.0,492.0,524.0,486.0,517.0
521.0,493.0,529.0,491.0,508.0
525.0,495.0,532.0,500.0,503.0
533.0,504.0,534.0,511.0,497.0
538.0,511.0,535.0,525.0,494.0
537.0,517.0,530.0,535.0,493.0
537.0,519.0,520.0,545.0,494.0
528.0,521.0,511.0,539.0,494.0
523.0,522.0,504.0,544.0,499.0
506.0,513.0,488.0,527.0,515.0
500.0,512.0,486.0,523.0,525.0
495.0,508.0,487.0,510.0,532.0
497.0,509.0,495.0,504.0,540.0
496.0,506.0,498.0,493.0,537.0
495.0,500.0,510.0,493.0,529.0
499.0,496.0,517.0,488.0,520.0
503.0,494.0,522.0,489.0,516.0
509.0,491.0,525.0,486.0,513.0
514.0,494.0,530.0,494.0,514.0
526.0,497.0,532.0,504.0,500.0
534.0,505.0,533.0,518.0,490.0
539.0,512.0,533.0,527.0,486.0
536.0,512.0,524.0,537.0,489.0
532.0,520.0,517.0,543.0,494.0
528.0,521.0,510.0,542.0,502.0
523.0,522.0,503.0,539.0,507.0
503.0,514.0,489.0,527.0,523.0
491.0,508.0,485.0,517.0,528.0
492.0,509.0,491.0,508.0,531.0
494.0,504.0,495.0,501.0,527.0
497.0,502.0,504.0,496.0,530.0
497.0,497.0,510.0,490.0,523.0
503.0,496.0,521.0,490.0,523.0
507.0,492.0,523.0,486.0,520.0
512.0,491.0,527.0,489.0,513.0
522.0,495.0,532.0,501.0,504.0
526.0,497.0,530.0,506.0,498.0
535.0,505.0,534.0,523.0,491.0
539.0,514.0,532.0,532.0,490.0
534.0,517.0,524.0,539.0,493.0
534.0,519.0,512.0,541.0,495.0
526.0,520.0,507.0,544.0,505.0
503.0,513.0,495.0,530.0,517.0
495.0,515.0,489.0,525.0,531.0
491.0,512.0,488.0,515.0,537.0
491.0,509.0,492.0,506.0,537.0
493.0,505.0,499.0,500.0,535.0
496.0,502.0,507.0,495.0,531.0
500.0,499.0,515.0,491.0,522.0
502.0,495.0,519.0,487.0,518.0
508.0,494.0,527.0,488.0,514.0
512.0,493.0,530.0,491.0,508.0
521.0,497.0,533.0,501.0,504.0
527.0,501.0,536.0,510.0,494.0
535.0,508.0,534.0,526.0,491.0
535.0,517.0,530.0,536.0,490.0
528.0,519.0,520.0,540.0,493.0
524.0,521.0,512.0,542.0,501.0
522.0,525.0,503.0,540.0,504.0
503.0,515.0,491.0,529.0,525.0
492.0,510.0,485.0,518.0,527.0
490.0,508.0,490.0,512.0,539.0
491.0,507.0,495.0,500.0,534.0
493.0,502.0,504.0,497.0,535.0
499.0,498.0,509.0,492.0,527.0
502.0,496.0,517.0,490.0,522.0
510.0,494.0,524.0,489.0,517.0
515.0,492.0,528.0,486.0,510.0
522.0,494.0,532.0,497.0,504.0
523.0,495.0,530.0,504.0,495.0
531.0,505.0,533.0,516.0,492.0
528.0,509.0,533.0,526.0,494.0
527.0,512.0,525.0,537.0,491.0
531.0,517.0,517.0,538.0,492.0
526.0,519.0,509.0,542.0,503.0
513.0,519.0,499.0,535.0,515.0
504.0,514.0,488.0,525.0,527.0
498.0,510.0,485.0,516.0,531.0
495.0,509.0,490.0,509.0,537.0
493.0,504.0,499.0,500.0,534.0
493.0,502.0,506.0,497.0,532.0
499.0,499.0,512.0,491.0,528.0
502.0,494.0,517.0,487.0,521.0
506.0,494.0,524.0,486.0,520.0
511.0,490.0,526.0,487.0,513.0
523.0,496.0,532.0,497.0,508.0
527.0,499.0,531.0,506.0,501.0
536.0,505.0,533.0,520.0,493.0
537.0,509.0,529.0,531.0,486.0
530.0,514.0,522.0,538.0,488.0
525.0,521.0,516.0,542.0,495.0
521.0,520.0,507.0,543.0,504.0
515.0,515.0,493.0,533.0,522.0
498.0,512.0,487.0,526.0,533.0
497.0,512.0,489.0,515.0,534.0
495.0,508.0,492.0,506.0,537.0
495.0,505.0,499.0,499.0,536.0
497.0,500.0,506.0,493.0,534.0
500.0,499.0,514.0,490.0,525.0
502.0,495.0,521.0,488.0,521.0
509.0,494.0,525.0,487.0,517.0
518.0,492.0,529.0,494.0,510.0
524.0,496.0,532.0,500.0,504.0
532.0,500.0,535.0,514.0,493.0
537.0,505.0,533.0,528.0,484.0
541.0,515.0,530.0,538.0,485.0
531.0,522.0,519.0,538.0,493.0
525.0,522.0,511.0,540.0,499.0
522.0,521.0,505.0,540.0,502.0
505.0,513.0,489.0,529.0,515.0
494.0,508.0,484.0,519.0,525.0
491.0,511.0,486.0,511.0,526.0
491.0,508.0,494.0,504.0,528.0
495.0,505.0,503.0,496.0,536.0
498.0,499.0,508.0,494.0,529.0
504.0,497.0,518.0,490.0,535.0
507.0,495.0,520.0,486.0,527.0
511.0,494.0,528.0,488.0,523.0
516.0,494.0,530.0,494.0,511.0
527.0,497.0,532.0,501.0,504.0
528.0,502.0,532.0,516.0,497.0
533.0,511.0,532.0,527.0,490.0
532.0,516.0,526.0,537.0,491.0
528.0,518.0,517.0,542.0,495.0
521.0,519.0,511.0,539.0,497.0
512.0,520.0,501.0,539.0,512.0
502.0,514.0,486.0,526.0,525.0
502.0,510.0,485.0,516.0,537.0
501.0,509.0,491.0,509.0,536.0
493.0,504.0,497.0,502.0,535.0
494.0,500.0,504.0,496.0,533.0
502.0,500.0,512.0,491.0,524.0
507.0,497.0,520.0,491.0,514.0
509.0,493.0,522.0,488.0,515.0
515.0,493.0,529.0,490.0,519.0
521.0,496.0,534.0,499.0,504.0
524.0,497.0,533.0,511.0,501.0
535.0,507.0,530.0,519.0,493.0
539.0,513.0,531.0,533.0,488.0
536.0,518.0,523.0,540.0,491.0
529.0,520.0,513.0,542.0,498.0
522.0,521.0,505.0,542.0,503.0
507.0,514.0,492.0,531.0,522.0
497.0,512.0,487.0,521.0,531.0
499.0,510.0,492.0,514.0,533.0
494.0,507.0,493.0,505.0,535.0
495.0,503.0,499.0,499.0,537.0
500.0,501.0,507.0,494.0,531.0
500.0,496.0,515.0,488.0,525.0
505.0,495.0,522.0,489.0,522.0
509.0,493.0,524.0,487.0,516.0
514.0,494.0,528.0,493.0,512.0
522.0,497.0,532.0,502.0,504.0
530.0,503.0,534.0,514.0,497.0
535.0,510.0,534.0,526.0,495.0
539.0,516.0,528.0,535.0,492.0
536.0,519.0,520.0,542.0,492.0
527.0,521.0,515.0,542.0,495.0
521.0,522.0,505.0,542.0,502.0
508.0,513.0,489.0,533.0,522.0
497.0,514.0,484.0,520.0,528.0
490.0,509.0,488.0,512.0,526.0
494.0,509.0,496.0,506.0,521.0
495.0,502.0,501.0,498.0,517.0
503.0,498.0,510.0,494.0,507.0
501.0,496.0,518.0,490.0,515.0
508.0,493.0,522.0,487.0,530.0
515.0,491.0,527.0,489.0,528.0
522.0,491.0,527.0,493.0,512.0
526.0,500.0,533.0,504.0,510.0
530.0,504.0,533.0,516.0,505.0
532.0,508.0,536.0,529.0,499.0
533.0,515.0,526.0,539.0,498.0
531.0,519.0,516.0,541.0,502.0
526.0,521.0,509.0,541.0,504.0
518.0,518.0,499.0,538.0,507.0
505.0,511.0,485.0,526.0,519.0
494.0,510.0,486.0,519.0,527.0
487.0,508.0,489.0,508.0,531.0
488.0,505.0,496.0,507.0,534.0
492.0,501.0,505.0,495.0,536.0
497.0,498.0,510.0,490.0,533.0
504.0,496.0,516.0,487.0,524.0
504.0,493.0,524.0,487.0,522.0
512.0,490.0,531.0,486.0,512.0
524.0,495.0,534.0,498.0,505.0
527.0,500.0,534.0,507.0,497.0
539.0,506.0,533.0,523.0,486.0
537.0,514.0,532.0,535.0,486.0
533.0,519.0,523.0,541.0,493.0
530.0,520.0,512.0,540.0,499.0
526.0,523.0,508.0,541.0,508.0
506.0,513.0,492.0,530.0,525.0
499.0,511.0,488.0,521.0,539.0
492.0,510.0,488.0,513.0,537.0
491.0,505.0,491.0,504.0,533.0
497.0,506.0,498.0,499.0,534.0
497.0,500.0,508.0,494.0,529.0
499.0,497.0,514.0,489.0,527.0
507.0,494.0,523.0,489.0,522.0
509.0,494.0,526.0,484.0,521.0
515.0,495.0,531.0,492.0,519.0
525.0,496.0,530.0,498.0,507.0
530.0,502.0,535.0,514.0,498.0
537.0,509.0,535.0,528.0,490.0
534.0,513.0,529.0,537.0,483.0
530.0,518.0,521.0,541.0,490.0
530.0,522.0,511.0,545.0,497.0
517.0,522.0,505.0,540.0,505.0
507.0,513.0,488.0,526.0,520.0
499.0,512.0,486.0,518.0,528.0
493.0,509.0,489.0,511.0,529.0
496.0,505.0,495.0,503.0,526.0
495.0,500.0,501.0,496.0,529.0
498.0,499.0,509.0,490.0,529.0
503.0,496.0,518.0,489.0,522.0
510.0,495.0,525.0,489.0,517.0
515.0,493.0,528.0,489.0,509.0
524.0,494.0,533.0,496.0,503.0
529.0,498.0,532.0,504.0,491.0
527.0,504.0,539.0,516.0,493.0
530.0,512.0,537.0,527.0,490.0
530.0,517.0,526.0,537.0,499.0
523.0,519.0,515.0,540.0,503.0
515.0,520.0,508.0,540.0,502.0
508.0,520.0,502.0,538.0,517.0
497.0,512.0,488.0,526.0,526.0
502.0,512.0,489.0,518.0,533.0
500.0,510.0,491.0,509.0,533.0
497.0,505.0,497.0,500.0,532.0
498.0,502.0,504.0,500.0,531.0
502.0,500.0,513.0,491.0,527.0
505.0,497.0,520.0,489.0,521.0
508.0,493.0,523.0,488.0,517.0
516.0,494.0,530.0,493.0,510.0
524.0,497.0,534.0,498.0,499.0
527.0,501.0,532.0,509.0,499.0
533.0,507.0,534.0,519.0,491.0
536.0,514.0,531.0,532.0,488.0
535.0,519.0,523.0,542.0,491.0
529.0,520.0,514.0,545.0,497.0
524.0,523.0,510.0,542.0,502.0
512.0,515.0,490.0,534.0,513.0
503.0,512.0,486.0,525.0,526.0
491.0,510.0,488.0,514.0,531.0
490.0,509.0,492.0,509.0,532.0
496.0,503.0,498.0,501.0,531.0
497.0,496.0,503.0,490.0,529.0
505.0,496.0,511.0,487.0,523.0
505.0,497.0,517.0,489.0,520.0
506.0,494.0,520.0,487.0,516.0
513.0,493.0,523.0,490.0,508.0
520.0,495.0,525.0,500.0,504.0
530.0,505.0,533.0,514.0,498.0
534.0,508.0,533.0,524.0,488.0
534.0,515.0,531.0,537.0,488.0
530.0,518.0,524.0,541.0,493.0
522.0,519.0,510.0,538.0,499.0
517.0,521.0,505.0,542.0,511.0
501.0,514.0,490.0,529.0,528.0
494.0,510.0,488.0,517.0,533.0
493.0,509.0,493.0,511.0,531.0
494.0,505.0,497.0,505.0,531.0
495.0,497.0,500.0,497.0,529.0
500.0,492.0,514.0,493.0,525.0
502.0,491.0,525.0,490.0,520.0
503.0,493.0,535.0,490.0,516.0
520.0,498.0,541.0,492.0,510.0
520.0,495.0,536.0,496.0,506.0
524.0,497.0,533.0,506.0,500.0
529.0,505.0,529.0,516.0,491.0
536.0,509.0,522.0,529.0,490.0
533.0,510.0,519.0,539.0,490.0
525.0,513.0,512.0,543.0,496.0
519.0,516.0,505.0,543.0,502.0
519.0,517.0,495.0,534.0,511.0
499.0,511.0,483.0,523.0,524.0
498.0,519.0,486.0,517.0,531.0
495.0,514.0,489.0,509.0,527.0
491.0,510.0,497.0,504.0,532.0
495.0,502.0,502.0,496.0,529.0
497.0,496.0,505.0,488.0,524.0
504.0,493.0,514.0,487.0,519.0
509.0,493.0,521.0,487.0,517.0
511.0,493.0,526.0,490.0,509.0
516.0,495.0,531.0,498.0,504.0
526.0,505.0,534.0,510.0,500.0
534.0,508.0,532.0,522.0,489.0
536.0,514.0,532.0,539.0,484.0
535.0,518.0,524.0,542.0,489.0
529.0,521.0,515.0,543.0,498.0
527.0,520.0,507.0,545.0,496.0
510.0,516.0,493.0,538.0,512.0
493.0,510.0,484.0,522.0,526.0
492.0,509.0,486.0,513.0,536.0
491.0,506.0,491.0,504.0,534.0
492.0,502.0,500.0,502.0,529.0
497.0,501.0,512.0,495.0,528.0
499.0,495.0,513.0,487.0,525.0
501.0,488.0,516.0,485.0,521.0
511.0,489.0,523.0,488.0,514.0
517.0,491.0,531.0,496.0,504.0
523.0,498.0,536.0,506.0,496.0
531.0,502.0,537.0,515.0,489.0
536.0,512.0,536.0,527.0,487.0
534.0,513.0,524.0,535.0,493.0
529.0,515.0,509.0,536.0,497.0
524.0,521.0,508.0,541.0,503.0
517.0,521.0,500.0,540.0,507.0
505.0,513.0,489.0,531.0,523.0
493.0,509.0,483.0,520.0,533.0
493.0,511.0,488.0,513.0,534.0
495.0,510.0,496.0,508.0,537.0
495.0,502.0,497.0,498.0,531.0
497.0,498.0,507.0,496.0,527.0
502.0,495.0,514.0,490.0,525.0
506.0,492.0,518.0,487.0,520.0
513.0,493.0,528.0,489.0,515.0
519.0,496.0,530.0,496.0,507.0
526.0,495.0,527.0,504.0,499.0
541.0,505.0,530.0,521.0,490.0
536.0,515.0,529.0,532.0,493.0
534.0,517.0,522.0,541.0,490.0
527.0,515.0,510.0,539.0,498.0
523.0,517.0,506.0,546.0,500.0
525.0,516.0,496.0,540.0,499.0
522.0,509.0,487.0,534.0,502.0
506.0,513.0,489.0,526.0,513.0
486.0,513.0,490.0,516.0,532.0
485.0,504.0,494.0,499.0,533.0
496.0,497.0,500.0,493.0,532.0
500.0,498.0,511.0,491.0,524.0
500.0,493.0,517.0,486.0,521.0
505.0,493.0,520.0,485.0,528.0
511.0,491.0,527.0,491.0,521.0
520.0,495.0,530.0,503.0,509.0
527.0,503.0,525.0,513.0,498.0
533.0,508.0,524.0,525.0,493.0
535.0,511.0,516.0,534.0,488.0
529.0,516.0,504.0,541.0,496.0
524.0,510.0,498.0,544.0,505.0
520.0,507.0,500.0,544.0,506.0
501.0,505.0,496.0,534.0,521.0
495.0,511.0,495.0,526.0,532.0
493.0,502.0,496.0,514.0,536.0
486.0,498.0,501.0,505.0,537.0
497.0,502.0,506.0,505.0,532.0
505.0,513.0,509.0,498.0,529.0
504.0,509.0,522.0,491.0,523.0
507.0,505.0,532.0,490.0,519.0
518.0,496.0,531.0,493.0,509.0
524.0,495.0,537.0,498.0,508.0
516.0,503.0,539.0,506.0,500.0
533.0,508.0,525.0,519.0,495.0
539.0,503.0,525.0,531.0,485.0
544.0,510.0,525.0,540.0,477.0
533.0,506.0,523.0,539.0,488.0
526.0,487.0,519.0,548.0,495.0
510.0,479.0,499.0,545.0,502.0
490.0,467.0,463.0,527.0,530.0
491.0,476.0,474.0,520.0,530.0
494.0,488.0,489.0,519.0,536.0
496.0,493.0,469.0,510.0,532.0
502.0,515.0,479.0,506.0,530.0
498.0,534.0,495.0,498.0,531.0
504.0,523.0,503.0,501.0,526.0
506.0,514.0,499.0,501.0,520.0
512.0,508.0,513.0,498.0,514.0
527.0,511.0,524.0,508.0,503.0
527.0,493.0,523.0,519.0,497.0
532.0,494.0,507.0,511.0,495.0
536.0,507.0,521.0,507.0,490.0
539.0,523.0,534.0,531.0,485.0
531.0,529.0,528.0,544.0,485.0
524.0,532.0,526.0,544.0,500.0
511.0,528.0,522.0,528.0,519.0
499.0,527.0,513.0,529.0,530.0
498.0,527.0,511.0,534.0,532.0
502.0,519.0,513.0,523.0,530.0
494.0,511.0,515.0,508.0,537.0
492.0,505.0,519.0,502.0,535.0
500.0,497.0,508.0,496.0,524.0
507.0,496.0,515.0,488.0,521.0
511.0,489.0,518.0,485.0,515.0
526.0,487.0,528.0,492.0,502.0
543.0,498.0,536.0,504.0,495.0
539.0,510.0,541.0,517.0,481.0
530.0,510.0,537.0,524.0,485.0
537.0,506.0,523.0,533.0,494.0
533.0,516.0,528.0,546.0,491.0
522.0,528.0,529.0,554.0,498.0
522.0,531.0,529.0,545.0,506.0
515.0,523.0,514.0,534.0,517.0
501.0,508.0,502.0,534.0,520.0
495.0,512.0,481.0,531.0,521.0
494.0,501.0,468.0,510.0,534.0
493.0,492.0,473.0,499.0,538.0
500.0,499.0,495.0,496.0,530.0
505.0,493.0,509.0,495.0,523.0
504.0,485.0,523.0,499.0,514.0
508.0,482.0,534.0,504.0,510.0
521.0,502.0,541.0,512.0,504.0
523.0,523.0,546.0,522.0,508.0
535.0,513.0,545.0,536.0,494.0
539.0,509.0,542.0,547.0,489.0
530.0,513.0,525.0,561.0,496.0
525.0,524.0,498.0,559.0,499.0
525.0,541.0,507.0,556.0,499.0
524.0,544.0,504.0,561.0,503.0
507.0,527.0,487.0,539.0,520.0
499.0,526.0,498.0,517.0,533.0
499.0,518.0,488.0,509.0,535.0
495.0,513.0,495.0,519.0,532.0
490.0,509.0,501.0,506.0,530.0
511.0,505.0,515.0,503.0,516.0
508.0,502.0,521.0,500.0,519.0
508.0,506.0,538.0,500.0,517.0
512.0,504.0,543.0,507.0,509.0
530.0,500.0,552.0,517.0,488.0
525.0,493.0,548.0,524.0,497.0
527.0,493.0,545.0,534.0,498.0
538.0,501.0,537.0,550.0,489.0
531.0,508.0,523.0,558.0,492.0
518.0,504.0,510.0,549.0,503.0
526.0,514.0,511.0,557.0,497.0
527.0,525.0,506.0,560.0,504.0
518.0,518.0,497.0,558.0,506.0
503.0,515.0,496.0,545.0,526.0
478.0,504.0,491.0,522.0,544.0
488.0,483.0,493.0,511.0,538.0
488.0,482.0,513.0,510.0,531.0
502.0,488.0,538.0,503.0,528.0
500.0,485.0,523.0,485.0,523.0
504.0,488.0,529.0,504.0,518.0
517.0,513.0,536.0,519.0,507.0
531.0,525.0,527.0,529.0,499.0
544.0,507.0,510.0,524.0,485.0
539.0,501.0,515.0,533.0,485.0
540.0,509.0,525.0,545.0,488.0
536.0,511.0,484.0,551.0,488.0
517.0,510.0,490.0,551.0,505.0
514.0,526.0,505.0,555.0,520.0
509.0,530.0,491.0,551.0,513.0
511.0,535.0,486.0,543.0,521.0
500.0,522.0,481.0,515.0,522.0
486.0,510.0,463.0,507.0,536.0
499.0,512.0,480.0,517.0,529.0
501.0,492.0,498.0,523.0,531.0
505.0,478.0,505.0,510.0,528.0
502.0,473.0,519.0,501.0,525.0
487.0,455.0,522.0,505.0,524.0
505.0,464.0,537.0,518.0,510.0
533.0,490.0,547.0,527.0,489.0
541.0,507.0,556.0,545.0,486.0
542.0,514.0,554.0,556.0,482.0
536.0,526.0,542.0,561.0,492.0
539.0,533.0,525.0,571.0,497.0
526.0,517.0,519.0,568.0,498.0
521.0,521.0,525.0,560.0,501.0
505.0,523.0,515.0,537.0,523.0
490.0,498.0,460.0,530.0,536.0
482.0,486.0,423.0,520.0,541.0
491.0,510.0,469.0,518.0,534.0
502.0,536.0,498.0,516.0,532.0
512.0,541.0,539.0,528.0,519.0
509.0,502.0,539.0,526.0,513.0
515.0,483.0,512.0,538.0,499.0
518.0,473.0,505.0,511.0,505.0
531.0,459.0,499.0,499.0,505.0
532.0,465.0,514.0,523.0,480.0
537.0,518.0,552.0,554.0,475.0
545.0,529.0,577.0,577.0,482.0
533.0,517.0,563.0,581.0,492.0
520.0,521.0,503.0,559.0,504.0
520.0,523.0,516.0,567.0,510.0
511.0,520.0,506.0,545.0,525.0
504.0,539.0,496.0,543.0,526.0
504.0,523.0,491.0,521.0,528.0
497.0,511.0,499.0,509.0,533.0
495.0,498.0,519.0,507.0,531.0
480.0,457.0,491.0,496.0,536.0
501.0,465.0,464.0,533.0,532.0
507.0,476.0,491.0,526.0,524.0
508.0,471.0,514.0,520.0,514.0
515.0,484.0,534.0,524.0,502.0
506.0,490.0,504.0,521.0,505.0
526.0,542.0,512.0,547.0,498.0
530.0,548.0,523.0,553.0,496.0
544.0,552.0,533.0,554.0,481.0
541.0,528.0,554.0,552.0,489.0
526.0,533.0,566.0,528.0,508.0
535.0,529.0,576.0,517.0,505.0
521.0,524.0,553.0,545.0,501.0
495.0,506.0,457.0,555.0,512.0
501.0,527.0,425.0,538.0,531.0
501.0,523.0,481.0,526.0,520.0
510.0,529.0,522.0,556.0,493.0
515.0,510.0,535.0,556.0,508.0
519.0,480.0,559.0,549.0,503.0
497.0,470.0,562.0,528.0,526.0
518.0,475.0,538.0,523.0,497.0
513.0,467.0,522.0,505.0,502.0
510.0,471.0,525.0,516.0,503.0
517.0,478.0,554.0,532.0,500.0
548.0,448.0,558.0,538.0,472.0
539.0,440.0,506.0,559.0,492.0
503.0,456.0,502.0,535.0,537.0
511.0,490.0,526.0,536.0,507.0
516.0,545.0,555.0,547.0,503.0
504.0,574.0,563.0,554.0,537.0
493.0,531.0,489.0,557.0,553.0
511.0,512.0,545.0,561.0,526.0
502.0,508.0,572.0,532.0,518.0
485.0,488.0,549.0,497.0,542.0
493.0,526.0,578.0,477.0,532.0
498.0,496.0,574.0,504.0,519.0
503.0,492.0,539.0,563.0,517.0
504.0,476.0,500.0,530.0,532.0
511.0,478.0,490.0,514.0,511.0
539.0,513.0,567.0,517.0,483.0
549.0,499.0,535.0,545.0,464.0
535.0,464.0,487.0,540.0,466.0
521.0,461.0,467.0,545.0,488.0
518.0,527.0,569.0,549.0,493.0
519.0,561.0,550.0,488.0,501.0
491.0,540.0,548.0,479.0,537.0
504.0,574.0,538.0,530.0,523.0
506.0,564.0,530.0,536.0,508.0
495.0,533.0,630.0,580.0,531.0
505.0,519.0,628.0,575.0,515.0
503.0,509.0,556.0,538.0,531.0
494.0,421.0,499.0,485.0,530.0
492.0,394.0,518.0,514.0,536.0
491.0,402.0,648.0,524.0,528.0
501.0,407.0,664.0,541.0,525.0
532.0,457.0,581.0,565.0,492.0
535.0,439.0,465.0,599.0,484.0
519.0,504.0,504.0,600.0,485.0
531.0,509.0,420.0,533.0,482.0
550.0,518.0,400.0,454.0,499.0
547.0,488.0,500.0,514.0,468.0
515.0,469.0,532.0,571.0,483.0
471.0,445.0,521.0,557.0,537.0
446.0,447.0,444.0,480.0,577.0
482.0,589.0,422.0,501.0,545.0
492.0,627.0,482.0,502.0,536.0
505.0,571.0,468.0,472.0,525.0
510.0,547.0,570.0,501.0,536.0
512.0,519.0,633.0,512.0,519.0
501.0,520.0,640.0,504.0,509.0
520.0,551.0,507.0,473.0,507.0
544.0,530.0,383.0,500.0,493.0
535.0,491.0,497.0,558.0,488.0
521.0,464.0,668.0,596.0,484.0
512.0,444.0,686.0,579.0,509.0
516.0,517.0,586.0,568.0,493.0
509.0,489.0,486.0,564.0,496.0
532.0,521.0,346.0,507.0,481.0
531.0,503.0,442.0,543.0,487.0
536.0,496.0,609.0,562.0,469.0
518.0,468.0,611.0,573.0,491.0
505.0,462.0,503.0,529.0,526.0
498.0,550.0,413.0,495.0,529.0
523.0,554.0,389.0,509.0,499.0
517.0,552.0,429.0,480.0,511.0
511.0,555.0,488.0,470.0,534.0
484.0,512.0,539.0,494.0,558.0
478.0,517.0,540.0,478.0,569.0
514.0,533.0,482.0,442.0,519.0
521.0,565.0,544.0,470.0,500.0
530.0,564.0,515.0,498.0,505.0
540.0,525.0,476.0,553.0,484.0
530.0,493.0,521.0,561.0,499.0
510.0,466.0,568.0,558.0,508.0
523.0,520.0,660.0,559.0,496.0
517.0,538.0,655.0,552.0,505.0
497.0,457.0,528.0,486.0,526.0
490.0,440.0,477.0,489.0,531.0
471.0,512.0,489.0,502.0,555.0
487.0,561.0,490.0,488.0,556.0
509.0,559.0,536.0,532.0,523.0
499.0,486.0,482.0,578.0,529.0
519.0,461.0,578.0,541.0,504.0
521.0,439.0,723.0,539.0,509.0
515.0,433.0,599.0,504.0,510.0
549.0,526.0,464.0,462.0,459.0
552.0,561.0,508.0,484.0,446.0
535.0,517.0,546.0,544.0,474.0
542.0,520.0,484.0,525.0,485.0
529.0,533.0,468.0,506.0,501.0
515.0,536.0,502.0,529.0,516.0
496.0,544.0,473.0,513.0,569.0
496.0,517.0,515.0,531.0,543.0
485.0,467.0,551.0,550.0,520.0
472.0,444.0,440.0,395.0,549.0
482.0,492.0,480.0,418.0,559.0
490.0,524.0,501.0,454.0,547.0
486.0,489.0,493.0,481.0,541.0
488.0,438.0,492.0,487.0,534.0
491.0,432.0,479.0,502.0,529.0
494.0,460.0,507.0,531.0,523.0
528.0,486.0,552.0,500.0,496.0
549.0,519.0,556.0,509.0,490.0
545.0,538.0,579.0,501.0,474.0
520.0,522.0,627.0,504.0,507.0
534.0,580.0,586.0,496.0,506.0
519.0,578.0,508.0,527.0,520.0
513.0,593.0,562.0,621.0,506.0
499.0,516.0,585.0,647.0,521.0
504.0,473.0,508.0,541.0,533.0
485.0,395.0,416.0,459.0,545.0
473.0,415.0,427.0,398.0,558.0
517.0,539.0,508.0,418.0,511.0
525.0,568.0,586.0,419.0,495.0
502.0,581.0,573.0,491.0,530.0
501.0,555.0,507.0,492.0,534.0
509.0,523.0,491.0,456.0,522.0
515.0,551.0,539.0,485.0,498.0
513.0,523.0,553.0,478.0,506.0
527.0,497.0,524.0,479.0,495.0
534.0,492.0,528.0,517.0,483.0
525.0,502.0,576.0,558.0,482.0
520.0,548.0,546.0,552.0,488.0
514.0,552.0,496.0,514.0,513.0
509.0,572.0,484.0,500.0,518.0
511.0,539.0,529.0,536.0,532.0
503.0,504.0,522.0,524.0,525.0
506.0,516.0,537.0,472.0,525.0
496.0,548.0,562.0,462.0,532.0
496.0,512.0,552.0,473.0,536.0
498.0,482.0,550.0,441.0,532.0
492.0,446.0,458.0,441.0,533.0
490.0,398.0,504.0,468.0,519.0
485.0,384.0,516.0,508.0,532.0
497.0,419.0,572.0,513.0,515.0
506.0,447.0,576.0,445.0,506.0
527.0,516.0,549.0,457.0,508.0
540.0,548.0,510.0,518.0,488.0
558.0,579.0,513.0,551.0,468.0
561.0,594.0,514.0,540.0,464.0
544.0,597.0,478.0,524.0,485.0
519.0,569.0,463.0,527.0,500.0
500.0,526.0,515.0,519.0,503.0
486.0,549.0,497.0,490.0,523.0
489.0,504.0,461.0,447.0,530.0
486.0,518.0,492.0,467.0,514.0
486.0,478.0,593.0,546.0,519.0
486.0,444.0,574.0,510.0,540.0
471.0,381.0,444.0,432.0,547.0
492.0,458.0,536.0,465.0,517.0
508.0,483.0,493.0,454.0,501.0
518.0,555.0,583.0,472.0,497.0
544.0,580.0,566.0,476.0,488.0
544.0,562.0,537.0,502.0,484.0
538.0,528.0,543.0,521.0,475.0
548.0,486.0,518.0,538.0,458.0
543.0,484.0,523.0,541.0,489.0
533.0,528.0,540.0,556.0,510.0
498.0,545.0,519.0,556.0,526.0
484.0,535.0,488.0,491.0,552.0
483.0,575.0,534.0,458.0,568.0
483.0,557.0,609.0,474.0,567.0
500.0,518.0,658.0,516.0,533.0
511.0,473.0,607.0,486.0,514.0
491.0,424.0,427.0,433.0,522.0
490.0,452.0,430.0,391.0,535.0
507.0,496.0,446.0,453.0,523.0
530.0,513.0,508.0,488.0,504.0
536.0,480.0,596.0,503.0,498.0
543.0,492.0,592.0,535.0,486.0
534.0,529.0,491.0,536.0,503.0
529.0,557.0,449.0,490.0,496.0
522.0,526.0,511.0,505.0,497.0
515.0,519.0,574.0,512.0,511.0
530.0,542.0,707.0,543.0,512.0
518.0,563.0,731.0,609.0,498.0
493.0,507.0,550.0,507.0,524.0
490.0,495.0,374.0,478.0,537.0
500.0,476.0,420.0,554.0,514.0
484.0,524.0,478.0,457.0,544.0
479.0,549.0,406.0,449.0,553.0
496.0,530.0,478.0,473.0,534.0
508.0,530.0,498.0,472.0,511.0
516.0,498.0,530.0,471.0,506.0
509.0,460.0,534.0,476.0,519.0
519.0,437.0,506.0,472.0,515.0
534.0,478.0,563.0,517.0,495.0
521.0,534.0,551.0,532.0,493.0
536.0,542.0,545.0,552.0,499.0
536.0,550.0,511.0,543.0,495.0
515.0,507.0,536.0,542.0,488.0
510.0,494.0,506.0,530.0,512.0
506.0,515.0,473.0,514.0,523.0
498.0,509.0,507.0,513.0,530.0
486.0,474.0,466.0,492.0,527.0
505.0,530.0,504.0,512.0,525.0
497.0,485.0,522.0,484.0,546.0
498.0,515.0,577.0,480.0,548.0
519.0,522.0,607.0,494.0,504.0
523.0,521.0,541.0,479.0,485.0
509.0,515.0,527.0,494.0,495.0
521.0,494.0,557.0,494.0,499.0
521.0,447.0,471.0,480.0,467.0
535.0,489.0,504.0,499.0,456.0
536.0,552.0,563.0,511.0,483.0
546.0,531.0,588.0,536.0,479.0
526.0,481.0,517.0,535.0,510.0
519.0,561.0,509.0,541.0,532.0
516.0,551.0,610.0,537.0,528.0
490.0,498.0,630.0,485.0,550.0
485.0,468.0,469.0,471.0,578.0
489.0,452.0,398.0,536.0,566.0
496.0,451.0,426.0,492.0,553.0
477.0,473.0,450.0,491.0,536.0
490.0,509.0,480.0,479.0,532.0
503.0,513.0,497.0,485.0,521.0
509.0,496.0,482.0,503.0,509.0
514.0,552.0,514.0,464.0,504.0
533.0,561.0,528.0,481.0,490.0
532.0,536.0,541.0,504.0,502.0
550.0,516.0,535.0,522.0,473.0
525.0,495.0,535.0,538.0,492.0
508.0,468.0,530.0,537.0,518.0
510.0,480.0,488.0,514.0,514.0
533.0,527.0,539.0,534.0,501.0
510.0,513.0,531.0,535.0,508.0
490.0,482.0,505.0,554.0,522.0
494.0,516.0,506.0,545.0,515.0
515.0,497.0,603.0,508.0,516.0
495.0,466.0,642.0,487.0,538.0
481.0,434.0,583.0,433.0,560.0
489.0,522.0,681.0,432.0,550.0
497.0,550.0,510.0,463.0,522.0
507.0,502.0,413.0,480.0,515.0
519.0,497.0,449.0,525.0,514.0
527.0,523.0,485.0,550.0,490.0
518.0,532.0,513.0,463.0,497.0
536.0,546.0,476.0,470.0,485.0
552.0,530.0,514.0,555.0,462.0
534.0,506.0,488.0,581.0,471.0
518.0,500.0,429.0,549.0,515.0
517.0,574.0,486.0,547.0,525.0
520.0,592.0,507.0,544.0,507.0
511.0,537.0,523.0,522.0,521.0
490.0,492.0,495.0,512.0,549.0
493.0,503.0,550.0,525.0,539.0
499.0,488.0,571.0,515.0,518.0
490.0,445.0,560.0,489.0,551.0
492.0,528.0,508.0,469.0,556.0
502.0,552.0,481.0,485.0,526.0
514.0,530.0,514.0,482.0,501.0
517.0,510.0,513.0,482.0,503.0
525.0,522.0,529.0,504.0,493.0
538.0,525.0,542.0,526.0,497.0
549.0,528.0,563.0,539.0,481.0
532.0,507.0,545.0,517.0,490.0
533.0,501.0,555.0,555.0,475.0
513.0,519.0,513.0,560.0,534.0
514.0,530.0,455.0,541.0,541.0
504.0,505.0,498.0,552.0,530.0
504.0,492.0,483.0,544.0,530.0
497.0,480.0,446.0,482.0,550.0
490.0,488.0,479.0,486.0,543.0
490.0,536.0,504.0,474.0,525.0
503.0,520.0,527.0,485.0,521.0
502.0,498.0,543.0,477.0,536.0
509.0,475.0,545.0,474.0,521.0
527.0,437.0,557.0,461.0,499.0
521.0,444.0,487.0,489.0,493.0
521.0,471.0,502.0,518.0,485.0
530.0,531.0,626.0,602.0,485.0
527.0,517.0,535.0,511.0,495.0
539.0,570.0,483.0,491.0,489.0
530.0,554.0,480.0,545.0,509.0
525.0,540.0,472.0,550.0,516.0
506.0,524.0,488.0,551.0,515.0
494.0,504.0,563.0,554.0,520.0
482.0,480.0,544.0,530.0,533.0
491.0,471.0,450.0,499.0,527.0
496.0,460.0,471.0,476.0,521.0
491.0,426.0,448.0,488.0,543.0
513.0,530.0,532.0,485.0,539.0
518.0,566.0,644.0,478.0,506.0
518.0,558.0,626.0,493.0,518.0
507.0,478.0,451.0,471.0,518.0
547.0,473.0,566.0,482.0,472.0
544.0,495.0,720.0,586.0,480.0
532.0,527.0,655.0,617.0,488.0
512.0,521.0,498.0,502.0,505.0
526.0,551.0,456.0,460.0,496.0
524.0,546.0,484.0,495.0,506.0
517.0,531.0,473.0,568.0,517.0
494.0,466.0,449.0,587.0,541.0
492.0,444.0,381.0,530.0,538.0
493.0,489.0,412.0,514.0,536.0
493.0,517.0,490.0,524.0,526.0
501.0,540.0,541.0,509.0,520.0
503.0,539.0,536.0,506.0,513.0
501.0,555.0,489.0,499.0,526.0
515.0,509.0,541.0,503.0,519.0
536.0,486.0,564.0,510.0,497.0
530.0,463.0,569.0,507.0,502.0
508.0,441.0,519.0,492.0,519.0
525.0,521.0,496.0,520.0,501.0
551.0,549.0,482.0,552.0,459.0
543.0,548.0,503.0,555.0,456.0
532.0,533.0,492.0,533.0,476.0
520.0,532.0,510.0,526.0,482.0
510.0,526.0,509.0,553.0,491.0
492.0,493.0,476.0,549.0,525.0
480.0,462.0,493.0,524.0,543.0
481.0,436.0,441.0,502.0,571.0
489.0,447.0,482.0,494.0,538.0
498.0,484.0,505.0,495.0,531.0
527.0,579.0,529.0,495.0,516.0
509.0,523.0,494.0,481.0,531.0
511.0,557.0,544.0,484.0,532.0
512.0,526.0,625.0,494.0,517.0
517.0,499.0,636.0,483.0,526.0
511.0,480.0,512.0,495.0,525.0
527.0,516.0,462.0,504.0,519.0
533.0,485.0,482.0,515.0,498.0
533.0,527.0,541.0,551.0,488.0
531.0,544.0,558.0,565.0,491.0
519.0,548.0,486.0,530.0,515.0
501.0,531.0,476.0,494.0,527.0
503.0,505.0,505.0,527.0,523.0
501.0,509.0,505.0,530.0,535.0
488.0,498.0,469.0,525.0,537.0
497.0,521.0,484.0,500.0,536.0
508.0,502.0,477.0,502.0,523.0
518.0,465.0,513.0,524.0,504.0
516.0,440.0,482.0,500.0,502.0
505.0,415.0,498.0,447.0,503.0
503.0,485.0,548.0,509.0,505.0
509.0,538.0,533.0,536.0,517.0
526.0,561.0,524.0,551.0,507.0
534.0,541.0,522.0,526.0,499.0
539.0,538.0,531.0,503.0,483.0
533.0,541.0,542.0,537.0,482.0
519.0,525.0,536.0,548.0,502.0
509.0,528.0,537.0,566.0,503.0
509.0,518.0,547.0,578.0,512.0
505.0,471.0,497.0,523.0,520.0
502.0,525.0,592.0,534.0,502.0
492.0,472.0,636.0,538.0,518.0
494.0,481.0,595.0,530.0,531.0
490.0,483.0,530.0,459.0,544.0
497.0,488.0,588.0,503.0,546.0
514.0,458.0,431.0,509.0,504.0
507.0,472.0,400.0,480.0,497.0
515.0,461.0,421.0,446.0,493.0
527.0,537.0,505.0,498.0,485.0
537.0,547.0,503.0,536.0,468.0
554.0,541.0,514.0,567.0,466.0
549.0,546.0,525.0,571.0,505.0
538.0,522.0,511.0,545.0,523.0
509.0,522.0,504.0,527.0,533.0
520.0,528.0,500.0,537.0,527.0
508.0,515.0,459.0,540.0,551.0
491.0,489.0,481.0,528.0,553.0
485.0,482.0,448.0,509.0,553.0
483.0,539.0,466.0,498.0,546.0
498.0,547.0,497.0,464.0,524.0
508.0,527.0,516.0,504.0,523.0
494.0,511.0,545.0,501.0,535.0
490.0,494.0,540.0,490.0,535.0
508.0,503.0,516.0,490.0,514.0
522.0,494.0,561.0,504.0,494.0
532.0,465.0,551.0,505.0,480.0
538.0,477.0,551.0,539.0,473.0
546.0,496.0,568.0,550.0,471.0
549.0,458.0,464.0,564.0,453.0
538.0,524.0,470.0,573.0,481.0
511.0,535.0,478.0,540.0,504.0
492.0,511.0,461.0,515.0,541.0
492.0,496.0,500.0,511.0,555.0
497.0,529.0,551.0,536.0,544.0
489.0,497.0,495.0,491.0,529.0
478.0,469.0,504.0,483.0,541.0
485.0,494.0,586.0,525.0,540.0
506.0,504.0,547.0,523.0,515.0
514.0,560.0,449.0,496.0,508.0
527.0,537.0,486.0,515.0,493.0
516.0,497.0,490.0,502.0,503.0
531.0,506.0,496.0,503.0,480.0
544.0,504.0,522.0,527.0,486.0
541.0,522.0,527.0,529.0,491.0
531.0,510.0,513.0,534.0,519.0
539.0,509.0,468.0,545.0,500.0
517.0,450.0,465.0,541.0,515.0
520.0,474.0,550.0,594.0,489.0
482.0,473.0,534.0,482.0,539.0
493.0,550.0,542.0,471.0,531.0
501.0,544.0,448.0,540.0,512.0
499.0,540.0,447.0,533.0,523.0
491.0,514.0,513.0,523.0,535.0
508.0,521.0,538.0,513.0,529.0
505.0,502.0,501.0,507.0,510.0
509.0,497.0,500.0,498.0,503.0
519.0,518.0,534.0,510.0,489.0
527.0,550.0,592.0,528.0,489.0
518.0,521.0,577.0,527.0,524.0
514.0,501.0,530.0,540.0,520.0
522.0,505.0,534.0,539.0,517.0
520.0,502.0,455.0,521.0,518.0
535.0,511.0,492.0,557.0,498.0
529.0,532.0,509.0,581.0,485.0
524.0,499.0,494.0,556.0,491.0
503.0,436.0,461.0,541.0,513.0
499.0,506.0,474.0,501.0,520.0
495.0,491.0,430.0,471.0,531.0
485.0,555.0,465.0,492.0,563.0
506.0,547.0,493.0,501.0,545.0
500.0,537.0,505.0,493.0,556.0
493.0,494.0,508.0,476.0,554.0
509.0,483.0,546.0,492.0,533.0
520.0,456.0,584.0,527.0,515.0
508.0,404.0,578.0,533.0,503.0
508.0,445.0,601.0,532.0,498.0
547.0,530.0,587.0,499.0,487.0
556.0,555.0,509.0,531.0,469.0
528.0,581.0,615.0,585.0,490.0
519.0,528.0,537.0,494.0,499.0
514.0,535.0,488.0,529.0,505.0
503.0,527.0,471.0,561.0,519.0
493.0,510.0,426.0,546.0,533.0
496.0,507.0,446.0,541.0,534.0
495.0,498.0,435.0,513.0,523.0
485.0,512.0,447.0,505.0,532.0
500.0,503.0,489.0,505.0,528.0
506.0,496.0,526.0,509.0,537.0
504.0,526.0,498.0,479.0,537.0
523.0,511.0,506.0,488.0,512.0
523.0,510.0,598.0,500.0,495.0
517.0,496.0,634.0,509.0,509.0
523.0,486.0,454.0,508.0,500.0
547.0,500.0,476.0,544.0,477.0
550.0,508.0,528.0,575.0,464.0
531.0,501.0,512.0,563.0,472.0
523.0,526.0,504.0,557.0,489.0
511.0,493.0,527.0,556.0,494.0
498.0,490.0,502.0,540.0,519.0
494.0,511.0,466.0,536.0,531.0
488.0,484.0,483.0,522.0,528.0
498.0,566.0,496.0,509.0,543.0
492.0,546.0,496.0,489.0,557.0
496.0,504.0,497.0,491.0,550.0
497.0,505.0,514.0,498.0,542.0
503.0,496.0,523.0,500.0,524.0
518.0,502.0,536.0,505.0,503.0
525.0,507.0,529.0,512.0,488.0
536.0,504.0,503.0,513.0,479.0
553.0,502.0,547.0,526.0,460.0
551.0,512.0,536.0,548.0,459.0
533.0,489.0,499.0,555.0,473.0
525.0,517.0,494.0,565.0,476.0
510.0,519.0,456.0,529.0,506.0
505.0,514.0,542.0,534.0,532.0
486.0,511.0,521.0,523.0,557.0
485.0,532.0,505.0,511.0,560.0
497.0,528.0,471.0,495.0,547.0
492.0,514.0,448.0,481.0,554.0
495.0,504.0,515.0,501.0,538.0
500.0,499.0,514.0,527.0,518.0
504.0,487.0,507.0,509.0,503.0
529.0,497.0,529.0,495.0,492.0
525.0,494.0,507.0,499.0,506.0
520.0,471.0,596.0,494.0,508.0
520.0,487.0,530.0,503.0,514.0
516.0,501.0,519.0,525.0,513.0
536.0,510.0,553.0,568.0,489.0
534.0,510.0,524.0,592.0,487.0
521.0,541.0,532.0,540.0,504.0
518.0,548.0,569.0,554.0,517.0
504.0,522.0,562.0,560.0,517.0
488.0,510.0,431.0,540.0,526.0
488.0,509.0,420.0,516.0,536.0
489.0,514.0,479.0,504.0,549.0
490.0,497.0,500.0,507.0,540.0
502.0,490.0,508.0,502.0,528.0
501.0,462.0,469.0,470.0,525.0
515.0,485.0,509.0,463.0,510.0
521.0,502.0,556.0,513.0,491.0
525.0,507.0,553.0,529.0,494.0
529.0,521.0,519.0,501.0,495.0
529.0,519.0,514.0,510.0,484.0
533.0,530.0,537.0,528.0,485.0
527.0,512.0,534.0,551.0,491.0
523.0,496.0,553.0,554.0,500.0
529.0,508.0,510.0,575.0,500.0
516.0,505.0,498.0,576.0,502.0
500.0,486.0,455.0,514.0,529.0
511.0,521.0,485.0,519.0,531.0
503.0,526.0,540.0,513.0,545.0
484.0,532.0,532.0,528.0,545.0
499.0,523.0,512.0,492.0,541.0
498.0,492.0,431.0,487.0,518.0
496.0,490.0,456.0,478.0,535.0
500.0,497.0,475.0,446.0,536.0
512.0,503.0,492.0,486.0,512.0
524.0,487.0,549.0,516.0,491.0
529.0,477.0,552.0,523.0,482.0
530.0,477.0,495.0,518.0,483.0
540.0,491.0,511.0,549.0,465.0
536.0,522.0,537.0,583.0,466.0
532.0,537.0,520.0,566.0,480.0
514.0,537.0,500.0,536.0,524.0
522.0,523.0,487.0,540.0,522.0
488.0,500.0,515.0,547.0,548.0
476.0,510.0,566.0,528.0,550.0
485.0,481.0,501.0,476.0,552.0
495.0,486.0,509.0,457.0,532.0
501.0,533.0,481.0,488.0,526.0
502.0,511.0,499.0,523.0,514.0
506.0,509.0,512.0,513.0,507.0
507.0,503.0,522.0,494.0,511.0
506.0,480.0,601.0,483.0,515.0
517.0,483.0,600.0,500.0,499.0
522.0,495.0,509.0,517.0,518.0
529.0,498.0,468.0,523.0,494.0
542.0,528.0,495.0,535.0,470.0
540.0,563.0,523.0,558.0,484.0
527.0,531.0,507.0,556.0,500.0
523.0,527.0,496.0,548.0,499.0
505.0,511.0,475.0,538.0,517.0
496.0,525.0,491.0,541.0,541.0
491.0,521.0,484.0,532.0,539.0
479.0,496.0,452.0,505.0,539.0
495.0,485.0,507.0,483.0,530.0
492.0,501.0,486.0,493.0,536.0
503.0,499.0,486.0,469.0,529.0
505.0,485.0,527.0,483.0,520.0
512.0,498.0,529.0,499.0,522.0
514.0,492.0,526.0,496.0,514.0
517.0,500.0,528.0,512.0,505.0
525.0,507.0,529.0,520.0,502.0
536.0,520.0,533.0,541.0,500.0
541.0,534.0,544.0,549.0,492.0
541.0,534.0,537.0,554.0,490.0
528.0,521.0,498.0,547.0,500.0
522.0,515.0,497.0,556.0,498.0
497.0,514.0,489.0,532.0,533.0
491.0,516.0,499.0,520.0,547.0
494.0,519.0,499.0,506.0,532.0
499.0,510.0,478.0,508.0,531.0
500.0,504.0,492.0,504.0,532.0
499.0,508.0,520.0,503.0,530.0
499.0,499.0,523.0,497.0,530.0
495.0,490.0,484.0,462.0,526.0
520.0,489.0,533.0,483.0,495.0
521.0,503.0,556.0,519.0,496.0
525.0,505.0,539.0,520.0,496.0
532.0,511.0,531.0,526.0,491.0
535.0,513.0,532.0,524.0,485.0
535.0,515.0,497.0,546.0,481.0
528.0,519.0,511.0,551.0,496.0
525.0,526.0,509.0,546.0,500.0
513.0,519.0,483.0,537.0,522.0
496.0,507.0,462.0,515.0,534.0
496.0,510.0,479.0,521.0,530.0
492.0,512.0,484.0,509.0,534.0
490.0,505.0,493.0,500.0,536.0
486.0,498.0,500.0,499.0,537.0
501.0,498.0,505.0,485.0,526.0
507.0,495.0,510.0,483.0,525.0
511.0,496.0,521.0,488.0,520.0
517.0,494.0,526.0,492.0,511.0
522.0,496.0,529.0,503.0,504.0
527.0,502.0,533.0,515.0,499.0
529.0,505.0,530.0,536.0,484.0
538.0,518.0,526.0,540.0,484.0
540.0,526.0,519.0,549.0,486.0
529.0,525.0,501.0,547.0,496.0
516.0,521.0,489.0,552.0,508.0
502.0,512.0,482.0,545.0,517.0
492.0,509.0,488.0,520.0,533.0
495.0,509.0,484.0,500.0,534.0
493.0,503.0,489.0,499.0,537.0
503.0,504.0,497.0,502.0,529.0
495.0,499.0,506.0,491.0,526.0
500.0,494.0,510.0,486.0,528.0
505.0,492.0,515.0,483.0,522.0
514.0,494.0,523.0,491.0,515.0
521.0,492.0,527.0,501.0,503.0
520.0,495.0,536.0,524.0,503.0
527.0,504.0,535.0,535.0,492.0
530.0,510.0,511.0,509.0,493.0
536.0,520.0,529.0,536.0,489.0
535.0,520.0,519.0,548.0,488.0
528.0,519.0,503.0,549.0,496.0
523.0,524.0,499.0,549.0,500.0
507.0,521.0,484.0,534.0,523.0
491.0,506.0,476.0,516.0,528.0
486.0,510.0,481.0,507.0,539.0
492.0,510.0,497.0,503.0,534.0
491.0,498.0,492.0,493.0,535.0
496.0,497.0,490.0,486.0,533.0
501.0,494.0,518.0,486.0,522.0
504.0,492.0,516.0,484.0,522.0
511.0,496.0,524.0,491.0,515.0
523.0,497.0,528.0,498.0,504.0
529.0,500.0,526.0,510.0,493.0
531.0,507.0,528.0,524.0,495.0
536.0,514.0,529.0,541.0,488.0
535.0,518.0,523.0,545.0,492.0
529.0,520.0,508.0,547.0,494.0
527.0,521.0,499.0,548.0,500.0
515.0,516.0,489.0,543.0,508.0
495.0,512.0,480.0,527.0,528.0
489.0,508.0,477.0,515.0,532.0
489.0,507.0,482.0,505.0,538.0
501.0,506.0,491.0,500.0,528.0
500.0,499.0,500.0,492.0,526.0
501.0,498.0,506.0,490.0,530.0
505.0,494.0,511.0,485.0,529.0
507.0,492.0,516.0,484.0,521.0
518.0,493.0,520.0,492.0,512.0
526.0,498.0,526.0,504.0,506.0
527.0,503.0,526.0,515.0,495.0
534.0,508.0,526.0,529.0,492.0
537.0,515.0,524.0,546.0,485.0
538.0,523.0,522.0,549.0,488.0
529.0,520.0,506.0,551.0,496.0
512.0,520.0,496.0,550.0,502.0
505.0,516.0,483.0,534.0,523.0
497.0,513.0,476.0,521.0,526.0
492.0,511.0,480.0,516.0,535.0
493.0,507.0,484.0,505.0,539.0
496.0,504.0,491.0,498.0,535.0
501.0,502.0,502.0,497.0,534.0
502.0,498.0,508.0,490.0,526.0
501.0,488.0,508.0,483.0,526.0
510.0,493.0,520.0,490.0,518.0
515.0,492.0,523.0,497.0,509.0
518.0,495.0,521.0,510.0,505.0
525.0,503.0,527.0,522.0,496.0
530.0,510.0,526.0,533.0,489.0
527.0,514.0,524.0,545.0,489.0
523.0,518.0,512.0,551.0,495.0
511.0,518.0,498.0,543.0,507.0
505.0,524.0,493.0,545.0,515.0
494.0,510.0,480.0,533.0,527.0
497.0,510.0,478.0,520.0,531.0
504.0,513.0,483.0,511.0,535.0
502.0,508.0,488.0,502.0,532.0
515.0,503.0,495.0,497.0,523.0
521.0,503.0,508.0,498.0,519.0
513.0,498.0,510.0,489.0,525.0
506.0,490.0,510.0,481.0,523.0
499.0,488.0,521.0,494.0,513.0
503.0,494.0,528.0,502.0,503.0
512.0,501.0,522.0,507.0,494.0
512.0,504.0,525.0,520.0,494.0
518.0,514.0,527.0,539.0,493.0
512.0,514.0,518.0,546.0,497.0
506.0,518.0,509.0,546.0,514.0
514.0,517.0,497.0,542.0,530.0
523.0,521.0,490.0,538.0,540.0
521.0,520.0,484.0,529.0,540.0
509.0,516.0,484.0,521.0,533.0
502.0,512.0,488.0,510.0,533.0
497.0,509.0,493.0,501.0,528.0
509.0,501.0,499.0,494.0,514.0
522.0,502.0,510.0,492.0,501.0
516.0,496.0,513.0,488.0,503.0
524.0,495.0,520.0,490.0,494.0
531.0,496.0,526.0,497.0,483.0
537.0,498.0,534.0,506.0,478.0
537.0,503.0,530.0,518.0,487.0
541.0,510.0,530.0,531.0,491.0
536.0,514.0,524.0,539.0,473.0
533.0,519.0,516.0,549.0,494.0
529.0,516.0,504.0,543.0,524.0
530.0,521.0,497.0,541.0,532.0
515.0,517.0,487.0,531.0,544.0
504.0,511.0,480.0,521.0,542.0
502.0,512.0,486.0,515.0,541.0
500.0,507.0,491.0,508.0,538.0
512.0,505.0,495.0,496.0,533.0
510.0,503.0,506.0,494.0,526.0
511.0,498.0,513.0,492.0,517.0
508.0,493.0,520.0,486.0,521.0
503.0,492.0,521.0,485.0,525.0
512.0,490.0,524.0,497.0,514.0
516.0,495.0,525.0,504.0,490.0
521.0,503.0,532.0,523.0,480.0
531.0,510.0,530.0,533.0,504.0
533.0,517.0,523.0,542.0,523.0
537.0,521.0,515.0,549.0,496.0
527.0,519.0,503.0,544.0,485.0
522.0,522.0,499.0,545.0,481.0
508.0,512.0,482.0,536.0,497.0
495.0,510.0,482.0,522.0,502.0
498.0,510.0,491.0,514.0,506.0
498.0,507.0,496.0,505.0,521.0
495.0,500.0,500.0,497.0,523.0
503.0,499.0,508.0,489.0,534.0
507.0,497.0,514.0,485.0,525.0
508.0,491.0,518.0,484.0,526.0
514.0,491.0,522.0,488.0,527.0
524.0,496.0,531.0,499.0,513.0
526.0,499.0,527.0,506.0,505.0
537.0,502.0,524.0,519.0,492.0
539.0,511.0,523.0,535.0,482.0
530.0,516.0,519.0,546.0,480.0
535.0,522.0,510.0,548.0,482.0
523.0,522.0,502.0,548.0,497.0
517.0,519.0,492.0,538.0,515.0
505.0,514.0,485.0,523.0,540.0
497.0,510.0,484.0,514.0,542.0
496.0,508.0,490.0,504.0,547.0
487.0,504.0,495.0,493.0,557.0
497.0,505.0,506.0,495.0,547.0
504.0,498.0,515.0,494.0,541.0
509.0,494.0,519.0,493.0,537.0
512.0,491.0,522.0,487.0,535.0
518.0,494.0,527.0,495.0,520.0
524.0,494.0,529.0,498.0,507.0
536.0,500.0,527.0,510.0,497.0
541.0,505.0,527.0,525.0,485.0
536.0,512.0,519.0,533.0,480.0
533.0,518.0,516.0,546.0,479.0
516.0,522.0,509.0,549.0,494.0
498.0,517.0,499.0,543.0,511.0
484.0,512.0,485.0,534.0,536.0
470.0,504.0,479.0,520.0,531.0
467.0,507.0,484.0,514.0,519.0
475.0,505.0,491.0,507.0,510.0
487.0,499.0,497.0,500.0,527.0
508.0,505.0,509.0,501.0,527.0
524.0,504.0,526.0,492.0,524.0
512.0,494.0,519.0,485.0,535.0
515.0,495.0,525.0,485.0,534.0
520.0,495.0,530.0,492.0,517.0
515.0,498.0,533.0,503.0,505.0
520.0,504.0,530.0,513.0,501.0
536.0,514.0,531.0,532.0,497.0
532.0,516.0,521.0,544.0,497.0
523.0,516.0,513.0,543.0,485.0
526.0,517.0,500.0,541.0,507.0
538.0,521.0,495.0,543.0,494.0
521.0,514.0,484.0,531.0,491.0
494.0,508.0,479.0,517.0,502.0
489.0,507.0,484.0,508.0,512.0
488.0,505.0,497.0,503.0,510.0
484.0,502.0,503.0,497.0,520.0
476.0,498.0,511.0,494.0,525.0
465.0,491.0,515.0,489.0,540.0
463.0,487.0,517.0,486.0,543.0
481.0,492.0,528.0,495.0,553.0
485.0,494.0,530.0,499.0,526.0
501.0,495.0,525.0,506.0,497.0
560.0,510.0,531.0,524.0,490.0
587.0,520.0,528.0,536.0,463.0
575.0,524.0,523.0,549.0,459.0
558.0,521.0,510.0,548.0,469.0
547.0,520.0,499.0,544.0,490.0
547.0,520.0,491.0,541.0,481.0
530.0,514.0,483.0,530.0,494.0
527.0,514.0,488.0,520.0,515.0
510.0,509.0,489.0,505.0,546.0
501.0,505.0,496.0,495.0,577.0
499.0,499.0,500.0,487.0,566.0
511.0,501.0,514.0,489.0,555.0
512.0,495.0,517.0,485.0,517.0
516.0,493.0,524.0,488.0,510.0
515.0,492.0,526.0,492.0,500.0
522.0,496.0,527.0,502.0,491.0
527.0,501.0,530.0,511.0,504.0
533.0,505.0,525.0,524.0,506.0
537.0,515.0,529.0,537.0,504.0
529.0,520.0,518.0,547.0,496.0
523.0,520.0,507.0,544.0,490.0
527.0,518.0,497.0,545.0,480.0
515.0,513.0,483.0,531.0,495.0
505.0,508.0,480.0,520.0,519.0
500.0,512.0,486.0,511.0,533.0
495.0,508.0,495.0,500.0,534.0
496.0,502.0,496.0,491.0,513.0
503.0,500.0,507.0,489.0,518.0
505.0,497.0,516.0,488.0,524.0
508.0,492.0,520.0,482.0,522.0
508.0,492.0,527.0,483.0,501.0
520.0,495.0,530.0,495.0,487.0
526.0,496.0,529.0,504.0,496.0
530.0,503.0,530.0,516.0,511.0
543.0,511.0,529.0,531.0,499.0
538.0,517.0,523.0,540.0,530.0
533.0,526.0,515.0,550.0,519.0
523.0,521.0,503.0,541.0,522.0
517.0,518.0,494.0,535.0,512.0
499.0,515.0,484.0,524.0,521.0
493.0,512.0,483.0,516.0,525.0
489.0,509.0,485.0,506.0,534.0
492.0,508.0,497.0,501.0,526.0
488.0,501.0,503.0,491.0,532.0
496.0,498.0,511.0,487.0,524.0
509.0,497.0,522.0,485.0,518.0
508.0,492.0,520.0,481.0,534.0
518.0,496.0,527.0,486.0,534.0
520.0,496.0,529.0,493.0,525.0
528.0,500.0,533.0,503.0,520.0
533.0,507.0,529.0,519.0,498.0
535.0,513.0,527.0,532.0,486.0
533.0,517.0,518.0,542.0,482.0
527.0,517.0,508.0,541.0,494.0
514.0,517.0,500.0,541.0,504.0
507.0,516.0,491.0,534.0,516.0
496.0,513.0,485.0,525.0,501.0
501.0,512.0,487.0,515.0,508.0
490.0,509.0,492.0,504.0,541.0
491.0,503.0,497.0,496.0,544.0
505.0,502.0,509.0,492.0,514.0
525.0,501.0,517.0,493.0,497.0
530.0,495.0,518.0,484.0,516.0
523.0,492.0,519.0,478.0,520.0
528.0,488.0,522.0,480.0,509.0
533.0,496.0,528.0,497.0,507.0
527.0,502.0,530.0,510.0,501.0
522.0,506.0,528.0,524.0,500.0
526.0,514.0,526.0,534.0,496.0
526.0,517.0,517.0,541.0,481.0
528.0,520.0,507.0,541.0,485.0
517.0,518.0,499.0,537.0,501.0
510.0,514.0,490.0,528.0,507.0
506.0,510.0,484.0,518.0,517.0
495.0,509.0,487.0,509.0,531.0
483.0,506.0,494.0,501.0,542.0
475.0,501.0,502.0,492.0,548.0
481.0,502.0,514.0,492.0,550.0
494.0,499.0,520.0,486.0,524.0
502.0,490.0,519.0,480.0,517.0
516.0,491.0,525.0,483.0,517.0
527.0,493.0,526.0,488.0,522.0
523.0,496.0,530.0,497.0,530.0
536.0,503.0,529.0,512.0,504.0
547.0,511.0,528.0,527.0,483.0
546.0,516.0,522.0,535.0,479.0
541.0,521.0,515.0,541.0,483.0
529.0,521.0,504.0,540.0,487.0
521.0,518.0,493.0,533.0,504.0
499.0,515.0,487.0,524.0,533.0
479.0,510.0,484.0,511.0,550.0
485.0,512.0,495.0,504.0,552.0
488.0,510.0,500.0,495.0,569.0
496.0,504.0,506.0,489.0,543.0
502.0,500.0,515.0,485.0,520.0
505.0,498.0,522.0,486.0,515.0
503.0,493.0,522.0,483.0,507.0
512.0,489.0,524.0,478.0,500.0
523.0,496.0,529.0,491.0,515.0
524.0,501.0,529.0,500.0,505.0
531.0,507.0,530.0,513.0,493.0
535.0,513.0,527.0,526.0,482.0
538.0,517.0,519.0,534.0,476.0
528.0,519.0,511.0,539.0,481.0
519.0,519.0,501.0,536.0,493.0
506.0,515.0,490.0,526.0,514.0
497.0,512.0,486.0,520.0,525.0
501.0,514.0,490.0,511.0,540.0
498.0,507.0,488.0,495.0,545.0
502.0,504.0,498.0,492.0,532.0
508.0,501.0,507.0,483.0,532.0
514.0,499.0,517.0,481.0,523.0
511.0,492.0,520.0,478.0,517.0
512.0,490.0,526.0,473.0,510.0
515.0,488.0,528.0,481.0,485.0
525.0,495.0,530.0,491.0,476.0
532.0,502.0,533.0,503.0,485.0
535.0,509.0,531.0,513.0,497.0
547.0,515.0,525.0,526.0,484.0
545.0,520.0,519.0,533.0,475.0
533.0,517.0,507.0,531.0,496.0
527.0,519.0,501.0,530.0,509.0
507.0,517.0,487.0,518.0,528.0
492.0,511.0,487.0,511.0,537.0
481.0,510.0,494.0,504.0,543.0
486.0,507.0,500.0,497.0,541.0
490.0,502.0,504.0,482.0,548.0
492.0,502.0,515.0,479.0,550.0
493.0,496.0,523.0,474.0,543.0
502.0,489.0,521.0,470.0,528.0
511.0,492.0,528.0,473.0,520.0
515.0,492.0,530.0,479.0,514.0
526.0,499.0,534.0,492.0,508.0
532.0,502.0,531.0,503.0,490.0
542.0,510.0,531.0,518.0,481.0
543.0,514.0,523.0,528.0,481.0
536.0,519.0,517.0,533.0,488.0
524.0,518.0,505.0,529.0,500.0
519.0,517.0,496.0,525.0,501.0
504.0,518.0,487.0,519.0,518.0
498.0,511.0,487.0,508.0,529.0
494.0,508.0,489.0,494.0,528.0
497.0,505.0,504.0,488.0,522.0
500.0,501.0,506.0,482.0,525.0
505.0,499.0,514.0,477.0,519.0
513.0,497.0,523.0,476.0,514.0
513.0,492.0,523.0,471.0,513.0
516.0,492.0,528.0,475.0,522.0
520.0,494.0,536.0,485.0,518.0
522.0,499.0,531.0,498.0,506.0
536.0,508.0,534.0,512.0,488.0
544.0,513.0,531.0,521.0,487.0
529.0,520.0,521.0,530.0,496.0
520.0,519.0,511.0,528.0,502.0
513.0,517.0,501.0,527.0,506.0
504.0,514.0,491.0,524.0,527.0
498.0,512.0,487.0,508.0,536.0
498.0,514.0,491.0,503.0,540.0
490.0,507.0,493.0,492.0,537.0
491.0,503.0,505.0,484.0,536.0
500.0,500.0,508.0,480.0,531.0
501.0,498.0,516.0,477.0,525.0
499.0,493.0,520.0,474.0,521.0
502.0,488.0,528.0,472.0,524.0
516.0,492.0,529.0,478.0,511.0
520.0,495.0,531.0,489.0,501.0
526.0,504.0,533.0,506.0,488.0
532.0,508.0,534.0,511.0,481.0
535.0,514.0,525.0,526.0,478.0
531.0,520.0,521.0,534.0,487.0
519.0,518.0,508.0,530.0,503.0
518.0,519.0,505.0,528.0,514.0
509.0,516.0,486.0,517.0,526.0
502.0,509.0,482.0,505.0,537.0
496.0,510.0,491.0,499.0,543.0
494.0,507.0,497.0,494.0,532.0
496.0,506.0,504.0,485.0,532.0
496.0,499.0,511.0,479.0,538.0
502.0,497.0,519.0,478.0,528.0
502.0,491.0,520.0,474.0,513.0
514.0,494.0,527.0,478.0,513.0
518.0,493.0,531.0,486.0,508.0
524.0,496.0,531.0,493.0,500.0
532.0,503.0,533.0,508.0,496.0
536.0,511.0,533.0,520.0,485.0
536.0,515.0,523.0,530.0,491.0
529.0,520.0,517.0,540.0,494.0
516.0,517.0,503.0,531.0,497.0
515.0,513.0,493.0,527.0,512.0
507.0,514.0,489.0,521.0,505.0
494.0,509.0,486.0,505.0,517.0
494.0,506.0,494.0,497.0,534.0
498.0,505.0,499.0,491.0,532.0
497.0,502.0,506.0,484.0,530.0
502.0,500.0,518.0,482.0,522.0
501.0,493.0,520.0,475.0,526.0
506.0,490.0,521.0,473.0,518.0
519.0,493.0,529.0,479.0,502.0
520.0,491.0,529.0,487.0,502.0
534.0,498.0,532.0,498.0,495.0
540.0,506.0,531.0,516.0,480.0
540.0,512.0,529.0,527.0,481.0
533.0,515.0,518.0,531.0,488.0
528.0,518.0,510.0,533.0,488.0
518.0,517.0,502.0,532.0,493.0
503.0,513.0,492.0,523.0,524.0
494.0,510.0,484.0,510.0,540.0
497.0,508.0,487.0,502.0,535.0
497.0,507.0,494.0,496.0,532.0
496.0,504.0,502.0,492.0,534.0
503.0,499.0,509.0,482.0,529.0
510.0,501.0,518.0,481.0,529.0
503.0,493.0,523.0,476.0,526.0
502.0,491.0,525.0,476.0,506.0
513.0,493.0,528.0,481.0,491.0
522.0,494.0,530.0,491.0,494.0
527.0,503.0,533.0,505.0,501.0
526.0,507.0,530.0,516.0,500.0
531.0,514.0,525.0,527.0,492.0
534.0,520.0,523.0,534.0,490.0
523.0,517.0,508.0,537.0,509.0
512.0,518.0,500.0,532.0,510.0
504.0,514.0,489.0,522.0,524.0
503.0,513.0,487.0,514.0,523.0
500.0,507.0,488.0,504.0,528.0
501.0,506.0,497.0,498.0,523.0
495.0,500.0,504.0,490.0,519.0
496.0,503.0,513.0,485.0,524.0
500.0,498.0,518.0,477.0,525.0
503.0,492.0,520.0,474.0,527.0
510.0,495.0,525.0,475.0,527.0
520.0,494.0,531.0,486.0,511.0
524.0,495.0,530.0,494.0,501.0
533.0,505.0,532.0,507.0,493.0
537.0,511.0,531.0,523.0,488.0
532.0,517.0,524.0,533.0,492.0
527.0,519.0,516.0,537.0,497.0
520.0,518.0,506.0,534.0,504.0
509.0,515.0,494.0,529.0,513.0
499.0,514.0,488.0,519.0,524.0
498.0,512.0,485.0,508.0,529.0
491.0,508.0,492.0,501.0,531.0
490.0,505.0,497.0,493.0,530.0
491.0,502.0,507.0,488.0,533.0
495.0,500.0,513.0,481.0,525.0
504.0,497.0,522.0,481.0,521.0
503.0,493.0,522.0,475.0,519.0
510.0,493.0,530.0,483.0,511.0
524.0,497.0,532.0,494.0,502.0
528.0,500.0,532.0,501.0,499.0
529.0,507.0,534.0,514.0,493.0
533.0,512.0,526.0,526.0,488.0
535.0,519.0,520.0,536.0,490.0
533.0,521.0,511.0,538.0,495.0
522.0,518.0,500.0,534.0,502.0
506.0,513.0,489.0,526.0,516.0
494.0,511.0,485.0,517.0,526.0
489.0,509.0,487.0,509.0,535.0
485.0,507.0,493.0,499.0,537.0
489.0,503.0,501.0,492.0,538.0
500.0,500.0,509.0,485.0,530.0
500.0,497.0,517.0,482.0,517.0
507.0,495.0,523.0,482.0,516.0
514.0,489.0,522.0,477.0,513.0
519.0,492.0,529.0,485.0,510.0
523.0,494.0,529.0,494.0,501.0
529.0,503.0,533.0,507.0,493.0
535.0,509.0,531.0,521.0,493.0
536.0,514.0,525.0,531.0,492.0
533.0,520.0,519.0,538.0,499.0
522.0,518.0,509.0,535.0,502.0
515.0,516.0,499.0,535.0,506.0
504.0,516.0,484.0,523.0,511.0
498.0,507.0,483.0,512.0,521.0
496.0,507.0,489.0,507.0,528.0
497.0,506.0,496.0,497.0,529.0
496.0,500.0,501.0,488.0,530.0
503.0,500.0,513.0,486.0,524.0
507.0,495.0,519.0,481.0,519.0
506.0,491.0,522.0,482.0,520.0
511.0,491.0,528.0,483.0,515.0
520.0,493.0,532.0,490.0,508.0
524.0,496.0,531.0,499.0,504.0
527.0,501.0,531.0,511.0,494.0
536.0,514.0,530.0,526.0,492.0
532.0,513.0,523.0,536.0,490.0
527.0,517.0,515.0,536.0,485.0
519.0,520.0,506.0,537.0,502.0
507.0,515.0,494.0,529.0,513.0
501.0,511.0,486.0,520.0,521.0
496.0,511.0,488.0,513.0,528.0
493.0,508.0,491.0,507.0,529.0
496.0,506.0,501.0,498.0,533.0
495.0,505.0,506.0,490.0,524.0
503.0,500.0,516.0,487.0,507.0
508.0,497.0,520.0,484.0,519.0
504.0,488.0,521.0,476.0,521.0
515.0,492.0,529.0,484.0,516.0
524.0,494.0,530.0,493.0,503.0
532.0,498.0,531.0,503.0,492.0
541.0,506.0,532.0,520.0,492.0
535.0,511.0,531.0,531.0,497.0
538.0,519.0,518.0,535.0,493.0
535.0,519.0,510.0,539.0,496.0
526.0,520.0,505.0,539.0,499.0
508.0,514.0,490.0,529.0,508.0
496.0,509.0,485.0,519.0,518.0
494.0,510.0,488.0,511.0,527.0
487.0,505.0,493.0,499.0,533.0
495.0,504.0,507.0,495.0,533.0
500.0,501.0,511.0,492.0,525.0
500.0,497.0,517.0,487.0,521.0
508.0,494.0,523.0,484.0,515.0
503.0,489.0,524.0,483.0,508.0
511.0,490.0,529.0,490.0,503.0
525.0,496.0,531.0,498.0,497.0
527.0,501.0,531.0,509.0,497.0
535.0,510.0,532.0,525.0,492.0
533.0,513.0,528.0,533.0,493.0
536.0,519.0,515.0,538.0,493.0
529.0,520.0,509.0,538.0,499.0
517.0,517.0,498.0,535.0,508.0
504.0,514.0,488.0,527.0,523.0
493.0,509.0,485.0,516.0,532.0
494.0,509.0,491.0,507.0,534.0
495.0,505.0,496.0,500.0,535.0
499.0,502.0,505.0,494.0,537.0
506.0,502.0,512.0,491.0,528.0
510.0,497.0,519.0,487.0,524.0
510.0,492.0,523.0,485.0,519.0
511.0,488.0,524.0,484.0,520.0
516.0,493.0,531.0,493.0,518.0
522.0,498.0,532.0,505.0,500.0
529.0,504.0,534.0,519.0,492.0
535.0,510.0,528.0,529.0,487.0
535.0,516.0,519.0,536.0,486.0
528.0,520.0,513.0,541.0,492.0
522.0,519.0,505.0,540.0,496.0
511.0,516.0,493.0,533.0,510.0
495.0,511.0,486.0,523.0,521.0
493.0,511.0,489.0,515.0,532.0
489.0,506.0,491.0,506.0,542.0
493.0,506.0,501.0,500.0,541.0
492.0,500.0,505.0,490.0,537.0
502.0,500.0,518.0,491.0,533.0
506.0,495.0,519.0,486.0,526.0
508.0,492.0,523.0,485.0,526.0
516.0,493.0,528.0,493.0,516.0
526.0,496.0,531.0,499.0,497.0
533.0,502.0,531.0,512.0,488.0
536.0,513.0,531.0,527.0,483.0
541.0,517.0,527.0,536.0,478.0
539.0,519.0,520.0,542.0,481.0
529.0,518.0,510.0,541.0,487.0
522.0,519.0,499.0,540.0,493.0
505.0,515.0,490.0,532.0,518.0
497.0,511.0,484.0,522.0,525.0
490.0,511.0,490.0,512.0,537.0
488.0,505.0,494.0,503.0,548.0
493.0,502.0,501.0,495.0,544.0
494.0,501.0,511.0,494.0,535.0
501.0,499.0,520.0,490.0,526.0
511.0,494.0,521.0,485.0,523.0
513.0,490.0,522.0,484.0,517.0
521.0,491.0,528.0,494.0,507.0
521.0,496.0,528.0,501.0,503.0
530.0,507.0,530.0,519.0,495.0
536.0,508.0,527.0,527.0,487.0
535.0,514.0,522.0,538.0,488.0
535.0,520.0,517.0,545.0,490.0
525.0,518.0,506.0,542.0,502.0
514.0,519.0,499.0,540.0,508.0
498.0,511.0,485.0,527.0,523.0
492.0,511.0,488.0,516.0,531.0
491.0,508.0,491.0,508.0,532.0
492.0,507.0,498.0,504.0,533.0
495.0,504.0,505.0,496.0,533.0
500.0,501.0,513.0,492.0,524.0
508.0,497.0,519.0,486.0,518.0
512.0,494.0,526.0,487.0,517.0
517.0,494.0,528.0,490.0,513.0
524.0,494.0,531.0,498.0,507.0
524.0,497.0,528.0,503.0,499.0
532.0,506.0,531.0,518.0,496.0
532.0,513.0,527.0,531.0,494.0
536.0,517.0,519.0,543.0,492.0
524.0,518.0,512.0,541.0,503.0
516.0,524.0,504.0,542.0,513.0
505.0,521.0,493.0,537.0,521.0
498.0,513.0,490.0,523.0,526.0
498.0,513.0,491.0,520.0,530.0
494.0,507.0,491.0,504.0,521.0
493.0,504.0,497.0,498.0,529.0
496.0,499.0,506.0,488.0,528.0
506.0,500.0,517.0,490.0,530.0
501.0,494.0,520.0,488.0,525.0
504.0,493.0,525.0,483.0,523.0
510.0,493.0,529.0,490.0,513.0
523.0,496.0,530.0,498.0,504.0
530.0,499.0,529.0,508.0,497.0
533.0,506.0,527.0,522.0,486.0
538.0,513.0,526.0,533.0,481.0
538.0,520.0,519.0,544.0,480.0
529.0,520.0,513.0,543.0,492.0
524.0,520.0,502.0,543.0,496.0
513.0,514.0,489.0,528.0,518.0
503.0,511.0,484.0,519.0,527.0
499.0,511.0,489.0,514.0,529.0
493.0,509.0,496.0,505.0,529.0
492.0,501.0,500.0,495.0,529.0
495.0,504.0,511.0,494.0,528.0
502.0,505.0,519.0,490.0,525.0
505.0,495.0,522.0,485.0,521.0
514.0,495.0,526.0,488.0,515.0
517.0,494.0,531.0,491.0,507.0
523.0,497.0,529.0,504.0,508.0
531.0,503.0,530.0,514.0,496.0
537.0,511.0,530.0,529.0,493.0
537.0,515.0,522.0,539.0,485.0
537.0,520.0,517.0,546.0,487.0
525.0,520.0,507.0,542.0,496.0
518.0,520.0,499.0,539.0,509.0
503.0,512.0,488.0,525.0,523.0
493.0,511.0,488.0,519.0,533.0
490.0,509.0,491.0,510.0,532.0
493.0,507.0,502.0,502.0,533.0
495.0,502.0,506.0,494.0,534.0
502.0,501.0,515.0,493.0,527.0
508.0,497.0,521.0,490.0,524.0
505.0,494.0,524.0,487.0,524.0
508.0,493.0,526.0,487.0,518.0
521.0,494.0,532.0,500.0,505.0
526.0,498.0,530.0,508.0,492.0
531.0,506.0,531.0,520.0,489.0
535.0,510.0,528.0,531.0,484.0
538.0,514.0,519.0,539.0,477.0
532.0,519.0,513.0,542.0,487.0
522.0,521.0,509.0,542.0,509.0
509.0,516.0,494.0,534.0,518.0
498.0,512.0,489.0,522.0,531.0
492.0,510.0,490.0,515.0,534.0
486.0,506.0,494.0,507.0,538.0
493.0,505.0,502.0,501.0,535.0
502.0,500.0,508.0,493.0,525.0
508.0,499.0,515.0,490.0,519.0
510.0,494.0,522.0,488.0,519.0
509.0,491.0,523.0,486.0,514.0
514.0,491.0,528.0,489.0,506.0
526.0,496.0,532.0,500.0,502.0
533.0,499.0,528.0,509.0,492.0
536.0,507.0,531.0,524.0,488.0
539.0,514.0,526.0,536.0,485.0
537.0,520.0,521.0,543.0,486.0
527.0,519.0,510.0,543.0,498.0
521.0,524.0,502.0,541.0,506.0
504.0,513.0,489.0,528.0,522.0
498.0,510.0,487.0,520.0,534.0
502.0,509.0,491.0,513.0,530.0
496.0,505.0,494.0,504.0,531.0
492.0,500.0,506.0,495.0,530.0
498.0,501.0,511.0,492.0,521.0
497.0,496.0,518.0,489.0,520.0
503.0,494.0,524.0,486.0,522.0
500.0,494.0,525.0,484.0,516.0
513.0,495.0,531.0,494.0,509.0
524.0,498.0,530.0,503.0,500.0
535.0,505.0,532.0,516.0,493.0
541.0,510.0,530.0,528.0,487.0
536.0,514.0,522.0,535.0,493.0
530.0,520.0,517.0,542.0,500.0
525.0,521.0,508.0,543.0,505.0
514.0,518.0,500.0,539.0,512.0
506.0,512.0,488.0,526.0,525.0
496.0,509.0,485.0,515.0,530.0
494.0,508.0,491.0,508.0,537.0
496.0,508.0,500.0,502.0,534.0
497.0,502.0,506.0,492.0,529.0
502.0,501.0,515.0,491.0,525.0
502.0,499.0,521.0,489.0,519.0
508.0,494.0,524.0,485.0,515.0
512.0,491.0,527.0,487.0,513.0
516.0,495.0,534.0,496.0,509.0
526.0,498.0,532.0,505.0,504.0
532.0,504.0,531.0,518.0,501.0
543.0,510.0,528.0,533.0,493.0
542.0,518.0,522.0,542.0,491.0
531.0,521.0,519.0,543.0,500.0
524.0,521.0,504.0,538.0,505.0
511.0,513.0,492.0,532.0,513.0
502.0,513.0,488.0,525.0,522.0
493.0,508.0,485.0,513.0,533.0
488.0,509.0,495.0,508.0,536.0
493.0,505.0,501.0,502.0,525.0
493.0,500.0,508.0,495.0,513.0
497.0,499.0,515.0,490.0,512.0
503.0,500.0,521.0,489.0,522.0
504.0,491.0,522.0,483.0,521.0
514.0,495.0,526.0,491.0,514.0
522.0,496.0,530.0,499.0,510.0
525.0,499.0,530.0,509.0,501.0
529.0,507.0,529.0,520.0,494.0
532.0,513.0,526.0,534.0,492.0
532.0,518.0,519.0,543.0,486.0
523.0,519.0,508.0,541.0,492.0
518.0,518.0,503.0,546.0,503.0
503.0,513.0,489.0,530.0,519.0
500.0,511.0,486.0,524.0,533.0
497.0,509.0,489.0,511.0,540.0
497.0,506.0,496.0,504.0,537.0
496.0,505.0,504.0,498.0,534.0
500.0,502.0,512.0,493.0,530.0
503.0,497.0,519.0,490.0,524.0
508.0,495.0,524.0,488.0,515.0
512.0,490.0,523.0,485.0,506.0
519.0,493.0,528.0,498.0,504.0
525.0,498.0,529.0,503.0,501.0
531.0,504.0,532.0,517.0,497.0
538.0,510.0,530.0,528.0,485.0
541.0,515.0,521.0,538.0,485.0
535.0,520.0,518.0,544.0,492.0
521.0,519.0,507.0,542.0,502.0
517.0,520.0,501.0,538.0,511.0
501.0,512.0,489.0,528.0,525.0
493.0,510.0,488.0,517.0,534.0
492.0,509.0,493.0,512.0,535.0
495.0,506.0,502.0,503.0,533.0
495.0,501.0,505.0,493.0,530.0
505.0,501.0,517.0,493.0,526.0
505.0,496.0,521.0,488.0,520.0
505.0,494.0,523.0,487.0,522.0
512.0,492.0,527.0,488.0,514.0
521.0,494.0,532.0,497.0,508.0
529.0,500.0,531.0,506.0,505.0
531.0,504.0,529.0,518.0,493.0
537.0,510.0,527.0,532.0,491.0
534.0,517.0,522.0,540.0,491.0
529.0,520.0,516.0,542.0,493.0
519.0,520.0,505.0,541.0,502.0
509.0,514.0,494.0,533.0,519.0
498.0,512.0,488.0,523.0,528.0
494.0,509.0,489.0,516.0,533.0
494.0,508.0,495.0,507.0,535.0
495.0,505.0,501.0,499.0,531.0
503.0,502.0,510.0,496.0,533.0
507.0,502.0,518.0,494.0,525.0
502.0,491.0,521.0,489.0,516.0
506.0,491.0,525.0,486.0,517.0
518.0,491.0,524.0,488.0,510.0
523.0,497.0,531.0,499.0,502.0
524.0,500.0,529.0,510.0,497.0
536.0,508.0,531.0,525.0,492.0
537.0,513.0,526.0,534.0,492.0
532.0,516.0,517.0,539.0,494.0
529.0,519.0,509.0,541.0,503.0
514.0,519.0,501.0,538.0,508.0
503.0,514.0,491.0,529.0,527.0
493.0,509.0,487.0,519.0,533.0
496.0,510.0,492.0,511.0,533.0
494.0,506.0,495.0,503.0,537.0
498.0,503.0,505.0,497.0,535.0
506.0,501.0,512.0,492.0,525.0
508.0,498.0,519.0,490.0,520.0
507.0,493.0,523.0,485.0,518.0
516.0,492.0,527.0,487.0,513.0
521.0,493.0,532.0,495.0,508.0
526.0,496.0,530.0,504.0,503.0
529.0,503.0,532.0,515.0,499.0
534.0,510.0,530.0,526.0,493.0
534.0,514.0,523.0,536.0,485.0
532.0,519.0,520.0,542.0,490.0
524.0,520.0,508.0,542.0,492.0
515.0,517.0,500.0,541.0,501.0
504.0,514.0,488.0,526.0,519.0
493.0,511.0,489.0,519.0,534.0
499.0,509.0,492.0,509.0,537.0
495.0,505.0,499.0,501.0,541.0
495.0,502.0,507.0,493.0,542.0
501.0,499.0,514.0,490.0,528.0
507.0,495.0,523.0,486.0,521.0
509.0,492.0,524.0,485.0,518.0
514.0,492.0,528.0,489.0,515.0
517.0,495.0,532.0,498.0,503.0
528.0,501.0,532.0,507.0,496.0
534.0,508.0,531.0,520.0,487.0
533.0,512.0,528.0,533.0,486.0
533.0,516.0,521.0,539.0,490.0
527.0,520.0,513.0,542.0,498.0
518.0,519.0,507.0,546.0,504.0
505.0,515.0,493.0,532.0,522.0
497.0,513.0,491.0,523.0,531.0
491.0,512.0,490.0,514.0,532.0
495.0,509.0,495.0,505.0,534.0
498.0,506.0,502.0,499.0,532.0
498.0,505.0,509.0,492.0,530.0
505.0,500.0,519.0,490.0,525.0
508.0,496.0,528.0,487.0,522.0
509.0,491.0,523.0,484.0,521.0
516.0,492.0,532.0,488.0,515.0
522.0,496.0,531.0,500.0,504.0
529.0,501.0,534.0,510.0,499.0
533.0,508.0,530.0,526.0,488.0
536.0,514.0,527.0,536.0,485.0
538.0,519.0,522.0,544.0,486.0
528.0,521.0,510.0,545.0,491.0
521.0,519.0,503.0,543.0,497.0
506.0,514.0,493.0,531.0,516.0
497.0,511.0,488.0,521.0,530.0
499.0,511.0,489.0,511.0,529.0
493.0,505.0,495.0,501.0,532.0
494.0,503.0,504.0,496.0,532.0
497.0,500.0,511.0,496.0,527.0
502.0,498.0,520.0,489.0,528.0
501.0,493.0,523.0,486.0,526.0
510.0,493.0,526.0,486.0,522.0
520.0,498.0,530.0,494.0,513.0
530.0,498.0,529.0,503.0,502.0
534.0,504.0,531.0,517.0,498.0
539.0,513.0,531.0,532.0,488.0
537.0,515.0,522.0,539.0,490.0
539.0,520.0,517.0,546.0,492.0
525.0,519.0,506.0,542.0,497.0
519.0,521.0,498.0,539.0,506.0
501.0,513.0,488.0,527.0,526.0
493.0,509.0,486.0,516.0,535.0
490.0,507.0,492.0,512.0,532.0
493.0,507.0,501.0,504.0,528.0
493.0,501.0,506.0,493.0,526.0
500.0,499.0,516.0,496.0,522.0
506.0,497.0,522.0,493.0,517.0
505.0,492.0,522.0,486.0,518.0
513.0,492.0,528.0,490.0,509.0
519.0,492.0,531.0,500.0,502.0
524.0,499.0,531.0,508.0,500.0
527.0,504.0,534.0,519.0,493.0
533.0,511.0,528.0,533.0,487.0
534.0,515.0,519.0,541.0,488.0
524.0,517.0,511.0,542.0,495.0
518.0,522.0,505.0,544.0,502.0
508.0,518.0,492.0,540.0,516.0
501.0,512.0,487.0,524.0,522.0
500.0,512.0,492.0,518.0,530.0
490.0,507.0,493.0,506.0,535.0
495.0,507.0,502.0,500.0,535.0
501.0,500.0,508.0,492.0,530.0
499.0,499.0,517.0,490.0,524.0
499.0,494.0,521.0,486.0,521.0
505.0,490.0,524.0,486.0,521.0
514.0,492.0,529.0,491.0,512.0
522.0,496.0,530.0,501.0,509.0
529.0,500.0,530.0,516.0,494.0
535.0,509.0,529.0,525.0,491.0
537.0,515.0,527.0,534.0,487.0
534.0,519.0,520.0,542.0,484.0
529.0,522.0,510.0,543.0,491.0
519.0,519.0,504.0,541.0,496.0
504.0,513.0,490.0,532.0,515.0
492.0,508.0,485.0,520.0,525.0
489.0,508.0,489.0,511.0,536.0
496.0,509.0,497.0,504.0,542.0
493.0,502.0,504.0,493.0,537.0
499.0,502.0,513.0,494.0,534.0
502.0,498.0,520.0,490.0,530.0
508.0,493.0,524.0,488.0,528.0
504.0,488.0,525.0,486.0,521.0
517.0,494.0,529.0,496.0,505.0
522.0,495.0,528.0,502.0,501.0
535.0,507.0,530.0,517.0,491.0
538.0,511.0,530.0,532.0,481.0
539.0,514.0,522.0,542.0,483.0
533.0,520.0,516.0,548.0,491.0
528.0,519.0,506.0,543.0,501.0
516.0,518.0,498.0,538.0,512.0
502.0,514.0,489.0,532.0,522.0
494.0,509.0,488.0,517.0,528.0
497.0,509.0,491.0,510.0,531.0
493.0,505.0,500.0,502.0,533.0
503.0,502.0,510.0,494.0,527.0
497.0,499.0,514.0,491.0,520.0
505.0,498.0,523.0,490.0,519.0
511.0,493.0,522.0,485.0,509.0
516.0,493.0,528.0,490.0,507.0
520.0,494.0,529.0,497.0,504.0
529.0,499.0,529.0,510.0,498.0
533.0,503.0,528.0,520.0,492.0
534.0,511.0,526.0,532.0,489.0
531.0,516.0,520.0,544.0,489.0
526.0,518.0,512.0,544.0,495.0
521.0,521.0,507.0,545.0,503.0
509.0,512.0,489.0,531.0,516.0
499.0,512.0,488.0,527.0,528.0
491.0,507.0,488.0,514.0,530.0
493.0,508.0,495.0,507.0,532.0
494.0,502.0,501.0,497.0,530.0
498.0,500.0,512.0,491.0,529.0
502.0,498.0,517.0,489.0,522.0
510.0,501.0,523.0,488.0,518.0
511.0,493.0,524.0,488.0,515.0
519.0,492.0,526.0,492.0,506.0
523.0,496.0,530.0,504.0,501.0
527.0,500.0,531.0,512.0,496.0
533.0,507.0,529.0,524.0,494.0
534.0,513.0,525.0,533.0,486.0
533.0,519.0,519.0,545.0,486.0
526.0,521.0,512.0,543.0,495.0
516.0,520.0,503.0,546.0,501.0
502.0,513.0,490.0,529.0,518.0
497.0,510.0,486.0,521.0,530.0
494.0,509.0,491.0,509.0,534.0
497.0,511.0,499.0,504.0,535.0
495.0,502.0,504.0,496.0,530.0
499.0,498.0,512.0,492.0,527.0
507.0,499.0,521.0,491.0,522.0
509.0,494.0,523.0,486.0,519.0
514.0,493.0,528.0,488.0,516.0
516.0,494.0,529.0,494.0,503.0
521.0,495.0,531.0,507.0,500.0
530.0,503.0,532.0,516.0,491.0
541.0,509.0,528.0,532.0,484.0
542.0,514.0,522.0,540.0,488.0
533.0,519.0,516.0,543.0,494.0
519.0,518.0,505.0,540.0,502.0
518.0,518.0,499.0,539.0,511.0
501.0,510.0,488.0,525.0,522.0
492.0,509.0,487.0,515.0,534.0
493.0,512.0,492.0,507.0,534.0
492.0,504.0,498.0,499.0,535.0
492.0,501.0,507.0,495.0,538.0
498.0,499.0,516.0,492.0,528.0
502.0,495.0,523.0,491.0,521.0
504.0,492.0,524.0,485.0,519.0
510.0,490.0,527.0,488.0,513.0
523.0,495.0,532.0,499.0,500.0
525.0,498.0,531.0,509.0,493.0
535.0,504.0,530.0,523.0,484.0
534.0,511.0,527.0,535.0,484.0
540.0,519.0,522.0,543.0,487.0
532.0,520.0,514.0,544.0,498.0
521.0,520.0,504.0,543.0,502.0
509.0,517.0,497.0,533.0,516.0
498.0,512.0,488.0,523.0,530.0
494.0,511.0,490.0,515.0,533.0
492.0,507.0,496.0,507.0,532.0
496.0,504.0,504.0,504.0,534.0
496.0,499.0,508.0,492.0,533.0
504.0,498.0,520.0,493.0,525.0
507.0,495.0,523.0,488.0,519.0
513.0,495.0,525.0,488.0,514.0
517.0,493.0,525.0,491.0,509.0
527.0,496.0,531.0,502.0,501.0
530.0,503.0,532.0,516.0,491.0
533.0,509.0,533.0,528.0,489.0
532.0,518.0,526.0,539.0,490.0
531.0,520.0,518.0,546.0,493.0
518.0,519.0,508.0,544.0,497.0
521.0,522.0,504.0,543.0,505.0
505.0,512.0,489.0,530.0,522.0
493.0,510.0,485.0,520.0,531.0
499.0,510.0,495.0,513.0,532.0
501.0,509.0,499.0,506.0,534.0
498.0,503.0,504.0,497.0,525.0
501.0,499.0,510.0,492.0,521.0
507.0,499.0,521.0,491.0,522.0
509.0,495.0,524.0,484.0,518.0
519.0,496.0,529.0,489.0,515.0
518.0,491.0,529.0,494.0,508.0
525.0,498.0,530.0,504.0,506.0
533.0,505.0,531.0,520.0,491.0
540.0,513.0,527.0,534.0,484.0
540.0,515.0,521.0,540.0,487.0
531.0,520.0,515.0,543.0,496.0
519.0,519.0,504.0,542.0,501.0
517.0,520.0,499.0,542.0,509.0
502.0,512.0,487.0,527.0,526.0
494.0,512.0,489.0,517.0,534.0
490.0,507.0,491.0,508.0,536.0
496.0,508.0,501.0,503.0,534.0
495.0,502.0,508.0,494.0,529.0
501.0,500.0,517.0,493.0,528.0
504.0,496.0,521.0,488.0,522.0
507.0,496.0,524.0,488.0,523.0
513.0,493.0,526.0,493.0,515.0
522.0,496.0,531.0,501.0,510.0
526.0,498.0,528.0,512.0,501.0
533.0,506.0,528.0,522.0,489.0
540.0,513.0,527.0,536.0,483.0
536.0,519.0,522.0,544.0,485.0
530.0,520.0,513.0,545.0,495.0
520.0,520.0,504.0,547.0,502.0
510.0,514.0,493.0,533.0,519.0
495.0,510.0,486.0,523.0,528.0
495.0,512.0,490.0,515.0,532.0
492.0,507.0,494.0,506.0,531.0
494.0,502.0,501.0,500.0,531.0
498.0,501.0,509.0,494.0,530.0
503.0,498.0,518.0,489.0,523.0
507.0,495.0,526.0,488.0,520.0
510.0,492.0,524.0,488.0,514.0
517.0,492.0,528.0,493.0,508.0
527.0,497.0,532.0,503.0,501.0
536.0,502.0,535.0,518.0,494.0
533.0,506.0,528.0,530.0,486.0
532.0,512.0,523.0,538.0,491.0
535.0,520.0,516.0,544.0,496.0
527.0,520.0,512.0,544.0,502.0
519.0,521.0,503.0,543.0,506.0
502.0,511.0,493.0,531.0,525.0
496.0,510.0,486.0,520.0,531.0
492.0,509.0,490.0,515.0,536.0
491.0,508.0,498.0,507.0,533.0
490.0,500.0,503.0,494.0,534.0
502.0,501.0,514.0,495.0,530.0
504.0,497.0,520.0,491.0,523.0
508.0,494.0,523.0,491.0,521.0
512.0,498.0,527.0,489.0,512.0
516.0,492.0,527.0,495.0,506.0
519.0,496.0,529.0,505.0,505.0
525.0,504.0,530.0,518.0,496.0
534.0,512.0,528.0,533.0,488.0
533.0,514.0,523.0,541.0,490.0
532.0,520.0,514.0,545.0,495.0
525.0,521.0,506.0,545.0,501.0
518.0,518.0,499.0,541.0,511.0
502.0,514.0,488.0,528.0,525.0
499.0,510.0,488.0,522.0,531.0
495.0,507.0,491.0,510.0,531.0
490.0,504.0,499.0,502.0,533.0
498.0,503.0,506.0,495.0,532.0
501.0,501.0,516.0,492.0,526.0
504.0,497.0,523.0,490.0,527.0
506.0,493.0,524.0,487.0,520.0
513.0,493.0,528.0,492.0,516.0
519.0,494.0,529.0,499.0,509.0
526.0,500.0,530.0,509.0,503.0
536.0,505.0,530.0,526.0,492.0
541.0,512.0,527.0,536.0,489.0
534.0,517.0,520.0,543.0,489.0
529.0,518.0,510.0,543.0,490.0
522.0,520.0,509.0,543.0,500.0
508.0,514.0,490.0,533.0,519.0
499.0,511.0,487.0,525.0,526.0
498.0,509.0,488.0,521.0,530.0
496.0,506.0,497.0,506.0,533.0
494.0,501.0,503.0,496.0,533.0
497.0,499.0,514.0,492.0,531.0
500.0,498.0,517.0,489.0,526.0
507.0,494.0,525.0,486.0,523.0
508.0,491.0,525.0,486.0,514.0
514.0,489.0,527.0,492.0,508.0
522.0,492.0,528.0,500.0,501.0
529.0,501.0,529.0,513.0,504.0
533.0,506.0,527.0,526.0,491.0
534.0,509.0,521.0,535.0,486.0
531.0,516.0,517.0,543.0,489.0
524.0,519.0,508.0,543.0,500.0
518.0,518.0,501.0,542.0,506.0
500.0,511.0,489.0,528.0,523.0
493.0,508.0,490.0,519.0,534.0
493.0,508.0,486.0,509.0,537.0
494.0,506.0,496.0,504.0,535.0
496.0,501.0,504.0,496.0,532.0
500.0,501.0,512.0,494.0,525.0
506.0,498.0,521.0,488.0,520.0
507.0,492.0,523.0,487.0,518.0
514.0,493.0,529.0,487.0,517.0
515.0,492.0,529.0,495.0,513.0
523.0,499.0,531.0,506.0,505.0
529.0,503.0,529.0,517.0,493.0
536.0,511.0,529.0,532.0,487.0
539.0,515.0,520.0,539.0,488.0
530.0,520.0,514.0,544.0,492.0
523.0,518.0,505.0,542.0,503.0
519.0,519.0,499.0,540.0,516.0
501.0,511.0,487.0,524.0,528.0
490.0,513.0,488.0,516.0,536.0
487.0,507.0,492.0,509.0,536.0
491.0,506.0,502.0,503.0,532.0
493.0,501.0,505.0,495.0,530.0
501.0,500.0,518.0,492.0,527.0
501.0,495.0,522.0,487.0,529.0
505.0,492.0,524.0,486.0,527.0
510.0,491.0,526.0,490.0,515.0
522.0,495.0,531.0,499.0,506.0
526.0,500.0,530.0,510.0,498.0
531.0,509.0,531.0,524.0,493.0
539.0,513.0,525.0,539.0,486.0
534.0,516.0,520.0,543.0,490.0
529.0,521.0,510.0,543.0,498.0
522.0,521.0,506.0,544.0,508.0
504.0,511.0,489.0,532.0,520.0
497.0,511.0,488.0,525.0,527.0
490.0,509.0,489.0,515.0,532.0
492.0,508.0,497.0,505.0,533.0
495.0,502.0,502.0,501.0,529.0
497.0,501.0,510.0,493.0,533.0
500.0,500.0,518.0,492.0,524.0
507.0,497.0,524.0,489.0,519.0
508.0,492.0,525.0,487.0,516.0
514.0,492.0,528.0,492.0,509.0
524.0,495.0,532.0,501.0,504.0
534.0,503.0,531.0,516.0,488.0
540.0,509.0,531.0,529.0,488.0
534.0,515.0,524.0,536.0,492.0
533.0,520.0,522.0,545.0,493.0
525.0,521.0,508.0,543.0,499.0
517.0,520.0,505.0,542.0,508.0
503.0,514.0,489.0,530.0,518.0
493.0,509.0,491.0,520.0,529.0
489.0,508.0,492.0,513.0,531.0
490.0,506.0,498.0,506.0,533.0
500.0,503.0,506.0,493.0,535.0
503.0,500.0,514.0,492.0,531.0
502.0,498.0,521.0,492.0,529.0
516.0,499.0,523.0,488.0,523.0
518.0,491.0,527.0,489.0,515.0
523.0,496.0,530.0,499.0,507.0
523.0,498.0,529.0,504.0,507.0
529.0,502.0,529.0,516.0,500.0
533.0,510.0,528.0,531.0,492.0
537.0,516.0,520.0,540.0,491.0
530.0,520.0,516.0,546.0,493.0
519.0,518.0,504.0,542.0,499.0
517.0,520.0,498.0,539.0,513.0
502.0,513.0,489.0,527.0,523.0
492.0,510.0,489.0,517.0,532.0
488.0,507.0,496.0,506.0,536.0
495.0,506.0,498.0,499.0,534.0
499.0,500.0,511.0,495.0,532.0
509.0,497.0,516.0,492.0,524.0
505.0,491.0,520.0,487.0,521.0
508.0,495.0,527.0,488.0,519.0
510.0,492.0,531.0,489.0,512.0
522.0,497.0,533.0,502.0,505.0
525.0,500.0,531.0,506.0,496.0
531.0,506.0,532.0,523.0,491.0
533.0,518.0,526.0,539.0,488.0
538.0,518.0,522.0,544.0,490.0
531.0,523.0,510.0,542.0,501.0
522.0,521.0,505.0,544.0,509.0
504.0,513.0,489.0,532.0,523.0
500.0,513.0,487.0,525.0,531.0
496.0,509.0,489.0,512.0,536.0
492.0,508.0,497.0,504.0,538.0
494.0,504.0,501.0,496.0,533.0
499.0,500.0,509.0,490.0,531.0
504.0,497.0,519.0,485.0,522.0
509.0,496.0,524.0,487.0,522.0
509.0,492.0,524.0,484.0,514.0
516.0,492.0,530.0,493.0,508.0
518.0,495.0,529.0,499.0,503.0
529.0,503.0,532.0,515.0,497.0
535.0,509.0,529.0,526.0,489.0
538.0,515.0,524.0,537.0,492.0
534.0,521.0,518.0,545.0,502.0
523.0,519.0,509.0,540.0,501.0
519.0,522.0,503.0,542.0,505.0
500.0,512.0,487.0,526.0,527.0
492.0,510.0,485.0,519.0,541.0
491.0,509.0,491.0,510.0,541.0
492.0,506.0,497.0,503.0,539.0
492.0,507.0,504.0,496.0,541.0
500.0,501.0,514.0,492.0,530.0
504.0,497.0,520.0,487.0,523.0
508.0,494.0,524.0,487.0,519.0
509.0,492.0,524.0,487.0,514.0
519.0,494.0,534.0,498.0,507.0
528.0,501.0,528.0,506.0,502.0
531.0,504.0,530.0,520.0,494.0
534.0,511.0,530.0,530.0,488.0
533.0,515.0,521.0,540.0,490.0
534.0,520.0,514.0,546.0,492.0
522.0,519.0,506.0,543.0,503.0
514.0,518.0,496.0,537.0,516.0
498.0,510.0,485.0,524.0,528.0
496.0,511.0,489.0,518.0,533.0
494.0,507.0,491.0,508.0,532.0
497.0,504.0,500.0,502.0,539.0
497.0,505.0,506.0,493.0,538.0
500.0,497.0,515.0,490.0,531.0
502.0,495.0,522.0,488.0,532.0
501.0,491.0,525.0,487.0,526.0
513.0,493.0,529.0,491.0,515.0
521.0,493.0,530.0,500.0,497.0
532.0,502.0,533.0,512.0,492.0
534.0,507.0,531.0,526.0,482.0
535.0,513.0,525.0,533.0,489.0
533.0,519.0,520.0,542.0,496.0
528.0,517.0,509.0,543.0,498.0
524.0,519.0,506.0,543.0,504.0
503.0,512.0,489.0,530.0,519.0
499.0,509.0,488.0,525.0,530.0
498.0,508.0,490.0,515.0,532.0
500.0,509.0,494.0,506.0,532.0
496.0,503.0,503.0,499.0,533.0
498.0,500.0,511.0,493.0,532.0
505.0,497.0,519.0,490.0,523.0
506.0,492.0,523.0,485.0,521.0
513.0,493.0,527.0,488.0,516.0
513.0,490.0,527.0,491.0,511.0
518.0,491.0,528.0,506.0,504.0
528.0,501.0,531.0,516.0,495.0
529.0,509.0,530.0,529.0,494.0
530.0,512.0,523.0,537.0,493.0
530.0,518.0,518.0,544.0,492.0
524.0,520.0,512.0,545.0,503.0
519.0,522.0,501.0,543.0,510.0
497.0,513.0,487.0,533.0,528.0
488.0,510.0,487.0,518.0,535.0
492.0,508.0,490.0,511.0,537.0
495.0,504.0,497.0,503.0,533.0
494.0,502.0,503.0,494.0,532.0
503.0,504.0,516.0,494.0,530.0
507.0,499.0,521.0,490.0,524.0
508.0,493.0,523.0,487.0,521.0
517.0,494.0,529.0,489.0,513.0
520.0,491.0,528.0,496.0,505.0
525.0,499.0,531.0,509.0,500.0
535.0,503.0,531.0,524.0,491.0
541.0,513.0,530.0,536.0,491.0
535.0,518.0,523.0,540.0,496.0
523.0,518.0,511.0,543.0,503.0
519.0,521.0,505.0,541.0,510.0
507.0,516.0,494.0,534.0,517.0
497.0,513.0,489.0,526.0,530.0
488.0,509.0,490.0,514.0,532.0
490.0,507.0,492.0,509.0,536.0
498.0,508.0,501.0,501.0,529.0
500.0,501.0,507.0,493.0,525.0
504.0,499.0,517.0,492.0,526.0
507.0,497.0,523.0,489.0,526.0
509.0,494.0,526.0,486.0,525.0
514.0,493.0,528.0,490.0,514.0
528.0,496.0,534.0,502.0,497.0
532.0,503.0,530.0,510.0,485.0
535.0,507.0,531.0,524.0,482.0
537.0,512.0,526.0,536.0,488.0
538.0,518.0,520.0,546.0,489.0
528.0,520.0,515.0,546.0,501.0
519.0,522.0,503.0,545.0,509.0
502.0,512.0,489.0,529.0,528.0
492.0,511.0,484.0,518.0,536.0
494.0,511.0,489.0,514.0,538.0
492.0,507.0,495.0,505.0,537.0
494.0,502.0,503.0,498.0,538.0
498.0,500.0,510.0,492.0,531.0
507.0,496.0,517.0,489.0,524.0
507.0,495.0,524.0,488.0,520.0
513.0,491.0,525.0,486.0,515.0
519.0,494.0,530.0,493.0,513.0
522.0,495.0,528.0,504.0,501.0
531.0,503.0,532.0,517.0,498.0
532.0,508.0,528.0,527.0,492.0
534.0,515.0,524.0,537.0,491.0
533.0,519.0,515.0,544.0,495.0
522.0,518.0,506.0,543.0,503.0
520.0,521.0,501.0,543.0,508.0
501.0,513.0,488.0,533.0,524.0
494.0,510.0,486.0,518.0,530.0
491.0,512.0,491.0,514.0,535.0
494.0,508.0,500.0,503.0,534.0
493.0,502.0,505.0,495.0,539.0
502.0,502.0,517.0,495.0,530.0
506.0,498.0,522.0,490.0,521.0
506.0,494.0,528.0,489.0,521.0
507.0,492.0,527.0,488.0,516.0
517.0,494.0,530.0,497.0,509.0
529.0,499.0,529.0,506.0,501.0
531.0,506.0,530.0,524.0,497.0
536.0,511.0,528.0,533.0,492.0
534.0,515.0,519.0,540.0,492.0
528.0,519.0,513.0,544.0,500.0
521.0,520.0,509.0,543.0,508.0
511.0,516.0,495.0,537.0,515.0
502.0,513.0,487.0,529.0,526.0
494.0,511.0,489.0,516.0,532.0
492.0,507.0,498.0,508.0,535.0
492.0,506.0,501.0,500.0,530.0
495.0,499.0,509.0,493.0,534.0
502.0,499.0,517.0,491.0,528.0
511.0,500.0,522.0,489.0,526.0
510.0,492.0,524.0,485.0,518.0
518.0,492.0,529.0,493.0,512.0
522.0,493.0,531.0,500.0,503.0
528.0,500.0,531.0,510.0,495.0
536.0,507.0,532.0,525.0,492.0
540.0,514.0,528.0,537.0,487.0
535.0,517.0,521.0,546.0,485.0
526.0,522.0,509.0,543.0,493.0
523.0,520.0,505.0,544.0,504.0
504.0,513.0,488.0,535.0,517.0
496.0,511.0,487.0,523.0,531.0
495.0,508.0,489.0,513.0,532.0
499.0,505.0,498.0,504.0,532.0
496.0,503.0,504.0,501.0,530.0
498.0,498.0,510.0,493.0,525.0
505.0,496.0,521.0,496.0,522.0
509.0,495.0,524.0,489.0,520.0
512.0,491.0,530.0,490.0,518.0
517.0,492.0,530.0,494.0,510.0
522.0,496.0,530.0,503.0,506.0
531.0,503.0,531.0,514.0,501.0
537.0,514.0,531.0,529.0,497.0
533.0,512.0,522.0,536.0,499.0
533.0,518.0,517.0,544.0,496.0
526.0,519.0,508.0,545.0,504.0
519.0,520.0,498.0,541.0,507.0
510.0,512.0,489.0,530.0,521.0
489.0,510.0,486.0,519.0,530.0
488.0,507.0,491.0,513.0,534.0
495.0,504.0,498.0,502.0,533.0
494.0,499.0,505.0,495.0,535.0
499.0,499.0,514.0,491.0,527.0
506.0,499.0,520.0,486.0,522.0
511.0,495.0,529.0,485.0,521.0
521.0,494.0,527.0,489.0,511.0
525.0,496.0,531.0,498.0,509.0
524.0,498.0,530.0,505.0,501.0
528.0,509.0,529.0,522.0,496.0
532.0,508.0,526.0,531.0,490.0
532.0,515.0,519.0,540.0,492.0
528.0,520.0,514.0,545.0,494.0
519.0,521.0,504.0,542.0,497.0
511.0,517.0,496.0,538.0,509.0
504.0,510.0,487.0,525.0,521.0
494.0,510.0,495.0,518.0,530.0
486.0,506.0,495.0,508.0,541.0
493.0,504.0,502.0,499.0,540.0
496.0,500.0,507.0,492.0,530.0
499.0,498.0,518.0,496.0,527.0
500.0,495.0,522.0,485.0,530.0
505.0,494.0,527.0,487.0,524.0
518.0,492.0,528.0,492.0,512.0
530.0,496.0,532.0,502.0,502.0
534.0,501.0,531.0,514.0,496.0
531.0,508.0,530.0,524.0,498.0
534.0,513.0,526.0,535.0,500.0
531.0,518.0,521.0,543.0,500.0
526.0,520.0,506.0,541.0,507.0
521.0,520.0,508.0,542.0,514.0
501.0,513.0,490.0,531.0,530.0
495.0,511.0,485.0,522.0,538.0
495.0,509.0,489.0,514.0,537.0
492.0,508.0,496.0,504.0,537.0
497.0,509.0,503.0,500.0,533.0
494.0,499.0,510.0,491.0,531.0
501.0,497.0,522.0,487.0,525.0
505.0,494.0,522.0,484.0,524.0
509.0,490.0,524.0,484.0,519.0
521.0,492.0,529.0,493.0,511.0
520.0,495.0,527.0,501.0,505.0
528.0,501.0,530.0,515.0,497.0
535.0,509.0,529.0,529.0,488.0
534.0,514.0,521.0,538.0,490.0
528.0,521.0,515.0,547.0,501.0
520.0,519.0,505.0,542.0,510.0
517.0,520.0,501.0,542.0,513.0
503.0,514.0,488.0,531.0,524.0
496.0,511.0,484.0,517.0,529.0
494.0,510.0,493.0,511.0,540.0
494.0,506.0,499.0,502.0,534.0
496.0,502.0,505.0,497.0,534.0
502.0,500.0,515.0,492.0,529.0
506.0,497.0,522.0,486.0,522.0
511.0,493.0,525.0,486.0,524.0
515.0,492.0,527.0,490.0,515.0
523.0,495.0,535.0,498.0,507.0
527.0,499.0,530.0,507.0,501.0
535.0,506.0,529.0,523.0,493.0
536.0,513.0,533.0,535.0,485.0
527.0,514.0,519.0,540.0,493.0
526.0,518.0,512.0,543.0,500.0
521.0,521.0,508.0,543.0,508.0
507.0,516.0,493.0,534.0,518.0
496.0,514.0,488.0,524.0,530.0
493.0,510.0,488.0,513.0,532.0
494.0,510.0,495.0,508.0,535.0
494.0,505.0,500.0,499.0,534.0
502.0,500.0,508.0,493.0,536.0
504.0,499.0,518.0,491.0,533.0
507.0,495.0,523.0,488.0,531.0
509.0,492.0,525.0,486.0,522.0
515.0,494.0,528.0,491.0,513.0
521.0,494.0,530.0,499.0,502.0
527.0,503.0,529.0,510.0,501.0
532.0,506.0,533.0,522.0,500.0
535.0,512.0,524.0,535.0,493.0
532.0,517.0,517.0,542.0,496.0
527.0,521.0,511.0,544.0,504.0
519.0,519.0,501.0,541.0,505.0
503.0,513.0,490.0,530.0,524.0
495.0,510.0,487.0,521.0,532.0
491.0,511.0,491.0,513.0,537.0
490.0,506.0,497.0,505.0,540.0
497.0,502.0,502.0,497.0,539.0
496.0,497.0,511.0,491.0,535.0
506.0,498.0,520.0,490.0,528.0
505.0,494.0,523.0,487.0,519.0
519.0,494.0,528.0,489.0,513.0
518.0,493.0,529.0,496.0,506.0
526.0,497.0,531.0,505.0,505.0
536.0,503.0,533.0,521.0,494.0
537.0,513.0,533.0,533.0,493.0
533.0,514.0,520.0,538.0,497.0
529.0,518.0,515.0,542.0,498.0
524.0,519.0,507.0,546.0,506.0
517.0,522.0,502.0,543.0,518.0
494.0,509.0,486.0,526.0,531.0
494.0,511.0,488.0,523.0,527.0
492.0,509.0,493.0,511.0,530.0
486.0,503.0,498.0,501.0,528.0
493.0,500.0,506.0,492.0,531.0
500.0,497.0,513.0,489.0,527.0
506.0,495.0,520.0,488.0,519.0
510.0,494.0,526.0,487.0,518.0
515.0,492.0,528.0,487.0,511.0
524.0,495.0,534.0,498.0,504.0
526.0,499.0,531.0,507.0,500.0
535.0,506.0,531.0,521.0,493.0
538.0,510.0,527.0,533.0,488.0
532.0,515.0,519.0,539.0,492.0
531.0,519.0,514.0,545.0,495.0
521.0,517.0,504.0,542.0,502.0
512.0,516.0,496.0,534.0,521.0
498.0,512.0,487.0,523.0,538.0
491.0,511.0,490.0,517.0,542.0
492.0,509.0,495.0,506.0,541.0
492.0,504.0,501.0,498.0,538.0
500.0,499.0,506.0,490.0,532.0
503.0,500.0,519.0,491.0,527.0
507.0,497.0,524.0,492.0,523.0
505.0,492.0,525.0,487.0,519.0
512.0,491.0,528.0,492.0,518.0
528.0,497.0,533.0,498.0,507.0
527.0,500.0,530.0,510.0,498.0
539.0,509.0,531.0,525.0,494.0
543.0,516.0,525.0,538.0,492.0
537.0,516.0,517.0,541.0,496.0
525.0,521.0,513.0,544.0,505.0
513.0,520.0,502.0,542.0,513.0
501.0,513.0,490.0,532.0,528.0
494.0,510.0,487.0,521.0,532.0
492.0,508.0,496.0,513.0,539.0
492.0,507.0,497.0,505.0,537.0
493.0,501.0,503.0,497.0,535.0
499.0,499.0,513.0,494.0,533.0
504.0,497.0,520.0,490.0,526.0
505.0,494.0,524.0,489.0,523.0
511.0,492.0,527.0,488.0,518.0
518.0,492.0,529.0,493.0,512.0
526.0,497.0,530.0,504.0,507.0
530.0,502.0,530.0,517.0,500.0
535.0,510.0,531.0,531.0,497.0
531.0,514.0,525.0,541.0,493.0
528.0,518.0,516.0,546.0,495.0
523.0,520.0,508.0,545.0,503.0
517.0,520.0,502.0,543.0,511.0
505.0,513.0,488.0,530.0,521.0
494.0,509.0,487.0,520.0,527.0
493.0,510.0,494.0,513.0,532.0
493.0,508.0,501.0,505.0,530.0
499.0,500.0,505.0,496.0,534.0
501.0,498.0,515.0,491.0,537.0
503.0,495.0,524.0,485.0,530.0
506.0,494.0,525.0,487.0,527.0
513.0,491.0,526.0,489.0,517.0
516.0,494.0,532.0,503.0,509.0
523.0,499.0,531.0,509.0,501.0
529.0,502.0,528.0,520.0,487.0
538.0,510.0,528.0,534.0,484.0
536.0,516.0,520.0,546.0,491.0
536.0,520.0,511.0,546.0,499.0
524.0,520.0,504.0,543.0,505.0
511.0,514.0,496.0,534.0,522.0
499.0,511.0,488.0,526.0,532.0
494.0,509.0,491.0,518.0,535.0
487.0,506.0,494.0,505.0,539.0
491.0,501.0,500.0,498.0,534.0
498.0,499.0,509.0,493.0,532.0
504.0,499.0,519.0,491.0,529.0
504.0,494.0,521.0,488.0,522.0
509.0,494.0,528.0,489.0,521.0
510.0,491.0,529.0,490.0,513.0
521.0,496.0,531.0,502.0,508.0
526.0,502.0,533.0,513.0,498.0
534.0,507.0,532.0,526.0,494.0
534.0,511.0,526.0,536.0,488.0
532.0,515.0,517.0,543.0,494.0
529.0,519.0,510.0,544.0,505.0
522.0,520.0,503.0,542.0,507.0
506.0,513.0,492.0,533.0,528.0
496.0,510.0,487.0,519.0,533.0
489.0,508.0,491.0,515.0,536.0
490.0,504.0,495.0,503.0,535.0
493.0,502.0,504.0,497.0,537.0
499.0,499.0,511.0,490.0,530.0
504.0,500.0,522.0,491.0,526.0
504.0,493.0,524.0,488.0,523.0
509.0,493.0,527.0,489.0,519.0
517.0,493.0,531.0,496.0,507.0
523.0,497.0,530.0,509.0,504.0
532.0,503.0,532.0,518.0,498.0
537.0,511.0,532.0,531.0,494.0
537.0,515.0,523.0,541.0,491.0
533.0,518.0,516.0,544.0,495.0
526.0,519.0,509.0,542.0,505.0
523.0,520.0,502.0,543.0,504.0
505.0,511.0,490.0,529.0,520.0
501.0,512.0,491.0,523.0,532.0
490.0,506.0,492.0,504.0,539.0
489.0,504.0,502.0,497.0,536.0
493.0,502.0,507.0,496.0,529.0
495.0,496.0,514.0,490.0,525.0
505.0,494.0,520.0,489.0,514.0
509.0,493.0,525.0,491.0,511.0
512.0,491.0,531.0,487.0,517.0
517.0,493.0,529.0,495.0,509.0
523.0,497.0,531.0,511.0,503.0
530.0,507.0,531.0,521.0,501.0
533.0,511.0,528.0,533.0,507.0
533.0,516.0,520.0,543.0,504.0
529.0,517.0,512.0,543.0,500.0
531.0,521.0,508.0,546.0,503.0
518.0,515.0,494.0,538.0,514.0
496.0,508.0,485.0,523.0,530.0
493.0,507.0,489.0,515.0,535.0
488.0,508.0,498.0,503.0,539.0
491.0,506.0,505.0,499.0,538.0
490.0,500.0,509.0,492.0,534.0
492.0,498.0,518.0,489.0,529.0
500.0,494.0,523.0,488.0,521.0
506.0,494.0,527.0,492.0,520.0
512.0,493.0,533.0,490.0,518.0
519.0,496.0,531.0,500.0,512.0
537.0,502.0,535.0,515.0,502.0
540.0,506.0,530.0,526.0,494.0
538.0,513.0,525.0,536.0,494.0
534.0,516.0,518.0,542.0,491.0
530.0,520.0,511.0,545.0,494.0
515.0,520.0,502.0,542.0,503.0
499.0,512.0,490.0,531.0,523.0
493.0,509.0,486.0,520.0,532.0
494.0,508.0,491.0,512.0,535.0
497.0,509.0,499.0,506.0,534.0
496.0,502.0,504.0,496.0,534.0
498.0,498.0,510.0,490.0,533.0
503.0,497.0,522.0,489.0,528.0
504.0,494.0,524.0,486.0,523.0
508.0,497.0,527.0,491.0,518.0
516.0,494.0,530.0,494.0,511.0
523.0,496.0,529.0,503.0,505.0
531.0,505.0,532.0,518.0,499.0
535.0,511.0,530.0,533.0,491.0
531.0,515.0,521.0,537.0,493.0
529.0,519.0,515.0,543.0,499.0
522.0,518.0,506.0,541.0,504.0
516.0,521.0,501.0,541.0,513.0
497.0,512.0,489.0,526.0,526.0
495.0,513.0,489.0,519.0,536.0
494.0,508.0,492.0,509.0,536.0
498.0,505.0,498.0,500.0,534.0
499.0,502.0,508.0,495.0,536.0
502.0,498.0,515.0,490.0,532.0
511.0,497.0,525.0,488.0,527.0
508.0,494.0,524.0,486.0,522.0
513.0,493.0,528.0,490.0,523.0
517.0,494.0,533.0,497.0,512.0
522.0,502.0,531.0,510.0,506.0
532.0,508.0,530.0,521.0,491.0
534.0,512.0,526.0,534.0,485.0
533.0,516.0,519.0,539.0,484.0
529.0,520.0,515.0,543.0,499.0
518.0,518.0,503.0,541.0,512.0
504.0,514.0,492.0,536.0,524.0
494.0,509.0,486.0,523.0,533.0
497.0,510.0,489.0,514.0,535.0
494.0,508.0,492.0,505.0,536.0
496.0,504.0,502.0,500.0,538.0
497.0,501.0,510.0,493.0,533.0
501.0,498.0,518.0,491.0,523.0
503.0,497.0,522.0,493.0,521.0
510.0,492.0,527.0,489.0,519.0
514.0,495.0,529.0,497.0,516.0
521.0,495.0,531.0,502.0,509.0
528.0,501.0,532.0,514.0,502.0
534.0,507.0,531.0,527.0,491.0
538.0,513.0,525.0,539.0,489.0
530.0,517.0,516.0,545.0,494.0
521.0,515.0,507.0,545.0,498.0
518.0,520.0,505.0,545.0,506.0
502.0,513.0,488.0,530.0,522.0
495.0,512.0,487.0,521.0,535.0
493.0,508.0,489.0,508.0,537.0
493.0,506.0,498.0,505.0,539.0
497.0,503.0,505.0,498.0,535.0
501.0,499.0,512.0,493.0,526.0
507.0,498.0,519.0,490.0,521.0
511.0,491.0,528.0,488.0,523.0
515.0,493.0,529.0,492.0,514.0
519.0,494.0,531.0,498.0,518.0
520.0,496.0,529.0,502.0,514.0
529.0,502.0,528.0,515.0,500.0
531.0,509.0,528.0,530.0,488.0
533.0,515.0,522.0,539.0,491.0
529.0,518.0,514.0,546.0,497.0
522.0,524.0,506.0,543.0,506.0
515.0,518.0,498.0,538.0,517.0
500.0,512.0,487.0,525.0,533.0
493.0,510.0,487.0,518.0,540.0
489.0,507.0,492.0,509.0,544.0
494.0,505.0,499.0,503.0,534.0
506.0,501.0,511.0,498.0,527.0
506.0,499.0,517.0,496.0,520.0
503.0,499.0,523.0,491.0,519.0
505.0,494.0,524.0,486.0,518.0
512.0,493.0,527.0,488.0,515.0
521.0,494.0,530.0,496.0,507.0
526.0,500.0,531.0,509.0,501.0
531.0,504.0,527.0,521.0,491.0
538.0,513.0,528.0,534.0,487.0
538.0,515.0,517.0,540.0,492.0
526.0,517.0,508.0,541.0,501.0
524.0,521.0,504.0,543.0,507.0
508.0,514.0,491.0,533.0,521.0
496.0,510.0,490.0,524.0,533.0
491.0,509.0,489.0,514.0,536.0
489.0,505.0,493.0,504.0,537.0
495.0,506.0,503.0,500.0,537.0
495.0,500.0,509.0,492.0,534.0
502.0,500.0,517.0,489.0,525.0
506.0,498.0,524.0,489.0,525.0
510.0,493.0,526.0,486.0,519.0
517.0,493.0,527.0,492.0,516.0
523.0,499.0,529.0,502.0,508.0
527.0,502.0,530.0,513.0,499.0
536.0,509.0,531.0,528.0,493.0
539.0,517.0,526.0,538.0,495.0
531.0,516.0,514.0,541.0,493.0
525.0,519.0,507.0,544.0,500.0
519.0,520.0,502.0,544.0,507.0
508.0,514.0,489.0,532.0,524.0
498.0,512.0,487.0,519.0,531.0
493.0,514.0,490.0,514.0,538.0
499.0,507.0,497.0,507.0,536.0
495.0,502.0,504.0,498.0,533.0
496.0,496.0,510.0,490.0,532.0
505.0,499.0,521.0,490.0,527.0
505.0,494.0,523.0,487.0,523.0
512.0,491.0,528.0,491.0,519.0
518.0,493.0,530.0,496.0,510.0
522.0,495.0,528.0,505.0,502.0
531.0,507.0,530.0,523.0,498.0
537.0,510.0,529.0,532.0,490.0
538.0,515.0,522.0,541.0,491.0
531.0,520.0,512.0,545.0,497.0
523.0,520.0,506.0,544.0,504.0
516.0,518.0,498.0,540.0,515.0
503.0,515.0,490.0,529.0,530.0
493.0,509.0,490.0,516.0,535.0
490.0,507.0,492.0,509.0,539.0
491.0,505.0,501.0,502.0,534.0
495.0,501.0,507.0,493.0,530.0
498.0,496.0,513.0,490.0,525.0
510.0,499.0,523.0,490.0,521.0
510.0,493.0,525.0,488.0,515.0
513.0,497.0,528.0,492.0,512.0
519.0,494.0,531.0,498.0,510.0
523.0,499.0,533.0,508.0,502.0
534.0,509.0,532.0,524.0,497.0
534.0,512.0,527.0,535.0,492.0
532.0,516.0,519.0,542.0,495.0
529.0,520.0,513.0,547.0,499.0
522.0,521.0,504.0,544.0,505.0
510.0,516.0,492.0,534.0,525.0
496.0,511.0,488.0,520.0,531.0
495.0,512.0,491.0,516.0,536.0
493.0,507.0,495.0,507.0,537.0
494.0,504.0,503.0,498.0,535.0
500.0,500.0,511.0,494.0,533.0
501.0,497.0,517.0,490.0,529.0
503.0,494.0,523.0,488.0,526.0
508.0,494.0,529.0,487.0,521.0
512.0,491.0,532.0,491.0,508.0
522.0,499.0,531.0,506.0,503.0
533.0,502.0,532.0,515.0,493.0
534.0,507.0,529.0,527.0,490.0
536.0,514.0,525.0,537.0,491.0
532.0,517.0,517.0,543.0,494.0
526.0,519.0,508.0,543.0,500.0
524.0,520.0,505.0,542.0,506.0
506.0,515.0,490.0,535.0,522.0
494.0,511.0,487.0,519.0,529.0
493.0,508.0,492.0,517.0,534.0
493.0,508.0,501.0,504.0,533.0
493.0,501.0,503.0,494.0,533.0
498.0,502.0,513.0,490.0,537.0
503.0,498.0,520.0,489.0,523.0
509.0,493.0,521.0,486.0,516.0
512.0,492.0,529.0,491.0,513.0
521.0,495.0,532.0,498.0,507.0
525.0,499.0,530.0,506.0,508.0
532.0,504.0,532.0,518.0,499.0
536.0,513.0,532.0,533.0,491.0
533.0,517.0,524.0,543.0,494.0
528.0,519.0,513.0,543.0,501.0
518.0,518.0,504.0,539.0,508.0
515.0,520.0,498.0,536.0,520.0
501.0,515.0,489.0,527.0,534.0
494.0,512.0,488.0,517.0,535.0
494.0,509.0,492.0,509.0,536.0
496.0,507.0,504.0,500.0,537.0
492.0,507.0,506.0,494.0,534.0
498.0,499.0,515.0,494.0,519.0
501.0,496.0,520.0,486.0,522.0
511.0,496.0,526.0,489.0,519.0
517.0,494.0,527.0,491.0,508.0
526.0,499.0,533.0,505.0,496.0
525.0,507.0,531.0,511.0,499.0
529.0,505.0,530.0,522.0,499.0
536.0,513.0,528.0,534.0,494.0
531.0,516.0,523.0,540.0,503.0
523.0,519.0,511.0,541.0,503.0
518.0,518.0,503.0,540.0,506.0
507.0,515.0,492.0,532.0,526.0
496.0,509.0,484.0,520.0,538.0
495.0,511.0,491.0,514.0,543.0
491.0,506.0,494.0,504.0,540.0
497.0,505.0,505.0,497.0,539.0
503.0,500.0,509.0,492.0,526.0
502.0,496.0,516.0,489.0,519.0
507.0,494.0,522.0,486.0,517.0
515.0,495.0,527.0,486.0,517.0
520.0,493.0,529.0,492.0,504.0
525.0,495.0,529.0,501.0,499.0
530.0,502.0,532.0,515.0,497.0
531.0,506.0,529.0,524.0,496.0
529.0,512.0,525.0,538.0,500.0
527.0,516.0,515.0,542.0,500.0
527.0,520.0,510.0,544.0,503.0
517.0,520.0,502.0,540.0,507.0
501.0,512.0,489.0,532.0,524.0
495.0,511.0,487.0,519.0,536.0
490.0,509.0,491.0,510.0,537.0
491.0,506.0,498.0,504.0,537.0
494.0,503.0,504.0,497.0,535.0
497.0,499.0,513.0,493.0,529.0
501.0,497.0,520.0,489.0,523.0
505.0,493.0,523.0,486.0,520.0
514.0,492.0,529.0,490.0,516.0
519.0,496.0,531.0,498.0,507.0
519.0,496.0,531.0,504.0,503.0
536.0,505.0,532.0,521.0,494.0
539.0,511.0,530.0,533.0,491.0
531.0,514.0,521.0,539.0,494.0
527.0,516.0,516.0,542.0,499.0
521.0,519.0,505.0,543.0,505.0
511.0,516.0,497.0,539.0,516.0
500.0,513.0,488.0,526.0,529.0
495.0,509.0,488.0,517.0,533.0
494.0,510.0,494.0,510.0,536.0
494.0,505.0,500.0,502.0,535.0
496.0,499.0,506.0,494.0,532.0
501.0,498.0,515.0,490.0,534.0
506.0,496.0,522.0,489.0,525.0
514.0,494.0,529.0,488.0,520.0
514.0,493.0,529.0,490.0,517.0
520.0,495.0,532.0,500.0,506.0
528.0,497.0,528.0,508.0,499.0
533.0,507.0,534.0,524.0,497.0
534.0,513.0,526.0,536.0,490.0
533.0,517.0,520.0,542.0,495.0
529.0,518.0,510.0,544.0,502.0
525.0,520.0,504.0,544.0,506.0
508.0,513.0,491.0,533.0,525.0
499.0,512.0,488.0,529.0,532.0
493.0,510.0,489.0,516.0,531.0
491.0,511.0,496.0,507.0,537.0
496.0,505.0,504.0,500.0,534.0
498.0,500.0,511.0,493.0,532.0
500.0,496.0,516.0,490.0,530.0
510.0,495.0,526.0,488.0,529.0
509.0,493.0,527.0,488.0,521.0
516.0,493.0,534.0,492.0,517.0
523.0,496.0,531.0,504.0,506.0
528.0,501.0,530.0,517.0,496.0
536.0,510.0,532.0,529.0,493.0
537.0,515.0,526.0,539.0,491.0
528.0,516.0,515.0,542.0,496.0
526.0,522.0,508.0,544.0,501.0
521.0,520.0,502.0,542.0,509.0
505.0,514.0,489.0,532.0,529.0
498.0,510.0,487.0,524.0,536.0
501.0,509.0,491.0,513.0,537.0
495.0,508.0,499.0,508.0,533.0
497.0,501.0,503.0,496.0,527.0
507.0,500.0,518.0,493.0,523.0
505.0,498.0,521.0,489.0,526.0
510.0,492.0,520.0,485.0,519.0
515.0,491.0,528.0,489.0,518.0
518.0,494.0,531.0,497.0,506.0
520.0,497.0,529.0,505.0,503.0
530.0,505.0,531.0,520.0,497.0
534.0,510.0,528.0,532.0,494.0
534.0,515.0,521.0,538.0,496.0
530.0,521.0,513.0,543.0,502.0
521.0,520.0,506.0,543.0,506.0
516.0,518.0,497.0,537.0,519.0
499.0,511.0,487.0,526.0,526.0
493.0,510.0,488.0,517.0,530.0
493.0,509.0,494.0,510.0,537.0
501.0,506.0,502.0,500.0,536.0
499.0,502.0,508.0,493.0,535.0
503.0,498.0,515.0,490.0,533.0
505.0,498.0,523.0,489.0,523.0
510.0,493.0,525.0,487.0,518.0
515.0,491.0,528.0,490.0,517.0
521.0,496.0,532.0,500.0,512.0
526.0,500.0,531.0,510.0,502.0
534.0,507.0,529.0,523.0,498.0
539.0,512.0,526.0,535.0,491.0
535.0,517.0,519.0,542.0,500.0
526.0,520.0,509.0,544.0,507.0
520.0,521.0,504.0,542.0,511.0
504.0,514.0,490.0,531.0,520.0
496.0,512.0,488.0,523.0,529.0
494.0,511.0,489.0,515.0,528.0
489.0,507.0,495.0,504.0,533.0
492.0,503.0,502.0,498.0,535.0
500.0,501.0,510.0,496.0,532.0
504.0,497.0,517.0,490.0,526.0
507.0,495.0,524.0,490.0,519.0
508.0,492.0,524.0,486.0,516.0
515.0,493.0,528.0,493.0,506.0
522.0,497.0,532.0,502.0,502.0
530.0,501.0,530.0,516.0,494.0
533.0,511.0,532.0,528.0,497.0
533.0,514.0,524.0,541.0,496.0
530.0,518.0,515.0,543.0,497.0
526.0,521.0,511.0,543.0,506.0
520.0,521.0,501.0,542.0,517.0
506.0,514.0,488.0,528.0,535.0
502.0,512.0,486.0,519.0,542.0
493.0,509.0,492.0,507.0,542.0
496.0,507.0,501.0,502.0,539.0
494.0,502.0,505.0,495.0,531.0
499.0,499.0,513.0,492.0,525.0
503.0,496.0,520.0,489.0,517.0
507.0,492.0,523.0,487.0,516.0
516.0,493.0,529.0,490.0,515.0
520.0,494.0,530.0,496.0,507.0
523.0,497.0,529.0,506.0,499.0
530.0,504.0,531.0,521.0,495.0
533.0,512.0,528.0,531.0,486.0
533.0,516.0,521.0,541.0,489.0
532.0,516.0,512.0,544.0,495.0
529.0,519.0,508.0,542.0,496.0
522.0,520.0,497.0,540.0,512.0
505.0,513.0,488.0,526.0,522.0
495.0,507.0,487.0,514.0,533.0
491.0,507.0,492.0,510.0,537.0
495.0,505.0,501.0,501.0,534.0
492.0,500.0,507.0,494.0,536.0
496.0,496.0,513.0,489.0,529.0
505.0,496.0,522.0,490.0,523.0
506.0,492.0,524.0,487.0,520.0
512.0,490.0,529.0,493.0,515.0
519.0,495.0,532.0,499.0,511.0
526.0,500.0,532.0,509.0,504.0
530.0,505.0,530.0,523.0,495.0
535.0,513.0,527.0,534.0,487.0
534.0,518.0,522.0,542.0,491.0
527.0,521.0,510.0,547.0,496.0
521.0,522.0,503.0,543.0,506.0
505.0,514.0,490.0,532.0,532.0
497.0,513.0,487.0,522.0,537.0
496.0,511.0,491.0,516.0,536.0
495.0,509.0,497.0,510.0,542.0
494.0,505.0,503.0,498.0,536.0
498.0,499.0,511.0,494.0,528.0
503.0,497.0,517.0,489.0,528.0
503.0,494.0,522.0,487.0,524.0
503.0,491.0,526.0,486.0,519.0
511.0,494.0,531.0,494.0,514.0
523.0,497.0,531.0,503.0,505.0
530.0,502.0,531.0,516.0,497.0
534.0,510.0,531.0,527.0,493.0
534.0,516.0,525.0,538.0,496.0
527.0,515.0,513.0,541.0,497.0
525.0,521.0,508.0,544.0,504.0
519.0,521.0,501.0,541.0,509.0
506.0,513.0,492.0,528.0,532.0
494.0,512.0,487.0,519.0,537.0
492.0,508.0,491.0,510.0,538.0
494.0,507.0,499.0,505.0,538.0
496.0,503.0,508.0,497.0,536.0
502.0,502.0,515.0,495.0,528.0
510.0,497.0,522.0,490.0,520.0
508.0,494.0,525.0,488.0,514.0
514.0,492.0,529.0,490.0,514.0
520.0,495.0,533.0,499.0,507.0
522.0,498.0,531.0,506.0,502.0
531.0,504.0,531.0,520.0,497.0
537.0,511.0,530.0,531.0,487.0
532.0,521.0,522.0,540.0,492.0
524.0,515.0,510.0,539.0,502.0
521.0,517.0,505.0,546.0,505.0
511.0,516.0,495.0,536.0,515.0
496.0,511.0,487.0,525.0,528.0
491.0,509.0,488.0,516.0,534.0
492.0,508.0,493.0,507.0,539.0
498.0,505.0,499.0,501.0,533.0
500.0,502.0,507.0,495.0,529.0
505.0,498.0,512.0,489.0,527.0
504.0,496.0,523.0,489.0,526.0
512.0,495.0,526.0,489.0,522.0
514.0,494.0,528.0,492.0,512.0
519.0,499.0,531.0,507.0,507.0
528.0,501.0,532.0,512.0,502.0
530.0,506.0,530.0,521.0,492.0
539.0,513.0,527.0,535.0,484.0
536.0,518.0,518.0,541.0,492.0
525.0,517.0,507.0,539.0,503.0
523.0,518.0,502.0,541.0,513.0
511.0,514.0,489.0,531.0,531.0
496.0,512.0,486.0,520.0,538.0
492.0,512.0,490.0,513.0,541.0
493.0,507.0,497.0,504.0,533.0
493.0,506.0,502.0,498.0,527.0
496.0,500.0,511.0,493.0,524.0
499.0,496.0,516.0,487.0,523.0
502.0,492.0,522.0,486.0,519.0
511.0,493.0,528.0,487.0,519.0
518.0,492.0,530.0,492.0,509.0
522.0,496.0,531.0,503.0,504.0
528.0,503.0,532.0,515.0,497.0
536.0,514.0,532.0,529.0,494.0
531.0,512.0,523.0,538.0,491.0
530.0,517.0,516.0,544.0,494.0
526.0,523.0,510.0,545.0,507.0
521.0,521.0,501.0,542.0,511.0
507.0,515.0,489.0,526.0,531.0
500.0,509.0,484.0,514.0,532.0
500.0,512.0,490.0,511.0,537.0
496.0,507.0,498.0,502.0,534.0
495.0,500.0,504.0,491.0,533.0
502.0,499.0,514.0,491.0,534.0
503.0,495.0,519.0,488.0,526.0
504.0,494.0,524.0,488.0,517.0
511.0,493.0,529.0,490.0,513.0
517.0,493.0,530.0,496.0,504.0
522.0,498.0,531.0,506.0,500.0
528.0,502.0,530.0,520.0,491.0
537.0,511.0,532.0,532.0,488.0
536.0,515.0,523.0,543.0,491.0
528.0,516.0,511.0,541.0,501.0
522.0,518.0,507.0,542.0,509.0
513.0,515.0,494.0,537.0,518.0
498.0,513.0,487.0,528.0,528.0
500.0,511.0,492.0,517.0,535.0
494.0,507.0,491.0,508.0,536.0
490.0,508.0,500.0,499.0,542.0
498.0,502.0,511.0,494.0,532.0
498.0,498.0,517.0,489.0,520.0
503.0,494.0,522.0,489.0,516.0
510.0,493.0,528.0,489.0,516.0
515.0,492.0,529.0,491.0,524.0
524.0,495.0,532.0,503.0,512.0
531.0,502.0,533.0,514.0,505.0
533.0,507.0,531.0,524.0,505.0
539.0,513.0,529.0,534.0,505.0
536.0,517.0,517.0,545.0,500.0
526.0,517.0,508.0,543.0,495.0
524.0,519.0,503.0,549.0,504.0
508.0,514.0,490.0,532.0,519.0
501.0,510.0,484.0,520.0,530.0
495.0,510.0,494.0,512.0,536.0
489.0,509.0,493.0,502.0,539.0
489.0,502.0,502.0,495.0,537.0
498.0,498.0,509.0,491.0,531.0
502.0,498.0,517.0,489.0,531.0
506.0,493.0,523.0,487.0,522.0
510.0,491.0,527.0,486.0,515.0
517.0,492.0,531.0,494.0,514.0
523.0,496.0,530.0,502.0,504.0
531.0,502.0,532.0,517.0,495.0
536.0,509.0,528.0,529.0,491.0
537.0,514.0,522.0,538.0,491.0
532.0,516.0,519.0,542.0,499.0
526.0,519.0,507.0,544.0,507.0
519.0,519.0,505.0,542.0,514.0
502.0,513.0,488.0,527.0,530.0
496.0,510.0,486.0,518.0,535.0
495.0,510.0,493.0,512.0,538.0
492.0,506.0,498.0,503.0,538.0
493.0,500.0,505.0,497.0,532.0
499.0,499.0,516.0,492.0,529.0
503.0,496.0,520.0,488.0,525.0
509.0,493.0,524.0,488.0,520.0
516.0,494.0,529.0,493.0,514.0
518.0,494.0,530.0,499.0,506.0
522.0,497.0,530.0,509.0,507.0
528.0,505.0,531.0,520.0,497.0
533.0,514.0,530.0,535.0,493.0
533.0,521.0,522.0,545.0,494.0
522.0,517.0,509.0,540.0,505.0
524.0,521.0,505.0,548.0,507.0
515.0,517.0,494.0,536.0,519.0
503.0,513.0,488.0,525.0,531.0
494.0,511.0,489.0,518.0,535.0
491.0,506.0,492.0,506.0,537.0
495.0,505.0,502.0,505.0,537.0
499.0,503.0,509.0,496.0,533.0
501.0,498.0,516.0,490.0,530.0
504.0,495.0,523.0,491.0,526.0
510.0,492.0,526.0,487.0,520.0
513.0,490.0,528.0,491.0,513.0
526.0,497.0,533.0,503.0,504.0
528.0,500.0,531.0,512.0,499.0
531.0,508.0,530.0,527.0,492.0
535.0,511.0,526.0,534.0,491.0
533.0,517.0,518.0,541.0,499.0
528.0,516.0,508.0,541.0,503.0
521.0,524.0,504.0,543.0,507.0
502.0,513.0,488.0,531.0,523.0
496.0,511.0,485.0,520.0,534.0
491.0,508.0,491.0,509.0,537.0
491.0,507.0,496.0,504.0,537.0
495.0,504.0,504.0,498.0,537.0
496.0,500.0,512.0,494.0,536.0
502.0,496.0,517.0,490.0,531.0
504.0,496.0,523.0,488.0,527.0
512.0,492.0,526.0,487.0,516.0
523.0,494.0,530.0,495.0,507.0
521.0,496.0,530.0,504.0,503.0
530.0,502.0,532.0,518.0,495.0
535.0,509.0,530.0,530.0,494.0
537.0,514.0,524.0,539.0,494.0
527.0,518.0,517.0,540.0,497.0
519.0,520.0,511.0,547.0,509.0
517.0,522.0,504.0,540.0,515.0
496.0,511.0,490.0,526.0,531.0
494.0,513.0,489.0,518.0,536.0
489.0,507.0,484.0,507.0,536.0
491.0,507.0,496.0,503.0,537.0
493.0,502.0,504.0,495.0,535.0
498.0,499.0,513.0,490.0,526.0
501.0,495.0,518.0,488.0,525.0
505.0,494.0,524.0,488.0,520.0
511.0,491.0,527.0,488.0,517.0
525.0,498.0,531.0,499.0,512.0
525.0,500.0,534.0,510.0,502.0
529.0,503.0,529.0,521.0,487.0
541.0,512.0,529.0,535.0,480.0
538.0,518.0,524.0,543.0,487.0
527.0,518.0,515.0,542.0,497.0
521.0,520.0,510.0,543.0,513.0
507.0,515.0,497.0,533.0,530.0
494.0,516.0,492.0,526.0,536.0
489.0,513.0,487.0,516.0,539.0
488.0,507.0,486.0,506.0,543.0
490.0,505.0,499.0,499.0,543.0
493.0,500.0,505.0,491.0,546.0
502.0,497.0,515.0,491.0,535.0
509.0,496.0,521.0,487.0,529.0
512.0,493.0,528.0,485.0,524.0
518.0,494.0,527.0,493.0,519.0
522.0,495.0,529.0,499.0,502.0
524.0,499.0,528.0,512.0,491.0
532.0,506.0,530.0,526.0,488.0
533.0,510.0,524.0,536.0,486.0
534.0,515.0,516.0,543.0,487.0
525.0,517.0,506.0,543.0,503.0
520.0,520.0,502.0,543.0,506.0
503.0,512.0,490.0,531.0,521.0
495.0,510.0,486.0,522.0,529.0
493.0,509.0,490.0,513.0,533.0
494.0,511.0,498.0,506.0,534.0
494.0,503.0,503.0,497.0,531.0
500.0,500.0,514.0,493.0,525.0
502.0,499.0,515.0,491.0,527.0
505.0,497.0,522.0,487.0,520.0
511.0,493.0,526.0,487.0,514.0
520.0,494.0,530.0,495.0,508.0
524.0,497.0,530.0,505.0,501.0
536.0,504.0,531.0,518.0,497.0
538.0,510.0,527.0,530.0,486.0
535.0,515.0,524.0,540.0,488.0
527.0,516.0,516.0,540.0,491.0
526.0,518.0,506.0,543.0,499.0
519.0,521.0,500.0,542.0,506.0
503.0,511.0,487.0,526.0,530.0
495.0,511.0,488.0,519.0,536.0
492.0,509.0,490.0,509.0,538.0
493.0,504.0,498.0,502.0,535.0
496.0,502.0,506.0,497.0,534.0
501.0,498.0,515.0,492.0,527.0
502.0,493.0,521.0,485.0,519.0
508.0,491.0,528.0,487.0,517.0
513.0,491.0,528.0,490.0,510.0
518.0,494.0,530.0,497.0,502.0
525.0,499.0,535.0,508.0,504.0
