CH1,CH2,CH3,CH4,CH5
512,506,515,507,512
520,506,519,513,509
526,508,528,524,501
527,509,529,530,499
530,512,527,530,499
523,508,523,529,503
523,507,516,524,506
512,503,511,522,517
500,500,506,515,523
502,502,501,511,516
505,504,500,506,523
505,506,504,503,522
510,510,505,503,518
510,508,508,501,520
511,508,510,501,516
509,511,514,503,516
508,506,514,505,512
513,506,518,510,508
518,506,522,517,508
520,506,524,524,506
522,508,527,528,504
522,507,526,531,496
511,506,520,527,502
506,503,514,523,508
499,499,506,517,517
493,497,501,514,525
493,499,500,507,524
498,505,502,505,524
499,505,505,504,527
499,505,508,503,519
515,506,509,502,517
524,510,512,502,511
517,509,514,503,512
509,501,513,504,507
512,502,517,511,504
522,508,525,519,500
522,507,530,530,496
524,507,525,529,499
532,508,526,533,496
523,502,517,524,506
519,504,514,524,508
507,499,506,516,523
501,499,500,510,534
503,503,502,505,531
506,508,504,505,531
505,508,507,502,528
507,507,506,502,521
505,505,508,501,519
506,508,512,502,515
503,505,511,501,511
513,506,515,505,503
517,506,519,511,500
523,507,525,523,495
524,511,527,529,494
529,510,527,532,497
521,505,522,531,504
515,504,517,527,505
514,503,514,526,510
503,497,502,513,524
505,503,501,508,530
501,503,499,505,531
502,507,502,501,526
505,505,507,503,523
506,506,507,504,522
505,506,508,501,517
507,507,513,502,516
511,506,512,501,507
525,506,518,509,503
524,508,522,516,503
525,508,526,524,497
522,508,526,530,498
521,508,522,529,497
515,504,521,526,505
513,502,513,523,509
499,497,505,517,519
497,498,506,513,525
494,502,500,508,523
496,505,500,504,526
499,508,506,502,520
503,507,510,502,510
512,507,509,501,513
524,508,510,500,511
519,507,512,501,511
512,503,515,504,510
512,505,519,510,511
514,510,524,518,511
513,502,523,523,506
527,505,521,525,496
532,509,524,527,496
527,505,519,526,503
521,504,518,527,507
508,499,505,515,517
506,501,502,510,527
501,502,500,504,526
506,507,503,502,524
509,506,508,501,516
515,508,511,505,512
514,505,509,501,518
511,502,510,498,519
512,507,513,501,517
515,508,518,507,511
516,504,520,510,504
521,507,525,521,499
524,509,528,526,498
523,511,528,531,497
518,506,523,527,505
513,503,521,524,507
510,502,512,519,515
500,498,504,513,525
500,501,501,508,526
501,504,504,507,527
505,509,504,503,523
510,509,509,504,517
510,507,512,501,514
509,506,508,498,518
511,507,511,500,520
507,504,514,504,521
509,504,517,509,504
514,506,523,513,498
519,507,525,523,490
520,509,526,527,492
521,508,525,529,492
517,508,518,525,501
512,504,515,525,510
498,496,500,512,519
502,500,502,511,525
497,501,501,507,528
498,506,501,508,525
503,509,508,504,519
504,507,509,503,511
500,504,509,501,511
503,506,512,502,520
518,507,513,508,515
515,505,515,504,509
514,506,519,509,507
527,506,524,520,498
532,507,524,527,496
527,507,524,529,497
529,509,525,530,500
518,504,517,528,512
518,502,514,524,511
505,497,504,515,521
502,500,503,510,526
500,502,501,508,524
505,507,504,506,524
504,505,506,503,518
504,506,509,505,513
503,507,512,504,514
507,508,511,506,509
509,505,514,504,511
508,503,514,506,513
517,504,520,513,516
528,509,525,525,503
527,510,529,527,499
533,512,526,531,497
524,506,522,527,507
511,501,517,526,514
504,502,511,521,519
501,501,504,513,526
499,499,500,503,526
502,505,502,501,518
504,507,503,503,515
514,507,506,503,508
524,507,510,502,513
517,504,508,499,517
510,509,512,504,527
510,508,515,506,521
511,504,518,509,515
514,505,522,517,508
518,507,531,526,495
517,508,528,530,499
524,510,528,532,497
517,504,516,525,509
510,502,514,524,506
516,500,506,517,514
511,503,502,513,518
504,500,499,506,518
506,507,502,505,518
510,508,508,505,517
508,507,508,503,522
506,506,511,499,526
509,507,510,501,517
511,509,515,503,515
509,505,515,503,512
515,504,518,511,510
526,508,523,520,502
529,507,526,527,500
528,506,524,530,499
521,508,525,529,501
514,505,518,530,509
510,503,515,523,512
500,499,504,516,523
498,501,501,511,526
497,503,501,507,534
501,505,503,502,529
504,508,507,505,522
506,507,509,505,513
517,510,508,500,516
518,511,517,504,511
512,507,509,501,507
517,506,517,509,505
518,504,521,515,505
520,507,525,525,501
521,510,527,530,502
523,511,527,530,497
519,504,520,528,503
515,503,515,525,505
509,499,509,520,514
503,498,500,511,517
501,501,500,509,524
502,504,499,503,524
506,510,504,503,523
507,508,506,506,520
509,508,508,501,518
507,507,508,500,520
506,505,508,499,513
504,506,514,503,508
506,505,517,507,504
513,507,520,514,501
516,511,525,525,497
518,508,528,533,500
520,508,524,531,503
524,505,516,525,507
522,506,515,524,513
505,499,503,513,522
503,500,500,507,525
504,502,498,504,523
506,507,502,504,525
508,508,507,504,524
510,508,507,502,518
510,507,509,501,519
511,509,509,500,516
513,508,511,502,511
516,506,516,505,507
518,505,517,509,504
521,507,522,521,496
522,505,525,527,495
521,507,525,528,502
521,507,520,527,501
513,502,513,522,509
510,502,513,524,515
505,502,503,512,522
501,500,499,509,527
503,504,500,505,528
505,510,503,504,528
505,507,507,501,521
513,510,507,503,517
509,505,507,499,514
511,507,509,500,505
506,504,511,502,506
510,506,517,507,507
508,502,520,511,506
517,507,527,523,493
517,507,527,528,499
516,508,525,530,502
524,506,520,526,507
519,506,517,524,515
511,498,506,517,523
509,501,502,516,523
501,500,498,506,517
502,505,501,501,511
502,505,502,502,520
504,506,506,502,522
503,507,508,502,532
512,505,506,497,532
520,508,513,502,510
519,507,512,506,505
523,507,519,508,503
523,507,522,518,498
525,510,528,526,495
525,510,527,526,493
524,508,526,531,494
512,502,518,526,506
513,505,516,525,506
506,498,504,514,522
504,501,502,509,527
510,507,503,508,526
504,506,505,504,521
504,508,507,502,521
507,510,510,502,517
507,506,508,501,518
506,507,511,501,519
513,507,511,501,515
522,509,516,506,508
524,507,520,512,506
528,508,525,523,500
526,512,528,529,501
525,509,525,529,506
521,507,523,530,510
512,503,515,523,513
514,504,515,524,512
498,497,502,513,523
496,500,499,508,529
500,506,503,506,531
505,507,503,504,523
517,509,507,503,522
518,508,510,503,517
512,506,507,500,516
510,507,512,501,516
509,505,513,502,510
513,505,516,509,507
517,506,520,514,503
523,508,525,525,497
523,510,527,531,495
527,513,531,532,497
518,503,519,527,501
514,503,517,525,504
507,499,508,518,518
500,499,500,510,523
502,501,502,508,526
502,505,502,504,526
503,507,505,502,521
504,507,509,505,518
509,506,506,501,511
505,504,510,501,519
505,506,512,504,512
519,507,516,504,512
518,505,518,510,504
520,506,523,517,501
522,507,527,526,495
524,509,528,529,499
524,511,527,532,499
513,500,516,524,508
512,503,515,524,510
502,501,506,515,523
499,497,498,508,525
502,502,502,506,526
504,505,503,508,527
508,507,507,504,519
511,508,511,505,518
507,504,509,501,518
509,507,510,501,516
510,506,514,501,516
511,505,516,503,507
516,505,520,513,507
520,507,524,521,499
522,506,525,529,497
522,508,527,533,501
521,507,525,530,496
512,502,517,524,507
510,502,514,521,512
501,496,503,514,519
501,500,501,509,523
502,506,503,506,526
505,506,504,502,522
508,509,508,502,519
512,509,511,509,516
508,504,509,498,521
511,508,513,502,512
509,504,513,503,515
512,504,518,508,506
517,510,524,516,503
523,510,529,524,500
523,509,527,528,499
524,511,531,530,500
515,503,520,525,506
513,503,517,523,507
506,500,510,518,519
501,497,502,511,526
501,502,502,507,529
504,506,504,508,528
506,509,510,505,525
506,505,508,503,512
508,507,511,503,506
505,505,509,500,510
511,507,514,501,507
512,506,519,504,510
516,508,524,510,508
517,504,522,516,502
525,504,525,524,498
522,505,524,528,497
523,509,526,533,498
515,502,518,525,510
513,502,520,527,510
502,498,505,515,517
501,502,501,508,525
500,503,502,503,524
502,508,505,505,523
509,509,507,501,516
514,510,511,505,516
509,507,509,498,516
507,507,511,499,517
511,509,514,500,517
511,505,516,505,514
515,506,520,511,502
521,508,526,520,498
524,509,529,526,495
523,510,526,530,497
523,509,525,531,500
514,505,520,525,509
514,504,513,522,510
503,502,504,512,522
503,499,499,506,528
503,504,501,504,524
511,507,505,505,525
505,506,506,501,523
511,509,511,503,520
510,506,510,498,523
512,507,514,502,511
512,505,514,501,507
517,506,517,508,503
519,506,519,514,497
521,505,521,523,494
522,507,520,526,493
525,511,523,533,492
517,505,518,527,503
511,504,516,525,509
504,500,506,517,514
502,500,504,514,524
498,500,504,505,529
502,504,505,502,529
506,509,511,503,527
508,506,512,503,520
515,510,508,502,517
506,503,511,498,515
509,505,513,501,513
514,505,516,503,511
515,505,518,512,505
520,508,523,519,503
524,508,528,526,499
521,507,526,530,500
522,508,527,533,502
514,502,518,522,503
513,504,517,522,509
502,496,503,512,518
502,499,502,509,525
500,501,500,507,523
503,507,504,505,522
506,507,507,506,524
512,508,509,499,517
515,508,510,501,518
511,505,508,500,512
514,507,517,504,510
514,505,517,506,509
513,503,520,513,505
521,508,527,523,500
525,507,530,526,498
521,507,528,531,500
519,507,524,527,500
514,504,507,522,507
511,503,508,523,508
504,500,498,515,519
502,502,498,512,525
507,505,498,506,523
506,513,504,505,525
504,506,499,500,520
511,510,511,504,517
508,506,513,502,519
511,506,513,500,510
513,507,510,501,512
516,508,511,505,504
518,506,523,514,501
521,508,525,525,497
525,508,529,529,499
524,509,529,530,499
516,503,522,525,509
511,500,517,521,511
506,498,516,518,517
501,497,505,509,523
503,501,505,510,528
504,504,504,505,527
509,507,507,505,523
511,508,517,510,520
510,507,516,499,519
511,504,514,498,524
514,505,517,502,514
513,506,520,506,511
514,506,525,512,512
515,506,528,522,503
521,506,525,528,493
520,508,528,531,498
522,509,526,532,498
513,503,518,526,504
513,504,521,525,507
502,498,506,516,522
499,497,502,506,525
503,504,503,508,525
504,505,503,505,522
506,504,507,505,519
509,505,511,509,520
509,505,509,497,518
511,507,513,499,514
513,509,521,506,512
513,505,518,508,507
516,505,519,511,501
523,508,527,522,495
521,506,527,527,494
522,506,527,529,496
524,505,524,529,502
513,503,518,524,511
508,500,514,519,518
498,495,502,510,525
500,495,501,505,516
506,505,502,505,518
508,512,513,506,523
506,506,516,505,519
511,509,521,506,517
508,503,520,500,521
510,506,524,501,515
510,502,506,501,513
514,503,514,507,508
519,505,521,519,501
525,514,526,523,496
523,510,526,531,499
523,510,527,530,501
518,507,527,527,505
512,503,521,525,510
504,498,507,514,515
501,499,503,509,523
503,501,503,507,523
503,500,506,502,520
512,507,508,503,517
514,506,513,503,517
510,497,511,501,517
507,499,512,499,519
510,506,534,501,514
511,501,538,502,510
514,500,542,511,507
520,505,532,517,502
523,503,509,524,497
526,500,519,530,495
521,486,523,533,502
506,477,512,520,511
510,499,507,520,511
507,521,510,520,516
501,508,495,513,523
501,503,496,505,526
505,500,501,500,527
510,502,512,502,523
511,497,513,509,518
509,499,516,512,516
507,511,514,518,514
508,518,508,510,513
511,519,512,508,508
517,515,518,505,499
523,501,514,504,498
525,500,519,514,499
523,493,522,524,500
521,485,522,527,502
513,479,510,516,509
515,488,499,515,517
505,504,538,512,526
503,516,542,515,525
505,512,553,519,523
508,506,507,509,524
511,502,463,502,524
514,509,498,498,523
509,495,485,501,520
512,488,490,497,517
514,499,487,487,513
520,525,508,495,489
519,519,505,517,491
519,506,499,517,493
527,508,515,524,493
532,511,517,526,497
517,488,519,521,503
510,459,504,517,506
504,449,484,500,514
498,459,481,496,526
487,466,471,483,534
493,496,481,496,533
510,547,501,514,517
525,572,539,522,507
522,527,544,526,504
519,488,554,517,505
518,493,509,522,501
509,495,527,517,501
510,511,518,523,500
518,514,463,504,501
516,510,523,509,505
520,506,514,500,501
529,523,519,478,502
517,514,522,502,505
512,508,528,536,503
495,520,532,571,517
489,524,538,546,527
500,528,539,527,526
514,525,529,510,524
531,532,535,509,498
523,541,548,519,490
507,537,546,519,504
506,512,528,509,516
504,499,530,509,512
513,501,539,515,501
518,473,531,516,503
524,468,520,518,502
522,473,517,519,505
520,493,544,532,506
518,502,561,524,506
510,519,571,513,512
504,507,547,523,521
508,508,492,504,521
509,527,517,509,520
497,490,509,506,528
506,475,514,501,515
516,487,508,510,503
514,463,498,483,510
500,420,485,444,531
502,451,513,474,522
515,508,517,502,513
523,536,476,503,501
521,537,516,521,496
516,512,538,536,496
510,532,542,528,500
521,542,549,539,493
526,544,557,544,500
514,521,544,551,512
498,514,533,524,522
495,514,521,501,528
502,543,523,495,528
508,541,519,510,521
512,522,509,516,515
513,521,523,507,515
507,525,524,513,510
502,536,538,516,516
511,524,538,496,518
516,508,536,493,511
518,490,529,506,508
521,480,531,517,503
522,477,528,526,506
516,472,520,532,506
514,498,512,532,503
506,487,490,525,506
514,493,500,517,510
510,502,510,515,510
507,469,491,507,519
512,482,509,527,520
511,471,525,560,520
502,439,532,516,519
504,447,520,516,515
514,502,527,497,510
514,460,526,496,509
506,434,484,501,522
508,496,500,457,525
520,593,548,461,520
531,587,524,495,501
527,522,538,536,495
538,486,529,504,486
537,461,510,538,483
521,411,466,589,484
487,367,440,570,507
481,428,457,548,526
505,578,496,539,508
526,617,613,507,506
529,597,634,479,513
520,502,655,500,526
510,461,578,512,536
500,509,553,461,540
491,456,554,434,528
503,483,564,411,519
511,508,502,465,497
514,587,544,541,491
530,605,626,524,486
531,534,563,536,484
518,488,445,544,494
513,501,512,533,504
517,512,476,502,502
519,479,460,519,502
510,398,477,559,508
518,408,513,572,509
496,403,524,536,529
507,431,614,534,516
516,544,624,480,515
490,502,527,462,531
494,534,521,480,513
513,555,512,408,508
511,528,546,458,506
533,494,667,569,487
539,382,495,586,486
529,344,513,601,486
516,367,458,620,497
494,397,528,558,512
502,607,499,548,517
501,608,477,533,516
508,629,446,430,520
504,606,421,481,528
506,629,510,504,533
521,624,571,493,508
518,581,591,505,503
521,562,512,534,496
518,537,435,515,515
494,490,421,433,534
498,497,546,527,526
503,459,502,494,524
522,490,501,444,507
518,478,454,496,498
527,488,506,567,488
528,504,530,577,495
536,525,502,530,495
525,492,586,512,507
513,423,549,565,511
503,383,573,548,511
505,483,513,580,516
479,426,427,545,535
473,478,478,477,539
506,526,421,459,513
531,514,500,535,494
522,422,497,514,509
494,428,416,477,516
491,507,431,446,508
525,602,566,521,483
532,516,563,511,489
517,429,542,494,500
497,467,517,520,510
520,639,515,547,493
549,672,588,589,486
544,651,678,639,482
528,500,677,579,500
492,288,583,451,539
473,181,487,397,582
438,120,296,473,589
492,633,406,489,559
521,711,446,566,504
531,725,487,596,457
527,624,518,495,469
516,562,503,422,494
525,575,491,470,491
543,614,557,514,491
529,590,614,548,487
526,547,659,563,475
521,488,592,538,502
517,409,485,517,512
490,378,445,540,518
512,500,498,555,506
519,502,439,545,556
516,415,461,518,596
494,315,370,403,610
489,413,477,522,600
498,573,495,519,516
508,630,578,483,445
526,719,667,549,456
528,651,590,559,459
525,588,498,478,463
516,584,419,513,488
522,559,536,557,491
529,459,486,539,490
521,310,452,533,500
501,289,359,499,498
503,402,426,399,477
518,545,592,478,456
513,429,558,628,445
505,410,464,577,482
510,498,413,526,497
505,456,395,506,496
524,549,540,475,506
520,662,622,445,534
521,674,581,524,508
531,660,478,575,507
522,503,490,528,525
478,334,519,466,558
469,417,301,454,560
527,727,515,557,504
526,664,595,534,478
526,650,579,532,485
533,631,591,499,491
516,588,519,522,499
500,535,486,472,530
494,490,502,517,529
488,489,498,523,528
492,524,623,549,513
497,473,551,541,529
518,386,356,473,530
505,261,302,453,530
510,399,500,538,502
507,503,573,563,493
520,605,587,566,483
499,526,503,422,529
495,464,499,411,532
516,500,504,474,516
537,503,512,603,498
536,461,553,617,499
515,447,567,613,504
487,507,608,516,541
516,688,512,450,578
507,620,447,476,600
511,507,495,518,580
506,521,500,465,573
507,504,442,535,524
488,502,437,544,496
478,490,544,549,510
509,556,498,525,490
522,636,474,489,484
513,561,500,523,467
523,567,517,484,461
532,557,508,488,501
522,486,523,508,535
520,434,516,529,541
501,353,514,572,521
503,439,507,520,505
505,410,556,494,466
480,330,478,510,426
490,395,437,467,492
519,498,470,521,521
510,474,472,550,556
502,479,623,588,574
507,590,637,578,558
511,563,591,499,582
486,500,478,425,564
517,600,436,442,471
533,586,366,471,455
534,562,475,537,493
529,497,527,561,493
516,573,515,580,475
521,549,538,468,478
552,628,585,506,465
537,545,563,578,476
504,421,436,540,509
492,524,525,481,529
501,576,547,532,538
498,463,491,496,537
495,406,451,518,502
501,385,444,485,489
503,425,448,441,496
520,508,537,515,508
501,511,659,571,515
489,486,625,561,531
511,539,571,553,490
527,509,473,523,461
520,404,416,460,466
506,435,413,422,492
516,480,573,583,487
533,561,756,643,505
536,599,528,566,511
508,479,378,421,553
499,534,481,450,546
517,651,474,469,537
514,622,494,522,518
513,500,455,532,466
506,410,422,500,519
512,417,571,530,522
514,513,601,513,519
499,531,437,441,563
484,545,428,481,541
523,655,567,507,504
540,609,567,569,478
530,542,544,605,455
511,491,484,547,500
514,502,530,523,519
516,542,566,513,529
515,535,503,521,526
503,521,477,493,510
503,535,514,490,494
513,462,522,530,458
502,321,414,504,473
491,256,369,483,494
503,432,534,541,504
513,532,637,540,497
512,480,667,445,527
524,611,691,519,521
501,595,364,526,531
502,591,416,550,529
530,643,505,532,489
535,580,459,455,455
526,553,473,496,468
520,536,502,532,474
513,514,491,526,485
515,498,474,513,508
508,433,484,524,540
495,365,543,574,543
484,343,422,457,606
471,327,421,415,588
506,533,549,476,526
530,634,573,498,502
527,567,489,537,484
516,571,521,533,491
514,577,534,547,493
501,557,533,527,492
518,533,536,531,482
527,575,529,536,495
530,535,496,519,508
521,546,508,516,506
515,522,511,530,518
517,517,522,521,519
498,504,537,512,535
506,502,553,498,539
497,463,480,497,542
504,409,472,541,526
502,350,487,548,559
501,513,549,494,584
517,620,630,470,536
519,585,599,576,513
495,546,439,588,494
509,506,478,389,482
534,462,517,440,475
535,451,502,517,471
525,456,458,550,496
522,465,510,579,480
519,478,513,542,479
495,410,507,510,512
507,518,666,491,520
515,586,585,497,507
505,588,400,492,530
503,563,475,516,531
507,551,534,513,549
506,538,459,455,540
519,516,461,506,504
519,499,490,543,499
504,452,501,532,493
504,450,498,482,492
503,379,518,477,518
513,500,523,505,517
525,511,490,529,497
525,475,498,520,491
522,490,481,530,505
501,473,519,477,525
524,577,625,563,477
517,560,603,584,495
508,535,521,592,516
502,493,444,557,523
486,385,417,470,561
494,424,467,490,553
517,617,555,495,539
504,542,625,486,520
505,489,566,431,489
511,504,537,434,505
518,590,559,476,501
525,559,531,524,495
533,564,511,529,487
529,508,528,544,494
514,434,492,554,507
501,425,361,471,507
527,515,478,480,496
530,536,568,597,513
518,567,588,621,549
510,574,538,524,576
494,454,472,465,518
492,439,417,441,468
499,453,458,474,480
518,513,569,523,484
521,570,616,547,465
502,531,526,527,498
495,517,488,511,512
521,506,565,507,503
521,523,560,505,509
526,529,509,511,521
518,496,524,511,533
521,519,513,569,515
518,531,537,594,537
516,501,519,556,552
514,509,486,484,558
513,545,510,489,533
507,482,549,500,534
491,394,473,521,511
476,375,482,497,538
509,573,556,567,506
525,615,586,537,485
509,575,492,389,527
518,553,517,451,498
521,538,563,568,483
500,497,573,526,512
513,487,634,453,521
523,448,586,417,506
530,485,449,480,487
519,438,382,560,490
510,510,424,570,499
515,590,546,542,492
518,600,567,524,501
504,527,529,519,519
508,474,476,531,513
498,397,424,512,534
491,382,446,509,544
506,480,519,468,535
511,565,501,466,524
515,578,511,530,500
512,533,517,507,510
518,497,516,487,509
512,441,532,500,499
503,467,520,526,501
526,586,541,546,522
533,493,514,546,499
538,453,552,554,493
525,462,639,563,490
496,527,491,539,494
508,631,467,506,500
504,579,545,498,520
499,519,473,511,519
505,463,495,512,503
504,467,543,507,515
496,487,501,557,533
516,587,470,514,538
512,544,475,423,539
527,573,526,429,536
515,549,522,511,543
514,505,514,520,532
531,458,511,555,494
510,427,536,577,436
523,481,628,528,472
530,503,654,428,553
513,500,572,514,554
502,509,578,626,513
497,582,494,494,500
501,578,485,451,510
508,536,430,443,499
511,525,456,493,502
515,508,460,557,500
517,494,451,507,512
504,489,507,481,512
517,515,492,490,509
514,510,476,547,520
515,465,527,527,520
513,459,499,517,524
517,515,636,590,508
523,519,668,596,494
503,431,493,541,526
508,475,402,443,512
520,497,540,499,500
510,518,558,497,517
499,505,458,494,533
506,555,502,498,517
515,513,520,504,512
511,447,488,515,505
507,497,451,504,514
513,523,504,514,511
505,455,488,497,522
496,465,471,482,521
509,561,532,500,505
525,582,549,520,503
521,532,524,528,491
525,537,554,529,488
536,523,528,535,493
541,446,562,578,480
506,339,466,514,514
480,395,460,438,548
515,588,533,461,494
504,579,537,502,507
511,562,543,536,505
512,518,540,543,494
509,520,480,507,516
508,459,463,523,538
496,424,507,506,543
495,489,567,504,552
509,558,600,527,559
527,630,523,506,568
515,525,485,484,562
523,506,559,482,492
531,549,525,526,478
534,541,486,599,444
534,541,603,555,459
508,522,534,479,524
508,517,512,486,525
508,493,507,554,513
492,499,481,532,536
498,483,517,495,523
501,497,543,510,503
521,467,461,487,492
512,375,487,506,514
504,385,561,563,527
498,475,563,521,518
505,512,520,471,494
507,535,576,499,487
524,627,546,529,506
535,601,441,490,532
529,564,535,516,523
530,569,521,543,479
523,540,500,498,487
518,505,527,523,490
512,499,481,523,498
496,463,454,505,513
499,496,559,500,527
495,485,554,506,538
508,555,525,480,535
520,539,506,509,511
522,551,515,506,512
510,518,520,491,513
504,485,470,495,528
500,486,466,456,546
524,497,518,501,525
517,449,503,538,528
518,475,525,561,502
522,532,537,537,509
520,499,517,521,498
515,501,519,538,490
518,533,529,523,501
516,559,524,515,510
507,508,600,532,511
495,491,512,532,518
498,493,451,521,523
500,490,559,518,528
515,510,521,484,514
516,491,464,493,512
518,459,470,507,513
503,456,494,507,535
523,537,527,479,521
503,490,486,437,532
524,580,541,581,508
533,573,599,564,514
512,519,489,510,506
525,539,491,520,501
520,495,510,519,495
508,457,495,501,496
488,432,483,502,513
497,492,488,509,517
505,507,503,493,521
514,478,508,501,530
519,440,517,509,518
490,426,474,516,514
514,555,536,504,544
514,535,559,476,563
510,552,509,420,568
512,580,527,495,557
514,536,545,558,481
521,504,536,559,440
527,496,524,537,464
523,486,508,519,480
514,492,529,520,503
518,564,561,531,536
513,573,578,552,530
500,514,583,519,519
497,491,438,498,499
503,497,486,505,487
506,504,508,498,520
506,508,535,541,536
507,474,525,531,539
518,523,506,484,517
517,513,454,463,492
516,482,516,504,475
516,482,495,517,471
512,496,486,517,482
524,532,555,512,504
529,564,587,535,507
512,490,531,526,519
522,540,528,525,515
522,519,555,514,514
504,467,535,523,524
494,461,466,511,531
507,519,542,517,522
506,524,573,528,528
511,533,530,508,557
516,535,535,491,567
515,485,473,533,551
508,427,558,570,505
509,414,534,499,445
507,400,381,456,465
498,411,490,498,508
510,515,549,557,518
525,652,520,492,511
541,596,587,504,490
530,544,537,502,507
517,514,509,544,534
512,545,513,535,555
503,509,495,501,554
505,494,511,507,539
502,492,522,501,524
499,511,522,480,486
518,548,606,535,485
518,525,497,533,492
499,525,426,484,528
498,525,478,451,513
510,536,526,503,489
515,522,523,518,496
520,510,517,507,492
524,496,526,521,492
531,500,550,532,496
525,470,471,533,498
524,460,479,508,501
510,487,536,516,514
505,529,558,514,503
505,515,567,516,515
486,462,472,493,531
483,425,444,490,545
507,519,569,529,533
517,465,503,504,515
506,436,478,507,521
504,491,466,494,504
529,570,519,500,467
516,526,503,499,489
514,558,548,525,514
517,534,545,533,523
527,540,480,515,507
532,527,577,574,493
529,527,630,645,474
524,549,611,572,475
502,518,513,447,549
504,523,492,511,562
499,490,458,476,523
500,476,463,513,524
509,491,486,539,526
506,500,475,490,531
519,518,493,486,536
517,533,508,494,514
515,513,530,495,511
511,476,515,510,479
514,426,480,509,464
500,445,498,495,512
520,583,547,506,500
518,556,532,522,499
523,537,555,570,500
523,520,557,545,513
504,474,508,494,517
504,436,489,485,522
494,413,476,508,530
507,492,503,509,523
495,471,511,516,557
501,544,524,510,555
513,562,527,487,519
517,565,478,499,510
509,532,497,487,530
513,521,502,497,556
511,512,507,484,560
511,535,524,493,538
513,530,544,518,499
527,497,524,546,456
522,451,518,540,432
516,443,496,524,472
512,473,509,525,512
510,487,544,563,504
505,518,550,529,520
502,556,564,517,527
506,541,457,496,525
512,523,526,516,510
501,512,536,527,522
503,495,478,510,530
508,523,501,458,526
515,536,511,504,507
513,529,515,501,528
511,507,529,503,519
507,482,499,502,545
521,484,521,504,533
522,484,505,511,486
521,466,519,530,472
532,537,525,558,485
518,483,539,525,492
519,489,539,506,495
487,415,449,484,517
503,528,550,539,513
495,500,529,557,525
514,513,505,539,519
530,538,609,513,509
519,539,491,519,520
510,543,443,477,523
509,535,507,472,517
501,516,485,483,505
517,526,485,507,498
518,504,532,512,517
514,460,538,528,509
516,435,460,517,515
519,494,532,508,518
522,546,559,517,479
522,534,507,509,483
520,529,509,508,495
500,488,524,554,512
509,535,506,522,503
510,475,485,527,502
497,428,526,550,508
491,463,535,517,523
506,516,495,447,534
505,497,461,466,526
515,593,576,504,531
518,559,593,512,528
520,534,518,527,516
524,533,486,520,495
525,525,492,517,493
525,512,494,538,498
526,510,521,529,485
527,501,515,531,492
514,482,514,519,517
484,482,540,525,549
494,487,497,495,540
503,467,452,453,520
505,400,491,510,523
514,497,560,522,509
515,553,533,469,534
509,549,557,536,547
521,544,478,494,530
513,525,483,500,496
512,531,518,527,493
513,502,527,529,500
524,514,485,526,505
523,520,506,539,528
519,515,529,510,508
513,504,523,514,498
518,508,535,516,502
512,498,526,526,495
498,473,529,539,513
491,518,529,546,533
505,519,463,512,522
513,496,471,491,532
509,519,500,488,528
519,510,489,465,524
511,511,524,489,536
509,548,497,482,558
513,516,509,493,505
516,509,478,523,507
515,496,492,504,487
526,489,511,517,480
524,502,532,519,489
517,487,568,540,513
528,535,561,552,521
521,536,510,495,549
504,502,528,521,513
492,495,511,557,495
502,522,487,533,476
500,534,522,489,528
506,518,510,495,525
505,500,502,497,527
516,500,525,497,510
514,501,537,512,496
507,495,479,499,512
516,520,514,500,515
514,527,529,513,518
514,511,524,510,509
516,483,522,514,512
520,465,508,519,517
527,473,523,531,523
524,469,563,572,516
494,390,480,555,509
504,567,540,495,481
507,576,565,464,489
494,513,539,506,516
504,521,480,510,517
506,513,495,513,531
508,532,496,496,549
516,516,502,513,543
509,485,514,530,527
508,472,501,488,492
504,471,477,468,492
512,495,513,518,513
524,492,547,536,512
528,480,506,523,495
527,554,525,546,479
522,533,530,544,498
521,505,523,530,513
520,513,541,528,530
488,491,498,486,557
496,537,516,472,533
503,514,508,468,497
494,497,473,503,509
510,520,505,524,503
520,524,525,518,511
520,507,496,508,514
504,510,521,505,521
508,533,508,496,513
519,526,528,510,498
518,514,529,515,517
521,503,524,517,495
522,497,529,526,502
517,495,534,530,498
522,505,535,535,496
521,516,513,524,506
511,487,498,519,512
508,496,497,516,516
506,511,504,516,521
495,507,508,514,524
493,497,501,512,530
516,507,502,494,516
516,505,503,498,513
509,514,516,507,512
510,507,518,502,522
504,513,525,506,514
513,530,528,507,508
519,518,525,509,507
518,516,531,533,510
523,517,534,533,501
526,518,532,522,499
519,511,526,527,502
515,505,522,527,504
508,500,513,518,515
502,501,504,512,525
502,503,502,507,525
504,507,501,507,526
508,512,508,507,518
515,509,503,502,515
510,505,508,506,513
504,494,513,506,513
512,482,505,505,516
512,522,520,501,520
515,524,528,499,516
512,508,526,493,507
523,512,530,542,499
527,515,531,535,496
528,509,526,534,494
521,507,521,526,500
513,505,520,518,511
505,497,507,519,522
495,495,503,511,525
496,507,502,502,533
496,505,497,494,533
501,506,505,503,525
509,506,507,500,513
509,505,510,510,513
508,503,506,494,513
506,504,513,503,510
512,513,518,506,500
515,510,520,510,502
510,504,523,517,505
517,499,525,524,502
515,510,543,524,507
532,512,546,531,502
507,506,506,528,513
501,509,533,524,517
497,497,498,510,522
500,501,501,507,522
499,506,502,504,522
495,508,501,506,526
499,506,508,500,529
515,509,511,501,522
531,510,509,497,514
535,509,511,502,513
524,507,513,499,511
517,507,516,506,509
522,504,525,515,506
526,509,526,520,502
532,510,527,524,499
526,513,533,532,499
520,507,526,528,502
513,509,529,525,504
499,498,515,519,519
496,495,507,513,525
492,501,501,507,529
495,498,501,505,531
509,516,505,504,525
524,511,509,506,524
524,507,511,515,516
528,513,517,493,518
523,511,516,501,520
518,509,510,502,511
520,508,519,509,507
520,510,532,519,507
521,502,529,525,504
519,508,531,530,501
528,507,528,529,497
515,491,516,525,504
513,511,522,524,513
505,502,512,516,520
505,499,506,512,528
502,504,507,514,533
511,511,505,495,522
520,515,508,501,519
513,510,510,503,526
514,510,511,498,517
517,512,512,499,515
512,508,518,499,512
514,507,518,506,508
518,507,523,514,505
523,509,529,524,501
520,507,531,527,497
521,510,530,526,499
521,512,533,534,504
515,505,527,527,507
505,504,524,530,510
488,497,505,509,525
484,497,500,504,528
483,503,501,503,529
482,504,503,505,530
488,503,504,496,514
488,505,509,503,507
481,504,508,501,512
485,504,510,497,519
500,505,514,503,514
507,505,519,507,513
513,511,524,516,507
516,511,531,522,506
528,511,532,529,504
545,517,533,528,502
537,511,527,527,506
530,506,524,527,511
523,501,515,522,521
523,502,509,515,526
523,504,504,510,527
525,511,508,507,526
522,511,506,505,525
522,510,510,505,523
525,509,512,505,519
534,508,515,508,512
520,511,517,511,513
512,509,517,506,510
518,504,520,509,509
521,505,524,515,508
523,507,531,527,507
523,511,530,528,504
528,513,531,530,499
503,506,524,523,512
486,498,519,525,508
466,492,506,515,520
465,498,500,508,529
463,502,499,511,536
462,502,502,502,544
472,506,506,502,535
492,510,510,497,531
540,513,515,500,512
567,516,514,499,502
565,517,518,507,506
536,516,522,511,502
525,513,524,514,506
526,509,530,529,498
528,506,530,526,497
538,513,525,522,500
528,510,532,534,502
529,509,522,526,512
527,506,517,522,520
514,499,508,517,527
510,498,500,508,529
503,502,501,505,530
505,506,501,504,525
513,512,505,504,527
513,509,514,506,518
513,510,515,505,508
509,509,516,503,507
509,506,517,506,510
520,506,519,508,502
525,504,522,513,497
528,510,528,524,492
522,508,526,528,503
513,509,526,533,513
511,507,522,524,514
509,506,521,523,519
496,496,507,516,531
490,493,499,509,527
500,504,504,510,524
497,505,503,510,523
506,510,503,499,523
521,510,509,501,527
526,515,513,503,526
517,514,516,501,525
512,511,518,509,517
511,508,516,505,519
517,508,522,513,517
519,509,525,517,519
524,510,527,522,510
526,511,530,533,511
524,510,527,529,516
517,506,519,522,519
514,505,516,529,499
495,493,504,521,490
499,500,501,501,497
501,504,504,508,514
502,507,503,507,525
509,508,505,501,528
531,512,507,501,530
532,511,512,504,512
526,510,514,506,502
517,509,516,508,508
512,506,517,507,506
507,498,516,516,515
515,504,521,515,500
525,508,527,525,503
520,513,527,530,515
520,511,527,525,510
518,506,520,523,510
501,501,514,523,512
486,498,506,515,518
489,501,502,511,516
489,502,500,506,517
487,504,504,508,520
503,510,506,501,525
514,514,508,496,530
520,514,512,503,518
533,513,512,502,515
530,508,515,505,505
516,505,519,512,502
502,508,522,514,502
500,510,529,523,502
511,505,530,529,495
508,504,525,531,495
505,503,519,527,504
503,503,515,522,505
505,498,506,515,514
517,500,501,513,517
527,504,502,508,522
516,509,504,508,533
515,512,505,498,527
518,506,505,506,527
511,508,508,497,527
508,511,509,499,522
515,511,515,505,520
513,508,517,502,525
518,512,521,511,515
525,509,525,519,501
523,508,530,526,499
515,508,530,529,503
524,512,526,529,504
526,509,520,527,508
506,504,514,525,516
493,498,505,512,523
492,502,501,510,527
494,504,503,506,530
504,506,503,502,528
501,505,504,502,523
497,506,506,500,519
507,509,509,502,517
509,508,510,502,518
502,508,512,501,522
512,508,520,506,514
520,508,521,512,521
526,509,521,517,511
537,510,526,530,500
533,510,523,527,501
521,506,522,530,501
514,502,517,525,494
516,499,510,527,515
534,503,501,504,505
533,505,500,506,506
519,505,504,505,513
516,509,500,502,525
514,507,507,504,528
512,508,511,509,524
513,509,512,501,517
517,511,510,498,510
508,506,510,501,505
505,506,515,505,503
501,505,520,513,499
511,508,520,520,490
521,508,522,526,487
521,510,526,533,486
518,509,519,532,494
518,507,518,522,497
521,500,506,515,508
522,497,502,517,514
526,502,494,507,529
526,507,499,501,521
516,510,502,501,516
511,502,502,501,507
518,505,509,505,505
519,506,511,506,503
522,508,515,510,508
521,507,516,504,512
514,507,515,506,512
511,508,521,517,486
514,508,527,530,487
517,513,527,529,495
523,510,523,529,503
513,507,518,524,516
514,505,514,521,532
507,500,504,514,539
488,493,493,507,542
479,497,492,502,560
482,504,500,504,550
481,505,503,502,540
479,505,504,501,527
475,504,507,501,518
503,506,507,504,497
522,512,512,502,485
541,514,517,512,477
543,510,517,513,473
539,508,522,520,488
538,510,526,526,509
526,506,521,524,523
513,508,520,525,533
504,503,515,525,521
512,503,510,521,521
497,499,499,512,529
490,500,500,511,530
491,503,501,508,528
495,508,505,504,524
513,509,501,501,523
529,512,507,504,524
511,509,509,503,529
499,508,511,502,530
487,505,509,503,530
490,506,516,509,520
497,505,517,514,505
502,505,522,522,496
506,503,521,526,493
516,505,524,532,483
516,504,519,528,492
524,502,514,521,496
533,499,502,515,507
520,498,495,509,515
501,501,497,507,524
503,501,495,503,514
503,505,500,503,513
528,508,504,504,514
517,508,508,504,525
512,505,507,501,519
503,503,505,498,529
504,503,510,503,519
507,504,514,510,505
499,506,522,519,503
496,503,524,525,501
498,506,523,529,499
503,508,525,533,503
498,506,519,527,515
522,507,515,524,519
518,501,505,515,535
514,504,501,512,544
500,506,499,505,550
485,506,500,504,543
474,504,502,505,530
488,505,504,499,525
525,512,507,502,514
533,507,508,499,501
524,506,509,503,501
520,505,512,507,500
538,505,517,513,495
556,509,522,520,494
555,507,522,525,495
545,510,522,527,492
537,508,519,527,494
538,507,514,528,498
531,505,514,522,505
518,500,498,513,517
509,500,498,508,524
505,502,496,507,528
514,506,499,501,527
520,509,503,504,524
518,509,505,503,522
515,508,508,502,520
520,510,510,503,516
510,501,508,504,518
506,502,512,507,517
499,501,514,511,510
501,503,523,524,495
498,508,524,530,488
489,506,519,528,489
484,505,518,530,494
475,501,511,526,507
473,494,500,517,510
474,494,496,512,516
480,499,495,506,525
532,506,498,504,517
544,507,500,501,529
534,507,503,499,519
530,509,507,501,509
531,508,507,502,512
528,507,508,504,515
528,507,507,504,513
532,507,514,504,502
532,507,521,514,498
538,508,521,522,494
531,507,521,530,499
524,507,523,532,503
514,503,514,523,505
507,503,512,523,509
497,498,499,513,521
494,497,497,509,523
488,501,498,505,528
498,506,500,507,534
500,506,503,504,534
511,507,502,502,527
511,507,505,500,521
508,507,508,502,516
516,509,511,505,511
512,506,512,508,514
527,508,516,514,509
534,513,523,524,506
535,511,524,529,501
529,509,523,531,498
523,506,519,530,491
517,502,511,525,487
514,499,507,519,486
508,497,496,512,487
505,503,499,509,507
511,503,496,505,532
518,507,499,504,527
513,503,501,500,527
508,506,509,503,528
503,506,507,503,519
507,507,508,503,518
505,506,512,505,524
500,503,515,511,526
502,503,515,513,508
504,505,521,519,504
517,508,524,528,503
522,506,523,528,498
510,504,512,524,505
508,503,513,524,516
493,496,501,514,532
501,501,497,510,537
498,502,496,506,535
495,505,497,503,534
499,507,503,506,512
495,506,503,503,515
504,507,506,502,522
519,508,507,502,509
516,506,509,504,504
520,505,513,508,501
541,510,516,515,490
535,507,519,523,477
529,507,518,520,479
522,505,520,524,484
525,509,520,530,475
529,506,516,527,482
522,503,511,521,521
509,498,501,512,538
505,500,497,507,547
501,504,497,504,549
502,507,498,503,541
522,509,503,498,533
519,505,503,502,536
513,507,507,506,526
510,503,505,502,504
507,506,508,507,491
510,506,512,510,484
511,505,515,512,487
507,505,518,523,488
506,506,523,529,495
507,508,519,532,503
505,506,521,529,509
505,502,513,522,514
509,499,506,516,521
504,495,495,507,532
508,497,493,501,538
520,505,498,504,523
518,508,501,504,517
510,505,502,503,518
507,504,502,501,520
511,507,507,503,510
512,508,507,500,514
505,509,510,505,514
506,504,513,508,506
511,505,516,515,496
515,505,520,523,486
516,506,523,530,495
516,506,522,530,505
522,505,515,524,510
521,506,514,525,508
504,497,501,514,517
493,497,497,513,523
489,499,496,507,522
498,502,494,503,517
500,505,497,501,517
505,505,504,503,517
507,506,505,500,512
515,505,504,498,512
514,506,508,503,512
520,507,512,505,508
536,509,518,513,501
533,512,522,518,499
527,507,523,525,496
522,507,527,531,502
518,506,521,530,504
520,505,516,527,505
515,506,512,522,508
504,497,500,512,521
505,498,497,508,528
505,504,496,504,526
506,506,499,506,524
508,506,504,503,524
508,505,505,503,519
514,510,507,502,517
515,508,507,499,513
516,505,510,503,514
514,505,514,508,510
516,504,516,513,507
519,505,522,521,501
520,507,523,525,500
520,507,525,531,499
517,504,519,526,504
511,502,513,523,503
502,497,506,518,508
496,496,496,512,524
491,499,496,507,532
490,502,495,503,527
492,505,498,501,522
496,505,503,502,516
508,507,507,504,510
504,507,509,502,507
509,507,510,506,510
510,504,513,509,533
517,504,514,510,521
524,503,517,514,506
534,505,523,524,497
531,506,523,528,505
526,505,521,529,497
517,502,516,530,504
512,501,513,522,507
512,496,500,515,516
508,498,498,509,524
504,501,500,508,527
507,505,497,505,520
509,506,502,504,517
511,507,504,504,518
513,507,508,503,516
510,505,505,501,508
510,506,508,503,505
514,504,512,506,508
512,503,514,510,512
515,501,518,517,502
515,503,521,524,496
511,502,521,528,499
511,503,521,529,496
519,504,513,526,501
513,503,511,523,513
507,501,500,513,525
497,499,496,507,525
500,501,495,504,524
499,505,499,508,527
499,506,500,501,523
507,504,501,500,519
504,504,507,501,518
505,505,505,499,513
514,505,509,505,503
520,506,513,510,501
521,507,518,515,504
529,508,522,525,496
536,507,525,529,494
531,506,521,530,497
522,505,518,527,509
519,505,514,522,506
507,497,503,517,518
498,496,497,512,525
499,502,496,509,525
499,504,497,506,526
501,506,501,505,524
505,507,503,504,523
510,506,504,504,514
517,510,505,502,511
522,508,507,500,510
515,505,510,503,516
515,504,515,509,517
515,505,517,517,509
519,507,524,525,501
521,508,524,527,502
519,507,520,531,496
518,504,517,528,493
507,502,512,527,505
500,497,503,512,517
502,498,495,508,521
506,504,498,508,518
505,506,499,504,520
507,506,504,504,516
506,505,503,505,511
513,507,506,502,518
512,509,511,505,518
504,504,508,503,523
506,503,508,503,517
512,507,515,511,508
514,506,522,521,495
528,509,525,528,496
524,508,523,534,496
510,504,521,531,505
500,500,515,525,512
492,499,508,518,520
486,496,499,512,520
509,503,498,508,525
521,507,501,507,521
526,508,501,508,520
519,506,503,503,516
513,504,504,502,517
511,507,507,503,515
511,506,508,500,515
507,503,507,501,520
509,503,513,507,516
519,505,516,514,509
534,509,523,523,504
530,508,522,528,499
526,508,523,534,506
524,508,518,529,504
513,504,515,527,511
503,496,506,515,515
505,500,503,513,523
500,502,497,503,530
503,505,500,505,524
509,508,501,503,519
519,507,505,504,513
517,507,507,505,520
516,509,510,505,517
514,504,508,499,508
517,509,512,504,510
518,506,518,512,509
517,507,521,519,502
521,508,524,525,498
523,511,527,530,498
522,508,523,529,497
524,507,520,528,502
516,502,514,524,509
505,495,501,514,521
500,498,497,509,522
502,504,498,506,520
508,507,501,506,515
508,507,504,503,506
509,505,506,503,506
509,508,510,503,514
508,507,511,503,522
500,511,513,503,536
498,506,516,507,531
511,504,518,514,521
520,509,524,523,505
531,509,529,528,492
528,509,525,528,499
523,506,521,527,508
515,504,518,526,511
511,502,513,521,515
499,498,503,514,522
498,499,501,508,515
505,504,501,509,514
506,508,504,508,512
512,507,507,504,507
512,506,509,502,513
508,507,514,507,518
505,503,507,499,510
506,505,516,503,508
507,504,518,509,511
509,504,520,514,504
519,504,526,522,496
534,507,528,528,498
534,511,527,530,497
524,506,522,527,506
513,503,521,527,512
502,494,505,517,522
496,497,502,512,526
495,502,501,508,527
495,508,502,506,527
506,508,508,503,525
509,507,508,502,521
506,505,505,500,520
503,507,511,501,521
517,509,514,502,516
526,507,515,505,513
520,506,520,514,509
523,506,524,518,493
523,507,527,525,494
527,511,528,528,500
528,510,526,528,506
520,507,521,528,509
513,505,518,525,513
498,496,504,513,523
500,499,501,507,520
502,503,502,506,522
502,506,504,505,517
507,508,507,504,509
513,509,510,504,507
516,509,511,502,515
512,507,509,498,530
509,506,514,501,532
510,506,517,503,509
511,505,521,514,509
516,506,524,519,503
520,506,527,525,505
521,506,526,525,508
529,507,520,525,512
520,505,519,524,512
508,502,516,524,525
491,496,501,512,528
487,499,498,506,525
488,503,501,506,526
497,508,505,504,525
508,510,509,502,515
508,508,506,500,510
517,508,509,499,513
515,506,515,499,505
512,505,514,503,505
515,507,520,510,506
530,507,522,515,503
533,508,525,521,501
533,510,527,527,494
528,509,525,529,499
518,506,522,526,502
512,504,517,523,506
506,501,506,515,518
503,502,501,510,525
504,502,498,505,525
503,505,501,506,528
509,508,505,504,525
510,507,509,502,521
507,507,508,502,522
506,508,512,501,516
508,508,512,504,513
514,506,514,505,513
515,505,517,511,506
525,507,523,519,502
527,508,525,526,502
520,510,526,530,496
518,506,524,531,497
511,504,518,527,500
508,503,514,524,505
499,497,504,514,512
500,497,497,509,518
509,504,500,508,520
510,508,505,507,529
505,505,504,503,525
502,505,504,502,520
503,507,508,502,519
502,507,511,502,514
508,506,509,500,513
523,505,514,506,511
524,504,518,513,507
524,507,523,518,503
531,509,527,528,489
529,509,525,529,495
519,504,521,526,507
513,504,512,522,510
509,501,511,522,509
504,499,501,512,521
498,500,499,508,523
499,504,500,505,527
508,509,501,504,526
515,508,503,504,522
510,505,505,502,520
509,507,507,500,513
512,506,509,503,510
512,505,510,506,512
515,507,517,510,510
516,503,517,513,509
521,505,524,523,500
524,505,528,530,502
521,506,524,531,504
517,504,518,529,507
511,500,513,524,512
500,494,503,513,523
500,498,497,510,523
503,501,498,506,520
506,505,503,507,521
505,508,505,507,521
506,506,505,504,516
505,502,504,500,516
507,507,506,501,511
508,507,509,502,512
506,506,512,505,511
519,506,517,511,506
525,508,522,520,502
523,509,525,529,501
519,508,523,529,505
516,508,521,531,509
514,506,516,527,509
510,503,514,523,513
502,498,500,512,519
500,498,499,508,518
504,502,499,508,516
503,504,502,507,518
512,507,503,505,517
515,507,504,502,517
508,506,507,501,524
506,509,508,499,517
504,505,511,502,511
506,505,516,505,502
508,505,518,513,507
517,507,523,520,502
522,512,526,529,500
531,512,525,533,499
531,508,521,530,494
522,507,517,526,505
510,502,511,523,512
499,500,502,513,518
501,504,503,509,522
501,503,499,506,513
510,509,501,507,512
509,508,505,502,528
511,507,506,502,524
523,510,508,502,518
520,509,510,502,515
513,507,513,504,513
518,506,516,509,507
520,506,520,518,507
525,508,529,524,500
528,508,526,529,496
522,510,523,530,498
516,505,519,526,504
513,505,517,525,504
502,496,505,517,521
495,495,502,510,530
496,501,500,507,527
502,503,500,504,523
504,505,502,503,519
500,506,506,501,517
505,505,507,501,515
516,508,510,502,515
514,508,512,503,513
523,508,515,504,510
520,505,519,512,509
516,506,523,520,507
522,506,526,525,506
522,508,527,530,515
523,506,522,531,501
523,505,518,521,496
526,507,515,520,499
513,498,504,513,510
503,497,497,507,516
505,501,496,503,517
498,505,500,507,534
495,502,504,500,529
496,506,507,503,518
497,505,509,504,519
499,506,511,501,518
497,506,514,502,522
506,504,514,507,508
533,506,519,514,498
533,509,526,523,497
535,511,527,528,496
526,508,526,531,497
523,504,521,526,505
529,505,517,525,507
520,501,510,518,513
510,500,502,512,523
504,505,501,509,529
504,504,499,506,528
507,506,503,504,525
512,506,503,501,521
515,507,507,503,521
512,506,509,503,517
513,508,514,502,514
516,509,518,506,511
518,505,518,507,504
519,505,523,517,504
523,510,526,525,501
526,509,528,530,495
523,509,525,533,492
512,503,518,527,500
513,504,515,527,504
513,493,508,515,514
501,496,498,509,521
498,502,500,507,521
497,506,499,504,524
501,507,505,503,523
507,509,510,506,524
508,506,508,500,524
505,508,508,501,521
513,507,512,503,508
522,506,515,506,495
519,504,518,513,498
525,507,523,522,497
523,507,527,529,506
519,507,528,531,522
517,507,523,528,515
513,503,519,525,507
518,503,511,522,503
513,498,503,514,513
505,500,500,508,526
503,504,502,509,523
504,503,501,501,521
509,508,506,499,523
511,508,509,502,520
504,504,511,500,523
506,507,512,502,523
507,505,510,502,511
514,506,517,507,497
520,506,520,514,497
523,508,524,518,494
521,510,525,527,496
523,508,526,531,501
519,505,519,526,504
513,504,517,524,510
508,500,511,519,516
500,502,502,513,525
497,499,499,510,530
498,504,497,503,526
502,508,504,501,520
505,507,507,503,518
508,505,508,503,519
508,505,509,501,515
512,508,510,500,511
511,506,512,503,512
515,507,519,513,507
517,507,523,518,502
523,508,524,525,499
525,510,528,528,501
523,508,525,530,502
515,503,518,524,513
514,505,516,526,517
501,501,505,515,526
502,499,499,509,528
500,502,500,506,525
506,506,501,508,522
509,506,504,506,519
508,506,509,503,510
505,504,508,501,509
509,507,511,501,511
508,505,512,502,514
508,503,513,505,512
511,503,518,513,504
517,506,523,518,508
521,507,528,524,500
515,505,524,529,500
509,504,522,528,498
504,503,516,521,502
502,504,515,523,507
497,496,503,514,523
511,500,501,511,526
515,502,499,504,526
514,509,502,505,523
521,509,507,503,516
518,508,508,502,510
509,509,509,502,519
509,507,511,500,517
508,505,511,501,516
511,505,516,507,511
519,505,521,513,508
528,507,526,523,498
528,508,526,529,486
527,508,525,530,489
519,504,518,526,502
514,503,517,522,505
505,499,508,518,523
500,497,501,511,526
499,500,503,509,529
499,501,500,504,530
504,506,502,504,524
505,504,506,503,522
507,504,508,502,520
505,505,509,504,520
504,506,508,500,517
525,509,515,505,509
526,508,519,509,503
529,508,522,515,503
529,508,528,525,502
526,508,526,528,503
526,509,525,528,502
516,502,517,524,509
515,503,516,523,511
508,497,505,517,517
504,501,499,509,520
498,500,500,504,522
499,506,500,504,522
503,510,508,505,520
505,506,508,504,514
501,505,504,498,517
502,507,511,502,520
509,509,512,501,522
518,505,513,505,515
519,505,518,514,504
523,507,524,522,494
524,507,527,528,491
522,507,526,528,504
526,507,521,527,506
518,501,516,524,512
516,501,515,521,501
497,496,504,514,515
492,498,500,510,522
496,500,499,505,525
501,504,499,501,530
515,506,506,501,526
519,506,508,503,519
524,508,507,499,520
514,505,511,502,516
509,503,512,503,508
508,503,513,505,499
510,504,520,514,502
525,508,525,519,497
524,509,528,528,498
530,512,525,534,500
518,505,522,527,506
522,504,517,524,505
509,497,507,519,512
502,497,501,512,524
504,502,500,504,522
506,506,503,504,527
506,507,502,503,529
505,506,506,504,523
506,506,506,504,515
505,505,508,501,521
507,507,511,501,519
510,505,513,505,518
521,504,518,512,509
522,506,523,519,504
526,506,526,526,491
524,508,528,527,495
521,508,525,529,506
507,502,517,526,514
504,502,514,522,519
492,497,504,515,522
503,502,505,513,516
503,502,499,506,517
504,506,501,505,523
513,510,505,506,522
524,509,509,505,514
515,504,505,501,504
512,506,510,506,499
513,508,514,503,503
512,510,516,507,506
511,504,518,516,510
514,505,523,521,502
521,507,527,525,488
520,510,525,531,484
523,507,522,529,493
527,506,517,526,507
521,503,512,523,525
503,497,503,516,539
501,498,496,507,529
504,503,498,506,526
505,507,503,506,522
507,505,504,505,515
511,507,508,504,511
507,504,506,502,515
508,505,509,502,513
509,505,508,502,518
513,504,516,508,515
518,505,523,516,510
522,508,525,522,501
523,509,526,527,499
521,509,526,533,499
514,505,519,527,508
509,503,517,526,513
497,496,506,518,524
497,498,501,511,529
503,502,498,507,528
508,505,501,504,529
511,511,503,503,524
518,506,506,504,517
512,506,508,505,516
508,505,510,500,514
507,507,511,502,515
509,506,517,506,511
509,505,516,510,506
514,506,522,516,508
526,507,526,524,501
522,508,525,529,501
526,509,525,531,500
513,500,515,526,506
512,503,514,523,504
501,498,503,516,514
497,499,503,509,525
497,502,500,507,530
501,507,501,506,526
510,509,507,507,522
506,507,508,505,519
502,506,506,503,519
506,507,510,502,516
511,507,513,503,513
516,504,515,507,505
520,503,516,509,503
529,508,522,520,498
534,508,530,532,496
527,508,527,531,504
520,508,523,529,509
510,503,516,524,512
506,501,514,522,516
496,498,500,510,523
498,500,500,508,528
501,504,501,507,527
505,506,504,506,527
517,509,509,506,520
520,508,509,504,518
511,505,505,499,514
513,509,510,501,512
511,510,513,503,513
514,506,517,509,512
514,504,519,514,508
521,504,525,523,500
530,513,530,530,498
527,511,525,530,495
518,505,521,526,504
515,505,516,524,507
506,500,505,517,517
499,498,502,512,524
496,504,501,508,526
498,503,500,505,527
499,506,505,504,530
507,505,507,502,522
504,505,505,497,522
516,508,508,499,518
520,509,513,501,512
516,507,513,501,512
514,506,517,510,513
516,508,523,514,510
520,507,529,526,504
524,509,532,535,500
521,508,525,530,486
511,502,517,524,494
513,504,516,524,505
502,500,504,513,522
492,498,499,508,528
490,503,500,508,524
494,507,502,507,517
493,505,502,502,512
493,505,508,504,514
492,505,508,504,526
505,511,510,501,525
536,508,514,501,514
548,509,518,510,508
537,507,519,514,503
532,507,525,522,499
529,506,527,526,493
528,508,526,528,493
528,504,523,530,495
517,503,517,525,506
513,499,512,520,513
504,497,502,513,515
500,500,500,509,520
499,502,498,505,522
503,508,502,500,522
506,507,505,502,520
508,509,510,504,518
504,505,508,503,520
513,505,511,502,512
511,505,513,504,508
511,507,518,510,507
516,507,522,515,508
524,507,526,523,503
523,512,528,529,501
531,510,528,530,499
523,505,520,530,504
515,502,517,525,502
501,497,507,515,514
495,498,500,512,521
493,501,503,510,527
493,506,501,503,530
504,506,505,505,528
506,508,507,501,528
499,504,508,499,531
515,506,510,502,515
524,507,511,501,513
513,503,512,506,511
513,503,516,509,503
524,506,520,516,491
528,505,526,526,489
523,507,525,528,496
528,510,525,530,497
516,502,518,523,514
518,502,514,523,507
506,496,502,514,517
504,498,500,509,523
503,501,500,506,521
506,506,502,505,510
508,508,506,504,516
511,507,509,505,513
510,505,508,502,509
511,507,511,502,515
511,506,513,504,518
509,504,513,503,514
512,504,517,509,515
515,506,525,519,509
518,506,529,532,503
523,508,527,535,505
521,506,524,529,504
518,502,514,523,505
516,502,511,519,513
509,500,505,513,521
504,501,499,509,526
506,503,499,505,526
506,509,503,503,525
508,507,506,503,524
510,509,510,504,522
504,505,507,502,522
508,506,511,499,517
505,504,512,504,516
513,507,518,511,506
518,505,524,520,503
524,508,524,524,498
522,507,527,530,499
523,511,527,532,494
518,504,519,527,507
511,502,515,524,506
505,498,505,516,513
502,499,501,513,523
502,501,498,508,525
503,504,498,502,524
507,508,504,505,520
510,508,508,504,519
508,506,507,501,519
503,503,510,500,516
509,506,512,504,513
509,505,515,506,513
511,504,518,510,510
518,503,521,516,504
520,505,523,524,501
520,507,523,527,498
519,505,523,530,498
513,502,517,525,507
511,504,516,524,515
499,498,502,513,528
495,497,498,508,524
498,502,499,507,520
504,506,503,506,520
502,506,505,503,519
506,508,509,504,514
504,507,508,501,521
508,507,510,500,513
510,507,512,502,509
513,507,516,505,507
516,506,524,519,505
519,505,524,523,499
525,508,526,523,502
526,510,529,534,506
522,507,522,527,507
512,500,514,521,507
508,500,509,518,509
498,498,501,513,522
499,502,505,509,528
494,502,500,505,523
497,506,501,503,522
494,503,502,499,528
499,507,507,503,528
511,507,509,497,525
503,507,510,501,519
506,506,513,502,509
510,505,517,511,506
510,506,522,513,498
516,506,526,526,481
509,507,527,529,497
529,510,524,530,498
512,503,517,522,511
536,504,517,523,510
524,498,503,515,526
506,498,501,511,532
505,502,500,508,530
521,504,501,506,520
518,506,504,503,508
524,507,509,503,509
530,509,509,503,494
521,506,507,501,493
521,508,513,504,496
516,505,514,509,507
513,503,515,509,504
519,507,524,519,497
524,506,524,525,496
521,507,524,529,500
521,508,526,533,504
514,502,518,524,503
522,504,516,524,507
507,497,505,515,519
502,500,501,510,527
501,503,500,510,525
507,507,501,503,523
510,508,504,502,516
513,508,509,503,516
513,508,508,503,517
512,513,511,503,514
506,505,513,503,510
506,505,513,508,505
508,506,521,513,504
516,508,525,523,496
519,508,527,528,497
523,510,524,529,496
522,504,520,530,500
516,501,511,523,505
511,499,510,520,513
497,499,501,512,525
495,501,500,506,529
501,505,501,507,526
509,509,504,506,522
518,510,504,504,516
515,512,510,506,514
509,505,508,500,516
511,506,509,502,519
511,505,513,505,518
518,507,516,509,508
520,506,521,518,505
524,507,525,524,499
522,509,526,530,497
525,510,526,532,493
516,504,520,528,503
512,503,515,529,511
503,497,502,514,521
498,499,501,512,529
500,503,502,508,531
503,508,502,505,529
506,508,504,505,524
506,506,507,504,516
508,505,507,500,515
507,505,508,498,513
510,507,510,501,511
511,506,515,505,512
513,509,521,512,508
519,507,527,523,503
521,507,528,527,501
521,509,527,529,498
521,508,524,529,498
513,503,517,526,507
511,505,516,525,510
501,498,504,517,524
497,499,499,508,526
500,503,500,513,526
504,507,502,502,526
507,508,506,502,520
509,510,511,505,517
507,506,508,501,519
508,506,507,500,514
510,505,513,502,513
516,509,516,508,509
516,507,519,516,506
520,507,526,523,501
521,507,527,528,501
521,508,523,529,498
517,506,523,530,503
506,500,513,522,512
506,500,508,514,515
507,498,502,512,518
502,502,501,509,519
504,505,503,506,527
502,505,504,505,523
503,504,509,502,517
508,506,509,503,516
501,504,504,497,525
505,506,513,504,515
520,506,514,506,509
523,504,517,509,502
522,506,520,519,500
523,505,526,524,496
524,504,525,529,498
524,507,526,532,498
517,502,516,525,512
510,501,515,523,515
493,496,505,520,517
484,497,503,513,521
481,499,500,510,526
484,503,498,503,520
492,507,504,504,517
505,510,509,504,525
533,509,511,503,519
537,508,509,500,514
530,510,516,504,512
523,507,512,505,508
514,505,519,512,504
515,506,524,520,499
516,507,527,529,495
520,509,526,530,497
534,509,523,530,502
514,503,518,525,517
516,502,517,527,515
522,498,503,517,525
508,498,498,508,525
507,504,500,506,524
507,508,503,504,532
512,509,506,504,530
521,508,509,504,515
515,506,507,501,514
518,507,508,501,513
520,507,514,508,511
517,506,517,509,513
516,505,520,515,505
519,505,525,521,498
520,506,526,526,498
523,510,528,533,495
522,509,524,527,498
517,502,519,525,508
505,500,506,518,512
498,499,502,513,518
498,502,500,506,524
501,505,502,507,524
504,505,504,504,518
511,507,507,503,518
515,509,510,505,515
507,506,511,500,518
511,507,513,504,515
507,505,513,505,514
512,504,516,508,508
516,505,522,517,505
524,506,524,524,493
532,508,526,527,489
531,511,527,531,498
521,505,520,527,507
515,504,515,522,512
504,497,504,515,523
501,498,500,511,527
501,502,498,504,524
503,506,500,501,521
508,508,507,505,517
509,511,511,506,516
511,508,514,504,515
507,503,507,500,519
508,505,511,501,511
509,505,515,507,509
515,506,520,514,504
521,507,524,523,499
524,508,530,526,497
521,508,526,531,498
519,507,527,530,499
510,501,518,523,507
510,502,515,523,511
501,499,504,514,521
500,500,501,509,526
500,503,500,507,526
503,506,503,505,525
506,505,503,502,521
509,508,509,504,517
508,506,510,498,517
510,507,512,502,515
510,503,511,502,515
512,506,517,509,508
516,506,521,515,504
522,508,525,523,499
524,510,527,529,501
523,509,527,531,500
518,507,522,528,506
512,502,515,523,509
505,498,510,521,514
499,497,499,510,523
499,501,500,508,526
502,506,502,506,528
505,508,503,503,522
505,506,508,502,517
507,508,509,503,518
506,506,509,500,522
507,508,511,503,516
505,504,510,503,511
515,507,518,509,504
520,507,524,518,501
528,509,527,523,496
531,509,525,529,498
527,510,527,531,498
517,504,519,526,506
512,504,515,523,511
503,498,505,515,522
500,499,500,513,520
502,502,500,508,526
504,506,502,503,526
506,505,505,503,521
510,508,510,505,516
507,509,511,504,520
496,505,510,500,522
497,504,513,501,520
495,503,515,505,511
499,503,518,512,508
507,506,524,521,503
509,507,530,531,501
519,508,528,529,500
527,510,526,530,506
525,506,517,525,512
525,504,513,522,514
521,501,502,514,519
507,500,500,508,524
505,504,502,505,529
512,508,502,505,522
513,507,506,504,515
517,511,510,503,513
516,508,511,502,520
514,508,510,502,519
513,509,513,503,520
512,507,520,509,516
516,505,521,516,509
527,508,526,523,504
529,507,526,528,503
526,510,527,531,502
522,506,520,528,504
521,504,514,521,508
513,500,506,518,509
503,500,503,513,508
499,502,501,513,513
498,504,498,502,517
510,508,502,502,514
513,508,507,503,522
512,508,511,506,518
509,506,506,500,511
510,508,510,504,513
520,507,514,505,516
532,507,519,512,508
523,506,521,519,499
520,506,525,526,495
522,510,525,532,494
521,512,527,535,495
515,506,522,528,506
512,503,512,523,512
502,498,504,514,518
509,500,500,510,524
507,504,502,509,526
504,505,501,506,526
509,508,506,504,525
513,509,511,504,523
511,508,509,503,523
507,505,506,498,522
510,505,509,501,516
512,505,514,507,509
519,506,519,512,502
523,508,525,521,498
519,508,528,527,494
522,509,527,532,495
517,507,526,531,501
505,500,514,524,510
503,499,511,521,514
498,497,503,515,524
494,499,499,508,526
502,504,500,506,527
515,510,504,505,529
514,508,507,505,521
514,509,508,505,516
510,507,509,501,518
505,507,512,499,519
509,506,512,504,512
515,509,517,509,506
514,506,520,515,507
520,509,525,522,503
518,508,527,528,503
515,509,526,532,507
509,506,522,527,508
500,500,514,520,504
490,497,506,517,509
484,498,500,510,520
498,502,500,509,521
503,502,499,504,522
517,509,504,504,523
519,508,507,503,522
515,507,510,505,519
513,505,508,500,524
517,507,511,501,511
516,509,514,504,504
513,507,518,511,504
530,507,522,519,497
540,508,526,527,490
533,507,524,529,502
529,508,525,531,497
521,504,518,526,506
514,502,513,522,511
509,500,508,516,523
500,500,498,509,526
501,502,499,507,528
507,507,503,506,527
507,507,505,506,521
512,508,507,503,514
511,510,509,503,515
505,506,508,501,518
504,505,510,499,515
517,507,514,506,510
526,507,520,513,505
526,506,524,522,502
522,510,527,529,501
520,508,525,530,503
517,506,522,532,508
507,501,513,520,513
508,502,511,520,518
501,499,502,514,526
502,500,498,508,524
506,505,501,510,519
505,508,501,503,522
504,506,503,502,518
516,510,511,504,514
512,507,509,504,512
508,505,508,500,510
510,506,514,504,510
511,505,518,513,506
515,505,518,516,505
516,507,526,523,506
518,507,527,530,508
521,509,527,535,507
520,510,521,522,504
513,503,514,520,509
503,496,504,514,517
508,500,502,512,523
505,504,501,510,528
507,506,507,506,530
507,507,504,503,524
511,509,509,503,512
513,510,511,503,512
509,505,512,499,515
510,507,511,503,509
512,507,516,505,507
515,509,520,512,506
520,507,525,521,502
523,508,527,527,500
525,509,529,531,502
523,510,528,532,504
516,505,519,526,511
507,501,512,519,513
498,498,504,514,520
496,500,501,509,521
500,502,499,505,517
499,505,503,504,520
503,509,507,503,518
504,507,510,501,517
509,507,508,502,515
515,506,507,498,518
518,511,514,503,514
515,503,517,506,512
516,505,520,512,505
524,507,525,521,498
524,508,525,524,497
525,511,524,527,499
520,506,520,527,505
512,501,515,521,511
508,501,512,520,513
499,498,503,516,526
497,500,500,506,522
503,501,500,505,522
508,508,505,505,523
507,505,505,503,520
512,508,509,503,519
510,507,511,502,519
508,504,509,504,517
514,505,514,503,512
516,506,519,509,509
518,507,524,518,509
520,506,528,525,508
524,511,529,531,506
526,512,528,533,504
518,506,524,527,506
508,500,512,520,515
498,497,505,515,523
496,499,502,511,529
497,503,500,509,533
497,504,503,505,518
506,509,507,508,505
510,508,512,509,507
516,507,508,503,508
514,506,509,501,513
510,508,512,502,511
507,502,512,504,512
509,503,518,510,516
515,506,524,521,498
522,506,530,527,491
517,506,523,528,497
521,509,526,530,498
520,503,520,528,506
505,498,512,521,518
494,495,500,513,526
503,499,500,507,527
519,505,502,508,525
520,511,505,507,517
515,509,507,504,517
512,508,509,506,515
511,509,515,504,515
507,505,513,502,516
509,503,512,503,513
507,506,517,509,511
514,506,521,515,505
529,511,528,524,500
525,511,529,528,498
523,510,528,532,499
522,508,528,531,502
517,506,518,527,509
507,497,508,518,513
498,496,503,515,518
495,501,501,510,523
501,504,500,509,527
505,507,502,505,525
508,510,508,503,523
512,510,511,506,520
504,506,510,501,522
518,505,508,501,517
524,506,513,507,507
523,506,519,512,504
524,507,522,519,504
526,508,527,526,496
524,508,526,530,493
522,508,524,530,497
516,505,519,526,504
508,501,515,522,509
499,498,507,516,523
494,501,503,512,528
504,501,499,507,528
502,505,501,504,525
504,504,505,504,521
510,508,509,505,517
520,508,511,503,513
519,506,508,502,512
520,507,510,501,507
519,506,514,506,507
520,506,519,512,503
522,508,525,521,502
525,508,528,527,498
524,508,526,530,499
523,509,525,534,496
515,505,519,528,504
508,502,513,523,512
500,497,503,514,522
495,500,499,509,525
494,502,501,511,525
499,508,503,506,523
499,507,505,504,519
511,510,509,504,514
512,508,511,504,515
506,506,509,504,515
510,505,512,504,512
520,506,517,505,510
526,506,520,514,505
527,506,524,523,499
524,507,526,527,502
522,509,525,531,503
520,508,523,530,504
510,504,518,526,512
503,498,508,519,517
503,499,503,515,519
501,504,502,512,522
505,504,500,507,518
510,508,505,506,519
510,508,508,506,520
512,506,509,504,514
514,507,509,500,515
513,505,509,503,518
512,503,513,503,511
516,504,518,509,508
520,505,522,516,500
523,507,526,525,502
521,508,528,530,506
522,510,528,532,503
520,505,522,529,510
509,499,511,521,514
501,496,505,515,521
499,497,501,511,525
497,498,500,510,520
498,504,502,506,519
503,509,506,505,522
503,506,508,504,521
501,506,510,501,519
500,507,509,504,520
502,506,513,507,517
510,505,514,505,507
512,505,519,512,500
515,505,523,522,498
526,510,529,529,498
535,509,526,531,498
529,508,526,533,497
524,505,518,527,503
519,506,513,522,512
506,499,502,513,514
505,501,500,511,516
505,504,505,507,516
505,506,503,503,513
509,508,505,504,509
512,511,514,507,513
510,505,508,502,515
506,504,509,502,511
506,509,513,505,509
513,504,516,508,519
511,505,521,510,515
514,505,525,523,504
516,506,525,527,503
520,512,527,530,506
519,507,523,528,510
513,502,516,525,511
511,498,507,518,513
502,498,505,514,524
493,499,500,507,534
492,504,499,504,530
509,507,503,504,521
498,507,507,504,520
497,508,514,505,517
496,504,505,499,513
499,505,510,502,520
535,506,513,504,518
546,509,519,511,507
540,509,523,515,496
536,509,526,525,494
537,509,528,528,499
531,510,525,531,495
527,506,521,528,498
521,502,513,523,511
506,495,504,515,521
505,499,501,510,529
501,503,501,509,527
502,505,500,503,522
507,508,505,507,518
505,505,509,505,513
508,507,510,503,511
504,508,510,501,518
514,504,510,504,514
517,505,515,504,510
517,506,519,507,511
515,506,527,520,508
525,508,523,523,500
528,511,527,529,494
520,510,526,530,498
510,506,523,526,500
500,496,510,519,509
492,497,503,513,520
498,501,501,509,528
509,504,501,505,530
518,512,502,502,525
516,508,506,502,518
520,510,510,504,515
515,508,511,503,516
512,504,506,498,516
511,504,510,500,511
516,506,516,508,507
518,506,522,514,503
520,510,527,523,499
520,512,531,529,501
514,508,527,534,508
512,505,522,527,510
513,505,518,522,515
506,499,507,516,521
503,499,502,513,519
509,503,501,509,518
507,505,501,509,526
506,508,505,504,520
508,513,507,504,516
506,506,508,502,513
507,508,512,501,515
505,505,508,500,515
506,505,514,502,509
514,507,519,511,506
523,507,524,520,502
527,507,527,524,497
526,508,527,530,498
525,510,527,531,500
517,504,518,525,504
512,502,514,522,512
506,499,506,516,524
498,498,501,510,525
499,500,499,505,523
503,506,502,504,526
508,505,502,500,520
511,508,509,504,515
509,507,509,504,514
507,503,511,498,513
508,507,508,502,513
513,507,514,505,508
515,504,517,511,502
520,506,525,519,498
525,507,525,527,495
524,508,521,525,498
520,509,525,529,499
513,505,520,528,504
506,500,513,521,515
498,493,503,513,520
501,500,499,508,522
501,504,500,506,528
502,506,501,504,526
509,507,505,504,520
514,513,511,505,516
509,507,510,504,512
505,505,508,501,516
510,505,513,505,509
509,503,515,508,506
515,504,520,512,512
520,507,524,521,510
522,509,527,528,503
522,510,527,532,501
517,506,521,528,503
512,503,515,525,508
502,496,505,518,518
500,498,501,512,527
501,502,501,507,537
503,504,504,504,533
505,508,504,504,519
509,508,509,507,513
509,506,509,504,514
509,507,510,503,517
506,505,510,501,523
510,505,513,503,509
516,504,516,510,500
521,507,521,517,500
524,504,526,525,500
527,509,525,528,499
524,508,524,528,497
517,505,520,526,505
509,501,513,522,513
502,499,505,514,520
499,499,504,512,526
502,506,504,508,524
504,505,501,501,521
507,507,506,501,516
511,511,515,505,513
508,507,513,503,519
508,506,510,501,521
510,506,511,503,523
512,506,516,509,517
514,505,519,510,510
519,507,521,517,498
521,508,525,526,487
525,509,530,535,494
526,509,526,530,501
515,504,520,526,512
503,499,510,519,531
498,497,496,515,527
499,501,502,505,518
501,503,500,506,519
504,508,502,504,522
508,507,511,504,518
508,509,515,507,515
506,505,512,500,513
513,505,513,500,505
516,506,510,503,506
518,506,517,509,501
517,504,519,512,498
524,508,524,521,494
522,506,524,528,493
521,507,525,532,495
516,505,521,530,510
511,503,516,522,512
501,497,504,513,528
499,499,502,510,529
496,500,499,509,524
498,503,503,503,520
516,510,504,505,516
515,511,509,506,515
512,507,511,505,513
513,504,509,498,518
511,505,508,500,516
515,506,513,507,511
516,504,515,509,509
519,504,521,514,502
523,506,525,520,497
523,507,524,529,499
521,507,528,530,499
515,506,520,524,506
511,501,514,523,513
504,499,506,514,530
500,500,501,507,533
500,503,498,504,530
505,508,501,505,527
509,509,506,505,518
510,508,507,506,513
510,508,508,503,509
511,508,511,502,508
508,505,512,503,512
512,505,517,503,504
518,502,522,512,504
521,507,528,525,498
522,508,531,526,499
523,510,531,530,495
517,509,528,530,504
501,501,522,525,513
492,498,512,518,520
487,498,504,512,529
485,498,502,507,525
484,500,501,505,520
506,507,505,502,523
539,514,510,503,516
539,512,514,506,511
530,511,517,503,511
518,505,512,502,515
515,504,515,503,515
519,506,517,505,503
524,508,525,516,502
524,506,530,523,494
524,508,530,529,494
528,510,529,530,498
521,507,524,528,504
512,503,519,526,510
500,497,508,513,514
493,499,503,507,525
490,504,507,507,532
487,503,502,503,531
495,507,506,503,527
503,507,510,503,523
507,506,511,503,521
517,508,510,499,523
532,506,508,502,517
524,508,512,505,507
525,507,517,510,503
530,508,523,519,495
531,508,525,524,486
530,507,527,528,492
532,507,526,529,497
527,505,522,525,501
521,504,518,524,505
506,498,508,515,510
502,499,505,511,515
499,501,504,508,520
499,503,505,503,523
505,505,511,504,519
510,509,515,505,521
509,508,518,506,522
504,508,511,503,516
508,506,516,504,512
514,508,518,507,499
517,509,523,508,501
520,512,527,520,501
520,506,528,526,504
522,511,528,528,514
519,510,527,529,512
508,504,521,528,509
502,498,512,520,519
499,499,505,514,526
498,500,507,508,533
503,507,517,509,536
504,511,522,506,531
508,510,528,504,521
506,506,515,502,520
509,509,495,499,508
510,508,497,500,512
514,510,514,503,518
513,501,512,505,505
517,504,518,516,486
522,506,527,524,486
522,500,525,536,492
523,500,527,537,495
519,496,517,533,501
512,489,511,529,505
498,483,501,517,519
497,503,504,503,526
501,521,515,497,526
503,515,495,507,530
509,511,503,499,517
510,511,509,500,526
510,513,515,499,520
507,510,518,500,512
505,507,523,498,498
509,509,536,511,498
512,505,525,514,501
520,509,533,524,491
529,511,523,525,495
525,506,510,525,499
524,508,523,529,501
517,505,518,527,509
508,504,513,520,512
501,505,504,514,522
499,502,495,505,523
499,508,495,505,524
504,511,496,504,523
505,511,504,496,528
511,512,507,493,526
514,513,511,492,515
511,508,512,494,512
509,506,509,494,514
512,504,507,508,511
511,501,513,508,503
519,503,514,523,499
523,509,528,521,500
523,508,528,516,497
519,502,521,536,502
514,489,517,527,510
507,483,517,520,521
503,482,487,513,527
500,473,498,514,531
499,478,491,518,526
504,504,518,517,522
505,535,536,516,513
515,528,538,525,511
512,514,493,507,516
508,503,504,493,515
510,503,513,488,511
516,504,524,503,504
519,507,521,516,503
524,513,527,523,500
524,504,527,528,497
522,506,529,529,500
518,507,527,529,506
514,504,521,525,512
502,502,512,516,522
497,504,505,510,524
500,511,506,505,523
510,510,508,506,523
515,507,510,503,520
518,506,508,497,507
513,506,510,500,503
510,506,509,499,505
504,488,502,497,513
505,485,504,504,519
509,487,510,510,513
513,487,520,521,510
522,495,534,527,508
522,513,546,528,506
525,522,538,530,501
520,512,541,530,507
515,504,526,526,514
505,495,464,519,527
503,501,488,516,532
505,511,506,518,532
507,512,500,516,519
501,507,501,494,519
505,518,507,502,513
512,520,508,508,505
512,514,514,502,510
504,507,517,495,524
509,512,527,496,511
516,512,529,498,505
521,511,531,509,496
524,506,533,516,490
525,504,537,523,487
524,503,539,539,488
513,498,527,547,501
501,499,524,523,524
505,505,516,511,524
501,502,515,506,531
500,500,509,508,530
507,502,511,514,524
516,496,514,517,516
518,490,522,511,515
510,490,514,500,521
503,481,495,498,527
511,484,486,481,521
512,508,520,507,512
520,506,529,530,503
520,509,516,559,504
523,520,497,538,511
528,531,513,523,512
526,531,501,501,517
523,520,498,494,521
505,508,482,492,538
499,499,473,494,545
493,489,482,491,547
500,512,504,490,512
502,518,516,492,499
509,524,538,499,492
510,510,530,489,503
509,505,547,495,503
510,503,562,510,506
510,497,556,524,508
514,504,558,527,508
523,507,512,521,486
525,496,527,550,485
521,488,516,562,500
512,471,518,578,503
509,470,525,545,516
499,456,541,505,526
502,464,559,497,532
508,475,536,503,529
503,469,479,483,532
499,467,488,468,538
499,472,506,485,521
518,570,543,502,498
522,575,555,508,503
516,551,520,495,498
515,537,534,508,499
514,527,527,501,502
517,523,527,513,503
520,517,490,515,500
523,511,505,520,498
524,512,521,532,498
521,535,534,532,496
513,519,525,521,504
507,504,517,547,521
504,501,505,527,532
499,487,498,522,535
495,463,495,502,537
506,488,531,513,510
514,505,554,507,510
512,492,540,499,511
508,502,516,477,520
515,550,506,491,515
508,509,469,472,509
520,493,474,445,498
529,472,515,474,485
534,457,525,552,481
526,479,537,579,495
513,497,536,585,512
508,506,548,568,516
506,516,526,526,525
501,501,506,496,524
507,478,479,514,524
503,480,501,527,522
505,518,515,537,522
512,559,538,519,514
513,540,553,475,509
516,509,541,476,510
518,480,554,487,512
519,465,560,490,512
506,404,496,506,515
495,424,480,563,522
521,558,613,624,495
535,621,654,581,488
527,572,542,473,499
526,525,485,510,500
520,519,497,485,502
515,502,518,490,501
502,466,492,504,525
496,453,466,471,532
492,435,424,457,537
502,501,486,477,528
514,559,534,528,514
512,537,529,508,517
515,535,533,524,516
511,514,437,523,521
502,513,465,490,523
507,511,517,481,507
521,513,554,512,498
535,522,565,533,480
531,516,558,537,483
518,485,556,542,503
515,493,622,552,507
512,520,676,541,513
500,509,550,515,510
497,527,524,500,516
501,549,407,468,523
499,538,494,429,521
509,526,487,517,516
505,495,446,532,528
515,505,476,518,517
514,494,522,500,517
507,444,507,511,510
519,427,451,545,504
528,454,485,546,493
516,429,550,549,488
509,476,579,545,493
519,535,605,540,506
526,508,510,549,505
519,494,455,518,514
507,461,427,482,535
503,517,539,533,544
501,567,622,574,548
509,555,597,503,530
498,536,445,424,535
501,514,450,428,514
516,524,512,472,493
518,473,529,551,495
502,435,482,523,510
503,508,466,503,519
507,543,479,510,503
520,533,546,510,499
525,510,533,528,497
525,439,471,539,491
517,420,503,542,491
513,453,516,529,505
501,455,480,495,521
523,568,516,502,511
525,519,512,496,500
501,425,476,461,530
498,474,521,495,502
508,522,581,603,500
519,512,591,601,500
515,518,531,559,509
517,588,557,522,503
518,566,550,485,504
503,515,507,445,527
498,489,531,476,527
527,457,500,497,502
531,413,573,557,495
530,442,499,556,492
519,459,474,548,488
499,484,485,536,507
496,529,533,454,528
505,532,512,416,521
510,538,462,498,518
506,554,446,565,517
511,545,449,518,513
523,527,477,458,500
504,438,498,494,513
501,448,522,527,508
508,414,554,558,498
503,408,478,541,518
503,457,475,518,529
520,457,462,481,507
519,436,572,566,505
512,425,562,570,507
539,562,603,531,489
542,563,492,548,473
544,524,480,529,469
526,479,539,535,486
488,488,622,520,523
484,508,647,440,531
505,504,491,413,539
509,440,435,508,532
504,440,421,550,519
501,427,393,507,510
511,500,419,471,520
501,573,485,522,533
503,575,461,473,514
522,619,526,475,498
535,608,524,563,482
529,521,508,583,486
517,458,556,570,488
539,448,558,529,474
542,463,436,545,468
497,449,515,499,525
500,483,632,562,518
505,539,520,572,533
500,521,528,506,539
499,498,526,458,551
494,492,437,427,561
516,626,541,461,514
531,640,508,478,473
519,539,468,523,474
506,505,413,494,502
519,522,430,534,510
518,441,564,516,508
511,405,594,546,496
516,481,681,554,495
526,605,639,575,507
523,567,463,532,518
512,535,411,510,526
502,480,420,515,542
505,453,417,516,526
475,363,355,490,525
495,483,453,482,519
502,505,495,518,510
510,576,550,558,520
507,573,592,527,531
507,617,580,505,512
499,587,606,510,537
519,562,515,507,546
521,596,489,492,524
507,548,530,450,514
513,519,493,509,484
519,497,407,544,451
519,459,433,558,445
535,481,446,496,482
511,416,451,478,518
503,408,459,513,506
525,503,505,552,490
496,494,544,522,528
500,477,560,552,536
486,497,442,469,536
508,560,502,440,508
543,587,661,531,499
530,487,632,550,530
497,389,425,538,537
470,308,332,501,546
499,542,501,514,510
525,651,538,525,478
542,685,539,504,464
538,623,550,524,469
527,545,528,527,521
517,490,510,510,555
510,460,516,511,557
504,449,548,543,555
494,485,562,574,517
482,555,569,531,496
508,560,512,479,480
506,548,543,477,493
509,490,595,461,512
515,399,535,545,524
507,334,395,470,536
500,410,387,533,534
493,490,489,555,482
523,600,521,488,486
539,590,509,493,501
511,529,495,488,491
530,508,507,512,457
542,473,514,557,462
526,373,563,607,474
482,324,549,573,507
503,584,540,499,530
510,536,536,488,525
498,478,477,544,545
504,484,640,511,520
508,571,655,491,524
513,545,449,458,529
525,586,333,490,493
516,520,426,522,539
511,524,501,514,523
513,532,525,493,468
522,490,569,497,464
519,425,520,515,487
520,475,463,464,505
497,433,394,471,532
530,674,544,561,485
527,627,545,554,485
530,555,518,559,497
497,477,519,568,509
479,392,509,532,547
496,351,499,467,558
492,461,535,526,541
495,467,489,492,519
522,429,483,537,498
499,394,473,471,504
496,492,510,496,490
520,719,604,468,494
518,682,538,526,494
510,589,569,540,500
525,597,578,503,530
538,621,550,554,528
528,595,530,603,527
526,528,541,552,513
518,509,428,439,489
526,536,447,425,472
500,465,393,441,519
500,459,490,568,518
501,488,494,598,520
487,491,418,457,531
494,442,432,476,522
498,434,464,504,508
481,332,475,511,500
504,459,472,505,521
524,531,521,518,510
539,577,535,525,504
531,509,526,532,497
517,425,589,536,496
510,491,604,549,495
517,541,470,519,509
519,587,511,520,509
515,581,538,505,520
508,632,568,529,522
506,573,527,496,527
507,538,469,499,533
513,510,490,527,518
510,469,485,509,519
502,445,475,502,514
505,451,490,495,527
515,515,495,496,525
516,601,538,520,523
525,599,587,550,523
525,567,609,585,484
528,528,497,547,482
545,553,574,487,476
542,579,666,557,467
529,540,600,574,491
484,490,378,519,527
504,475,416,525,503
494,458,506,480,523
475,460,457,410,569
485,475,416,444,557
504,524,467,522,543
512,477,524,506,531
510,352,517,453,549
497,218,447,493,561
464,183,352,474,577
491,534,511,516,527
527,734,650,549,477
533,615,581,451,470
541,537,546,481,482
518,505,558,511,536
519,606,574,523,553
515,577,492,595,525
513,529,495,574,471
510,491,533,582,454
507,444,482,541,475
522,481,491,595,478
517,441,486,566,484
510,358,502,415,524
480,352,453,412,545
501,566,528,516,519
521,702,669,559,488
522,662,573,485,501
509,588,434,471,517
516,566,469,507,508
521,533,481,498,535
531,537,509,545,517
524,515,495,549,503
516,559,566,516,484
519,568,681,504,485
520,533,617,507,488
501,480,401,548,511
495,428,406,499,517
500,443,513,521,516
503,486,551,523,526
513,508,574,537,516
508,572,498,526,526
502,500,374,385,531
508,459,479,418,543
514,452,556,496,543
495,451,560,489,524
517,541,506,522,498
514,502,537,610,503
523,485,590,612,485
525,513,534,617,482
517,468,482,542,498
502,492,440,546,515
508,514,506,434,509
523,573,502,481,498
508,532,481,502,520
501,505,506,525,525
498,430,488,495,524
505,411,465,475,510
502,356,505,465,517
503,437,547,491,529
529,568,555,539,524
534,628,622,540,503
506,471,541,508,520
502,515,606,530,489
524,601,501,476,498
532,605,489,470,528
526,547,457,498,544
530,518,531,557,517
510,422,484,542,513
509,488,478,528,477
506,521,468,518,443
491,533,493,516,513
504,507,512,526,529
496,486,552,505,532
490,518,611,485,549
519,593,488,472,521
517,566,462,513,521
509,525,515,488,510
519,530,546,487,477
525,509,561,514,496
513,491,440,510,529
517,522,506,498,523
528,509,505,559,493
506,448,505,588,466
535,586,545,524,491
542,549,523,529,493
516,505,541,548,508
491,494,542,514,517
505,526,551,511,513
494,490,452,454,531
493,455,463,469,547
496,415,447,542,536
508,469,493,532,521
516,461,500,483,514
514,359,473,487,508
496,290,528,516,500
498,346,543,488,514
525,599,554,501,512
530,691,614,535,507
536,639,565,569,492
532,606,528,529,484
517,542,453,492,499
518,548,471,503,512
508,536,503,518,513
519,549,514,521,508
505,499,516,500,518
505,462,520,470,519
498,399,608,505,533
488,408,458,496,529
484,465,503,506,542
508,610,535,514,522
516,605,494,466,517
519,590,583,526,505
528,570,535,537,502
538,514,487,509,489
528,452,503,485,499
520,468,487,516,508
508,439,472,515,527
527,569,518,546,522
526,520,553,595,547
484,461,491,554,557
483,489,517,499,501
497,522,431,479,543
507,493,576,507,577
507,503,550,450,556
503,533,468,484,521
504,546,556,538,480
519,496,529,537,438
512,395,520,521,477
492,447,555,498,513
513,544,518,497,498
528,586,501,499,478
532,584,505,508,450
535,554,581,562,451
523,522,576,590,487
515,505,487,507,500
508,448,479,455,510
484,434,458,494,533
490,456,440,506,535
517,574,586,530,541
513,532,649,467,561
509,456,528,451,567
495,421,448,493,550
510,594,525,547,494
522,612,478,521,489
514,533,517,524,510
512,449,589,542,503
528,506,526,528,504
518,483,488,485,500
526,553,548,553,481
528,535,509,565,477
522,547,477,543,482
522,527,461,524,483
506,479,477,491,509
491,447,462,469,516
521,536,531,495,502
502,513,508,538,538
501,497,492,490,566
502,442,475,509,585
495,453,550,613,542
494,490,550,481,528
508,511,536,406,503
522,502,547,490,508
513,420,455,521,489
517,419,453,536,514
535,552,532,516,522
537,603,543,516,519
532,570,501,531,504
525,507,524,544,492
500,447,526,539,509
497,454,492,511,525
498,490,513,449,570
511,536,636,483,545
514,552,457,490,540
508,565,460,493,526
520,586,527,526,465
534,596,572,487,470
526,562,520,442,492
522,542,572,498,476
514,526,577,506,478
498,485,500,504,502
509,470,459,537,499
524,507,503,566,513
525,510,488,561,515
501,482,523,544,529
515,537,591,546,506
505,492,518,511,502
502,502,469,514,515
512,518,487,515,521
494,469,510,502,544
504,494,445,495,521
502,441,513,506,517
509,398,492,478,509
508,360,469,510,516
507,540,538,556,513
523,607,554,577,488
518,578,637,551,477
508,555,568,492,501
514,547,446,480,504
517,558,577,501,509
521,539,558,533,505
515,512,457,526,509
512,507,463,510,510
500,491,453,536,514
505,447,489,549,535
501,386,527,531,543
481,299,396,456,525
498,477,513,441,513
517,552,554,490,505
507,549,523,452,526
504,544,556,427,526
522,577,535,580,489
521,598,418,541,492
527,553,528,530,506
524,493,538,526,524
511,460,562,530,525
511,487,516,524,492
530,526,490,532,474
529,563,575,546,477
515,572,556,521,519
506,531,455,480,560
493,488,465,497,575
498,466,476,523,584
499,496,494,495,524
508,501,485,464,495
503,442,531,497,507
505,417,506,514,505
518,454,589,551,486
524,529,565,532,501
498,431,543,461,514
514,533,598,555,504
523,586,608,505,513
522,552,482,465,528
520,548,465,518,538
519,546,521,541,548
517,540,476,522,543
510,542,503,496,524
507,509,489,509,497
500,528,486,533,476
508,515,479,505,472
519,520,487,510,473
516,524,524,518,487
514,520,590,528,484
516,527,562,515,504
505,534,588,506,488
509,531,512,519,505
510,500,452,508,520
520,491,479,498,522
516,469,493,523,522
521,494,531,542,508
521,473,514,528,516
513,432,500,501,528
498,461,488,502,506
500,451,495,507,510
494,469,479,501,531
503,507,474,499,536
511,572,557,525,537
512,586,582,552,513
509,538,514,491,510
510,531,507,436,517
520,516,564,508,499
515,504,595,530,511
510,450,435,511,506
511,476,422,452,530
520,543,488,507,512
525,551,539,552,493
532,519,551,548,473
523,482,473,509,501
515,471,492,537,507
502,425,485,528,501
493,323,434,471,518
495,438,523,448,519
493,506,537,516,522
511,673,531,534,536
519,592,524,513,520
517,539,502,494,524
511,522,567,525,549
517,533,611,558,547
501,518,489,491,552
517,565,535,488,496
531,539,591,562,439
527,482,575,573,459
507,398,392,489,507
503,412,475,510,512
514,486,530,531,494
499,409,457,525,513
499,486,527,516,526
517,588,554,504,519
507,573,481,508,531
507,582,495,518,528
520,570,529,496,501
526,541,540,497,485
519,515,496,501,479
502,474,466,477,511
510,465,467,486,546
507,437,503,505,521
506,447,487,523,515
519,468,515,527,513
524,518,545,524,500
512,523,515,516,507
523,568,544,532,506
514,550,535,533,515
514,542,514,541,527
511,546,550,554,516
505,520,507,524,520
512,533,475,487,519
508,525,428,465,490
501,488,502,491,489
509,474,517,539,468
509,499,554,528,504
496,487,516,447,546
513,524,504,482,548
515,478,513,510,497
514,461,538,514,479
524,494,571,516,486
525,557,563,534,497
526,583,542,543,499
534,536,519,531,506
516,508,580,489,534
503,493,503,489,541
504,505,511,527,558
484,470,464,483,587
496,491,485,464,542
509,483,446,490,497
504,487,461,520,503
508,547,488,516,481
527,561,546,533,482
513,476,549,531,518
497,410,545,494,533
485,362,496,469,550
511,476,521,523,520
538,569,566,549,509
536,537,518,506,543
519,539,482,503,555
522,502,495,542,533
514,510,477,546,507
490,497,484,578,457
497,552,528,540,510
510,563,509,477,528
514,524,513,472,529
505,497,495,495,526
513,563,529,501,494
523,559,557,526,484
513,488,506,528,504
499,420,502,528,511
503,470,534,486,516
521,498,531,479,517
520,434,492,496,518
510,402,525,521,498
508,471,630,556,508
531,572,607,538,490
528,583,536,502,526
509,523,485,481,542
506,540,466,511,532
511,564,492,533,538
505,538,487,509,532
506,522,487,515,500
510,513,490,511,465
513,502,538,503,450
520,524,528,499,476
508,534,472,483,525
505,499,480,511,528
517,519,501,528,489
512,482,541,507,495
517,461,541,499,499
527,539,503,531,493
528,556,553,544,488
517,525,601,557,496
497,476,523,510,531
494,459,469,493,545
507,500,434,505,537
513,472,464,537,513
505,487,512,516,517
511,544,529,496,507
511,535,524,501,525
505,526,510,493,515
503,496,512,502,510
511,523,479,508,496
519,516,509,507,493
519,480,555,517,492
510,417,508,511,498
520,446,485,522,500
526,525,551,550,507
525,518,562,579,511
514,505,495,534,514
508,489,491,474,522
509,500,497,452,524
509,538,501,540,514
518,587,507,527,506
517,563,526,504,527
510,505,548,510,515
502,501,520,521,518
495,459,486,531,535
502,445,461,487,541
496,430,501,490,543
511,540,517,497,518
514,523,511,496,534
513,462,501,501,525
513,413,520,518,508
527,575,533,530,486
522,523,526,527,468
508,482,517,518,485
515,546,557,514,501
508,548,546,519,513
501,569,504,499,536
514,535,569,496,522
511,470,609,541,525
510,463,442,565,529
499,493,464,516,515
503,476,480,471,523
496,416,467,468,529
514,585,597,502,514
525,603,600,517,518
522,586,465,505,506
530,533,499,522,484
533,522,547,540,477
524,533,486,520,501
513,518,514,516,511
506,488,532,532,501
505,462,541,514,517
503,467,488,519,514
501,536,496,471,530
504,516,470,487,510
505,487,472,507,529
509,524,488,507,542
510,544,532,499,540
510,532,544,512,519
515,519,503,508,493
512,506,494,500,488
518,500,499,524,485
522,480,510,524,468
524,479,517,513,493
524,494,518,515,493
521,512,520,541,481
514,523,561,559,503
504,496,520,510,521
504,491,504,462,556
505,513,510,517,545
502,506,502,523,525
496,461,491,492,505
505,508,499,486,513
509,501,499,514,539
512,505,508,522,523
520,520,531,513,511
512,464,527,504,503
515,459,500,476,507
517,480,528,512,512
512,495,560,576,525
518,536,575,562,528
530,557,541,511,519
511,474,447,483,549
516,550,515,523,520
510,540,519,536,487
499,490,485,516,481
505,483,497,508,506
513,530,535,515,510
513,558,524,531,516
511,548,489,511,510
510,519,504,496,507
506,467,484,479,513
505,419,489,487,516
503,391,502,498,513
521,506,538,548,490
517,578,572,533,503
526,579,537,519,509
537,567,500,520,483
527,543,530,532,490
515,532,567,521,499
516,506,561,537,495
502,480,476,519,519
496,502,526,497,527
509,521,504,485,523
502,482,511,508,539
503,452,510,499,537
509,506,540,517,516
508,496,420,492,519
512,548,495,484,515
513,553,511,471,517
506,523,540,493,534
514,515,529,546,517
521,517,500,531,493
524,519,519,525,509
520,505,518,525,509
533,500,515,539,481
522,486,511,534,499
524,512,520,529,501
496,481,487,508,519
486,460,472,523,527
486,458,486,536,527
511,570,536,501,525
512,525,557,489,539
514,499,534,499,515
513,525,452,492,512
509,507,511,512,513
509,508,519,500,527
512,521,507,504,523
514,523,527,522,519
529,515,557,525,514
524,484,526,520,483
518,485,509,497,487
514,499,508,519,504
516,501,519,542,492
512,510,513,526,510
503,520,491,511,528
502,518,528,496,527
502,523,517,509,522
511,517,490,507,515
515,505,481,508,517
501,480,515,501,523
509,488,496,507,516
505,467,492,501,522
510,477,497,491,523
511,474,492,518,509
518,534,510,511,499
525,529,546,511,501
523,510,552,533,501
522,530,558,528,493
516,527,515,476,509
512,533,535,528,518
511,514,513,529,524
499,481,501,511,544
501,490,519,515,532
492,469,495,503,515
504,495,489,495,523
512,491,510,501,537
509,472,488,500,551
505,498,487,505,524
515,543,568,516,496
517,570,594,515,498
507,522,541,502,496
519,500,465,465,501
526,491,501,549,487
527,502,519,539,495
518,503,529,527,500
514,523,492,522,503
516,530,548,529,509
508,515,553,524,515
503,524,485,507,525
504,515,476,502,528
507,510,504,505,516
506,509,504,503,509
510,510,511,501,515
509,491,507,498,525
509,507,510,499,526
506,501,510,499,525
513,523,515,509,505
516,520,524,516,490
521,510,535,527,495
526,512,535,532,496
526,517,524,530,496
521,513,525,527,503
516,505,518,525,499
508,502,509,518,516
500,500,503,511,535
496,502,497,503,525
501,503,499,502,527
507,505,517,504,528
510,498,523,504,527
509,489,494,505,532
508,468,498,512,526
503,451,509,505,504
508,526,505,494,518
514,539,508,509,513
518,510,532,515,500
529,529,527,528,485
528,521,542,549,490
527,512,533,546,488
521,513,523,511,497
513,516,522,524,511
500,513,511,525,523
496,498,502,506,525
488,477,495,498,533
486,472,493,499,525
485,477,494,495,523
484,519,503,496,515
484,517,510,500,515
496,523,518,503,515
501,518,519,501,517
509,514,518,505,513
515,508,521,511,507
530,510,528,523,496
548,517,535,527,503
558,523,536,535,503
545,514,523,525,502
532,510,518,523,506
522,500,513,520,521
510,502,510,516,527
506,504,489,506,527
511,511,508,503,523
511,512,509,503,528
515,508,506,501,525
516,509,512,502,525
516,508,511,501,518
512,506,513,501,511
511,507,519,503,506
513,502,518,509,507
513,499,522,517,504
509,494,524,522,502
511,517,537,528,496
507,518,537,531,500
501,502,522,524,507
503,503,520,523,511
504,499,513,517,519
504,500,505,511,526
505,502,501,504,528
510,508,504,503,529
518,510,508,504,525
521,508,514,507,517
514,509,511,502,517
516,513,515,502,515
518,512,518,504,512
514,511,520,505,511
517,506,522,510,507
523,507,533,523,505
538,511,536,526,498
531,511,531,526,497
524,509,531,529,502
523,505,525,527,511
523,507,522,524,510
508,497,508,514,521
503,499,504,509,526
506,503,504,505,528
506,507,508,504,529
511,510,514,507,525
510,507,504,502,517
507,504,513,501,521
512,504,512,502,516
512,506,514,502,512
513,506,519,510,509
514,505,524,514,508
515,506,529,521,509
517,506,532,524,503
517,507,531,528,501
510,505,528,529,507
507,503,528,526,508
498,502,522,523,519
479,492,510,516,526
484,496,502,508,533
490,501,504,504,526
496,505,504,502,523
503,506,511,502,518
508,506,513,503,518
511,506,516,503,517
516,510,518,503,515
523,507,519,505,512
526,509,524,509,506
520,509,529,517,503
522,513,534,526,496
525,512,536,531,502
527,514,534,527,501
520,509,527,526,510
520,511,524,524,510
513,501,514,520,518
507,499,504,507,527
518,503,504,506,530
516,506,504,504,529
513,508,508,503,524
514,508,510,501,521
515,508,515,499,518
515,511,512,499,516
516,509,518,502,517
516,508,520,506,511
518,511,525,511,508
520,509,529,519,505
524,510,533,524,497
525,510,534,530,499
523,510,531,534,501
519,506,523,527,507
516,503,520,524,513
504,497,505,511,526
505,501,504,510,529
504,506,505,507,532
509,507,505,505,524
514,508,509,506,518
510,510,516,505,518
513,508,511,501,518
512,507,514,502,507
510,505,513,502,502
514,504,518,506,504
516,508,525,512,501
522,510,529,525,494
522,509,531,528,504
522,509,532,532,508
515,505,526,529,506
514,506,523,527,514
514,504,519,523,514
499,499,505,510,525
497,502,503,505,539
501,508,504,505,533
501,509,506,502,531
498,506,508,504,529
496,503,509,503,524
496,504,511,505,526
500,508,514,497,522
495,505,516,499,513
489,504,523,510,506
482,502,523,519,507
496,505,528,522,506
511,507,530,526,504
507,506,532,535,509
494,497,521,526,514
493,501,517,521,526
509,501,510,515,531
524,505,505,508,536
527,507,503,505,530
515,508,504,505,526
501,508,508,504,525
501,505,511,505,517
501,505,510,502,506
511,508,514,505,497
505,503,514,506,502
497,504,517,504,518
485,502,521,512,526
503,504,525,520,515
532,506,530,527,513
526,507,529,534,488
518,509,531,534,477
508,506,522,527,506
520,509,521,524,517
517,505,509,517,534
516,501,504,513,539
518,503,502,508,535
518,505,500,503,523
526,510,505,498,527
531,512,511,504,506
522,507,509,502,520
519,508,510,505,504
519,508,514,504,500
517,506,516,509,501
521,506,522,513,498
537,509,526,521,495
546,511,530,528,495
548,510,526,530,497
546,508,525,529,506
537,510,520,527,510
529,504,515,523,515
513,499,503,514,525
511,500,500,509,527
511,501,499,505,523
517,509,502,506,518
516,507,506,503,517
516,507,507,503,517
515,508,511,503,517
516,509,512,504,515
516,506,514,505,512
519,505,517,508,503
520,507,517,514,502
520,505,525,524,500
519,507,527,531,502
517,509,527,534,507
507,503,517,527,515
508,504,515,526,519
497,497,506,515,526
489,494,499,512,528
505,504,496,502,527
509,506,499,504,524
511,508,503,504,519
512,508,506,503,515
514,509,508,503,508
517,509,509,501,503
515,509,510,503,504
513,507,513,505,505
518,508,517,511,500
523,508,523,520,497
522,507,526,524,498
522,506,524,530,505
518,510,524,531,505
512,505,516,524,506
508,503,514,521,510
492,498,502,515,524
494,497,497,510,527
506,501,498,508,519
507,505,498,506,535
508,507,503,505,549
506,509,508,506,524
504,506,501,498,502
507,506,508,502,493
511,507,511,503,503
515,501,511,506,503
513,499,516,512,486
515,506,522,521,483
525,513,533,533,478
521,512,525,533,484
511,505,518,525,508
511,506,513,521,513
513,505,508,519,509
504,502,501,513,518
499,501,497,508,543
507,504,497,504,533
508,507,501,504,531
501,506,503,502,531
502,508,504,501,527
500,503,505,499,524
497,503,509,505,517
491,502,511,501,513
496,505,512,507,513
508,503,516,515,509
531,506,522,524,501
540,509,522,527,495
531,506,523,530,506
528,506,516,526,521
532,510,517,527,508
525,502,505,518,524
510,502,499,511,530
485,503,498,507,533
478,503,497,505,529
481,506,501,508,515
490,508,505,503,508
481,505,503,501,512
483,503,505,501,515
493,504,506,506,508
524,504,508,505,495
562,508,516,514,493
569,511,522,521,489
557,511,525,531,489
540,512,528,530,496
537,511,522,531,503
528,505,515,529,532
525,504,512,524,524
515,501,500,513,523
513,500,498,509,528
511,506,497,505,536
512,508,499,505,541
512,507,501,501,538
513,507,503,500,522
509,504,502,500,514
512,508,508,505,502
508,508,511,505,510
506,505,513,508,508
514,506,516,512,513
524,509,522,522,508
520,507,522,527,498
519,508,521,530,495
517,505,516,527,497
514,504,513,523,501
504,501,507,520,527
485,496,497,511,544
485,499,495,509,542
496,505,496,505,541
502,508,501,502,522
506,508,503,504,505
511,509,506,504,499
500,506,507,504,500
500,504,504,502,502
502,501,508,504,502
510,504,515,514,511
527,506,516,516,515
535,510,521,524,515
535,511,520,527,495
538,509,520,530,486
532,503,512,525,500
521,501,510,522,496
508,498,500,515,505
498,499,496,510,518
479,500,493,506,523
466,504,498,504,522
460,503,498,503,526
467,507,505,504,504
470,503,499,499,490
483,504,504,502,488
507,504,506,501,488
548,503,507,504,492
595,509,514,508,511
577,512,519,520,532
550,510,524,528,513
537,510,524,529,493
531,512,526,533,498
515,504,514,524,529
508,503,511,519,527
495,497,500,512,523
492,498,496,507,530
498,503,497,506,536
498,508,498,506,518
501,505,504,508,525
504,504,502,502,520
501,502,501,499,531
520,507,506,501,521
512,505,505,499,513
523,508,513,502,500
528,508,517,515,490
515,507,523,522,502
509,507,525,530,501
515,509,522,530,505
521,505,517,526,510
517,501,512,521,516
522,500,507,514,522
528,499,496,507,534
524,504,496,506,536
522,506,498,506,530
520,508,499,503,514
520,507,502,503,500
521,509,505,502,512
514,506,505,504,522
519,506,508,502,523
511,509,514,504,524
509,506,513,506,518
516,509,519,516,503
519,508,524,523,492
519,508,524,527,489
524,510,521,530,500
517,503,513,528,505
517,502,512,527,497
507,497,501,517,504
497,498,497,511,517
490,500,496,505,528
492,504,498,503,532
494,505,501,502,524
499,507,504,501,517
507,507,506,499,521
512,508,505,498,512
506,504,508,502,502
500,500,507,504,503
500,502,514,510,494
506,507,520,520,493
517,506,523,527,494
521,505,522,527,511
535,507,518,526,514
534,503,513,527,523
528,504,513,522,520
508,497,499,513,533
502,496,493,505,532
506,502,493,503,520
507,505,500,507,519
513,507,502,504,508
521,510,505,510,489
514,504,505,502,500
514,507,510,503,506
514,504,508,499,515
518,504,511,505,510
517,504,516,510,511
524,507,520,519,504
524,506,520,524,514
519,508,522,530,514
516,506,519,529,517
515,505,515,527,513
503,497,504,518,523
495,495,493,503,515
496,498,496,505,516
498,506,499,504,519
502,508,500,505,526
502,505,502,502,511
513,507,503,505,510
513,504,503,502,515
530,508,506,501,508
529,507,508,500,510
523,506,513,506,503
514,505,518,514,504
510,505,521,523,499
506,508,523,529,499
511,511,527,535,495
503,504,517,527,503
509,504,513,525,503
510,496,500,513,511
520,497,496,508,511
516,502,493,505,512
505,504,496,504,522
510,509,504,504,509
508,508,506,503,511
503,505,506,503,513
495,503,506,503,512
493,505,509,502,511
498,503,512,505,525
508,506,517,511,518
511,509,524,521,510
507,511,527,524,518
511,508,523,528,519
531,510,523,532,507
527,503,514,522,498
520,503,511,525,504
499,496,501,513,517
494,496,496,506,522
504,504,497,504,519
515,507,500,505,514
529,507,502,505,502
535,509,507,503,496
522,506,502,498,510
518,509,508,502,521
514,507,509,502,517
511,505,514,509,529
517,506,518,514,520
524,507,522,522,509
519,506,521,525,512
511,505,521,529,492
517,503,518,527,495
520,505,515,523,506
508,499,506,516,526
500,498,498,510,517
503,503,500,508,519
510,505,498,506,517
515,506,501,505,512
514,507,505,507,509
510,507,506,503,510
509,504,502,499,520
515,510,510,503,509
510,503,510,502,510
516,505,517,512,499
519,506,520,517,493
523,507,525,524,496
524,507,525,528,504
522,509,524,529,507
517,505,519,523,512
512,506,515,524,504
500,496,503,516,514
497,497,496,509,515
498,502,498,505,524
508,509,504,504,527
503,504,503,503,516
504,507,507,505,512
505,510,508,504,511
502,503,506,501,509
504,506,511,502,516
514,509,514,508,519
511,504,517,513,527
523,506,523,519,515
528,507,526,529,504
528,510,527,530,497
528,505,522,529,493
517,501,516,521,499
513,501,509,520,504
500,495,501,512,523
498,501,498,508,529
499,504,500,508,528
504,508,501,504,522
506,506,500,502,516
508,508,508,504,510
505,506,505,501,516
506,510,512,502,515
503,505,511,503,517
503,505,512,507,509
510,504,516,513,503
520,508,523,525,498
522,508,525,528,503
520,511,526,531,504
514,506,519,527,506
506,501,513,525,512
500,495,504,518,519
506,497,495,509,529
507,500,496,507,534
505,502,496,504,515
506,507,501,503,517
502,505,501,502,516
502,504,504,503,505
503,505,504,499,511
510,508,510,502,507
517,504,511,505,511
524,509,515,511,508
523,506,519,519,506
523,509,529,527,503
517,508,525,530,505
516,509,524,531,501
512,499,516,526,506
510,501,513,525,508
502,496,499,513,521
504,497,495,506,525
507,501,496,506,531
511,506,498,505,521
510,507,502,504,517
506,507,507,504,518
499,505,504,502,518
490,504,504,500,523
487,505,508,502,517
490,502,509,504,503
494,503,515,511,505
522,506,521,519,498
559,510,525,528,489
545,508,523,531,488
547,510,522,528,496
539,502,513,522,506
530,504,512,522,514
513,497,498,512,532
506,501,495,508,527
498,502,497,506,523
504,507,498,504,513
507,507,503,502,517
512,508,507,501,509
512,504,505,500,521
509,505,507,502,520
523,506,512,506,515
528,507,514,506,518
521,507,519,513,508
523,506,521,520,502
523,506,527,529,488
523,508,525,530,497
518,503,518,528,504
514,501,513,527,513
507,498,504,514,522
500,498,498,508,525
496,502,498,507,536
497,504,498,507,541
500,508,501,506,530
500,508,506,503,514
510,509,507,504,505
519,508,507,503,512
516,508,511,500,511
514,507,512,505,492
518,507,520,514,500
523,504,520,518,501
526,509,524,524,504
527,509,525,529,496
531,509,523,529,486
520,505,517,524,502
513,501,513,523,509
502,497,502,514,516
504,499,500,509,517
504,501,498,508,522
505,509,501,506,530
507,504,502,504,520
513,508,510,505,514
510,507,511,507,515
508,505,507,503,511
510,508,514,505,520
511,506,512,507,514
515,506,517,512,509
522,507,523,523,504
522,506,525,528,502
524,507,525,533,502
526,508,521,529,502
511,502,514,523,509
511,505,514,523,513
499,496,503,511,522
499,501,500,508,529
500,503,499,505,527
503,506,502,505,523
507,506,506,505,521
509,504,507,505,517
508,506,507,501,519
508,504,509,504,516
508,502,511,504,514
513,505,518,512,504
517,506,525,516,507
524,509,528,524,506
527,510,528,530,499
526,510,527,531,499
515,504,521,527,510
509,501,515,524,508
505,498,508,516,508
497,498,501,512,521
497,500,500,508,523
500,504,502,506,524
505,508,507,506,522
502,506,509,509,522
502,508,511,508,517
499,505,513,502,520
502,506,512,503,516
503,504,515,506,513
510,504,518,513,507
525,505,523,519,489
535,506,527,527,490
532,508,525,531,490
529,509,528,532,496
520,505,523,526,512
509,500,515,523,520
499,496,505,515,524
499,497,501,510,527
498,502,501,507,527
502,506,504,507,521
507,506,508,504,520
508,504,509,503,505
511,508,510,503,506
508,505,509,503,509
513,506,514,506,500
517,504,516,509,507
515,505,520,513,518
525,507,525,523,501
526,508,530,530,501
522,507,527,529,511
518,505,525,526,508
511,501,515,520,517
513,502,513,520,524
504,498,503,512,528
505,500,500,504,532
501,501,503,506,522
500,504,504,508,522
514,507,507,503,515
516,509,511,501,518
512,507,510,503,513
509,505,511,503,507
512,504,514,504,502
522,505,519,511,497
517,504,522,514,500
523,505,523,522,494
522,506,524,526,498
521,509,526,529,510
513,505,520,525,512
501,501,512,519,516
500,498,508,515,520
499,500,501,511,527
500,505,504,508,531
495,503,500,503,523
518,510,506,506,514
525,510,511,506,512
518,507,511,502,511
513,506,509,500,520
513,506,512,503,515
514,506,513,505,508
513,503,517,510,503
516,506,523,519,505
521,510,529,526,505
522,511,530,530,512
520,508,525,530,509
517,502,515,525,506
513,503,514,527,504
504,499,504,516,514
499,500,501,507,515
499,503,500,507,520
501,507,502,504,526
508,508,504,504,519
508,507,509,504,513
506,507,509,503,508
497,502,508,503,509
496,503,511,503,516
507,505,519,511,510
513,504,518,513,506
503,505,521,521,508
522,506,523,526,501
536,511,528,535,492
526,508,523,530,502
518,504,515,525,522
504,502,509,520,531
505,500,500,514,527
510,501,497,506,518
509,505,501,504,518
511,509,504,508,520
522,509,505,507,510
533,511,508,505,503
519,504,506,502,507
510,505,507,501,507
513,506,513,505,505
516,502,514,509,507
515,504,519,515,521
518,507,525,522,509
526,508,528,528,497
543,513,527,532,492
536,508,518,526,502
518,498,511,521,505
510,499,505,515,510
503,498,499,511,513
503,502,499,508,520
502,504,500,506,522
510,508,504,506,523
512,506,505,502,530
518,509,507,501,525
512,504,506,500,508
515,510,515,504,500
513,504,515,505,500
517,506,518,512,504
517,506,525,520,505
519,505,525,527,502
519,505,523,528,511
519,504,526,528,512
512,501,513,523,509
509,501,512,521,509
504,500,502,514,512
498,500,499,513,524
498,503,499,506,527
503,507,501,503,529
502,505,504,503,523
507,509,508,506,515
505,506,507,502,518
502,505,506,499,518
508,510,511,503,515
511,505,515,507,513
517,504,519,514,508
521,504,521,520,502
532,508,524,526,493
529,509,525,532,497
518,506,522,527,503
511,503,515,525,507
507,499,508,520,512
502,499,501,516,521
498,499,496,508,525
508,507,499,506,525
506,509,505,505,523
509,508,505,503,518
514,510,508,504,517
508,507,507,503,516
509,507,513,502,515
510,505,511,504,513
515,507,516,514,510
517,507,520,516,508
523,510,526,523,501
522,508,523,529,501
522,509,525,532,496
517,507,520,526,504
509,505,515,523,513
498,499,504,517,520
496,500,500,510,528
496,503,497,507,526
498,508,499,504,527
503,509,506,508,523
509,509,507,504,517
516,510,510,505,517
509,507,506,500,517
520,508,511,503,516
512,507,513,507,513
515,506,518,510,500
520,509,523,523,502
522,508,527,527,500
524,508,525,529,497
526,509,523,528,499
518,506,517,524,506
507,499,511,522,502
501,497,502,513,519
496,496,497,511,528
504,507,499,504,531
507,508,501,505,529
507,507,504,504,523
509,509,509,505,508
506,505,507,502,495
502,504,508,502,504
504,506,510,499,501
509,505,515,507,506
505,503,516,510,517
520,508,524,522,501
524,509,527,529,502
532,511,526,529,508
533,509,521,528,501
521,501,514,521,507
515,499,507,515,523
505,498,504,511,522
500,500,499,507,512
497,506,505,507,516
497,507,503,508,518
501,508,508,508,517
502,507,510,504,526
498,504,507,501,530
517,507,511,502,520
520,507,514,504,514
521,505,519,512,505
519,505,523,519,496
520,504,525,523,498
526,509,526,528,500
525,509,526,530,499
516,504,521,527,505
520,502,514,522,512
517,496,505,518,520
502,494,498,507,523
500,501,500,508,526
500,505,502,506,526
498,507,504,503,523
504,508,511,505,512
514,508,511,505,505
505,503,508,502,518
509,505,510,501,519
508,505,514,506,521
516,506,520,511,520
537,508,525,519,514
535,508,527,529,500
531,508,525,530,489
526,507,526,530,491
517,504,519,525,499
509,502,512,521,501
506,499,505,515,513
500,497,499,509,522
501,504,501,506,525
512,508,505,506,522
513,504,506,502,517
513,509,511,508,511
508,506,511,502,511
512,504,509,499,510
518,505,512,505,502
522,504,516,509,500
524,507,521,515,503
527,508,527,520,500
527,508,528,531,499
527,510,529,530,504
521,506,524,529,509
510,500,516,522,521
505,497,508,517,524
501,501,503,512,532
501,500,498,507,526
501,504,503,503,517
502,506,505,505,521
506,507,507,503,519
509,509,511,508,517
504,506,509,500,516
504,505,513,503,514
502,505,512,503,511
508,508,519,511,507
515,506,522,517,503
521,506,526,522,499
528,508,525,525,498
531,509,524,531,498
521,505,520,527,499
510,502,515,523,511
503,498,505,513,521
503,501,502,510,527
501,501,499,508,526
507,506,502,506,529
509,508,505,510,523
510,507,507,504,518
510,508,511,504,521
507,506,511,501,524
509,507,511,505,519
508,506,514,506,511
516,507,517,512,507
519,507,525,522,507
524,507,526,526,498
524,508,525,529,499
522,509,526,536,500
513,503,519,523,503
511,501,512,523,506
501,497,502,512,524
498,499,499,507,527
503,504,501,506,528
503,506,502,504,524
508,508,506,504,518
511,508,508,504,513
509,508,509,505,512
509,505,509,502,517
507,502,512,503,508
513,507,517,509,504
521,508,524,515,505
526,506,522,521,495
529,509,526,529,484
527,511,529,533,496
520,507,521,529,516
512,500,513,522,521
501,499,508,518,529
499,501,503,512,534
497,501,500,508,535
500,505,498,505,532
505,509,504,504,529
504,506,505,503,522
509,508,510,505,504
511,511,510,503,508
509,507,508,503,501
512,505,514,509,495
519,505,518,513,497
522,504,520,517,500
525,505,523,523,501
526,508,526,529,494
523,506,524,531,490
520,506,520,528,492
510,502,514,522,506
500,496,504,515,519
497,499,499,507,537
499,503,501,505,533
503,508,504,506,529
503,505,504,504,525
507,508,509,505,518
509,509,511,504,519
503,503,508,501,525
506,505,512,503,521
507,507,516,506,515
510,503,517,510,509
522,506,521,518,499
527,506,525,526,487
520,507,527,529,488
516,507,525,532,496
507,503,517,525,502
508,500,512,523,511
513,502,502,512,518
519,506,501,509,521
511,507,505,506,527
515,508,503,504,523
515,509,507,505,517
515,511,512,506,517
513,508,512,505,520
505,505,509,502,520
510,507,514,505,518
507,505,516,507,509
514,507,519,515,503
519,508,529,527,502
519,509,528,524,496
518,507,526,531,495
530,507,521,525,498
520,503,516,523,508
505,495,505,513,517
499,498,502,511,527
501,501,499,507,529
504,505,500,505,532
507,511,507,506,530
505,508,506,504,518
514,510,512,502,519
507,505,509,500,522
507,505,511,501,511
512,504,514,506,499
512,504,517,509,502
521,506,525,521,499
524,505,530,530,501
533,508,527,533,496
529,512,532,537,496
515,504,521,528,503
503,501,513,523,504
495,497,505,515,525
496,497,498,508,528
508,504,500,506,530
515,510,503,505,526
524,507,505,508,523
527,508,509,503,514
517,510,511,503,512
507,505,512,501,514
508,506,511,503,513
515,508,516,507,514
510,503,518,512,512
515,506,524,516,505
538,509,527,528,493
533,508,527,529,495
524,506,523,529,497
516,503,517,524,498
509,498,510,519,508
501,497,503,511,518
500,502,504,509,525
505,506,500,506,529
508,506,502,504,527
509,507,506,504,523
514,509,510,507,519
510,506,510,503,513
507,505,509,501,511
513,508,514,506,513
513,506,517,510,514
516,507,522,517,506
520,507,526,524,501
522,509,525,527,490
524,510,526,531,484
519,507,522,530,505
509,500,517,519,526
498,499,505,517,522
500,500,502,512,524
500,502,500,508,518
507,507,503,507,519
508,508,503,503,519
513,512,508,503,521
511,510,509,506,522
509,507,508,497,513
508,507,511,503,524
508,504,512,505,517
513,506,519,512,511
517,507,525,521,504
521,506,526,524,494
521,506,524,525,495
522,509,526,529,504
518,506,520,526,508
510,500,512,524,523
501,497,504,513,534
498,499,501,512,531
498,502,498,506,521
506,508,503,507,517
505,506,504,502,509
512,509,509,508,503
509,505,508,501,510
510,504,507,499,513
511,506,514,505,512
514,506,515,504,503
520,506,520,512,498
523,506,523,521,492
524,507,526,528,494
525,509,528,531,498
521,508,527,530,511
512,501,518,520,516
505,501,512,520,513
500,497,501,511,515
500,501,500,507,523
501,502,500,505,524
502,509,503,503,529
508,508,510,503,522
510,509,507,502,510
511,508,511,503,511
504,504,507,498,509
510,505,512,502,517
518,504,515,508,517
521,505,522,517,506
524,508,528,527,502
524,509,529,527,504
524,509,525,529,499
515,502,520,525,499
509,503,513,520,513
498,496,506,515,526
496,497,502,510,528
493,501,499,507,529
494,503,500,501,526
502,509,506,503,526
511,507,507,504,521
511,507,509,502,521
506,506,512,502,522
504,504,510,498,522
517,506,515,504,518
522,505,517,511,517
525,506,522,515,506
532,507,525,524,496
528,505,525,528,496
521,506,524,529,497
512,504,520,525,499
511,502,515,522,511
499,498,508,513,518
495,500,502,510,525
495,501,499,504,525
502,509,507,505,524
503,507,507,504,520
515,508,509,501,516
515,510,512,503,516
511,506,510,502,507
518,507,512,503,506
518,506,515,511,511
510,504,519,509,505
515,505,525,521,501
519,507,529,529,496
534,512,530,531,491
527,507,525,533,499
521,505,518,526,505
518,501,512,517,522
503,498,501,508,532
502,502,501,506,529
501,503,498,503,520
514,509,505,504,519
516,508,506,501,516
513,508,508,501,515
523,507,510,501,518
519,506,509,499,511
515,508,516,505,513
517,507,518,508,506
518,506,521,516,503
525,510,528,524,500
527,511,533,530,502
523,509,528,533,506
517,505,521,525,509
516,507,516,522,518
506,498,507,519,528
500,499,501,512,521
500,503,501,503,520
497,506,502,505,516
503,509,509,508,520
505,509,509,504,519
504,513,512,505,517
503,507,512,501,517
507,506,510,504,522
513,504,514,505,516
525,506,519,512,505
530,509,527,520,494
529,508,528,525,496
525,512,527,529,504
524,508,527,531,508
517,505,522,529,514
508,501,512,519,517
499,498,504,515,527
494,498,500,510,533
501,504,502,506,522
509,506,504,505,509
509,507,504,504,510
516,507,509,504,511
511,507,510,506,513
505,505,509,501,514
509,505,512,502,511
507,504,511,502,506
522,508,521,511,506
532,509,526,519,500
527,508,531,527,501
523,510,528,531,507
519,509,525,534,512
511,504,519,529,514
503,498,512,518,521
503,501,503,512,533
503,504,502,509,531
501,502,499,505,525
507,506,503,502,508
513,508,508,504,498
513,508,511,507,503
511,507,510,500,502
510,505,510,502,507
510,504,514,507,508
515,504,519,509,499
519,506,523,517,502
523,507,528,525,499
522,510,531,529,501
519,508,528,532,498
513,503,520,526,504
511,504,515,523,512
499,495,506,516,522
498,498,500,508,528
503,502,501,507,526
512,506,502,507,521
513,508,508,508,522
512,507,509,504,520
512,508,511,503,517
508,507,509,503,506
510,507,513,504,509
510,506,516,507,503
514,505,520,512,500
521,508,525,520,500
525,509,530,526,501
521,507,526,532,504
520,508,525,529,503
515,505,521,524,506
509,502,514,521,512
498,496,503,513,520
501,499,500,508,526
498,502,500,508,529
499,506,501,503,526
503,507,506,501,522
502,506,509,503,520
505,506,510,502,518
508,510,510,502,519
504,503,509,500,510
511,507,518,507,500
521,505,521,513,495
527,506,525,522,497
526,510,527,527,495
523,507,526,529,499
520,506,524,527,507
515,505,519,526,513
503,497,508,517,523
498,498,502,511,521
503,501,499,508,522
508,506,503,506,520
510,510,506,507,524
507,507,505,502,524
508,508,510,502,517
512,509,511,502,518
510,505,509,500,522
512,505,513,504,516
512,506,520,511,513
518,506,520,516,503
525,507,528,523,499
531,508,528,529,493
527,509,527,531,494
519,506,522,527,505
516,502,516,525,514
506,498,506,515,522
499,503,502,510,530
497,501,501,507,527
500,506,502,503,530
504,509,506,507,520
507,508,509,505,511
512,507,510,503,510
511,507,511,503,510
504,505,511,504,505
509,507,516,506,505
509,504,517,509,501
522,506,524,520,494
521,507,527,524,502
527,509,529,529,504
534,510,526,534,500
523,505,518,524,510
509,500,511,515,517
513,499,505,513,523
513,501,500,507,526
508,504,502,505,540
510,510,504,504,533
509,506,505,502,526
509,507,509,503,524
508,506,506,501,516
511,506,511,504,505
512,505,513,507,509
512,506,517,507,511
508,504,521,515,508
512,506,526,524,501
507,509,528,528,500
513,508,529,535,498
515,506,522,528,487
512,506,517,525,490
502,497,506,515,505
515,498,503,508,527
518,500,501,506,530
517,504,501,506,528
516,508,507,503,524
514,507,507,502,516
516,508,511,505,509
515,507,511,504,515
509,505,506,498,511
511,506,515,509,506
511,503,518,510,510
515,506,522,517,499
520,507,524,523,494
520,507,527,528,501
523,508,528,531,505
529,507,520,528,511
518,502,514,522,516
506,496,504,514,517
501,496,499,510,527
503,501,496,505,523
506,506,503,505,525
506,504,503,502,524
507,508,510,503,521
506,506,510,502,513
506,508,510,503,512
504,503,510,503,507
515,505,519,506,501
519,504,519,512,502
524,506,523,518,497
522,506,526,527,495
521,508,529,530,503
520,507,526,531,501
512,503,518,527,499
504,499,511,520,510
498,499,504,513,521
504,500,498,506,522
508,505,500,509,526
506,507,501,503,529
509,507,505,502,525
511,509,509,508,518
509,506,510,503,516
509,506,510,502,513
509,504,513,503,514
515,504,517,507,507
524,507,520,514,505
525,507,526,523,503
525,508,528,528,502
522,509,527,530,499
519,505,525,529,504
514,501,515,523,505
507,495,508,516,516
501,498,504,515,523
501,501,500,507,524
505,506,501,508,525
508,507,507,510,524
507,505,506,503,520
509,507,510,503,522
510,507,514,506,519
509,504,510,502,517
513,507,514,506,514
517,507,517,509,506
519,506,521,517,499
522,506,526,525,495
519,507,526,529,500
520,511,527,535,498
513,504,520,528,510
504,506,514,521,517
496,497,505,515,524
497,502,503,511,527
497,500,498,505,523
508,508,503,507,525
513,511,504,503,520
514,509,509,505,517
513,506,509,504,510
514,508,511,504,506
513,506,510,503,502
516,506,516,508,502
518,506,518,511,500
521,507,525,522,496
523,507,528,529,500
521,507,526,530,511
523,507,523,531,509
517,504,518,525,505
511,501,514,519,519
496,495,501,512,524
498,500,499,507,528
500,503,501,505,538
498,506,507,507,535
501,505,504,503,536
513,509,510,503,527
513,509,511,502,522
509,510,510,501,509
509,506,513,504,507
518,507,520,513,506
515,506,521,517,510
520,507,525,520,509
524,508,526,524,507
524,512,526,529,505
520,508,522,526,498
517,504,517,525,499
512,499,508,518,507
499,497,501,511,518
496,503,502,508,530
497,506,501,505,531
501,509,506,505,530
497,505,505,503,514
508,508,511,504,504
515,508,513,505,506
521,506,510,501,500
521,506,514,504,496
522,506,518,510,501
518,503,522,517,499
521,505,525,525,492
521,509,525,527,495
518,506,524,529,497
511,503,520,526,507
517,503,515,523,515
509,500,506,515,524
504,499,504,512,527
506,503,502,506,519
509,507,501,505,519
509,508,504,505,518
508,507,511,504,512
510,509,511,505,514
510,507,511,505,517
510,506,510,501,509
512,505,515,505,509
521,506,520,513,505
528,508,528,521,508
530,508,527,526,505
526,508,527,530,502
522,506,523,529,505
514,504,518,524,508
512,502,512,517,513
504,502,508,514,518
497,499,499,507,523
501,504,501,506,526
505,508,503,505,527
507,506,505,502,525
509,509,507,501,519
510,507,509,502,514
514,506,511,503,514
509,504,512,502,509
509,503,516,508,506
513,508,522,515,505
518,507,523,527,502
523,509,528,528,502
519,509,528,531,505
518,512,523,528,508
510,504,515,522,509
499,497,504,514,515
495,498,502,512,519
494,506,501,508,524
498,504,501,504,526
515,510,505,502,518
514,506,507,503,519
516,510,512,504,517
508,508,510,502,519
505,502,509,500,518
508,506,514,503,512
517,508,518,510,510
519,508,524,523,502
523,507,529,526,495
525,508,526,528,497
528,510,525,529,500
521,505,520,525,507
515,503,515,522,511
505,498,505,516,522
499,499,500,509,525
503,503,499,508,521
504,505,502,505,524
507,509,506,504,524
508,508,508,507,526
507,506,511,502,520
507,506,510,502,519
510,507,512,503,515
510,505,515,507,509
518,505,517,509,500
523,506,524,521,497
521,506,525,526,497
516,507,524,528,502
516,506,523,529,503
510,503,518,524,515
503,498,510,523,524
494,493,501,512,524
505,503,500,510,523
513,506,502,509,525
511,508,503,505,516
512,507,506,504,513
514,512,510,505,518
511,506,508,502,520
513,507,510,502,515
515,506,513,504,512
513,505,517,509,504
513,504,519,513,498
524,505,523,522,499
530,509,526,528,498
524,509,526,529,502
517,505,521,527,506
511,502,516,524,510
502,501,507,516,521
497,496,500,510,526
498,501,499,505,528
502,505,499,502,528
509,507,505,506,515
515,507,505,500,504
517,509,509,502,508
513,510,511,503,515
510,504,509,501,517
512,505,514,505,513
514,506,519,510,516
517,506,525,520,511
520,505,526,526,506
516,506,525,530,515
511,505,523,530,508
506,501,517,524,498
516,504,516,528,492
499,496,503,513,514
494,498,498,506,524
502,506,501,509,525
506,509,502,504,518
507,508,506,505,506
509,507,510,506,512
504,506,511,504,520
509,506,507,499,516
526,507,513,504,513
531,507,516,507,506
524,505,520,514,505
522,504,525,525,502
524,506,527,526,497
528,508,526,530,498
531,507,523,529,504
522,507,517,524,511
515,501,510,518,513
506,501,504,513,515
499,500,500,508,526
502,506,501,507,522
508,509,503,504,525
509,505,505,502,525
511,508,510,505,522
511,509,512,504,523
510,506,512,502,516
511,504,512,504,513
517,504,517,510,513
521,505,521,516,508
526,505,525,524,492
523,507,525,529,499
522,507,523,530,502
518,506,520,526,504
513,505,517,524,510
501,498,504,519,523
493,498,499,509,524
493,501,498,506,527
494,505,500,504,528
495,505,503,504,520
501,507,506,502,515
505,508,510,503,517
511,509,509,501,515
527,509,512,502,509
525,508,515,509,507
524,508,521,511,506
520,505,521,519,500
520,508,525,526,497
517,508,526,529,500
516,508,525,530,501
510,509,520,526,508
504,502,512,521,510
497,499,504,513,521
498,498,499,510,527
507,503,498,507,527
518,508,503,504,526
519,509,503,501,522
517,509,510,510,519
513,507,507,501,515
511,507,509,502,517
511,507,513,510,513
517,506,517,507,505
526,508,519,514,502
523,506,525,519,495
524,509,528,529,495
524,510,527,531,498
522,508,527,530,504
515,502,519,523,509
510,501,511,518,516
500,497,501,512,524
502,501,498,507,529
504,504,501,506,528
504,507,503,503,526
508,506,506,502,523
511,509,510,505,519
509,507,511,505,510
510,507,511,504,511
509,504,513,505,513
512,504,514,509,508
518,507,521,515,506
523,509,527,522,500
523,512,528,529,501
522,512,527,530,506
515,506,522,526,509
510,500,516,522,508
502,497,506,516,516
502,498,501,511,525
502,503,498,507,522
501,505,502,507,523
507,508,506,508,523
504,506,508,502,525
508,509,511,507,515
508,508,513,503,512
508,506,512,502,514
512,506,514,505,511
519,510,519,511,502
520,506,525,523,497
521,506,526,526,493
522,507,526,529,493
520,507,525,530,498
512,502,518,521,514
510,503,513,522,522
501,502,505,515,530
494,499,499,508,531
497,503,500,507,528
504,508,503,503,530
506,506,503,504,531
506,506,507,501,517
511,508,510,502,503
517,507,510,501,505
514,507,512,505,505
517,507,518,508,501
514,503,520,516,509
519,505,523,519,504
518,505,525,525,503
522,510,525,527,496
509,507,524,526,496
500,504,519,530,512
490,499,510,522,511
485,497,499,508,511
499,499,498,506,511
510,507,501,504,513
532,512,505,504,514
531,510,508,502,513
523,506,508,503,517
521,508,510,502,513
523,509,512,503,518
517,506,513,505,512
519,505,517,509,512
524,510,522,518,508
526,510,527,525,503
522,508,528,527,507
523,510,530,536,504
516,504,520,526,508
512,504,517,527,513
500,496,504,514,523
496,499,500,510,526
494,501,501,510,522
504,505,501,504,513
509,508,505,504,517
511,506,506,502,515
516,510,510,504,512
510,506,510,504,514
514,506,509,500,509
519,506,513,505,507
520,506,519,511,510
527,510,526,520,505
525,508,529,530,499
523,508,524,528,500
524,508,522,530,500
521,504,519,527,506
516,501,512,520,508
504,497,503,513,518
502,500,500,507,531
503,504,500,505,537
503,511,503,505,534
508,509,508,503,531
507,507,507,502,524
509,505,508,502,517
506,504,512,502,511
511,506,512,502,508
517,507,516,510,504
520,506,519,512,499
525,507,527,521,489
522,506,527,527,492
519,508,523,527,496
516,507,523,528,505
509,503,517,524,513
504,501,509,520,514
502,500,502,511,522
506,502,501,506,525
504,504,503,504,524
508,507,502,503,524
509,506,506,503,523
509,506,509,504,519
511,508,511,499,517
511,508,512,504,514
509,504,513,506,514
512,504,518,508,503
518,506,521,521,499
522,507,527,525,496
524,508,527,528,502
526,512,527,531,501
518,505,520,529,507
512,502,513,521,509
502,497,505,514,521
498,499,501,510,528
498,501,498,505,524
499,505,501,504,523
504,508,505,504,522
508,509,511,505,520
510,505,508,503,517
514,507,511,503,512
514,508,514,505,519
513,505,515,507,515
518,506,517,513,507
523,508,525,518,502
526,508,527,527,492
526,508,526,529,492
523,509,525,529,502
514,504,519,524,513
509,503,514,520,520
503,499,508,511,529
501,500,499,510,521
500,502,500,504,517
504,507,504,505,521
504,506,505,503,517
507,508,510,504,519
508,509,512,503,524
508,505,509,502,519
513,506,515,504,508
518,508,520,510,504
518,506,519,514,497
520,506,524,523,494
522,508,526,529,497
520,508,527,528,499
517,506,522,528,503
511,508,519,526,509
499,497,506,515,517
503,500,505,511,522
502,502,502,509,526
502,505,500,504,524
506,508,504,504,519
507,506,505,504,516
511,507,508,504,509
510,506,509,507,510
509,506,501,505,506
513,506,500,507,508
524,509,505,509,506
527,506,502,517,499
528,506,502,523,501
527,508,499,527,503
525,508,495,529,504
519,505,487,524,511
513,503,480,523,517
503,499,467,514,523
499,499,462,512,522
502,502,459,507,523
502,506,458,508,529
505,507,460,505,520
507,506,459,505,515
513,511,462,503,511
509,510,462,502,515
510,505,461,503,515
513,505,462,503,511
515,505,465,511,513
519,508,473,521,507
520,506,473,529,505
520,506,472,528,500
520,506,467,526,496
512,502,463,526,511
512,503,459,522,516
502,498,449,508,523
508,500,445,508,520
507,505,447,510,517
505,506,447,505,516
506,504,448,501,513
513,509,454,504,513
509,507,456,502,515
505,505,455,504,526
505,503,457,501,527
516,503,461,504,510
519,504,466,514,501
527,507,472,526,499
529,509,475,529,501
524,508,476,535,504
520,506,469,527,505
514,505,463,522,508
508,498,457,518,516
504,499,451,511,524
502,502,451,510,525
503,504,450,506,525
502,503,454,504,524
504,506,459,505,509
504,508,462,504,514
504,507,466,506,515
504,506,463,507,512
503,506,467,507,513
508,504,471,512,508
518,506,476,519,502
528,506,480,523,503
533,508,481,529,499
536,510,482,531,501
524,507,477,528,506
514,505,470,521,513
517,499,462,513,510
511,499,458,509,522
509,504,460,509,524
508,506,461,506,521
511,508,465,508,521
510,506,465,502,518
513,509,472,505,511
512,509,474,503,512
510,506,475,507,516
513,505,478,503,509
516,505,483,513,509
519,506,489,523,505
523,508,491,524,497
