CH1,CH2,CH3,CH4
524.0,489.0,528.0,519.0
523.0,481.0,532.0,522.0
518.0,488.0,530.0,515.0
504.0,500.0,525.0,512.0
501.0,505.0,518.0,509.0
500.0,521.0,503.0,499.0
495.0,512.0,500.0,509.0
517.0,513.0,496.0,513.0
520.0,514.0,493.0,516.0
518.0,512.0,494.0,520.0
518.0,520.0,495.0,526.0
502.0,528.0,499.0,528.0
503.0,521.0,502.0,529.0
512.0,509.0,502.0,530.0
520.0,515.0,505.0,523.0
525.0,489.0,513.0,517.0
528.0,515.0,522.0,514.0
521.0,524.0,530.0,512.0
516.0,525.0,531.0,508.0
516.0,497.0,523.0,502.0
509.0,461.0,505.0,503.0
510.0,477.0,501.0,508.0
495.0,530.0,516.0,519.0
500.0,527.0,516.0,522.0
514.0,501.0,500.0,516.0
516.0,482.0,496.0,522.0
517.0,496.0,497.0,527.0
515.0,508.0,492.0,533.0
511.0,516.0,492.0,533.0
512.0,510.0,506.0,537.0
525.0,500.0,528.0,535.0
514.0,504.0,525.0,527.0
525.0,475.0,523.0,517.0
530.0,467.0,517.0,510.0
521.0,467.0,522.0,510.0
513.0,464.0,524.0,509.0
497.0,483.0,523.0,507.0
496.0,531.0,509.0,507.0
498.0,552.0,507.0,508.0
499.0,541.0,507.0,518.0
508.0,531.0,510.0,524.0
522.0,508.0,502.0,529.0
520.0,504.0,503.0,529.0
519.0,506.0,498.0,525.0
513.0,520.0,493.0,515.0
505.0,528.0,489.0,514.0
509.0,524.0,491.0,515.0
514.0,512.0,500.0,517.0
520.0,503.0,512.0,515.0
529.0,480.0,523.0,514.0
525.0,481.0,525.0,514.0
524.0,483.0,525.0,509.0
516.0,492.0,520.0,508.0
503.0,494.0,516.0,509.0
498.0,497.0,514.0,510.0
499.0,512.0,509.0,512.0
492.0,533.0,502.0,514.0
501.0,518.0,501.0,518.0
511.0,509.0,499.0,520.0
528.0,509.0,501.0,526.0
529.0,513.0,499.0,529.0
512.0,531.0,495.0,525.0
507.0,533.0,495.0,519.0
515.0,530.0,501.0,519.0
516.0,510.0,507.0,518.0
528.0,492.0,516.0,515.0
532.0,476.0,521.0,514.0
525.0,470.0,527.0,510.0
524.0,479.0,529.0,512.0
511.0,516.0,522.0,515.0
501.0,524.0,522.0,514.0
503.0,504.0,516.0,512.0
505.0,505.0,505.0,510.0
513.0,510.0,497.0,513.0
519.0,485.0,500.0,516.0
521.0,495.0,500.0,517.0
521.0,519.0,500.0,522.0
515.0,520.0,497.0,524.0
505.0,518.0,493.0,527.0
503.0,522.0,500.0,527.0
512.0,519.0,506.0,526.0
519.0,502.0,514.0,522.0
531.0,494.0,529.0,517.0
532.0,481.0,530.0,522.0
526.0,487.0,527.0,518.0
518.0,496.0,524.0,504.0
503.0,514.0,516.0,513.0
493.0,532.0,515.0,513.0
492.0,536.0,510.0,515.0
493.0,515.0,501.0,515.0
509.0,510.0,493.0,518.0
522.0,487.0,495.0,519.0
520.0,506.0,499.0,529.0
512.0,541.0,500.0,528.0
500.0,564.0,516.0,532.0
505.0,490.0,512.0,527.0
505.0,490.0,500.0,525.0
509.0,525.0,503.0,520.0
516.0,506.0,514.0,517.0
528.0,476.0,523.0,518.0
533.0,469.0,526.0,514.0
533.0,477.0,523.0,510.0
517.0,493.0,516.0,513.0
500.0,523.0,513.0,512.0
500.0,531.0,516.0,513.0
511.0,516.0,516.0,519.0
515.0,519.0,518.0,520.0
522.0,500.0,512.0,517.0
521.0,493.0,499.0,518.0
518.0,502.0,495.0,521.0
516.0,482.0,497.0,527.0
506.0,524.0,491.0,522.0
502.0,528.0,487.0,518.0
506.0,510.0,498.0,518.0
524.0,482.0,504.0,518.0
536.0,486.0,517.0,509.0
530.0,494.0,524.0,509.0
525.0,491.0,527.0,513.0
522.0,487.0,527.0,512.0
507.0,509.0,520.0,513.0
497.0,521.0,519.0,513.0
507.0,512.0,514.0,516.0
512.0,526.0,510.0,512.0
508.0,531.0,504.0,519.0
521.0,508.0,504.0,519.0
519.0,503.0,503.0,523.0
515.0,486.0,501.0,527.0
505.0,522.0,496.0,524.0
491.0,548.0,492.0,524.0
493.0,531.0,496.0,522.0
505.0,513.0,503.0,515.0
528.0,506.0,507.0,515.0
551.0,505.0,517.0,509.0
539.0,485.0,523.0,511.0
531.0,486.0,527.0,506.0
522.0,506.0,520.0,509.0
504.0,519.0,519.0,511.0
497.0,501.0,513.0,514.0
500.0,518.0,511.0,513.0
510.0,506.0,508.0,515.0
519.0,496.0,511.0,518.0
524.0,486.0,502.0,524.0
527.0,488.0,495.0,526.0
528.0,503.0,494.0,524.0
512.0,512.0,503.0,525.0
507.0,507.0,496.0,524.0
511.0,511.0,508.0,525.0
520.0,524.0,515.0,522.0
516.0,535.0,516.0,517.0
528.0,520.0,520.0,514.0
522.0,513.0,531.0,518.0
516.0,502.0,533.0,517.0
517.0,459.0,520.0,510.0
501.0,519.0,503.0,502.0
493.0,526.0,507.0,508.0
510.0,499.0,511.0,507.0
519.0,492.0,504.0,519.0
521.0,479.0,513.0,518.0
520.0,502.0,500.0,523.0
522.0,508.0,495.0,524.0
523.0,514.0,499.0,527.0
512.0,533.0,496.0,532.0
513.0,519.0,500.0,529.0
508.0,539.0,509.0,527.0
516.0,540.0,514.0,525.0
524.0,517.0,522.0,521.0
534.0,442.0,526.0,514.0
527.0,457.0,530.0,513.0
522.0,480.0,527.0,506.0
513.0,503.0,512.0,506.0
506.0,526.0,511.0,507.0
510.0,521.0,511.0,514.0
508.0,532.0,511.0,510.0
510.0,527.0,504.0,508.0
522.0,501.0,500.0,515.0
520.0,491.0,495.0,513.0
520.0,469.0,496.0,522.0
517.0,485.0,497.0,525.0
508.0,521.0,497.0,524.0
515.0,517.0,503.0,521.0
524.0,520.0,509.0,523.0
522.0,512.0,509.0,519.0
534.0,486.0,524.0,516.0
533.0,481.0,526.0,518.0
525.0,490.0,525.0,517.0
519.0,495.0,524.0,510.0
507.0,503.0,520.0,513.0
504.0,518.0,516.0,512.0
509.0,512.0,520.0,511.0
508.0,519.0,513.0,515.0
514.0,509.0,504.0,519.0
525.0,492.0,507.0,521.0
520.0,487.0,508.0,531.0
517.0,495.0,506.0,534.0
511.0,508.0,502.0,534.0
502.0,535.0,498.0,529.0
510.0,519.0,501.0,523.0
512.0,522.0,501.0,517.0
520.0,505.0,514.0,514.0
531.0,471.0,519.0,508.0
537.0,447.0,524.0,513.0
526.0,495.0,526.0,511.0
514.0,527.0,523.0,512.0
508.0,526.0,518.0,509.0
502.0,516.0,517.0,514.0
514.0,496.0,513.0,517.0
520.0,504.0,508.0,519.0
517.0,508.0,508.0,523.0
521.0,507.0,507.0,527.0
522.0,505.0,505.0,527.0
525.0,508.0,504.0,528.0
501.0,539.0,496.0,524.0
497.0,530.0,504.0,521.0
506.0,513.0,501.0,517.0
519.0,505.0,504.0,517.0
522.0,494.0,516.0,517.0
533.0,489.0,528.0,515.0
539.0,496.0,530.0,514.0
533.0,493.0,525.0,512.0
517.0,507.0,517.0,508.0
504.0,524.0,511.0,505.0
510.0,500.0,508.0,506.0
510.0,503.0,507.0,510.0
518.0,496.0,508.0,516.0
524.0,493.0,510.0,515.0
521.0,477.0,504.0,519.0
516.0,496.0,497.0,523.0
518.0,533.0,496.0,528.0
503.0,558.0,500.0,527.0
504.0,535.0,498.0,525.0
518.0,505.0,506.0,524.0
529.0,486.0,514.0,518.0
540.0,480.0,522.0,517.0
532.0,500.0,532.0,515.0
524.0,507.0,531.0,511.0
522.0,524.0,520.0,511.0
509.0,546.0,522.0,511.0
507.0,485.0,518.0,513.0
510.0,493.0,518.0,515.0
511.0,497.0,508.0,520.0
521.0,490.0,504.0,525.0
529.0,489.0,502.0,526.0
521.0,503.0,499.0,530.0
515.0,493.0,507.0,534.0
512.0,511.0,522.0,538.0
510.0,538.0,519.0,535.0
512.0,526.0,508.0,527.0
518.0,531.0,512.0,522.0
525.0,524.0,505.0,512.0
530.0,495.0,515.0,503.0
531.0,484.0,521.0,504.0
526.0,502.0,521.0,507.0
520.0,505.0,524.0,505.0
502.0,532.0,513.0,504.0
505.0,536.0,509.0,504.0
512.0,512.0,514.0,511.0
511.0,498.0,508.0,509.0
521.0,491.0,496.0,511.0
525.0,491.0,497.0,510.0
525.0,498.0,495.0,519.0
524.0,505.0,495.0,521.0
513.0,520.0,498.0,522.0
513.0,512.0,501.0,524.0
517.0,501.0,506.0,523.0
519.0,498.0,510.0,517.0
525.0,491.0,523.0,515.0
532.0,470.0,528.0,512.0
529.0,472.0,536.0,512.0
523.0,489.0,528.0,510.0
518.0,517.0,520.0,509.0
509.0,534.0,519.0,510.0
507.0,525.0,513.0,514.0
506.0,523.0,510.0,508.0
509.0,515.0,507.0,514.0
526.0,477.0,502.0,517.0
525.0,489.0,501.0,522.0
523.0,490.0,502.0,523.0
520.0,495.0,498.0,526.0
516.0,513.0,501.0,526.0
515.0,525.0,503.0,521.0
511.0,531.0,505.0,519.0
514.0,505.0,518.0,521.0
532.0,479.0,526.0,519.0
530.0,483.0,529.0,513.0
528.0,506.0,531.0,510.0
522.0,501.0,529.0,510.0
507.0,521.0,515.0,508.0
500.0,532.0,517.0,504.0
502.0,538.0,512.0,509.0
506.0,511.0,512.0,517.0
513.0,497.0,504.0,516.0
523.0,479.0,503.0,522.0
521.0,494.0,508.0,528.0
521.0,513.0,498.0,530.0
520.0,552.0,498.0,531.0
511.0,531.0,500.0,527.0
513.0,524.0,512.0,526.0
517.0,508.0,513.0,522.0
524.0,485.0,520.0,519.0
535.0,454.0,525.0,519.0
535.0,498.0,530.0,516.0
532.0,497.0,531.0,514.0
524.0,500.0,525.0,513.0
505.0,547.0,518.0,511.0
499.0,564.0,517.0,509.0
506.0,537.0,510.0,513.0
508.0,471.0,506.0,515.0
517.0,480.0,502.0,512.0
518.0,493.0,502.0,517.0
513.0,498.0,501.0,528.0
514.0,505.0,497.0,529.0
509.0,538.0,495.0,526.0
517.0,545.0,497.0,521.0
530.0,509.0,508.0,523.0
533.0,499.0,518.0,525.0
533.0,485.0,526.0,522.0
535.0,483.0,529.0,514.0
527.0,490.0,529.0,512.0
525.0,480.0,533.0,511.0
508.0,501.0,530.0,513.0
496.0,530.0,517.0,512.0
505.0,509.0,513.0,508.0
515.0,506.0,510.0,509.0
514.0,508.0,503.0,514.0
525.0,497.0,505.0,519.0
529.0,509.0,507.0,527.0
530.0,494.0,503.0,531.0
519.0,513.0,502.0,530.0
511.0,535.0,505.0,525.0
510.0,534.0,503.0,520.0
513.0,537.0,504.0,517.0
517.0,523.0,514.0,516.0
533.0,476.0,529.0,513.0
531.0,482.0,521.0,504.0
530.0,484.0,525.0,506.0
525.0,489.0,522.0,505.0
513.0,500.0,520.0,507.0
510.0,505.0,513.0,508.0
506.0,512.0,512.0,512.0
509.0,522.0,508.0,516.0
519.0,504.0,509.0,515.0
524.0,487.0,510.0,525.0
526.0,488.0,504.0,526.0
521.0,508.0,498.0,527.0
510.0,536.0,495.0,527.0
502.0,561.0,502.0,533.0
510.0,527.0,506.0,533.0
522.0,482.0,516.0,526.0
522.0,487.0,523.0,516.0
534.0,475.0,523.0,504.0
529.0,476.0,526.0,508.0
527.0,482.0,536.0,508.0
521.0,494.0,528.0,512.0
511.0,517.0,521.0,513.0
507.0,503.0,518.0,509.0
505.0,507.0,507.0,507.0
507.0,503.0,506.0,509.0
519.0,471.0,504.0,511.0
525.0,467.0,501.0,517.0
522.0,490.0,499.0,525.0
526.0,500.0,502.0,530.0
509.0,550.0,501.0,532.0
510.0,549.0,501.0,525.0
515.0,528.0,506.0,520.0
519.0,508.0,513.0,519.0
532.0,479.0,523.0,515.0
532.0,463.0,533.0,519.0
527.0,474.0,543.0,520.0
523.0,485.0,531.0,518.0
520.0,533.0,521.0,516.0
508.0,567.0,512.0,511.0
505.0,560.0,511.0,509.0
504.0,563.0,517.0,516.0
512.0,482.0,518.0,519.0
523.0,477.0,507.0,517.0
524.0,486.0,496.0,514.0
520.0,500.0,494.0,516.0
518.0,512.0,495.0,518.0
508.0,531.0,498.0,520.0
518.0,532.0,505.0,520.0
521.0,519.0,507.0,516.0
523.0,513.0,511.0,518.0
534.0,504.0,523.0,510.0
525.0,481.0,527.0,515.0
518.0,490.0,531.0,509.0
509.0,503.0,527.0,513.0
505.0,506.0,526.0,513.0
501.0,496.0,524.0,516.0
514.0,505.0,516.0,511.0
528.0,504.0,512.0,514.0
537.0,491.0,512.0,519.0
538.0,474.0,510.0,521.0
533.0,497.0,506.0,524.0
524.0,510.0,501.0,525.0
515.0,532.0,495.0,521.0
511.0,537.0,495.0,519.0
514.0,527.0,501.0,522.0
523.0,513.0,506.0,518.0
526.0,501.0,515.0,517.0
532.0,474.0,528.0,515.0
533.0,473.0,529.0,508.0
525.0,485.0,530.0,509.0
517.0,491.0,525.0,514.0
506.0,507.0,525.0,514.0
509.0,510.0,524.0,518.0
513.0,522.0,519.0,516.0
515.0,518.0,505.0,514.0
528.0,494.0,510.0,508.0
529.0,494.0,505.0,514.0
524.0,511.0,503.0,523.0
519.0,516.0,498.0,526.0
511.0,534.0,498.0,523.0
510.0,531.0,505.0,524.0
515.0,517.0,510.0,519.0
523.0,495.0,515.0,518.0
532.0,473.0,524.0,518.0
537.0,466.0,530.0,514.0
527.0,480.0,532.0,513.0
523.0,489.0,530.0,515.0
517.0,520.0,526.0,514.0
511.0,521.0,524.0,515.0
505.0,516.0,518.0,515.0
508.0,513.0,514.0,513.0
509.0,517.0,511.0,516.0
524.0,493.0,510.0,518.0
522.0,515.0,506.0,520.0
521.0,512.0,508.0,523.0
515.0,514.0,510.0,526.0
509.0,514.0,502.0,525.0
518.0,487.0,500.0,514.0
514.0,505.0,504.0,514.0
519.0,499.0,512.0,514.0
528.0,473.0,528.0,518.0
533.0,479.0,533.0,515.0
531.0,498.0,530.0,511.0
527.0,508.0,528.0,508.0
508.0,527.0,518.0,508.0
502.0,518.0,515.0,510.0
506.0,505.0,512.0,510.0
513.0,493.0,507.0,511.0
520.0,493.0,506.0,512.0
527.0,494.0,505.0,520.0
528.0,503.0,506.0,522.0
510.0,518.0,497.0,520.0
500.0,539.0,496.0,524.0
498.0,523.0,502.0,520.0
503.0,510.0,507.0,521.0
518.0,493.0,520.0,519.0
523.0,485.0,528.0,513.0
527.0,480.0,529.0,503.0
524.0,483.0,529.0,504.0
520.0,486.0,520.0,501.0
507.0,506.0,514.0,500.0
500.0,514.0,515.0,507.0
493.0,529.0,508.0,509.0
491.0,531.0,505.0,506.0
497.0,519.0,497.0,511.0
513.0,493.0,500.0,511.0
513.0,493.0,496.0,517.0
513.0,489.0,497.0,519.0
512.0,498.0,499.0,521.0
503.0,516.0,500.0,520.0
502.0,519.0,504.0,518.0
506.0,519.0,508.0,516.0
518.0,511.0,517.0,514.0
528.0,484.0,524.0,513.0
525.0,481.0,529.0,507.0
521.0,485.0,526.0,504.0
517.0,493.0,519.0,501.0
504.0,508.0,512.0,499.0
502.0,519.0,509.0,504.0
501.0,515.0,509.0,511.0
503.0,511.0,506.0,512.0
509.0,502.0,501.0,514.0
511.0,500.0,506.0,514.0
515.0,507.0,504.0,519.0
513.0,530.0,505.0,521.0
502.0,550.0,500.0,522.0
502.0,553.0,502.0,518.0
509.0,508.0,501.0,519.0
515.0,484.0,508.0,514.0
520.0,483.0,516.0,511.0
527.0,469.0,519.0,510.0
527.0,470.0,527.0,509.0
522.0,476.0,526.0,508.0
514.0,493.0,523.0,503.0
503.0,505.0,511.0,504.0
500.0,501.0,508.0,505.0
496.0,512.0,506.0,503.0
501.0,507.0,501.0,513.0
518.0,508.0,499.0,514.0
519.0,501.0,503.0,517.0
520.0,497.0,503.0,518.0
513.0,509.0,501.0,522.0
503.0,525.0,505.0,524.0
508.0,515.0,510.0,520.0
508.0,522.0,510.0,518.0
516.0,506.0,513.0,515.0
524.0,491.0,521.0,513.0
525.0,480.0,527.0,510.0
521.0,483.0,526.0,504.0
516.0,488.0,521.0,502.0
505.0,511.0,516.0,500.0
497.0,520.0,507.0,501.0
493.0,533.0,508.0,503.0
502.0,512.0,505.0,501.0
509.0,497.0,503.0,511.0
517.0,485.0,499.0,513.0
513.0,491.0,501.0,517.0
520.0,512.0,502.0,519.0
507.0,519.0,497.0,521.0
500.0,533.0,497.0,521.0
501.0,527.0,504.0,519.0
502.0,514.0,509.0,518.0
508.0,520.0,516.0,516.0
526.0,468.0,526.0,512.0
527.0,476.0,527.0,510.0
523.0,483.0,524.0,505.0
518.0,488.0,516.0,507.0
506.0,505.0,516.0,504.0
502.0,507.0,508.0,507.0
500.0,516.0,510.0,506.0
500.0,509.0,507.0,509.0
512.0,494.0,508.0,511.0
515.0,500.0,510.0,515.0
513.0,502.0,508.0,520.0
515.0,499.0,503.0,522.0
511.0,510.0,499.0,520.0
509.0,513.0,500.0,520.0
509.0,524.0,507.0,518.0
518.0,505.0,513.0,516.0
527.0,493.0,520.0,512.0
528.0,490.0,529.0,506.0
518.0,494.0,523.0,508.0
511.0,497.0,526.0,503.0
501.0,510.0,520.0,501.0
497.0,518.0,511.0,505.0
499.0,511.0,512.0,504.0
501.0,512.0,511.0,502.0
509.0,501.0,504.0,509.0
514.0,482.0,501.0,514.0
517.0,495.0,502.0,513.0
513.0,515.0,502.0,518.0
510.0,514.0,502.0,521.0
503.0,530.0,495.0,522.0
505.0,515.0,501.0,518.0
499.0,528.0,509.0,517.0
512.0,525.0,513.0,512.0
529.0,494.0,523.0,510.0
524.0,495.0,527.0,509.0
522.0,493.0,526.0,505.0
516.0,463.0,523.0,508.0
503.0,501.0,517.0,504.0
496.0,514.0,511.0,507.0
499.0,511.0,514.0,509.0
501.0,514.0,506.0,509.0
504.0,509.0,511.0,513.0
520.0,498.0,504.0,516.0
514.0,502.0,502.0,519.0
514.0,492.0,505.0,522.0
513.0,490.0,503.0,520.0
500.0,515.0,498.0,520.0
510.0,506.0,504.0,517.0
512.0,507.0,509.0,514.0
521.0,496.0,514.0,514.0
528.0,474.0,524.0,510.0
526.0,475.0,529.0,508.0
517.0,488.0,528.0,508.0
510.0,492.0,524.0,515.0
497.0,504.0,516.0,507.0
499.0,505.0,510.0,505.0
492.0,507.0,507.0,505.0
495.0,505.0,500.0,507.0
505.0,492.0,498.0,509.0
511.0,492.0,500.0,511.0
513.0,501.0,496.0,517.0
509.0,506.0,495.0,521.0
506.0,527.0,500.0,523.0
508.0,531.0,506.0,522.0
503.0,534.0,507.0,520.0
507.0,516.0,514.0,518.0
517.0,502.0,519.0,512.0
526.0,477.0,523.0,508.0
523.0,488.0,524.0,507.0
522.0,498.0,523.0,504.0
512.0,504.0,517.0,506.0
502.0,515.0,513.0,504.0
504.0,514.0,510.0,508.0
500.0,520.0,509.0,507.0
505.0,509.0,504.0,509.0
512.0,502.0,508.0,511.0
514.0,491.0,497.0,513.0
516.0,479.0,500.0,521.0
512.0,495.0,496.0,521.0
500.0,508.0,497.0,520.0
509.0,500.0,501.0,516.0
505.0,507.0,506.0,512.0
514.0,520.0,512.0,511.0
529.0,509.0,521.0,510.0
523.0,487.0,533.0,509.0
518.0,487.0,526.0,507.0
513.0,491.0,526.0,506.0
499.0,511.0,518.0,507.0
501.0,502.0,513.0,506.0
499.0,520.0,512.0,506.0
496.0,518.0,508.0,509.0
503.0,516.0,510.0,514.0
516.0,502.0,505.0,516.0
515.0,502.0,497.0,516.0
516.0,504.0,506.0,519.0
510.0,513.0,501.0,523.0
504.0,518.0,502.0,523.0
501.0,514.0,509.0,522.0
499.0,522.0,508.0,516.0
511.0,501.0,502.0,512.0
532.0,468.0,520.0,510.0
530.0,478.0,524.0,508.0
521.0,493.0,524.0,502.0
510.0,511.0,526.0,502.0
492.0,536.0,516.0,506.0
499.0,512.0,514.0,504.0
494.0,511.0,508.0,506.0
509.0,479.0,505.0,509.0
519.0,471.0,497.0,514.0
521.0,479.0,498.0,520.0
518.0,497.0,501.0,518.0
509.0,516.0,499.0,524.0
496.0,553.0,498.0,523.0
499.0,537.0,507.0,522.0
503.0,519.0,510.0,513.0
506.0,501.0,510.0,514.0
512.0,503.0,513.0,513.0
518.0,497.0,525.0,505.0
520.0,505.0,526.0,505.0
511.0,520.0,529.0,507.0
507.0,500.0,520.0,505.0
501.0,504.0,513.0,505.0
497.0,520.0,509.0,505.0
505.0,509.0,510.0,504.0
521.0,494.0,505.0,512.0
526.0,505.0,505.0,513.0
518.0,495.0,502.0,517.0
513.0,496.0,501.0,519.0
509.0,510.0,495.0,520.0
507.0,499.0,498.0,520.0
510.0,512.0,504.0,514.0
500.0,538.0,509.0,518.0
511.0,507.0,513.0,512.0
525.0,480.0,521.0,512.0
525.0,478.0,524.0,507.0
521.0,460.0,524.0,507.0
518.0,467.0,525.0,504.0
506.0,499.0,519.0,506.0
498.0,504.0,517.0,505.0
499.0,503.0,510.0,505.0
511.0,505.0,503.0,506.0
514.0,508.0,502.0,510.0
519.0,499.0,499.0,512.0
523.0,501.0,500.0,516.0
519.0,497.0,496.0,519.0
510.0,503.0,499.0,521.0
511.0,507.0,502.0,519.0
513.0,502.0,510.0,519.0
511.0,518.0,510.0,518.0
519.0,518.0,517.0,513.0
527.0,495.0,525.0,512.0
526.0,486.0,526.0,506.0
522.0,486.0,526.0,507.0
516.0,491.0,525.0,505.0
502.0,512.0,518.0,504.0
505.0,502.0,516.0,507.0
496.0,526.0,511.0,508.0
501.0,521.0,506.0,512.0
511.0,505.0,504.0,514.0
517.0,496.0,501.0,514.0
517.0,501.0,500.0,514.0
515.0,501.0,498.0,519.0
508.0,518.0,500.0,520.0
511.0,518.0,505.0,520.0
496.0,525.0,504.0,517.0
508.0,507.0,509.0,516.0
515.0,493.0,520.0,513.0
525.0,469.0,527.0,510.0
524.0,480.0,529.0,507.0
519.0,483.0,527.0,503.0
511.0,508.0,522.0,505.0
500.0,520.0,513.0,510.0
493.0,520.0,506.0,507.0
497.0,522.0,508.0,511.0
503.0,516.0,505.0,514.0
513.0,493.0,504.0,516.0
513.0,499.0,504.0,518.0
515.0,503.0,506.0,521.0
511.0,505.0,501.0,521.0
501.0,528.0,499.0,520.0
508.0,521.0,503.0,520.0
501.0,522.0,509.0,520.0
509.0,505.0,512.0,514.0
529.0,479.0,524.0,507.0
529.0,471.0,531.0,509.0
523.0,482.0,526.0,508.0
521.0,479.0,523.0,505.0
508.0,504.0,515.0,505.0
502.0,527.0,510.0,503.0
496.0,535.0,508.0,502.0
491.0,535.0,500.0,511.0
503.0,520.0,501.0,511.0
511.0,507.0,502.0,517.0
518.0,507.0,502.0,517.0
516.0,513.0,503.0,522.0
515.0,480.0,507.0,521.0
504.0,499.0,503.0,521.0
500.0,512.0,500.0,513.0
507.0,526.0,509.0,508.0
518.0,499.0,519.0,512.0
526.0,472.0,523.0,510.0
523.0,470.0,527.0,512.0
521.0,471.0,528.0,511.0
515.0,495.0,523.0,506.0
495.0,536.0,515.0,505.0
497.0,523.0,514.0,508.0
501.0,526.0,513.0,507.0
505.0,519.0,507.0,509.0
512.0,502.0,500.0,512.0
519.0,482.0,502.0,515.0
522.0,490.0,501.0,514.0
518.0,499.0,498.0,517.0
501.0,527.0,497.0,520.0
500.0,525.0,501.0,517.0
508.0,511.0,507.0,515.0
516.0,500.0,512.0,510.0
523.0,492.0,520.0,508.0
523.0,480.0,520.0,502.0
523.0,486.0,525.0,504.0
518.0,496.0,523.0,502.0
510.0,511.0,522.0,504.0
504.0,511.0,518.0,507.0
504.0,510.0,516.0,507.0
491.0,529.0,510.0,509.0
500.0,516.0,505.0,513.0
514.0,489.0,504.0,512.0
515.0,480.0,502.0,515.0
515.0,503.0,497.0,519.0
511.0,521.0,496.0,520.0
504.0,520.0,496.0,518.0
504.0,502.0,502.0,517.0
502.0,497.0,507.0,514.0
504.0,497.0,511.0,511.0
517.0,482.0,523.0,510.0
518.0,489.0,533.0,504.0
521.0,499.0,529.0,508.0
518.0,504.0,522.0,504.0
509.0,531.0,519.0,505.0
506.0,538.0,514.0,508.0
506.0,524.0,513.0,506.0
503.0,514.0,513.0,513.0
507.0,508.0,502.0,508.0
521.0,486.0,496.0,510.0
517.0,498.0,501.0,511.0
515.0,503.0,500.0,518.0
511.0,516.0,506.0,520.0
504.0,524.0,503.0,520.0
511.0,505.0,508.0,519.0
508.0,520.0,503.0,513.0
517.0,501.0,517.0,511.0
526.0,483.0,524.0,512.0
523.0,474.0,526.0,509.0
523.0,464.0,525.0,508.0
512.0,486.0,523.0,507.0
499.0,522.0,518.0,505.0
503.0,517.0,513.0,508.0
502.0,509.0,511.0,508.0
499.0,507.0,503.0,509.0
513.0,480.0,503.0,514.0
519.0,497.0,504.0,515.0
517.0,500.0,502.0,520.0
514.0,521.0,502.0,522.0
513.0,521.0,500.0,523.0
505.0,504.0,502.0,523.0
488.0,552.0,506.0,517.0
507.0,531.0,510.0,518.0
513.0,508.0,520.0,513.0
526.0,476.0,527.0,507.0
520.0,472.0,527.0,506.0
519.0,461.0,522.0,508.0
510.0,498.0,521.0,508.0
497.0,513.0,524.0,512.0
492.0,506.0,517.0,509.0
487.0,513.0,508.0,512.0
499.0,490.0,507.0,509.0
513.0,474.0,503.0,512.0
511.0,495.0,501.0,511.0
512.0,513.0,503.0,514.0
515.0,520.0,502.0,520.0
498.0,549.0,500.0,519.0
502.0,533.0,502.0,515.0
509.0,524.0,507.0,513.0
513.0,504.0,510.0,508.0
527.0,478.0,519.0,505.0
526.0,476.0,527.0,507.0
522.0,481.0,531.0,509.0
515.0,494.0,527.0,509.0
501.0,524.0,518.0,506.0
507.0,508.0,515.0,501.0
509.0,506.0,512.0,510.0
506.0,505.0,505.0,508.0
507.0,505.0,502.0,511.0
517.0,502.0,504.0,510.0
517.0,503.0,502.0,515.0
514.0,502.0,498.0,519.0
511.0,509.0,500.0,521.0
505.0,514.0,499.0,523.0
510.0,509.0,506.0,521.0
511.0,507.0,506.0,518.0
516.0,513.0,519.0,511.0
523.0,487.0,527.0,509.0
522.0,478.0,527.0,508.0
519.0,477.0,528.0,508.0
512.0,501.0,523.0,507.0
505.0,507.0,516.0,509.0
498.0,510.0,509.0,511.0
498.0,498.0,510.0,506.0
499.0,491.0,508.0,509.0
515.0,474.0,508.0,516.0
521.0,493.0,506.0,518.0
511.0,519.0,502.0,520.0
507.0,510.0,500.0,518.0
502.0,532.0,500.0,518.0
502.0,535.0,499.0,516.0
502.0,532.0,502.0,516.0
510.0,517.0,509.0,514.0
523.0,493.0,521.0,509.0
529.0,485.0,526.0,508.0
528.0,496.0,527.0,504.0
521.0,502.0,523.0,509.0
507.0,518.0,518.0,506.0
499.0,514.0,516.0,507.0
505.0,474.0,513.0,508.0
508.0,486.0,507.0,509.0
506.0,496.0,504.0,513.0
513.0,514.0,505.0,517.0
507.0,515.0,505.0,518.0
515.0,508.0,499.0,520.0
514.0,510.0,495.0,521.0
501.0,530.0,493.0,521.0
511.0,520.0,503.0,512.0
507.0,522.0,508.0,513.0
514.0,517.0,517.0,514.0
524.0,486.0,526.0,507.0
524.0,478.0,528.0,505.0
520.0,467.0,527.0,508.0
515.0,488.0,522.0,504.0
496.0,522.0,516.0,505.0
502.0,506.0,514.0,507.0
500.0,522.0,509.0,506.0
502.0,522.0,505.0,509.0
510.0,518.0,505.0,510.0
515.0,503.0,500.0,515.0
514.0,494.0,501.0,518.0
514.0,489.0,501.0,520.0
502.0,516.0,501.0,521.0
496.0,540.0,498.0,522.0
504.0,526.0,504.0,519.0
507.0,519.0,513.0,518.0
513.0,500.0,519.0,517.0
519.0,497.0,528.0,510.0
524.0,498.0,531.0,504.0
523.0,476.0,526.0,501.0
516.0,456.0,522.0,502.0
502.0,491.0,514.0,504.0
508.0,491.0,512.0,505.0
496.0,510.0,511.0,506.0
499.0,516.0,506.0,511.0
510.0,499.0,505.0,512.0
519.0,498.0,504.0,515.0
523.0,499.0,505.0,520.0
521.0,499.0,499.0,524.0
508.0,517.0,499.0,522.0
507.0,515.0,500.0,518.0
507.0,525.0,502.0,517.0
507.0,525.0,508.0,516.0
521.0,504.0,521.0,511.0
526.0,487.0,531.0,510.0
522.0,488.0,534.0,511.0
518.0,486.0,528.0,512.0
508.0,504.0,524.0,511.0
496.0,517.0,517.0,510.0
497.0,517.0,510.0,509.0
495.0,518.0,506.0,510.0
503.0,508.0,511.0,513.0
515.0,492.0,503.0,509.0
511.0,501.0,499.0,509.0
513.0,504.0,496.0,516.0
513.0,510.0,498.0,519.0
501.0,520.0,502.0,520.0
507.0,509.0,506.0,517.0
505.0,507.0,505.0,514.0
512.0,488.0,510.0,512.0
520.0,482.0,520.0,510.0
520.0,480.0,527.0,510.0
520.0,481.0,529.0,506.0
517.0,490.0,526.0,509.0
500.0,503.0,519.0,509.0
508.0,497.0,517.0,506.0
498.0,519.0,508.0,506.0
502.0,510.0,505.0,507.0
513.0,504.0,504.0,511.0
517.0,516.0,504.0,514.0
513.0,518.0,499.0,519.0
510.0,510.0,501.0,520.0
502.0,525.0,497.0,521.0
506.0,521.0,499.0,516.0
508.0,519.0,501.0,517.0
514.0,494.0,510.0,515.0
524.0,481.0,515.0,514.0
529.0,478.0,527.0,509.0
525.0,479.0,529.0,507.0
517.0,493.0,528.0,506.0
506.0,521.0,526.0,504.0
496.0,527.0,520.0,509.0
503.0,510.0,510.0,512.0
502.0,515.0,513.0,509.0
502.0,510.0,509.0,513.0
506.0,508.0,503.0,512.0
515.0,499.0,504.0,517.0
518.0,492.0,502.0,521.0
520.0,497.0,500.0,520.0
504.0,523.0,498.0,521.0
504.0,527.0,503.0,516.0
503.0,529.0,503.0,519.0
512.0,515.0,518.0,514.0
520.0,494.0,523.0,514.0
525.0,483.0,518.0,504.0
521.0,492.0,526.0,505.0
518.0,494.0,527.0,509.0
507.0,516.0,524.0,509.0
501.0,503.0,516.0,503.0
503.0,491.0,510.0,504.0
500.0,511.0,505.0,500.0
500.0,510.0,503.0,508.0
512.0,494.0,504.0,512.0
513.0,491.0,501.0,515.0
514.0,499.0,500.0,521.0
514.0,520.0,501.0,521.0
507.0,540.0,499.0,516.0
509.0,533.0,503.0,520.0
507.0,515.0,509.0,517.0
519.0,463.0,515.0,517.0
531.0,468.0,519.0,511.0
527.0,463.0,523.0,508.0
526.0,477.0,522.0,505.0
517.0,493.0,520.0,507.0
500.0,530.0,518.0,505.0
500.0,537.0,512.0,509.0
499.0,526.0,518.0,511.0
504.0,523.0,518.0,511.0
509.0,498.0,508.0,510.0
512.0,484.0,504.0,516.0
513.0,496.0,503.0,518.0
510.0,514.0,501.0,518.0
506.0,530.0,498.0,520.0
498.0,544.0,498.0,520.0
510.0,518.0,511.0,518.0
515.0,495.0,511.0,515.0
519.0,484.0,515.0,513.0
529.0,476.0,525.0,510.0
526.0,477.0,528.0,503.0
519.0,490.0,526.0,501.0
508.0,504.0,523.0,502.0
488.0,525.0,516.0,502.0
490.0,514.0,514.0,504.0
496.0,515.0,509.0,507.0
514.0,507.0,503.0,507.0
517.0,500.0,505.0,513.0
517.0,502.0,502.0,518.0
518.0,505.0,502.0,520.0
517.0,509.0,499.0,524.0
506.0,529.0,501.0,521.0
505.0,524.0,502.0,520.0
502.0,525.0,505.0,518.0
509.0,506.0,512.0,516.0
519.0,492.0,520.0,511.0
528.0,485.0,526.0,510.0
523.0,493.0,527.0,509.0
519.0,499.0,531.0,508.0
510.0,515.0,524.0,510.0
502.0,517.0,521.0,511.0
501.0,503.0,512.0,509.0
494.0,504.0,505.0,509.0
500.0,497.0,502.0,512.0
515.0,486.0,504.0,513.0
515.0,494.0,504.0,514.0
515.0,491.0,503.0,518.0
510.0,509.0,499.0,518.0
503.0,528.0,498.0,517.0
504.0,519.0,504.0,520.0
501.0,527.0,505.0,517.0
518.0,494.0,517.0,512.0
531.0,480.0,523.0,512.0
530.0,490.0,530.0,506.0
527.0,494.0,533.0,510.0
520.0,488.0,531.0,507.0
499.0,520.0,521.0,510.0
496.0,514.0,515.0,510.0
501.0,509.0,511.0,510.0
501.0,511.0,502.0,508.0
510.0,498.0,501.0,509.0
516.0,487.0,502.0,515.0
517.0,494.0,502.0,519.0
520.0,503.0,504.0,522.0
504.0,533.0,503.0,520.0
498.0,539.0,500.0,520.0
502.0,520.0,502.0,515.0
511.0,504.0,506.0,512.0
518.0,491.0,516.0,509.0
526.0,471.0,525.0,507.0
524.0,475.0,528.0,504.0
517.0,479.0,526.0,504.0
510.0,492.0,527.0,507.0
501.0,531.0,520.0,510.0
506.0,519.0,516.0,511.0
496.0,526.0,511.0,509.0
502.0,509.0,504.0,510.0
514.0,495.0,502.0,513.0
517.0,493.0,504.0,516.0
509.0,508.0,500.0,518.0
507.0,514.0,499.0,516.0
499.0,513.0,499.0,519.0
508.0,527.0,503.0,513.0
512.0,524.0,508.0,516.0
512.0,514.0,513.0,515.0
525.0,492.0,520.0,511.0
530.0,481.0,523.0,507.0
527.0,489.0,527.0,506.0
519.0,496.0,526.0,506.0
505.0,535.0,523.0,505.0
495.0,543.0,517.0,507.0
504.0,492.0,513.0,506.0
502.0,495.0,508.0,508.0
501.0,505.0,501.0,511.0
515.0,493.0,503.0,514.0
518.0,492.0,503.0,516.0
518.0,489.0,503.0,520.0
516.0,498.0,501.0,521.0
509.0,513.0,506.0,521.0
512.0,502.0,508.0,523.0
504.0,520.0,512.0,519.0
509.0,501.0,513.0,516.0
525.0,481.0,527.0,508.0
525.0,498.0,535.0,501.0
520.0,489.0,527.0,504.0
512.0,491.0,524.0,504.0
503.0,513.0,509.0,506.0
501.0,507.0,514.0,504.0
497.0,517.0,510.0,504.0
497.0,524.0,500.0,507.0
511.0,506.0,501.0,513.0
515.0,495.0,502.0,515.0
517.0,490.0,497.0,520.0
519.0,493.0,496.0,519.0
502.0,523.0,495.0,522.0
492.0,529.0,501.0,521.0
505.0,511.0,504.0,519.0
504.0,525.0,513.0,512.0
512.0,498.0,523.0,515.0
526.0,478.0,527.0,516.0
527.0,486.0,536.0,511.0
519.0,491.0,531.0,507.0
503.0,496.0,524.0,509.0
493.0,507.0,516.0,508.0
499.0,515.0,511.0,505.0
492.0,504.0,509.0,506.0
506.0,513.0,505.0,509.0
520.0,510.0,506.0,513.0
521.0,506.0,499.0,514.0
521.0,509.0,503.0,519.0
515.0,504.0,508.0,522.0
507.0,513.0,502.0,521.0
508.0,510.0,503.0,517.0
511.0,509.0,510.0,512.0
515.0,498.0,519.0,511.0
517.0,494.0,518.0,506.0
521.0,481.0,523.0,505.0
516.0,486.0,527.0,504.0
516.0,487.0,524.0,505.0
503.0,514.0,521.0,506.0
496.0,522.0,515.0,506.0
501.0,508.0,512.0,506.0
504.0,513.0,506.0,508.0
511.0,508.0,503.0,511.0
519.0,494.0,502.0,513.0
516.0,508.0,499.0,517.0
513.0,504.0,504.0,519.0
513.0,509.0,502.0,524.0
498.0,525.0,500.0,522.0
509.0,517.0,502.0,519.0
505.0,514.0,510.0,518.0
519.0,503.0,516.0,512.0
530.0,477.0,526.0,511.0
524.0,470.0,530.0,507.0
521.0,483.0,531.0,510.0
518.0,492.0,527.0,510.0
500.0,516.0,515.0,511.0
497.0,513.0,514.0,504.0
496.0,520.0,511.0,506.0
499.0,512.0,507.0,512.0
507.0,502.0,507.0,513.0
514.0,497.0,503.0,514.0
515.0,495.0,500.0,516.0
516.0,499.0,498.0,516.0
506.0,518.0,497.0,518.0
499.0,532.0,499.0,516.0
506.0,514.0,503.0,518.0
504.0,507.0,513.0,517.0
511.0,496.0,522.0,513.0
519.0,477.0,527.0,511.0
517.0,475.0,530.0,508.0
510.0,483.0,527.0,507.0
501.0,494.0,522.0,508.0
486.0,523.0,516.0,507.0
500.0,523.0,510.0,506.0
503.0,532.0,508.0,507.0
504.0,513.0,506.0,513.0
515.0,496.0,506.0,517.0
522.0,495.0,505.0,517.0
523.0,498.0,503.0,520.0
516.0,510.0,499.0,520.0
504.0,533.0,499.0,522.0
510.0,524.0,502.0,519.0
509.0,522.0,508.0,517.0
515.0,498.0,514.0,515.0
524.0,485.0,525.0,515.0
529.0,473.0,535.0,510.0
524.0,472.0,532.0,504.0
516.0,483.0,523.0,505.0
497.0,502.0,513.0,504.0
479.0,514.0,508.0,504.0
488.0,511.0,507.0,503.0
495.0,514.0,505.0,507.0
510.0,516.0,507.0,511.0
516.0,522.0,503.0,516.0
516.0,514.0,500.0,516.0
520.0,514.0,499.0,517.0
518.0,514.0,502.0,523.0
507.0,525.0,506.0,522.0
516.0,508.0,512.0,521.0
507.0,520.0,511.0,519.0
515.0,503.0,517.0,512.0
525.0,485.0,524.0,513.0
520.0,494.0,527.0,506.0
518.0,498.0,530.0,502.0
510.0,513.0,524.0,500.0
501.0,513.0,516.0,502.0
495.0,498.0,511.0,501.0
498.0,500.0,507.0,504.0
499.0,504.0,505.0,508.0
509.0,489.0,504.0,509.0
523.0,493.0,500.0,513.0
522.0,508.0,502.0,514.0
519.0,507.0,504.0,520.0
505.0,528.0,497.0,520.0
501.0,514.0,500.0,522.0
516.0,500.0,505.0,521.0
529.0,491.0,513.0,516.0
538.0,493.0,520.0,510.0
539.0,473.0,524.0,507.0
532.0,478.0,525.0,503.0
527.0,489.0,524.0,505.0
513.0,499.0,519.0,505.0
489.0,518.0,512.0,511.0
491.0,506.0,513.0,505.0
489.0,503.0,511.0,508.0
490.0,509.0,506.0,509.0
503.0,498.0,506.0,513.0
509.0,492.0,507.0,516.0
507.0,505.0,500.0,516.0
509.0,509.0,502.0,518.0
498.0,518.0,503.0,521.0
498.0,523.0,504.0,516.0
507.0,522.0,502.0,520.0
514.0,507.0,512.0,517.0
523.0,495.0,517.0,515.0
523.0,493.0,528.0,510.0
522.0,490.0,528.0,506.0
515.0,491.0,526.0,510.0
502.0,514.0,527.0,508.0
491.0,524.0,520.0,510.0
496.0,517.0,515.0,507.0
498.0,515.0,507.0,508.0
503.0,507.0,504.0,510.0
518.0,487.0,498.0,514.0
517.0,492.0,498.0,517.0
519.0,496.0,501.0,515.0
511.0,512.0,503.0,522.0
498.0,532.0,507.0,524.0
504.0,529.0,513.0,522.0
509.0,524.0,516.0,515.0
514.0,499.0,516.0,511.0
518.0,480.0,522.0,504.0
520.0,480.0,526.0,504.0
520.0,490.0,527.0,508.0
512.0,507.0,531.0,503.0
496.0,522.0,517.0,512.0
500.0,498.0,515.0,505.0
495.0,515.0,507.0,506.0
494.0,518.0,503.0,508.0
509.0,496.0,504.0,507.0
519.0,476.0,501.0,515.0
516.0,492.0,498.0,516.0
515.0,499.0,498.0,519.0
501.0,529.0,500.0,521.0
493.0,541.0,503.0,521.0
502.0,523.0,510.0,520.0
511.0,506.0,514.0,517.0
518.0,496.0,521.0,512.0
525.0,480.0,527.0,507.0
520.0,481.0,526.0,504.0
518.0,479.0,529.0,505.0
506.0,493.0,522.0,504.0
491.0,517.0,519.0,506.0
504.0,501.0,509.0,505.0
494.0,516.0,506.0,507.0
505.0,509.0,506.0,508.0
511.0,491.0,503.0,513.0
514.0,487.0,505.0,515.0
517.0,495.0,503.0,522.0
514.0,509.0,498.0,526.0
504.0,538.0,501.0,526.0
516.0,522.0,510.0,521.0
518.0,506.0,513.0,522.0
512.0,498.0,516.0,517.0
519.0,481.0,524.0,512.0
521.0,478.0,524.0,512.0
517.0,485.0,525.0,504.0
512.0,489.0,523.0,503.0
497.0,520.0,519.0,501.0
498.0,520.0,517.0,503.0
507.0,513.0,512.0,505.0
502.0,514.0,513.0,508.0
513.0,503.0,508.0,509.0
521.0,491.0,501.0,513.0
519.0,498.0,496.0,514.0
515.0,498.0,501.0,519.0
516.0,514.0,500.0,519.0
506.0,532.0,505.0,521.0
517.0,522.0,510.0,520.0
521.0,521.0,513.0,517.0
529.0,500.0,519.0,512.0
538.0,481.0,528.0,510.0
536.0,477.0,530.0,505.0
529.0,482.0,526.0,505.0
511.0,497.0,524.0,505.0
485.0,527.0,515.0,506.0
475.0,528.0,513.0,507.0
477.0,531.0,510.0,511.0
493.0,511.0,507.0,511.0
508.0,509.0,500.0,514.0
511.0,505.0,498.0,514.0
511.0,514.0,500.0,520.0
507.0,522.0,502.0,522.0
499.0,507.0,503.0,524.0
495.0,514.0,507.0,522.0
501.0,511.0,508.0,517.0
505.0,501.0,513.0,515.0
519.0,490.0,520.0,510.0
523.0,477.0,525.0,509.0
525.0,475.0,531.0,510.0
521.0,477.0,533.0,507.0
509.0,500.0,527.0,508.0
499.0,513.0,518.0,507.0
510.0,502.0,519.0,504.0
510.0,504.0,514.0,506.0
521.0,507.0,505.0,508.0
530.0,492.0,505.0,508.0
521.0,498.0,503.0,515.0
516.0,502.0,502.0,523.0
516.0,505.0,502.0,525.0
507.0,511.0,504.0,525.0
504.0,521.0,505.0,521.0
504.0,513.0,509.0,514.0
490.0,515.0,514.0,510.0
509.0,497.0,521.0,514.0
518.0,476.0,529.0,508.0
519.0,474.0,529.0,508.0
517.0,487.0,525.0,506.0
505.0,508.0,522.0,508.0
494.0,518.0,519.0,507.0
503.0,507.0,516.0,509.0
500.0,512.0,510.0,505.0
503.0,499.0,502.0,511.0
515.0,486.0,507.0,514.0
514.0,500.0,502.0,513.0
512.0,507.0,499.0,519.0
505.0,525.0,498.0,519.0
497.0,543.0,501.0,518.0
510.0,520.0,506.0,517.0
515.0,510.0,511.0,515.0
521.0,492.0,518.0,518.0
528.0,483.0,525.0,511.0
529.0,482.0,528.0,506.0
521.0,484.0,527.0,507.0
515.0,494.0,528.0,506.0
502.0,513.0,517.0,511.0
498.0,509.0,515.0,508.0
492.0,518.0,514.0,509.0
497.0,513.0,509.0,509.0
514.0,490.0,507.0,509.0
520.0,488.0,505.0,515.0
520.0,498.0,502.0,517.0
516.0,505.0,499.0,520.0
501.0,527.0,496.0,522.0
503.0,521.0,501.0,521.0
506.0,516.0,505.0,518.0
514.0,510.0,509.0,516.0
523.0,493.0,522.0,512.0
527.0,489.0,530.0,508.0
522.0,495.0,527.0,507.0
517.0,493.0,528.0,507.0
503.0,503.0,522.0,501.0
485.0,527.0,518.0,506.0
493.0,523.0,516.0,507.0
500.0,530.0,514.0,511.0
502.0,509.0,503.0,507.0
518.0,495.0,504.0,511.0
519.0,498.0,506.0,520.0
512.0,503.0,505.0,520.0
514.0,513.0,500.0,514.0
498.0,538.0,503.0,522.0
501.0,526.0,506.0,521.0
509.0,516.0,506.0,518.0
512.0,507.0,517.0,517.0
522.0,482.0,524.0,516.0
528.0,474.0,533.0,507.0
520.0,478.0,534.0,510.0
517.0,481.0,532.0,507.0
495.0,523.0,520.0,504.0
488.0,530.0,519.0,509.0
498.0,512.0,517.0,512.0
506.0,507.0,515.0,510.0
510.0,497.0,503.0,511.0
516.0,487.0,507.0,511.0
516.0,492.0,499.0,518.0
516.0,498.0,503.0,520.0
507.0,514.0,493.0,519.0
503.0,530.0,497.0,517.0
516.0,516.0,506.0,518.0
512.0,516.0,513.0,517.0
522.0,509.0,519.0,517.0
531.0,488.0,529.0,510.0
530.0,485.0,532.0,507.0
525.0,487.0,529.0,508.0
516.0,498.0,527.0,508.0
498.0,525.0,516.0,508.0
497.0,520.0,521.0,510.0
505.0,515.0,517.0,513.0
506.0,514.0,508.0,516.0
513.0,497.0,511.0,518.0
517.0,494.0,504.0,516.0
518.0,496.0,501.0,513.0
516.0,499.0,501.0,520.0
506.0,522.0,499.0,519.0
499.0,523.0,501.0,518.0
503.0,502.0,508.0,512.0
508.0,506.0,512.0,510.0
519.0,495.0,517.0,509.0
528.0,481.0,528.0,510.0
525.0,492.0,532.0,509.0
517.0,493.0,528.0,506.0
512.0,513.0,525.0,505.0
497.0,527.0,521.0,504.0
506.0,515.0,514.0,504.0
502.0,518.0,511.0,507.0
508.0,512.0,503.0,510.0
520.0,492.0,501.0,510.0
524.0,489.0,497.0,510.0
517.0,497.0,492.0,517.0
512.0,498.0,497.0,526.0
504.0,521.0,500.0,521.0
506.0,531.0,505.0,515.0
517.0,517.0,504.0,515.0
515.0,502.0,516.0,513.0
517.0,479.0,527.0,510.0
522.0,475.0,533.0,508.0
512.0,481.0,532.0,506.0
509.0,490.0,532.0,509.0
496.0,516.0,524.0,512.0
489.0,521.0,520.0,506.0
495.0,512.0,519.0,506.0
497.0,523.0,507.0,511.0
499.0,515.0,505.0,514.0
515.0,495.0,506.0,519.0
519.0,500.0,501.0,519.0
522.0,504.0,496.0,513.0
520.0,511.0,494.0,516.0
508.0,527.0,501.0,520.0
510.0,517.0,504.0,520.0
518.0,509.0,509.0,516.0
521.0,501.0,512.0,512.0
529.0,480.0,525.0,506.0
523.0,484.0,531.0,504.0
523.0,487.0,529.0,503.0
521.0,487.0,527.0,509.0
504.0,514.0,518.0,509.0
491.0,519.0,515.0,506.0
489.0,507.0,508.0,506.0
499.0,508.0,503.0,505.0
510.0,497.0,505.0,510.0
513.0,493.0,505.0,513.0
514.0,498.0,500.0,518.0
515.0,505.0,502.0,523.0
506.0,515.0,501.0,524.0
508.0,521.0,502.0,523.0
514.0,509.0,508.0,520.0
512.0,509.0,511.0,514.0
516.0,491.0,522.0,514.0
523.0,479.0,531.0,507.0
522.0,478.0,529.0,505.0
516.0,487.0,528.0,507.0
500.0,514.0,520.0,512.0
490.0,530.0,517.0,515.0
499.0,516.0,514.0,511.0
494.0,518.0,507.0,512.0
501.0,511.0,514.0,521.0
516.0,490.0,518.0,517.0
516.0,492.0,505.0,517.0
516.0,499.0,499.0,518.0
510.0,503.0,494.0,518.0
497.0,527.0,495.0,517.0
504.0,521.0,500.0,513.0
508.0,518.0,506.0,511.0
510.0,509.0,515.0,514.0
524.0,485.0,527.0,511.0
531.0,475.0,530.0,509.0
531.0,478.0,530.0,507.0
527.0,486.0,528.0,506.0
510.0,514.0,521.0,503.0
501.0,525.0,512.0,504.0
504.0,515.0,516.0,504.0
499.0,506.0,514.0,508.0
500.0,499.0,505.0,513.0
506.0,486.0,506.0,515.0
507.0,498.0,500.0,520.0
514.0,504.0,497.0,515.0
506.0,527.0,490.0,517.0
498.0,535.0,495.0,519.0
504.0,514.0,508.0,519.0
514.0,501.0,519.0,527.0
515.0,495.0,521.0,514.0
521.0,483.0,520.0,506.0
520.0,483.0,534.0,509.0
517.0,486.0,533.0,509.0
507.0,497.0,536.0,512.0
500.0,505.0,533.0,510.0
503.0,509.0,518.0,506.0
508.0,505.0,510.0,509.0
507.0,505.0,500.0,507.0
517.0,493.0,498.0,511.0
517.0,491.0,508.0,517.0
514.0,495.0,501.0,518.0
514.0,502.0,486.0,512.0
500.0,527.0,485.0,518.0
504.0,529.0,496.0,520.0
510.0,518.0,508.0,516.0
521.0,506.0,514.0,515.0
528.0,493.0,520.0,511.0
531.0,481.0,532.0,508.0
525.0,481.0,536.0,509.0
516.0,486.0,529.0,506.0
505.0,507.0,516.0,497.0
498.0,515.0,516.0,500.0
503.0,511.0,517.0,502.0
504.0,503.0,517.0,507.0
506.0,498.0,498.0,507.0
516.0,488.0,499.0,510.0
519.0,492.0,500.0,517.0
517.0,504.0,501.0,519.0
505.0,522.0,492.0,524.0
493.0,558.0,486.0,517.0
502.0,534.0,495.0,515.0
505.0,522.0,509.0,520.0
515.0,509.0,520.0,528.0
524.0,488.0,518.0,515.0
525.0,480.0,529.0,504.0
522.0,478.0,532.0,506.0
521.0,493.0,529.0,504.0
499.0,525.0,519.0,504.0
496.0,525.0,510.0,504.0
498.0,519.0,502.0,503.0
504.0,507.0,503.0,504.0
511.0,498.0,502.0,512.0
517.0,495.0,505.0,517.0
511.0,499.0,496.0,516.0
515.0,506.0,487.0,513.0
503.0,522.0,487.0,519.0
491.0,533.0,494.0,519.0
497.0,526.0,499.0,519.0
505.0,508.0,509.0,521.0
512.0,499.0,524.0,521.0
523.0,481.0,520.0,513.0
520.0,481.0,520.0,508.0
520.0,483.0,526.0,508.0
518.0,495.0,520.0,506.0
506.0,516.0,526.0,515.0
511.0,519.0,514.0,518.0
511.0,515.0,515.0,508.0
509.0,511.0,505.0,512.0
520.0,493.0,501.0,517.0
524.0,493.0,502.0,518.0
521.0,498.0,500.0,524.0
506.0,509.0,491.0,523.0
500.0,522.0,482.0,517.0
498.0,531.0,472.0,506.0
502.0,524.0,482.0,506.0
505.0,512.0,508.0,515.0
516.0,493.0,524.0,515.0
525.0,473.0,537.0,515.0
521.0,471.0,537.0,511.0
518.0,483.0,528.0,509.0
510.0,505.0,512.0,513.0
499.0,522.0,497.0,497.0
502.0,512.0,499.0,499.0
502.0,513.0,509.0,509.0
505.0,516.0,500.0,511.0
514.0,494.0,488.0,513.0
519.0,492.0,487.0,512.0
520.0,495.0,490.0,517.0
514.0,508.0,493.0,521.0
500.0,531.0,484.0,515.0
505.0,517.0,503.0,519.0
510.0,515.0,509.0,517.0
514.0,505.0,517.0,525.0
526.0,486.0,524.0,519.0
528.0,488.0,524.0,505.0
521.0,488.0,521.0,502.0
518.0,492.0,533.0,514.0
504.0,517.0,546.0,519.0
496.0,518.0,514.0,507.0
500.0,513.0,508.0,501.0
491.0,519.0,497.0,513.0
496.0,506.0,478.0,509.0
509.0,496.0,460.0,497.0
510.0,500.0,490.0,513.0
513.0,501.0,484.0,521.0
512.0,514.0,484.0,523.0
504.0,525.0,469.0,511.0
502.0,522.0,480.0,513.0
511.0,508.0,507.0,521.0
519.0,496.0,508.0,516.0
527.0,476.0,515.0,514.0
525.0,478.0,527.0,517.0
522.0,487.0,523.0,511.0
513.0,499.0,512.0,511.0
494.0,523.0,510.0,508.0
498.0,514.0,498.0,494.0
500.0,510.0,479.0,494.0
498.0,508.0,506.0,520.0
508.0,494.0,511.0,531.0
514.0,495.0,476.0,514.0
519.0,500.0,479.0,516.0
520.0,491.0,487.0,520.0
505.0,523.0,468.0,513.0
504.0,530.0,481.0,523.0
509.0,520.0,502.0,532.0
512.0,514.0,510.0,531.0
520.0,491.0,496.0,508.0
528.0,477.0,513.0,503.0
523.0,490.0,508.0,502.0
517.0,502.0,503.0,507.0
505.0,514.0,506.0,504.0
499.0,526.0,506.0,512.0
502.0,511.0,501.0,516.0
500.0,511.0,487.0,507.0
505.0,502.0,493.0,514.0
513.0,485.0,487.0,525.0
513.0,489.0,475.0,525.0
512.0,495.0,488.0,529.0
514.0,505.0,460.0,520.0
500.0,539.0,443.0,508.0
506.0,533.0,459.0,512.0
510.0,532.0,482.0,521.0
519.0,503.0,490.0,528.0
529.0,470.0,502.0,519.0
527.0,474.0,499.0,507.0
520.0,486.0,493.0,494.0
513.0,499.0,483.0,487.0
498.0,519.0,500.0,509.0
498.0,513.0,495.0,508.0
501.0,518.0,478.0,503.0
500.0,520.0,472.0,512.0
507.0,509.0,474.0,514.0
511.0,503.0,459.0,505.0
518.0,510.0,446.0,507.0
513.0,496.0,453.0,515.0
514.0,500.0,460.0,520.0
506.0,516.0,459.0,524.0
507.0,514.0,468.0,529.0
513.0,519.0,485.0,534.0
516.0,507.0,505.0,526.0
527.0,490.0,519.0,512.0
528.0,486.0,521.0,506.0
529.0,451.0,521.0,510.0
521.0,475.0,508.0,507.0
504.0,487.0,502.0,514.0
501.0,498.0,475.0,499.0
499.0,495.0,479.0,507.0
495.0,495.0,494.0,526.0
516.0,479.0,447.0,507.0
519.0,484.0,447.0,510.0
517.0,515.0,467.0,514.0
514.0,530.0,472.0,535.0
494.0,538.0,469.0,534.0
491.0,551.0,430.0,511.0
506.0,525.0,462.0,515.0
511.0,512.0,511.0,531.0
522.0,503.0,505.0,511.0
531.0,494.0,510.0,505.0
536.0,504.0,523.0,510.0
527.0,506.0,517.0,507.0
512.0,524.0,502.0,510.0
494.0,524.0,491.0,513.0
497.0,486.0,494.0,523.0
496.0,489.0,491.0,516.0
499.0,504.0,476.0,525.0
512.0,482.0,456.0,511.0
513.0,489.0,468.0,495.0
518.0,497.0,461.0,505.0
519.0,513.0,440.0,512.0
504.0,540.0,469.0,519.0
507.0,533.0,484.0,526.0
506.0,521.0,476.0,516.0
513.0,514.0,487.0,517.0
519.0,496.0,509.0,527.0
515.0,496.0,499.0,516.0
514.0,495.0,502.0,514.0
522.0,490.0,508.0,511.0
521.0,504.0,522.0,506.0
511.0,495.0,504.0,513.0
503.0,491.0,499.0,498.0
513.0,490.0,488.0,504.0
519.0,505.0,492.0,527.0
525.0,486.0,461.0,504.0
521.0,479.0,462.0,518.0
518.0,475.0,453.0,531.0
510.0,506.0,449.0,510.0
505.0,522.0,473.0,496.0
494.0,535.0,517.0,512.0
501.0,534.0,484.0,503.0
511.0,539.0,482.0,500.0
520.0,520.0,523.0,514.0
523.0,480.0,527.0,513.0
527.0,475.0,518.0,507.0
517.0,502.0,488.0,489.0
498.0,519.0,483.0,503.0
492.0,520.0,506.0,516.0
497.0,512.0,516.0,519.0
492.0,513.0,460.0,511.0
506.0,487.0,469.0,496.0
515.0,488.0,492.0,509.0
509.0,499.0,513.0,538.0
515.0,504.0,444.0,527.0
499.0,534.0,442.0,516.0
498.0,539.0,481.0,524.0
503.0,538.0,518.0,539.0
523.0,506.0,544.0,538.0
527.0,488.0,535.0,522.0
525.0,488.0,479.0,493.0
519.0,491.0,506.0,492.0
513.0,490.0,512.0,492.0
506.0,505.0,508.0,500.0
497.0,522.0,505.0,508.0
498.0,504.0,499.0,511.0
506.0,492.0,475.0,510.0
510.0,484.0,458.0,512.0
511.0,472.0,480.0,524.0
508.0,494.0,504.0,546.0
503.0,502.0,512.0,539.0
507.0,501.0,508.0,532.0
504.0,516.0,513.0,552.0
507.0,514.0,492.0,506.0
503.0,520.0,499.0,498.0
507.0,512.0,478.0,504.0
521.0,490.0,510.0,521.0
512.0,483.0,535.0,516.0
500.0,486.0,553.0,522.0
509.0,474.0,567.0,536.0
509.0,506.0,463.0,487.0
509.0,508.0,443.0,468.0
505.0,507.0,517.0,512.0
514.0,480.0,556.0,532.0
513.0,536.0,522.0,527.0
513.0,537.0,474.0,527.0
515.0,523.0,479.0,528.0
518.0,504.0,447.0,485.0
513.0,526.0,456.0,496.0
501.0,550.0,470.0,496.0
500.0,526.0,484.0,508.0
514.0,487.0,474.0,479.0
515.0,482.0,514.0,494.0
521.0,470.0,546.0,510.0
523.0,468.0,526.0,493.0
517.0,484.0,495.0,488.0
516.0,511.0,538.0,523.0
502.0,531.0,524.0,525.0
503.0,532.0,495.0,494.0
504.0,533.0,504.0,489.0
501.0,549.0,497.0,510.0
518.0,525.0,469.0,508.0
517.0,525.0,470.0,492.0
514.0,504.0,475.0,505.0
517.0,443.0,472.0,516.0
512.0,483.0,501.0,519.0
511.0,495.0,531.0,531.0
510.0,506.0,507.0,512.0
516.0,506.0,476.0,518.0
524.0,493.0,510.0,526.0
526.0,478.0,548.0,513.0
521.0,464.0,532.0,507.0
510.0,458.0,511.0,507.0
492.0,485.0,496.0,494.0
493.0,487.0,507.0,512.0
487.0,486.0,493.0,499.0
503.0,481.0,428.0,459.0
518.0,496.0,508.0,511.0
529.0,483.0,501.0,506.0
528.0,484.0,503.0,516.0
522.0,504.0,498.0,512.0
519.0,528.0,477.0,505.0
507.0,537.0,468.0,502.0
505.0,524.0,486.0,515.0
518.0,536.0,507.0,518.0
525.0,537.0,520.0,498.0
530.0,505.0,531.0,490.0
528.0,500.0,530.0,502.0
522.0,509.0,545.0,511.0
516.0,512.0,506.0,505.0
501.0,526.0,543.0,515.0
499.0,519.0,537.0,516.0
503.0,516.0,506.0,514.0
499.0,515.0,493.0,492.0
509.0,514.0,508.0,519.0
509.0,507.0,490.0,515.0
512.0,498.0,470.0,511.0
517.0,469.0,455.0,456.0
517.0,494.0,477.0,503.0
522.0,515.0,481.0,531.0
531.0,506.0,477.0,497.0
542.0,508.0,503.0,505.0
548.0,500.0,523.0,527.0
555.0,474.0,550.0,543.0
552.0,470.0,549.0,492.0
529.0,482.0,543.0,501.0
483.0,508.0,506.0,488.0
471.0,512.0,522.0,486.0
475.0,514.0,518.0,519.0
484.0,520.0,453.0,499.0
499.0,499.0,503.0,544.0
503.0,480.0,468.0,460.0
488.0,489.0,452.0,482.0
487.0,467.0,488.0,523.0
493.0,442.0,512.0,533.0
472.0,486.0,510.0,535.0
495.0,548.0,487.0,486.0
502.0,584.0,478.0,492.0
518.0,568.0,478.0,488.0
531.0,519.0,512.0,502.0
534.0,502.0,554.0,535.0
536.0,471.0,560.0,536.0
526.0,468.0,523.0,484.0
511.0,521.0,531.0,469.0
492.0,558.0,531.0,481.0
489.0,550.0,487.0,476.0
495.0,529.0,477.0,476.0
506.0,526.0,466.0,488.0
516.0,521.0,492.0,483.0
518.0,519.0,475.0,485.0
529.0,486.0,445.0,478.0
529.0,506.0,453.0,475.0
517.0,522.0,480.0,496.0
519.0,510.0,496.0,507.0
521.0,496.0,467.0,478.0
522.0,480.0,481.0,471.0
526.0,475.0,532.0,481.0
508.0,485.0,550.0,488.0
509.0,472.0,541.0,506.0
506.0,481.0,548.0,519.0
498.0,517.0,484.0,477.0
502.0,514.0,493.0,448.0
508.0,515.0,492.0,482.0
504.0,522.0,510.0,520.0
512.0,473.0,457.0,453.0
522.0,446.0,516.0,483.0
515.0,485.0,562.0,522.0
512.0,484.0,444.0,505.0
500.0,512.0,445.0,502.0
497.0,510.0,537.0,520.0
503.0,509.0,510.0,501.0
517.0,462.0,498.0,509.0
516.0,478.0,557.0,532.0
516.0,506.0,519.0,484.0
528.0,526.0,508.0,431.0
523.0,524.0,562.0,460.0
506.0,513.0,507.0,469.0
488.0,531.0,413.0,451.0
488.0,536.0,468.0,483.0
503.0,519.0,514.0,485.0
499.0,546.0,483.0,464.0
513.0,504.0,511.0,478.0
525.0,471.0,511.0,501.0
527.0,488.0,468.0,489.0
528.0,513.0,492.0,509.0
514.0,529.0,478.0,488.0
510.0,503.0,469.0,486.0
509.0,515.0,490.0,501.0
514.0,519.0,506.0,484.0
517.0,524.0,510.0,463.0
517.0,499.0,530.0,470.0
518.0,467.0,532.0,475.0
517.0,471.0,505.0,471.0
513.0,452.0,523.0,480.0
506.0,483.0,480.0,447.0
504.0,497.0,515.0,469.0
516.0,514.0,520.0,500.0
515.0,507.0,480.0,467.0
519.0,527.0,527.0,498.0
508.0,558.0,508.0,519.0
506.0,550.0,414.0,448.0
511.0,523.0,455.0,464.0
504.0,550.0,495.0,493.0
500.0,527.0,537.0,516.0
508.0,493.0,538.0,476.0
512.0,490.0,504.0,458.0
526.0,459.0,473.0,456.0
520.0,472.0,480.0,477.0
511.0,509.0,557.0,472.0
502.0,506.0,583.0,457.0
492.0,517.0,534.0,498.0
487.0,531.0,527.0,491.0
499.0,517.0,516.0,459.0
505.0,505.0,517.0,452.0
517.0,475.0,566.0,467.0
521.0,458.0,545.0,478.0
523.0,468.0,413.0,483.0
523.0,470.0,413.0,476.0
509.0,504.0,484.0,488.0
504.0,549.0,490.0,493.0
518.0,561.0,485.0,458.0
519.0,522.0,508.0,506.0
517.0,498.0,521.0,483.0
522.0,473.0,549.0,440.0
520.0,478.0,527.0,472.0
518.0,477.0,484.0,467.0
510.0,485.0,518.0,459.0
497.0,512.0,509.0,479.0
491.0,515.0,504.0,493.0
493.0,513.0,509.0,466.0
500.0,506.0,526.0,474.0
519.0,490.0,520.0,475.0
531.0,496.0,518.0,495.0
527.0,504.0,518.0,484.0
515.0,508.0,472.0,463.0
503.0,518.0,472.0,483.0
505.0,508.0,525.0,515.0
508.0,501.0,471.0,443.0
518.0,511.0,529.0,451.0
524.0,489.0,555.0,454.0
524.0,486.0,498.0,440.0
531.0,493.0,486.0,425.0
527.0,503.0,518.0,467.0
514.0,533.0,540.0,467.0
503.0,549.0,536.0,454.0
508.0,537.0,520.0,457.0
517.0,524.0,492.0,466.0
515.0,522.0,458.0,466.0
528.0,495.0,479.0,466.0
507.0,491.0,472.0,468.0
481.0,483.0,479.0,473.0
480.0,500.0,484.0,478.0
476.0,493.0,495.0,485.0
500.0,473.0,486.0,482.0
521.0,487.0,482.0,444.0
533.0,515.0,489.0,455.0
537.0,528.0,533.0,491.0
528.0,513.0,527.0,481.0
547.0,490.0,482.0,470.0
531.0,510.0,501.0,445.0
502.0,530.0,520.0,439.0
494.0,493.0,506.0,456.0
499.0,494.0,533.0,487.0
509.0,473.0,491.0,448.0
523.0,486.0,474.0,432.0
518.0,487.0,531.0,486.0
503.0,505.0,515.0,494.0
505.0,523.0,414.0,463.0
504.0,551.0,421.0,466.0
487.0,570.0,466.0,461.0
489.0,542.0,529.0,489.0
507.0,502.0,534.0,482.0
511.0,478.0,541.0,465.0
524.0,476.0,500.0,430.0
522.0,486.0,480.0,441.0
520.0,522.0,545.0,486.0
505.0,543.0,539.0,488.0
502.0,514.0,509.0,424.0
507.0,474.0,486.0,443.0
508.0,481.0,491.0,452.0
508.0,504.0,506.0,455.0
510.0,505.0,489.0,469.0
515.0,494.0,464.0,469.0
494.0,499.0,491.0,485.0
496.0,510.0,500.0,488.0
485.0,522.0,498.0,481.0
499.0,504.0,541.0,484.0
514.0,491.0,513.0,486.0
526.0,526.0,507.0,492.0
546.0,513.0,478.0,469.0
535.0,484.0,490.0,442.0
523.0,498.0,602.0,519.0
508.0,497.0,650.0,500.0
495.0,527.0,573.0,448.0
497.0,519.0,510.0,443.0
497.0,508.0,474.0,442.0
503.0,487.0,487.0,457.0
521.0,475.0,478.0,471.0
523.0,459.0,501.0,485.0
511.0,492.0,476.0,469.0
502.0,511.0,497.0,473.0
510.0,511.0,462.0,447.0
521.0,531.0,481.0,458.0
528.0,544.0,487.0,477.0
519.0,551.0,477.0,483.0
517.0,517.0,464.0,466.0
523.0,491.0,491.0,458.0
526.0,474.0,557.0,487.0
517.0,491.0,652.0,456.0
517.0,494.0,629.0,463.0
515.0,498.0,490.0,481.0
509.0,508.0,483.0,486.0
504.0,507.0,457.0,480.0
503.0,504.0,483.0,476.0
502.0,503.0,516.0,479.0
498.0,532.0,477.0,466.0
495.0,519.0,433.0,458.0
498.0,499.0,487.0,479.0
483.0,514.0,458.0,456.0
493.0,522.0,439.0,444.0
516.0,535.0,507.0,471.0
536.0,527.0,480.0,479.0
531.0,489.0,482.0,453.0
537.0,480.0,530.0,472.0
536.0,488.0,566.0,493.0
524.0,485.0,523.0,477.0
519.0,481.0,521.0,461.0
513.0,506.0,554.0,462.0
505.0,513.0,551.0,491.0
507.0,506.0,458.0,457.0
513.0,511.0,455.0,445.0
511.0,498.0,501.0,470.0
510.0,488.0,506.0,476.0
517.0,466.0,509.0,476.0
510.0,471.0,464.0,515.0
492.0,482.0,502.0,501.0
489.0,558.0,566.0,499.0
488.0,565.0,491.0,465.0
506.0,524.0,465.0,439.0
533.0,483.0,508.0,457.0
534.0,484.0,522.0,464.0
536.0,480.0,592.0,489.0
537.0,469.0,519.0,484.0
507.0,514.0,452.0,431.0
500.0,544.0,523.0,462.0
497.0,547.0,585.0,478.0
507.0,519.0,594.0,492.0
500.0,499.0,606.0,516.0
507.0,472.0,531.0,484.0
509.0,451.0,354.0,429.0
507.0,470.0,454.0,490.0
490.0,496.0,522.0,503.0
490.0,533.0,537.0,485.0
495.0,534.0,501.0,473.0
516.0,522.0,435.0,459.0
540.0,511.0,460.0,454.0
557.0,484.0,494.0,455.0
563.0,461.0,525.0,483.0
552.0,463.0,507.0,469.0
543.0,492.0,510.0,480.0
516.0,537.0,433.0,450.0
498.0,527.0,491.0,431.0
507.0,523.0,570.0,473.0
503.0,510.0,551.0,514.0
493.0,478.0,537.0,505.0
493.0,475.0,526.0,464.0
485.0,472.0,491.0,484.0
489.0,470.0,507.0,488.0
480.0,538.0,450.0,472.0
473.0,600.0,419.0,457.0
473.0,570.0,515.0,498.0
494.0,508.0,591.0,534.0
513.0,473.0,640.0,519.0
525.0,383.0,464.0,447.0
529.0,386.0,401.0,419.0
525.0,436.0,519.0,456.0
533.0,516.0,536.0,456.0
514.0,608.0,530.0,471.0
512.0,619.0,551.0,493.0
496.0,571.0,438.0,462.0
491.0,552.0,467.0,467.0
497.0,514.0,504.0,495.0
512.0,482.0,525.0,488.0
504.0,472.0,532.0,504.0
507.0,495.0,512.0,486.0
514.0,525.0,497.0,470.0
523.0,513.0,482.0,495.0
529.0,525.0,461.0,490.0
547.0,538.0,523.0,500.0
563.0,527.0,600.0,497.0
555.0,506.0,603.0,459.0
545.0,496.0,501.0,457.0
523.0,468.0,480.0,467.0
493.0,504.0,555.0,437.0
499.0,516.0,503.0,489.0
492.0,514.0,490.0,498.0
488.0,511.0,463.0,464.0
485.0,520.0,515.0,485.0
477.0,508.0,577.0,493.0
492.0,510.0,560.0,483.0
504.0,499.0,459.0,481.0
514.0,481.0,466.0,495.0
508.0,475.0,468.0,457.0
498.0,498.0,443.0,475.0
500.0,521.0,507.0,491.0
499.0,507.0,521.0,474.0
510.0,474.0,464.0,460.0
516.0,488.0,507.0,495.0
519.0,442.0,549.0,504.0
515.0,496.0,526.0,456.0
489.0,538.0,531.0,485.0
482.0,551.0,586.0,491.0
486.0,531.0,489.0,461.0
492.0,499.0,426.0,473.0
503.0,464.0,483.0,478.0
525.0,474.0,470.0,469.0
542.0,494.0,508.0,498.0
524.0,516.0,460.0,473.0
514.0,547.0,482.0,509.0
514.0,532.0,516.0,522.0
496.0,515.0,489.0,447.0
507.0,473.0,505.0,460.0
505.0,483.0,586.0,516.0
514.0,474.0,609.0,506.0
522.0,493.0,541.0,475.0
528.0,513.0,513.0,478.0
525.0,529.0,495.0,493.0
500.0,558.0,500.0,475.0
497.0,510.0,492.0,445.0
490.0,500.0,498.0,462.0
508.0,475.0,495.0,490.0
522.0,471.0,476.0,472.0
512.0,473.0,519.0,503.0
510.0,477.0,484.0,493.0
508.0,502.0,441.0,486.0
499.0,528.0,442.0,455.0
500.0,524.0,463.0,467.0
494.0,535.0,460.0,477.0
503.0,512.0,547.0,488.0
524.0,487.0,568.0,492.0
537.0,480.0,565.0,495.0
537.0,477.0,552.0,465.0
527.0,484.0,549.0,512.0
502.0,522.0,499.0,495.0
491.0,528.0,605.0,486.0
494.0,519.0,687.0,492.0
496.0,523.0,532.0,493.0
501.0,501.0,373.0,485.0
510.0,476.0,474.0,491.0
514.0,500.0,464.0,466.0
514.0,514.0,447.0,472.0
525.0,528.0,476.0,482.0
517.0,536.0,511.0,501.0
518.0,521.0,525.0,513.0
523.0,499.0,480.0,473.0
530.0,488.0,511.0,478.0
540.0,472.0,542.0,482.0
540.0,460.0,536.0,472.0
529.0,477.0,595.0,480.0
530.0,496.0,493.0,459.0
512.0,505.0,444.0,472.0
516.0,481.0,529.0,466.0
516.0,481.0,512.0,476.0
510.0,488.0,526.0,499.0
509.0,495.0,538.0,524.0
502.0,525.0,464.0,476.0
497.0,552.0,426.0,482.0
500.0,568.0,473.0,497.0
480.0,578.0,515.0,503.0
489.0,533.0,492.0,516.0
484.0,514.0,467.0,478.0
512.0,508.0,481.0,456.0
542.0,512.0,560.0,498.0
527.0,512.0,542.0,488.0
518.0,498.0,535.0,465.0
532.0,459.0,518.0,498.0
518.0,514.0,549.0,513.0
489.0,546.0,470.0,451.0
501.0,541.0,481.0,471.0
493.0,544.0,550.0,478.0
495.0,499.0,493.0,472.0
513.0,442.0,491.0,473.0
516.0,465.0,502.0,482.0
527.0,495.0,492.0,511.0
539.0,504.0,461.0,498.0
511.0,501.0,492.0,502.0
521.0,485.0,500.0,495.0
504.0,498.0,504.0,512.0
512.0,482.0,504.0,503.0
533.0,500.0,538.0,477.0
533.0,490.0,609.0,482.0
516.0,481.0,576.0,494.0
502.0,483.0,436.0,476.0
508.0,518.0,535.0,486.0
497.0,533.0,571.0,480.0
501.0,519.0,479.0,461.0
503.0,509.0,486.0,507.0
510.0,484.0,490.0,479.0
526.0,464.0,519.0,505.0
515.0,496.0,496.0,509.0
515.0,514.0,481.0,500.0
504.0,529.0,484.0,500.0
493.0,533.0,558.0,478.0
487.0,550.0,517.0,436.0
487.0,529.0,407.0,464.0
505.0,493.0,475.0,489.0
520.0,473.0,546.0,511.0
502.0,500.0,601.0,533.0
493.0,503.0,525.0,511.0
500.0,484.0,494.0,501.0
508.0,507.0,494.0,504.0
500.0,521.0,497.0,476.0
489.0,516.0,484.0,506.0
496.0,502.0,540.0,501.0
517.0,492.0,550.0,480.0
509.0,507.0,417.0,483.0
517.0,530.0,464.0,496.0
512.0,554.0,471.0,496.0
503.0,539.0,540.0,528.0
499.0,539.0,580.0,517.0
504.0,535.0,583.0,503.0
520.0,481.0,532.0,493.0
529.0,448.0,467.0,468.0
527.0,460.0,528.0,474.0
522.0,472.0,517.0,464.0
521.0,491.0,513.0,473.0
501.0,522.0,494.0,469.0
497.0,526.0,512.0,471.0
498.0,517.0,573.0,493.0
497.0,502.0,546.0,493.0
508.0,490.0,486.0,487.0
511.0,488.0,558.0,507.0
501.0,513.0,463.0,471.0
513.0,504.0,369.0,465.0
525.0,504.0,453.0,496.0
515.0,537.0,483.0,499.0
513.0,521.0,449.0,477.0
513.0,514.0,515.0,508.0
518.0,501.0,556.0,496.0
524.0,483.0,564.0,491.0
525.0,480.0,543.0,504.0
529.0,477.0,537.0,495.0
516.0,495.0,548.0,498.0
492.0,528.0,483.0,474.0
487.0,530.0,501.0,458.0
496.0,520.0,509.0,464.0
508.0,493.0,517.0,494.0
523.0,477.0,518.0,497.0
528.0,478.0,478.0,484.0
525.0,495.0,474.0,493.0
520.0,488.0,510.0,493.0
512.0,492.0,473.0,487.0
500.0,506.0,522.0,506.0
508.0,493.0,569.0,477.0
515.0,491.0,429.0,476.0
512.0,490.0,439.0,478.0
520.0,478.0,551.0,506.0
515.0,484.0,548.0,467.0
510.0,490.0,536.0,495.0
516.0,467.0,565.0,522.0
510.0,502.0,518.0,508.0
518.0,504.0,479.0,479.0
538.0,530.0,501.0,486.0
536.0,541.0,495.0,484.0
521.0,531.0,464.0,490.0
518.0,524.0,512.0,495.0
494.0,504.0,507.0,497.0
502.0,504.0,463.0,492.0
496.0,521.0,484.0,485.0
504.0,509.0,568.0,502.0
510.0,516.0,539.0,513.0
539.0,497.0,490.0,471.0
548.0,469.0,472.0,468.0
535.0,471.0,539.0,487.0
514.0,477.0,522.0,494.0
495.0,535.0,520.0,472.0
500.0,553.0,570.0,482.0
505.0,529.0,552.0,492.0
520.0,514.0,574.0,491.0
543.0,493.0,490.0,506.0
545.0,485.0,501.0,500.0
522.0,490.0,577.0,499.0
494.0,473.0,505.0,492.0
497.0,481.0,440.0,474.0
479.0,513.0,494.0,487.0
463.0,565.0,480.0,501.0
476.0,551.0,521.0,528.0
497.0,530.0,463.0,527.0
497.0,490.0,480.0,477.0
502.0,447.0,549.0,522.0
525.0,487.0,572.0,548.0
533.0,522.0,508.0,491.0
524.0,496.0,492.0,458.0
503.0,516.0,532.0,483.0
496.0,528.0,547.0,526.0
492.0,545.0,526.0,477.0
495.0,522.0,464.0,462.0
512.0,490.0,499.0,470.0
517.0,482.0,532.0,496.0
513.0,478.0,477.0,491.0
502.0,497.0,480.0,500.0
482.0,534.0,514.0,512.0
491.0,531.0,494.0,497.0
503.0,518.0,479.0,491.0
526.0,484.0,520.0,512.0
528.0,494.0,523.0,511.0
528.0,489.0,545.0,509.0
512.0,501.0,519.0,478.0
512.0,496.0,508.0,500.0
509.0,503.0,533.0,520.0
499.0,527.0,566.0,526.0
492.0,534.0,571.0,525.0
483.0,523.0,506.0,522.0
485.0,516.0,475.0,444.0
503.0,488.0,539.0,469.0
519.0,469.0,488.0,508.0
522.0,491.0,491.0,512.0
528.0,519.0,481.0,495.0
520.0,535.0,410.0,493.0
507.0,517.0,477.0,508.0
510.0,494.0,596.0,524.0
515.0,493.0,545.0,510.0
520.0,477.0,456.0,495.0
526.0,485.0,503.0,490.0
528.0,492.0,603.0,537.0
526.0,498.0,535.0,475.0
520.0,502.0,484.0,439.0
506.0,510.0,462.0,471.0
499.0,516.0,472.0,475.0
501.0,513.0,492.0,475.0
511.0,502.0,504.0,496.0
514.0,491.0,509.0,486.0
513.0,494.0,531.0,500.0
521.0,489.0,471.0,511.0
519.0,498.0,427.0,485.0
507.0,516.0,474.0,503.0
504.0,499.0,536.0,513.0
501.0,518.0,563.0,505.0
514.0,508.0,521.0,496.0
531.0,493.0,472.0,493.0
525.0,501.0,532.0,490.0
519.0,494.0,560.0,495.0
519.0,493.0,557.0,511.0
507.0,509.0,522.0,487.0
512.0,491.0,485.0,466.0
507.0,480.0,512.0,491.0
504.0,505.0,485.0,490.0
527.0,499.0,542.0,503.0
526.0,485.0,482.0,513.0
524.0,485.0,499.0,506.0
518.0,501.0,509.0,507.0
495.0,522.0,441.0,498.0
470.0,527.0,491.0,531.0
486.0,510.0,471.0,519.0
493.0,502.0,471.0,478.0
492.0,482.0,536.0,494.0
506.0,474.0,506.0,476.0
519.0,500.0,555.0,506.0
512.0,501.0,571.0,507.0
509.0,508.0,547.0,499.0
514.0,546.0,529.0,499.0
523.0,559.0,490.0,502.0
525.0,532.0,513.0,528.0
524.0,501.0,561.0,497.0
524.0,476.0,479.0,463.0
516.0,489.0,489.0,489.0
519.0,490.0,476.0,508.0
523.0,516.0,465.0,499.0
510.0,539.0,483.0,497.0
505.0,535.0,508.0,503.0
506.0,510.0,514.0,493.0
513.0,498.0,502.0,503.0
527.0,472.0,533.0,516.0
535.0,461.0,607.0,502.0
538.0,478.0,598.0,512.0
541.0,480.0,444.0,526.0
533.0,510.0,449.0,488.0
521.0,534.0,521.0,504.0
501.0,526.0,531.0,478.0
494.0,494.0,519.0,469.0
470.0,524.0,498.0,455.0
460.0,516.0,513.0,477.0
480.0,502.0,527.0,517.0
494.0,487.0,465.0,499.0
484.0,534.0,448.0,516.0
490.0,559.0,447.0,490.0
506.0,531.0,488.0,492.0
506.0,510.0,482.0,504.0
532.0,495.0,489.0,471.0
532.0,481.0,515.0,498.0
527.0,475.0,590.0,539.0
525.0,491.0,584.0,502.0
518.0,513.0,482.0,477.0
479.0,549.0,482.0,488.0
477.0,542.0,506.0,476.0
489.0,525.0,510.0,479.0
491.0,554.0,542.0,518.0
509.0,505.0,529.0,525.0
522.0,492.0,524.0,491.0
519.0,492.0,531.0,481.0
514.0,466.0,465.0,506.0
513.0,472.0,513.0,508.0
508.0,501.0,488.0,499.0
509.0,501.0,453.0,497.0
510.0,509.0,477.0,498.0
520.0,508.0,492.0,483.0
524.0,483.0,570.0,498.0
521.0,480.0,550.0,501.0
518.0,477.0,520.0,488.0
508.0,503.0,535.0,505.0
497.0,533.0,579.0,528.0
506.0,519.0,523.0,489.0
504.0,501.0,535.0,479.0
507.0,494.0,523.0,521.0
518.0,469.0,467.0,540.0
519.0,485.0,471.0,499.0
515.0,510.0,457.0,494.0
517.0,508.0,485.0,525.0
508.0,524.0,460.0,501.0
502.0,525.0,431.0,503.0
497.0,523.0,484.0,495.0
508.0,494.0,516.0,504.0
530.0,473.0,560.0,504.0
534.0,489.0,586.0,483.0
517.0,492.0,545.0,500.0
509.0,500.0,551.0,498.0
509.0,512.0,526.0,495.0
511.0,495.0,509.0,494.0
513.0,450.0,488.0,485.0
510.0,471.0,439.0,461.0
510.0,485.0,492.0,485.0
503.0,471.0,516.0,499.0
495.0,497.0,463.0,494.0
498.0,513.0,464.0,479.0
503.0,539.0,549.0,522.0
504.0,548.0,529.0,502.0
520.0,535.0,494.0,500.0
517.0,521.0,481.0,512.0
516.0,517.0,512.0,493.0
528.0,492.0,547.0,491.0
529.0,494.0,613.0,494.0
523.0,500.0,597.0,499.0
525.0,487.0,466.0,480.0
511.0,501.0,536.0,522.0
511.0,498.0,573.0,550.0
496.0,530.0,504.0,502.0
495.0,526.0,443.0,468.0
508.0,518.0,427.0,471.0
518.0,496.0,497.0,504.0
523.0,487.0,519.0,502.0
518.0,484.0,491.0,498.0
512.0,485.0,498.0,515.0
501.0,517.0,479.0,505.0
511.0,505.0,524.0,500.0
507.0,497.0,486.0,504.0
517.0,489.0,485.0,487.0
543.0,469.0,519.0,484.0
536.0,472.0,523.0,480.0
528.0,485.0,519.0,470.0
507.0,503.0,535.0,503.0
483.0,534.0,521.0,523.0
492.0,539.0,484.0,476.0
483.0,551.0,527.0,497.0
487.0,573.0,520.0,513.0
507.0,551.0,538.0,514.0
513.0,507.0,484.0,510.0
520.0,498.0,490.0,493.0
517.0,492.0,472.0,485.0
514.0,509.0,481.0,492.0
518.0,513.0,494.0,509.0
530.0,497.0,534.0,525.0
532.0,483.0,518.0,491.0
541.0,458.0,570.0,476.0
545.0,441.0,571.0,509.0
539.0,460.0,479.0,492.0
524.0,478.0,527.0,490.0
505.0,521.0,502.0,502.0
474.0,569.0,523.0,488.0
456.0,584.0,513.0,481.0
454.0,557.0,485.0,500.0
480.0,534.0,479.0,506.0
496.0,508.0,490.0,510.0
505.0,504.0,487.0,485.0
512.0,513.0,491.0,498.0
508.0,525.0,445.0,514.0
501.0,505.0,491.0,513.0
504.0,505.0,532.0,516.0
498.0,514.0,553.0,573.0
493.0,500.0,561.0,501.0
507.0,473.0,504.0,472.0
510.0,475.0,488.0,477.0
514.0,479.0,547.0,512.0
516.0,485.0,533.0,508.0
519.0,513.0,512.0,500.0
514.0,525.0,499.0,472.0
500.0,522.0,505.0,483.0
507.0,517.0,505.0,497.0
519.0,494.0,485.0,496.0
520.0,491.0,501.0,501.0
518.0,491.0,492.0,500.0
514.0,497.0,503.0,507.0
507.0,519.0,493.0,519.0
503.0,527.0,497.0,535.0
500.0,530.0,510.0,532.0
504.0,517.0,549.0,482.0
516.0,493.0,534.0,485.0
525.0,478.0,518.0,509.0
528.0,474.0,506.0,504.0
525.0,473.0,546.0,508.0
512.0,494.0,542.0,502.0
499.0,514.0,488.0,478.0
495.0,517.0,534.0,516.0
502.0,519.0,518.0,502.0
503.0,510.0,502.0,498.0
514.0,482.0,491.0,496.0
519.0,485.0,528.0,508.0
513.0,491.0,494.0,509.0
516.0,497.0,444.0,497.0
510.0,519.0,467.0,511.0
510.0,523.0,501.0,510.0
507.0,512.0,516.0,511.0
514.0,499.0,505.0,509.0
526.0,473.0,512.0,499.0
527.0,471.0,532.0,490.0
520.0,474.0,533.0,490.0
519.0,478.0,529.0,498.0
512.0,496.0,522.0,491.0
502.0,512.0,518.0,498.0
497.0,524.0,526.0,502.0
497.0,510.0,517.0,506.0
505.0,500.0,486.0,495.0
517.0,483.0,497.0,507.0
513.0,506.0,508.0,515.0
514.0,514.0,482.0,511.0
515.0,516.0,476.0,511.0
505.0,525.0,514.0,518.0
505.0,529.0,490.0,506.0
515.0,515.0,498.0,514.0
513.0,499.0,523.0,516.0
527.0,480.0,531.0,508.0
525.0,474.0,531.0,498.0
517.0,474.0,539.0,496.0
514.0,481.0,542.0,500.0
502.0,505.0,526.0,502.0
496.0,525.0,516.0,498.0
498.0,530.0,521.0,499.0
506.0,512.0,513.0,502.0
511.0,491.0,505.0,502.0
519.0,492.0,497.0,506.0
521.0,501.0,492.0,509.0
519.0,507.0,489.0,513.0
511.0,520.0,489.0,513.0
504.0,522.0,497.0,512.0
508.0,510.0,500.0,508.0
506.0,507.0,510.0,513.0
515.0,487.0,521.0,508.0
520.0,477.0,537.0,507.0
517.0,477.0,541.0,508.0
514.0,476.0,541.0,506.0
505.0,490.0,535.0,509.0
502.0,518.0,527.0,507.0
510.0,544.0,521.0,510.0
506.0,537.0,520.0,510.0
506.0,520.0,510.0,514.0
518.0,496.0,506.0,511.0
520.0,495.0,501.0,516.0
523.0,493.0,496.0,518.0
512.0,500.0,493.0,517.0
507.0,515.0,498.0,521.0
506.0,519.0,506.0,524.0
500.0,532.0,503.0,525.0
507.0,507.0,506.0,520.0
523.0,477.0,528.0,516.0
524.0,470.0,549.0,520.0
520.0,476.0,551.0,521.0
520.0,496.0,548.0,524.0
504.0,520.0,542.0,523.0
502.0,519.0,530.0,520.0
513.0,507.0,523.0,520.0
508.0,515.0,519.0,521.0
514.0,507.0,514.0,523.0
515.0,493.0,507.0,526.0
518.0,492.0,499.0,531.0
520.0,490.0,499.0,534.0
505.0,513.0,500.0,541.0
501.0,526.0,500.0,545.0
502.0,529.0,506.0,540.0
510.0,520.0,515.0,541.0
522.0,501.0,527.0,538.0
527.0,479.0,541.0,538.0
526.0,478.0,548.0,537.0
520.0,482.0,547.0,536.0
510.0,493.0,539.0,537.0
501.0,512.0,537.0,540.0
497.0,516.0,533.0,542.0
498.0,517.0,529.0,544.0
503.0,515.0,521.0,547.0
514.0,507.0,510.0,546.0
523.0,497.0,506.0,547.0
522.0,497.0,511.0,556.0
513.0,499.0,507.0,559.0
510.0,507.0,508.0,562.0
508.0,515.0,506.0,561.0
505.0,517.0,512.0,559.0
518.0,507.0,522.0,563.0
520.0,493.0,534.0,559.0
522.0,479.0,547.0,558.0
520.0,481.0,546.0,557.0
517.0,487.0,544.0,550.0
506.0,508.0,541.0,555.0
493.0,523.0,538.0,558.0
497.0,512.0,535.0,559.0
498.0,516.0,521.0,559.0
502.0,505.0,519.0,561.0
516.0,487.0,515.0,564.0
517.0,502.0,509.0,567.0
512.0,509.0,507.0,571.0
513.0,503.0,508.0,575.0
509.0,510.0,508.0,576.0
507.0,517.0,512.0,570.0
506.0,518.0,515.0,573.0
510.0,506.0,524.0,572.0
518.0,483.0,538.0,573.0
525.0,475.0,547.0,563.0
521.0,482.0,548.0,559.0
520.0,489.0,543.0,556.0
507.0,499.0,538.0,560.0
500.0,520.0,540.0,563.0
494.0,526.0,528.0,560.0
501.0,507.0,521.0,561.0
515.0,495.0,517.0,566.0
515.0,495.0,512.0,572.0
508.0,493.0,509.0,570.0
509.0,493.0,504.0,581.0
507.0,516.0,504.0,580.0
492.0,542.0,505.0,579.0
498.0,532.0,510.0,577.0
505.0,525.0,509.0,576.0
523.0,496.0,524.0,570.0
530.0,474.0,535.0,566.0
524.0,472.0,543.0,564.0
523.0,472.0,540.0,565.0
517.0,483.0,545.0,568.0
501.0,496.0,545.0,573.0
495.0,504.0,540.0,566.0
503.0,490.0,530.0,565.0
507.0,500.0,523.0,565.0
516.0,497.0,517.0,561.0
519.0,494.0,508.0,568.0
516.0,506.0,505.0,565.0
507.0,509.0,500.0,568.0
497.0,532.0,497.0,573.0
492.0,522.0,502.0,572.0
499.0,529.0,510.0,566.0
517.0,531.0,521.0,565.0
525.0,537.0,528.0,562.0
536.0,525.0,537.0,558.0
524.0,524.0,544.0,559.0
518.0,523.0,543.0,559.0
510.0,505.0,540.0,559.0
505.0,501.0,532.0,557.0
495.0,531.0,519.0,550.0
501.0,505.0,520.0,555.0
505.0,498.0,515.0,554.0
513.0,489.0,506.0,556.0
513.0,475.0,506.0,561.0
512.0,483.0,501.0,561.0
512.0,491.0,500.0,567.0
505.0,521.0,499.0,564.0
509.0,515.0,507.0,564.0
504.0,536.0,510.0,561.0
517.0,501.0,523.0,555.0
528.0,467.0,534.0,554.0
531.0,469.0,541.0,554.0
526.0,488.0,543.0,545.0
514.0,502.0,538.0,548.0
499.0,519.0,532.0,550.0
502.0,514.0,526.0,549.0
502.0,506.0,526.0,549.0
503.0,511.0,519.0,551.0
509.0,508.0,512.0,550.0
516.0,499.0,507.0,553.0
514.0,514.0,502.0,555.0
511.0,524.0,497.0,556.0
505.0,516.0,501.0,558.0
497.0,520.0,500.0,559.0
506.0,498.0,508.0,554.0
508.0,506.0,513.0,550.0
515.0,478.0,525.0,552.0
523.0,483.0,536.0,549.0
523.0,497.0,541.0,547.0
525.0,488.0,538.0,544.0
519.0,494.0,536.0,544.0
503.0,497.0,528.0,544.0
500.0,486.0,523.0,541.0
502.0,490.0,519.0,543.0
504.0,494.0,512.0,543.0
520.0,478.0,512.0,546.0
520.0,496.0,517.0,554.0
509.0,537.0,500.0,556.0
510.0,546.0,492.0,548.0
503.0,552.0,499.0,552.0
498.0,562.0,504.0,554.0
501.0,583.0,508.0,551.0
504.0,579.0,515.0,546.0
515.0,528.0,525.0,545.0
523.0,471.0,532.0,541.0
526.0,409.0,533.0,535.0
525.0,451.0,532.0,529.0
509.0,487.0,526.0,530.0
502.0,495.0,526.0,532.0
503.0,474.0,520.0,534.0
507.0,510.0,517.0,533.0
509.0,506.0,507.0,542.0
517.0,496.0,504.0,541.0
513.0,507.0,499.0,542.0
515.0,502.0,496.0,545.0
517.0,498.0,500.0,546.0
510.0,499.0,509.0,547.0
502.0,508.0,514.0,545.0
503.0,503.0,519.0,542.0
519.0,491.0,522.0,540.0
525.0,477.0,534.0,534.0
524.0,485.0,539.0,534.0
520.0,509.0,544.0,533.0
517.0,517.0,542.0,532.0
503.0,528.0,536.0,533.0
496.0,511.0,525.0,532.0
503.0,471.0,520.0,530.0
500.0,489.0,519.0,532.0
505.0,487.0,515.0,539.0
516.0,480.0,514.0,539.0
520.0,499.0,511.0,543.0
511.0,525.0,509.0,543.0
502.0,537.0,505.0,553.0
498.0,547.0,506.0,544.0
496.0,561.0,511.0,541.0
515.0,486.0,517.0,538.0
523.0,480.0,526.0,534.0
525.0,469.0,537.0,533.0
526.0,473.0,537.0,530.0
524.0,457.0,534.0,533.0
516.0,470.0,532.0,533.0
509.0,481.0,530.0,532.0
501.0,537.0,524.0,530.0
493.0,547.0,522.0,533.0
493.0,534.0,524.0,533.0
509.0,505.0,534.0,534.0
516.0,481.0,518.0,535.0
512.0,491.0,505.0,535.0
507.0,520.0,505.0,533.0
509.0,530.0,508.0,536.0
500.0,554.0,498.0,529.0
508.0,559.0,504.0,529.0
514.0,485.0,518.0,529.0
526.0,459.0,530.0,529.0
530.0,454.0,539.0,524.0
525.0,485.0,540.0,523.0
519.0,527.0,543.0,523.0
505.0,547.0,537.0,527.0
492.0,573.0,530.0,530.0
492.0,542.0,526.0,525.0
493.0,483.0,519.0,529.0
510.0,459.0,510.0,526.0
511.0,489.0,507.0,526.0
509.0,529.0,505.0,529.0
507.0,561.0,506.0,534.0
500.0,593.0,508.0,542.0
496.0,597.0,513.0,547.0
506.0,513.0,519.0,540.0
510.0,475.0,520.0,539.0
523.0,438.0,526.0,534.0
536.0,437.0,535.0,528.0
530.0,466.0,534.0,518.0
527.0,454.0,535.0,514.0
524.0,469.0,536.0,514.0
512.0,496.0,530.0,516.0
504.0,517.0,524.0,516.0
498.0,544.0,522.0,513.0
496.0,520.0,513.0,518.0
512.0,480.0,508.0,521.0
517.0,470.0,511.0,525.0
514.0,500.0,508.0,531.0
512.0,494.0,506.0,531.0
506.0,515.0,504.0,534.0
496.0,534.0,506.0,533.0
498.0,533.0,509.0,532.0
498.0,516.0,516.0,528.0
508.0,493.0,524.0,522.0
520.0,471.0,533.0,521.0
522.0,481.0,533.0,518.0
516.0,467.0,538.0,521.0
514.0,472.0,540.0,525.0
512.0,499.0,537.0,529.0
514.0,513.0,535.0,532.0
506.0,514.0,528.0,527.0
512.0,509.0,516.0,521.0
522.0,510.0,511.0,522.0
524.0,498.0,499.0,518.0
521.0,505.0,497.0,516.0
515.0,516.0,492.0,519.0
502.0,533.0,495.0,524.0
497.0,536.0,503.0,526.0
496.0,531.0,510.0,527.0
510.0,496.0,524.0,526.0
527.0,466.0,532.0,526.0
528.0,487.0,536.0,518.0
519.0,519.0,538.0,512.0
522.0,522.0,537.0,512.0
511.0,503.0,528.0,512.0
494.0,544.0,518.0,515.0
501.0,492.0,527.0,523.0
502.0,462.0,519.0,534.0
508.0,488.0,501.0,520.0
519.0,469.0,506.0,523.0
515.0,485.0,508.0,528.0
513.0,490.0,506.0,523.0
508.0,500.0,505.0,524.0
500.0,527.0,504.0,523.0
500.0,569.0,504.0,518.0
495.0,573.0,508.0,514.0
514.0,499.0,511.0,518.0
527.0,457.0,523.0,525.0
528.0,449.0,537.0,522.0
524.0,442.0,547.0,520.0
518.0,501.0,522.0,521.0
501.0,547.0,520.0,520.0
494.0,538.0,518.0,514.0
496.0,548.0,514.0,521.0
497.0,548.0,512.0,524.0
508.0,539.0,507.0,530.0
517.0,519.0,505.0,530.0
508.0,534.0,502.0,532.0
504.0,550.0,506.0,531.0
502.0,528.0,505.0,535.0
502.0,563.0,499.0,528.0
504.0,489.0,497.0,526.0
519.0,423.0,506.0,529.0
519.0,452.0,522.0,527.0
522.0,446.0,541.0,525.0
522.0,473.0,543.0,524.0
520.0,473.0,543.0,525.0
519.0,517.0,537.0,522.0
504.0,575.0,518.0,509.0
495.0,505.0,504.0,503.0
491.0,480.0,500.0,507.0
496.0,505.0,496.0,515.0
519.0,476.0,498.0,517.0
522.0,496.0,499.0,523.0
515.0,516.0,500.0,527.0
516.0,512.0,494.0,533.0
505.0,534.0,491.0,530.0
511.0,486.0,498.0,535.0
510.0,490.0,515.0,540.0
520.0,489.0,526.0,536.0
532.0,468.0,537.0,532.0
531.0,456.0,543.0,530.0
528.0,434.0,544.0,520.0
518.0,492.0,537.0,504.0
497.0,576.0,525.0,504.0
492.0,609.0,512.0,508.0
485.0,614.0,504.0,505.0
488.0,575.0,497.0,506.0
508.0,483.0,499.0,510.0
515.0,449.0,502.0,518.0
511.0,468.0,509.0,528.0
506.0,496.0,510.0,533.0
496.0,498.0,509.0,535.0
487.0,506.0,500.0,528.0
506.0,481.0,503.0,527.0
522.0,467.0,509.0,526.0
527.0,484.0,508.0,521.0
546.0,490.0,519.0,517.0
535.0,514.0,526.0,517.0
525.0,502.0,523.0,520.0
518.0,512.0,521.0,520.0
511.0,540.0,514.0,524.0
502.0,513.0,520.0,525.0
499.0,546.0,523.0,526.0
509.0,535.0,522.0,522.0
513.0,502.0,521.0,530.0
519.0,478.0,515.0,525.0
517.0,491.0,514.0,523.0
516.0,508.0,495.0,519.0
504.0,529.0,484.0,519.0
500.0,522.0,489.0,517.0
498.0,515.0,498.0,523.0
516.0,496.0,501.0,524.0
517.0,478.0,505.0,521.0
526.0,460.0,518.0,518.0
528.0,462.0,530.0,520.0
521.0,457.0,539.0,526.0
514.0,498.0,539.0,523.0
497.0,537.0,524.0,514.0
491.0,546.0,517.0,507.0
495.0,528.0,517.0,504.0
496.0,540.0,508.0,508.0
517.0,517.0,510.0,512.0
523.0,477.0,500.0,517.0
522.0,481.0,495.0,523.0
519.0,485.0,489.0,528.0
505.0,507.0,493.0,528.0
499.0,518.0,498.0,527.0
497.0,515.0,505.0,529.0
503.0,590.0,508.0,523.0
518.0,519.0,518.0,512.0
532.0,480.0,524.0,511.0
524.0,497.0,526.0,508.0
521.0,427.0,526.0,510.0
508.0,461.0,520.0,518.0
506.0,464.0,516.0,516.0
506.0,492.0,512.0,518.0
501.0,527.0,513.0,518.0
510.0,540.0,513.0,526.0
515.0,519.0,502.0,525.0
511.0,522.0,495.0,525.0
514.0,527.0,490.0,526.0
501.0,527.0,489.0,529.0
498.0,537.0,493.0,527.0
493.0,536.0,508.0,526.0
505.0,490.0,521.0,529.0
515.0,471.0,511.0,521.0
528.0,506.0,509.0,514.0
525.0,510.0,530.0,520.0
521.0,479.0,525.0,518.0
515.0,506.0,518.0,520.0
492.0,578.0,517.0,524.0
489.0,522.0,515.0,524.0
496.0,489.0,515.0,526.0
507.0,462.0,512.0,523.0
515.0,461.0,520.0,529.0
521.0,464.0,513.0,530.0
516.0,481.0,496.0,529.0
518.0,475.0,498.0,523.0
514.0,523.0,486.0,519.0
510.0,521.0,482.0,519.0
512.0,495.0,494.0,520.0
508.0,511.0,505.0,520.0
519.0,498.0,518.0,522.0
539.0,490.0,518.0,515.0
530.0,518.0,521.0,514.0
519.0,482.0,525.0,515.0
509.0,493.0,526.0,524.0
498.0,503.0,520.0,524.0
495.0,517.0,516.0,517.0
506.0,516.0,515.0,516.0
509.0,511.0,498.0,519.0
516.0,478.0,499.0,523.0
508.0,519.0,496.0,522.0
509.0,519.0,498.0,528.0
509.0,551.0,493.0,527.0
509.0,499.0,490.0,529.0
510.0,475.0,493.0,527.0
499.0,523.0,496.0,528.0
521.0,496.0,503.0,525.0
530.0,492.0,519.0,523.0
529.0,512.0,529.0,518.0
523.0,509.0,535.0,525.0
515.0,519.0,530.0,524.0
497.0,549.0,518.0,519.0
491.0,508.0,513.0,519.0
492.0,517.0,508.0,518.0
498.0,495.0,500.0,518.0
507.0,464.0,497.0,517.0
519.0,464.0,492.0,514.0
515.0,490.0,491.0,514.0
512.0,501.0,492.0,529.0
506.0,513.0,492.0,530.0
503.0,527.0,485.0,528.0
517.0,528.0,497.0,528.0
517.0,518.0,502.0,526.0
523.0,519.0,517.0,521.0
525.0,480.0,532.0,524.0
524.0,469.0,523.0,520.0
519.0,477.0,518.0,515.0
515.0,506.0,523.0,520.0
504.0,512.0,516.0,518.0
497.0,509.0,514.0,521.0
497.0,504.0,512.0,520.0
506.0,501.0,505.0,517.0
511.0,487.0,499.0,522.0
518.0,480.0,500.0,527.0
512.0,498.0,493.0,525.0
512.0,507.0,489.0,532.0
507.0,535.0,490.0,537.0
507.0,517.0,495.0,537.0
504.0,518.0,504.0,531.0
507.0,515.0,515.0,530.0
515.0,506.0,520.0,527.0
523.0,484.0,526.0,516.0
524.0,495.0,520.0,510.0
520.0,480.0,519.0,511.0
510.0,491.0,515.0,509.0
498.0,528.0,517.0,514.0
493.0,548.0,505.0,515.0
490.0,560.0,504.0,519.0
499.0,524.0,500.0,518.0
514.0,483.0,493.0,520.0
513.0,492.0,498.0,522.0
514.0,480.0,493.0,526.0
514.0,479.0,487.0,529.0
506.0,510.0,490.0,523.0
505.0,521.0,493.0,522.0
511.0,520.0,496.0,517.0
510.0,508.0,501.0,519.0
521.0,486.0,516.0,517.0
523.0,476.0,522.0,516.0
514.0,480.0,524.0,518.0
513.0,477.0,527.0,516.0
505.0,479.0,521.0,522.0
507.0,495.0,511.0,517.0
503.0,502.0,505.0,511.0
495.0,532.0,499.0,515.0
506.0,515.0,496.0,515.0
526.0,503.0,496.0,515.0
519.0,522.0,495.0,518.0
513.0,549.0,494.0,525.0
514.0,527.0,492.0,528.0
516.0,488.0,495.0,531.0
511.0,522.0,502.0,527.0
510.0,526.0,506.0,525.0
509.0,515.0,511.0,524.0
519.0,495.0,521.0,516.0
518.0,487.0,523.0,515.0
513.0,489.0,522.0,513.0
509.0,485.0,519.0,515.0
499.0,500.0,511.0,516.0
507.0,506.0,505.0,515.0
504.0,520.0,513.0,518.0
505.0,513.0,505.0,520.0
514.0,500.0,501.0,520.0
515.0,485.0,502.0,520.0
514.0,493.0,498.0,523.0
507.0,478.0,494.0,530.0
499.0,526.0,495.0,531.0
498.0,566.0,501.0,528.0
495.0,561.0,500.0,526.0
512.0,532.0,509.0,523.0
522.0,462.0,517.0,524.0
526.0,478.0,525.0,519.0
520.0,496.0,519.0,513.0
516.0,472.0,523.0,513.0
506.0,498.0,517.0,515.0
498.0,502.0,513.0,514.0
494.0,509.0,523.0,522.0
492.0,508.0,515.0,518.0
495.0,539.0,484.0,515.0
504.0,511.0,505.0,529.0
508.0,507.0,511.0,532.0
511.0,493.0,492.0,522.0
513.0,501.0,497.0,527.0
509.0,538.0,496.0,525.0
509.0,536.0,495.0,524.0
510.0,501.0,503.0,521.0
516.0,479.0,510.0,523.0
526.0,483.0,519.0,525.0
525.0,489.0,525.0,515.0
521.0,479.0,524.0,512.0
519.0,495.0,525.0,511.0
509.0,506.0,519.0,516.0
499.0,517.0,520.0,517.0
493.0,528.0,507.0,513.0
498.0,539.0,499.0,512.0
501.0,515.0,496.0,522.0
511.0,497.0,495.0,523.0
516.0,490.0,498.0,527.0
517.0,495.0,499.0,531.0
511.0,513.0,498.0,534.0
506.0,522.0,502.0,531.0
495.0,536.0,502.0,526.0
496.0,551.0,503.0,517.0
510.0,518.0,516.0,522.0
530.0,448.0,528.0,519.0
528.0,445.0,527.0,513.0
522.0,480.0,520.0,514.0
515.0,499.0,521.0,514.0
500.0,505.0,515.0,515.0
499.0,516.0,512.0,515.0
495.0,518.0,505.0,514.0
503.0,517.0,499.0,512.0
513.0,503.0,498.0,518.0
523.0,495.0,499.0,522.0
516.0,505.0,500.0,522.0
518.0,501.0,495.0,528.0
506.0,519.0,496.0,532.0
505.0,506.0,499.0,529.0
506.0,499.0,506.0,529.0
510.0,492.0,506.0,525.0
520.0,479.0,515.0,519.0
532.0,501.0,522.0,518.0
524.0,502.0,530.0,520.0
518.0,502.0,522.0,520.0
507.0,517.0,523.0,521.0
498.0,528.0,517.0,517.0
492.0,529.0,512.0,515.0
494.0,526.0,504.0,520.0
506.0,506.0,502.0,521.0
518.0,482.0,499.0,527.0
516.0,474.0,498.0,525.0
513.0,487.0,495.0,524.0
514.0,490.0,496.0,522.0
501.0,531.0,494.0,524.0
505.0,517.0,499.0,522.0
501.0,524.0,506.0,521.0
516.0,519.0,512.0,516.0
522.0,484.0,517.0,509.0
534.0,475.0,524.0,509.0
530.0,477.0,523.0,508.0
521.0,489.0,525.0,510.0
500.0,532.0,526.0,515.0
493.0,534.0,510.0,516.0
489.0,572.0,497.0,515.0
503.0,544.0,501.0,517.0
507.0,554.0,504.0,520.0
515.0,485.0,506.0,524.0
519.0,454.0,500.0,525.0
516.0,461.0,506.0,527.0
508.0,496.0,497.0,525.0
500.0,529.0,493.0,526.0
501.0,529.0,493.0,523.0
510.0,505.0,500.0,519.0
519.0,492.0,506.0,517.0
527.0,469.0,521.0,516.0
529.0,470.0,526.0,519.0
517.0,487.0,527.0,512.0
513.0,506.0,528.0,518.0
494.0,532.0,520.0,513.0
499.0,525.0,511.0,512.0
497.0,553.0,506.0,513.0
500.0,545.0,503.0,519.0
507.0,513.0,502.0,522.0
523.0,436.0,498.0,524.0
522.0,449.0,497.0,527.0
521.0,494.0,501.0,526.0
509.0,526.0,495.0,528.0
505.0,538.0,504.0,527.0
503.0,524.0,506.0,525.0
513.0,503.0,513.0,520.0
517.0,486.0,518.0,518.0
523.0,469.0,521.0,510.0
516.0,478.0,524.0,514.0
510.0,477.0,525.0,514.0
498.0,484.0,521.0,516.0
489.0,508.0,519.0,513.0
495.0,523.0,516.0,516.0
506.0,529.0,508.0,512.0
518.0,536.0,503.0,516.0
530.0,509.0,503.0,522.0
525.0,492.0,501.0,523.0
520.0,493.0,499.0,524.0
515.0,513.0,500.0,526.0
504.0,535.0,505.0,527.0
512.0,507.0,505.0,520.0
506.0,494.0,505.0,520.0
513.0,489.0,509.0,518.0
528.0,458.0,515.0,514.0
528.0,460.0,524.0,513.0
522.0,468.0,528.0,512.0
512.0,510.0,532.0,514.0
495.0,558.0,520.0,514.0
486.0,553.0,513.0,512.0
489.0,530.0,509.0,513.0
490.0,512.0,508.0,516.0
509.0,492.0,506.0,520.0
516.0,465.0,505.0,524.0
519.0,475.0,504.0,524.0
518.0,473.0,500.0,525.0
511.0,517.0,497.0,528.0
511.0,543.0,500.0,528.0
504.0,551.0,507.0,528.0
505.0,535.0,507.0,528.0
523.0,509.0,520.0,521.0
525.0,473.0,531.0,522.0
530.0,464.0,531.0,521.0
521.0,496.0,531.0,516.0
514.0,505.0,522.0,514.0
499.0,536.0,516.0,512.0
495.0,531.0,516.0,516.0
494.0,532.0,518.0,519.0
502.0,508.0,508.0,522.0
514.0,491.0,505.0,527.0
519.0,496.0,507.0,521.0
518.0,485.0,498.0,520.0
515.0,499.0,497.0,523.0
503.0,523.0,498.0,527.0
502.0,528.0,499.0,529.0
503.0,531.0,506.0,522.0
511.0,507.0,516.0,526.0
522.0,492.0,523.0,523.0
527.0,482.0,530.0,515.0
523.0,473.0,529.0,509.0
519.0,474.0,522.0,506.0
511.0,489.0,518.0,511.0
502.0,511.0,517.0,509.0
499.0,522.0,512.0,513.0
498.0,530.0,508.0,515.0
504.0,516.0,503.0,515.0
519.0,490.0,505.0,517.0
517.0,502.0,504.0,522.0
516.0,506.0,503.0,525.0
518.0,513.0,501.0,528.0
506.0,530.0,501.0,527.0
508.0,507.0,503.0,526.0
503.0,510.0,506.0,528.0
508.0,525.0,513.0,523.0
522.0,505.0,521.0,517.0
523.0,488.0,530.0,514.0
525.0,443.0,534.0,516.0
526.0,441.0,533.0,509.0
500.0,514.0,530.0,515.0
500.0,529.0,516.0,509.0
494.0,546.0,504.0,504.0
501.0,528.0,503.0,510.0
516.0,502.0,503.0,517.0
518.0,475.0,504.0,521.0
516.0,477.0,508.0,522.0
521.0,481.0,497.0,522.0
516.0,511.0,502.0,526.0
507.0,518.0,499.0,526.0
508.0,521.0,503.0,523.0
504.0,522.0,501.0,522.0
516.0,510.0,512.0,518.0
525.0,485.0,528.0,516.0
522.0,488.0,527.0,517.0
514.0,490.0,530.0,517.0
514.0,492.0,524.0,516.0
501.0,519.0,517.0,514.0
498.0,513.0,517.0,513.0
497.0,518.0,514.0,511.0
503.0,500.0,512.0,515.0
514.0,484.0,502.0,514.0
518.0,491.0,500.0,519.0
514.0,524.0,499.0,520.0
513.0,563.0,502.0,524.0
502.0,567.0,499.0,527.0
506.0,514.0,504.0,529.0
509.0,467.0,509.0,529.0
517.0,471.0,520.0,526.0
523.0,463.0,515.0,515.0
527.0,462.0,521.0,512.0
528.0,477.0,530.0,514.0
519.0,480.0,536.0,514.0
511.0,520.0,526.0,515.0
501.0,536.0,520.0,516.0
501.0,524.0,513.0,514.0
494.0,535.0,513.0,514.0
505.0,496.0,516.0,517.0
508.0,485.0,501.0,522.0
510.0,507.0,499.0,521.0
514.0,520.0,491.0,517.0
513.0,545.0,492.0,523.0
507.0,549.0,495.0,524.0
514.0,511.0,504.0,525.0
507.0,490.0,514.0,526.0
514.0,491.0,516.0,521.0
526.0,473.0,521.0,519.0
521.0,501.0,528.0,521.0
522.0,485.0,531.0,517.0
513.0,455.0,532.0,515.0
499.0,508.0,525.0,525.0
504.0,521.0,520.0,515.0
510.0,520.0,506.0,509.0
507.0,535.0,499.0,512.0
512.0,509.0,505.0,519.0
517.0,485.0,513.0,523.0
515.0,473.0,512.0,525.0
512.0,505.0,508.0,523.0
507.0,535.0,498.0,520.0
512.0,529.0,503.0,521.0
508.0,519.0,508.0,523.0
512.0,502.0,513.0,520.0
520.0,497.0,517.0,515.0
525.0,482.0,523.0,508.0
523.0,479.0,518.0,504.0
518.0,484.0,522.0,499.0
514.0,487.0,520.0,512.0
502.0,502.0,517.0,508.0
504.0,505.0,518.0,510.0
495.0,525.0,514.0,511.0
498.0,517.0,502.0,516.0
509.0,506.0,502.0,516.0
517.0,495.0,500.0,520.0
519.0,492.0,498.0,519.0
522.0,496.0,500.0,522.0
503.0,523.0,499.0,525.0
503.0,516.0,502.0,525.0
495.0,532.0,503.0,520.0
508.0,507.0,507.0,518.0
519.0,516.0,519.0,515.0
528.0,499.0,524.0,515.0
527.0,480.0,529.0,514.0
526.0,448.0,525.0,514.0
512.0,472.0,522.0,514.0
506.0,506.0,521.0,514.0
497.0,515.0,517.0,515.0
496.0,531.0,506.0,514.0
506.0,509.0,504.0,514.0
515.0,491.0,504.0,520.0
516.0,499.0,502.0,522.0
516.0,497.0,507.0,526.0
510.0,501.0,502.0,531.0
507.0,511.0,504.0,529.0
505.0,503.0,507.0,526.0
501.0,517.0,507.0,520.0
511.0,491.0,512.0,518.0
527.0,473.0,522.0,515.0
529.0,487.0,527.0,513.0
522.0,487.0,525.0,514.0
513.0,503.0,528.0,513.0
500.0,523.0,526.0,515.0
500.0,519.0,529.0,519.0
497.0,524.0,523.0,519.0
501.0,528.0,507.0,517.0
504.0,522.0,501.0,514.0
514.0,498.0,499.0,518.0
516.0,489.0,496.0,523.0
510.0,491.0,491.0,524.0
496.0,502.0,499.0,527.0
493.0,510.0,504.0,524.0
498.0,510.0,503.0,523.0
502.0,511.0,515.0,517.0
511.0,516.0,522.0,519.0
532.0,498.0,530.0,515.0
541.0,507.0,533.0,512.0
528.0,486.0,527.0,513.0
514.0,506.0,520.0,507.0
495.0,536.0,517.0,509.0
497.0,544.0,513.0,511.0
494.0,522.0,514.0,514.0
510.0,520.0,509.0,518.0
523.0,457.0,513.0,522.0
522.0,472.0,505.0,522.0
520.0,497.0,500.0,522.0
517.0,516.0,495.0,524.0
506.0,542.0,492.0,529.0
515.0,521.0,498.0,525.0
509.0,508.0,503.0,525.0
513.0,484.0,518.0,525.0
521.0,479.0,526.0,524.0
527.0,470.0,536.0,519.0
522.0,492.0,533.0,511.0
516.0,496.0,524.0,509.0
504.0,514.0,521.0,513.0
498.0,526.0,512.0,510.0
490.0,521.0,505.0,509.0
491.0,506.0,503.0,506.0
501.0,508.0,501.0,513.0
513.0,508.0,501.0,513.0
510.0,513.0,502.0,520.0
520.0,498.0,508.0,524.0
520.0,479.0,508.0,525.0
508.0,516.0,501.0,521.0
505.0,540.0,498.0,517.0
505.0,566.0,499.0,516.0
513.0,515.0,511.0,517.0
530.0,443.0,523.0,517.0
526.0,443.0,523.0,513.0
522.0,474.0,523.0,512.0
515.0,483.0,525.0,515.0
504.0,502.0,525.0,515.0
502.0,509.0,520.0,515.0
503.0,488.0,517.0,507.0
506.0,479.0,499.0,505.0
507.0,488.0,502.0,515.0
517.0,487.0,504.0,518.0
519.0,530.0,503.0,526.0
515.0,523.0,503.0,527.0
503.0,533.0,503.0,530.0
503.0,530.0,504.0,531.0
501.0,531.0,507.0,525.0
506.0,507.0,509.0,523.0
519.0,489.0,517.0,516.0
527.0,492.0,521.0,512.0
526.0,504.0,524.0,507.0
520.0,495.0,525.0,509.0
510.0,502.0,532.0,510.0
493.0,532.0,517.0,510.0
501.0,525.0,510.0,508.0
494.0,528.0,509.0,510.0
505.0,513.0,508.0,514.0
519.0,481.0,508.0,520.0
517.0,473.0,500.0,523.0
513.0,499.0,502.0,530.0
513.0,510.0,501.0,532.0
500.0,530.0,502.0,534.0
504.0,521.0,504.0,534.0
503.0,520.0,509.0,533.0
508.0,507.0,522.0,531.0
521.0,491.0,531.0,523.0
531.0,479.0,534.0,507.0
524.0,474.0,535.0,513.0
517.0,484.0,535.0,512.0
503.0,517.0,524.0,506.0
496.0,518.0,508.0,499.0
496.0,518.0,504.0,500.0
500.0,512.0,500.0,502.0
507.0,514.0,501.0,506.0
516.0,503.0,502.0,510.0
516.0,498.0,508.0,520.0
513.0,499.0,503.0,530.0
507.0,510.0,501.0,528.0
498.0,532.0,498.0,522.0
504.0,520.0,500.0,519.0
516.0,510.0,503.0,515.0
526.0,493.0,513.0,516.0
531.0,480.0,522.0,514.0
527.0,482.0,526.0,514.0
524.0,485.0,526.0,514.0
518.0,487.0,525.0,513.0
500.0,517.0,518.0,512.0
499.0,518.0,518.0,511.0
499.0,524.0,519.0,513.0
507.0,502.0,515.0,512.0
512.0,494.0,504.0,512.0
519.0,490.0,501.0,514.0
515.0,490.0,503.0,521.0
515.0,498.0,501.0,524.0
506.0,528.0,497.0,525.0
496.0,530.0,503.0,524.0
499.0,524.0,505.0,525.0
509.0,515.0,512.0,520.0
519.0,487.0,522.0,523.0
523.0,475.0,529.0,518.0
520.0,497.0,531.0,513.0
519.0,495.0,531.0,507.0
516.0,511.0,522.0,508.0
503.0,484.0,515.0,510.0
508.0,481.0,513.0,510.0
497.0,518.0,509.0,513.0
498.0,523.0,505.0,514.0
513.0,490.0,504.0,515.0
516.0,492.0,503.0,519.0
518.0,486.0,501.0,526.0
518.0,483.0,499.0,523.0
499.0,506.0,498.0,526.0
498.0,504.0,502.0,524.0
513.0,500.0,508.0,522.0
523.0,515.0,514.0,517.0
527.0,501.0,523.0,516.0
528.0,497.0,530.0,513.0
526.0,507.0,529.0,513.0
517.0,504.0,529.0,512.0
498.0,529.0,522.0,511.0
490.0,561.0,513.0,512.0
495.0,557.0,514.0,509.0
499.0,530.0,510.0,515.0
510.0,495.0,505.0,513.0
514.0,462.0,503.0,518.0
521.0,452.0,503.0,520.0
524.0,484.0,499.0,524.0
512.0,505.0,502.0,524.0
495.0,521.0,498.0,527.0
497.0,511.0,503.0,525.0
501.0,521.0,508.0,521.0
510.0,512.0,515.0,522.0
525.0,477.0,528.0,517.0
530.0,482.0,531.0,509.0
528.0,476.0,529.0,506.0
520.0,477.0,526.0,509.0
505.0,483.0,525.0,511.0
498.0,496.0,518.0,511.0
492.0,537.0,515.0,511.0
502.0,537.0,507.0,513.0
505.0,539.0,504.0,515.0
507.0,530.0,501.0,518.0
516.0,532.0,500.0,522.0
522.0,531.0,495.0,523.0
521.0,513.0,501.0,523.0
517.0,487.0,501.0,527.0
505.0,539.0,508.0,521.0
504.0,552.0,511.0,523.0
512.0,548.0,516.0,514.0
527.0,459.0,520.0,513.0
525.0,454.0,527.0,514.0
522.0,450.0,528.0,517.0
516.0,476.0,526.0,512.0
501.0,513.0,519.0,513.0
504.0,508.0,518.0,516.0
499.0,508.0,520.0,515.0
504.0,502.0,509.0,515.0
519.0,492.0,501.0,515.0
523.0,486.0,501.0,521.0
519.0,494.0,501.0,522.0
517.0,495.0,500.0,526.0
507.0,520.0,500.0,526.0
509.0,521.0,500.0,529.0
507.0,520.0,505.0,519.0
511.0,518.0,510.0,517.0
522.0,491.0,522.0,513.0
522.0,483.0,525.0,511.0
517.0,494.0,530.0,510.0
513.0,498.0,526.0,512.0
500.0,510.0,522.0,512.0
496.0,504.0,525.0,515.0
504.0,502.0,524.0,513.0
504.0,504.0,513.0,513.0
508.0,518.0,508.0,519.0
517.0,511.0,502.0,522.0
515.0,501.0,497.0,521.0
519.0,494.0,500.0,523.0
513.0,512.0,501.0,521.0
501.0,534.0,500.0,522.0
509.0,516.0,497.0,521.0
507.0,514.0,507.0,522.0
516.0,497.0,513.0,516.0
527.0,483.0,514.0,505.0
522.0,497.0,530.0,509.0
516.0,498.0,528.0,509.0
510.0,494.0,534.0,509.0
499.0,502.0,518.0,510.0
501.0,500.0,513.0,510.0
501.0,514.0,509.0,511.0
505.0,541.0,500.0,513.0
510.0,528.0,504.0,514.0
516.0,507.0,507.0,521.0
522.0,489.0,511.0,528.0
516.0,495.0,505.0,529.0
508.0,522.0,495.0,528.0
495.0,537.0,503.0,527.0
512.0,518.0,502.0,522.0
506.0,506.0,509.0,521.0
521.0,472.0,523.0,520.0
529.0,461.0,529.0,510.0
524.0,465.0,527.0,506.0
520.0,480.0,527.0,506.0
511.0,510.0,516.0,510.0
498.0,523.0,514.0,513.0
503.0,511.0,516.0,512.0
502.0,511.0,516.0,508.0
502.0,503.0,519.0,516.0
510.0,517.0,511.0,519.0
516.0,535.0,500.0,519.0
515.0,530.0,496.0,516.0
517.0,455.0,493.0,519.0
502.0,498.0,494.0,520.0
505.0,522.0,501.0,519.0
504.0,528.0,506.0,518.0
511.0,517.0,513.0,516.0
522.0,488.0,522.0,510.0
522.0,477.0,524.0,509.0
523.0,490.0,523.0,508.0
523.0,479.0,524.0,510.0
508.0,506.0,515.0,509.0
498.0,521.0,507.0,511.0
502.0,515.0,510.0,515.0
498.0,531.0,513.0,517.0
512.0,517.0,517.0,519.0
515.0,494.0,516.0,519.0
518.0,488.0,504.0,520.0
515.0,496.0,502.0,520.0
512.0,509.0,502.0,526.0
500.0,516.0,506.0,525.0
504.0,503.0,502.0,522.0
498.0,508.0,508.0,520.0
512.0,494.0,514.0,515.0
520.0,490.0,523.0,510.0
526.0,474.0,526.0,512.0
523.0,472.0,531.0,509.0
518.0,483.0,523.0,511.0
507.0,511.0,519.0,512.0
495.0,519.0,515.0,508.0
495.0,536.0,510.0,511.0
496.0,529.0,504.0,511.0
511.0,499.0,507.0,516.0
516.0,499.0,504.0,524.0
509.0,484.0,505.0,522.0
514.0,501.0,500.0,522.0
507.0,547.0,496.0,523.0
508.0,546.0,499.0,520.0
515.0,521.0,506.0,518.0
517.0,515.0,513.0,520.0
524.0,489.0,522.0,518.0
526.0,470.0,530.0,514.0
522.0,486.0,525.0,511.0
519.0,495.0,528.0,510.0
513.0,503.0,523.0,511.0
498.0,524.0,516.0,516.0
500.0,514.0,517.0,513.0
494.0,515.0,512.0,511.0
502.0,509.0,503.0,513.0
514.0,492.0,507.0,514.0
518.0,489.0,504.0,520.0
517.0,491.0,501.0,522.0
518.0,496.0,499.0,525.0
510.0,515.0,502.0,527.0
510.0,487.0,511.0,525.0
507.0,492.0,509.0,518.0
506.0,502.0,516.0,517.0
513.0,529.0,524.0,518.0
516.0,540.0,528.0,517.0
510.0,564.0,531.0,511.0
521.0,459.0,528.0,507.0
506.0,501.0,526.0,511.0
499.0,525.0,516.0,511.0
503.0,512.0,509.0,510.0
501.0,495.0,506.0,512.0
506.0,495.0,506.0,515.0
522.0,489.0,507.0,520.0
519.0,510.0,507.0,523.0
520.0,490.0,505.0,524.0
511.0,497.0,500.0,530.0
507.0,513.0,499.0,524.0
510.0,506.0,503.0,523.0
503.0,526.0,509.0,519.0
515.0,502.0,516.0,515.0
524.0,484.0,530.0,511.0
525.0,484.0,533.0,511.0
521.0,483.0,526.0,506.0
519.0,493.0,522.0,506.0
500.0,520.0,517.0,504.0
502.0,511.0,512.0,500.0
494.0,527.0,509.0,506.0
498.0,523.0,511.0,513.0
503.0,495.0,508.0,513.0
511.0,484.0,500.0,515.0
512.0,478.0,500.0,518.0
520.0,491.0,499.0,520.0
507.0,514.0,498.0,529.0
504.0,535.0,504.0,529.0
509.0,530.0,511.0,529.0
514.0,505.0,516.0,525.0
521.0,479.0,529.0,521.0
529.0,479.0,531.0,515.0
523.0,490.0,525.0,509.0
519.0,496.0,517.0,502.0
514.0,513.0,519.0,503.0
500.0,528.0,515.0,503.0
503.0,506.0,518.0,506.0
497.0,509.0,513.0,509.0
504.0,520.0,501.0,506.0
511.0,503.0,501.0,512.0
515.0,492.0,506.0,513.0
516.0,501.0,502.0,520.0
515.0,506.0,495.0,524.0
499.0,534.0,497.0,526.0
504.0,522.0,500.0,520.0
504.0,525.0,509.0,518.0
514.0,504.0,516.0,518.0
520.0,480.0,527.0,515.0
522.0,473.0,524.0,512.0
520.0,483.0,533.0,510.0
522.0,490.0,529.0,510.0
508.0,518.0,520.0,506.0
500.0,520.0,512.0,504.0
497.0,496.0,508.0,510.0
498.0,483.0,511.0,512.0
504.0,484.0,510.0,516.0
514.0,481.0,506.0,521.0
514.0,497.0,506.0,522.0
514.0,504.0,503.0,520.0
509.0,515.0,497.0,521.0
502.0,544.0,499.0,520.0
518.0,514.0,508.0,521.0
517.0,508.0,509.0,520.0
521.0,499.0,517.0,516.0
527.0,476.0,525.0,514.0
522.0,482.0,528.0,512.0
518.0,479.0,532.0,506.0
514.0,507.0,521.0,506.0
501.0,542.0,521.0,507.0
506.0,528.0,514.0,508.0
503.0,539.0,509.0,510.0
504.0,524.0,505.0,510.0
519.0,490.0,507.0,516.0
518.0,484.0,502.0,517.0
516.0,498.0,502.0,522.0
516.0,496.0,501.0,525.0
506.0,524.0,498.0,525.0
506.0,525.0,502.0,524.0
510.0,522.0,507.0,522.0
511.0,512.0,512.0,521.0
523.0,494.0,522.0,515.0
527.0,485.0,531.0,513.0
523.0,485.0,533.0,512.0
516.0,489.0,532.0,512.0
510.0,503.0,521.0,511.0
493.0,526.0,515.0,512.0
497.0,518.0,514.0,512.0
494.0,505.0,512.0,516.0
503.0,505.0,510.0,515.0
513.0,518.0,515.0,523.0
516.0,523.0,511.0,523.0
515.0,554.0,501.0,525.0
516.0,468.0,503.0,525.0
504.0,482.0,499.0,522.0
504.0,497.0,501.0,519.0
513.0,506.0,504.0,515.0
520.0,498.0,510.0,511.0
523.0,490.0,516.0,513.0
523.0,491.0,531.0,510.0
519.0,472.0,529.0,506.0
516.0,475.0,529.0,507.0
503.0,509.0,518.0,509.0
504.0,510.0,516.0,508.0
504.0,503.0,508.0,508.0
504.0,497.0,507.0,512.0
508.0,506.0,508.0,516.0
518.0,496.0,505.0,522.0
511.0,507.0,505.0,523.0
511.0,524.0,503.0,523.0
512.0,519.0,499.0,518.0
502.0,527.0,497.0,517.0
506.0,511.0,504.0,518.0
506.0,509.0,508.0,517.0
514.0,491.0,515.0,511.0
524.0,474.0,522.0,513.0
523.0,486.0,529.0,511.0
523.0,515.0,525.0,507.0
517.0,526.0,522.0,508.0
506.0,510.0,523.0,507.0
503.0,509.0,521.0,509.0
497.0,519.0,514.0,507.0
502.0,518.0,510.0,513.0
503.0,503.0,507.0,514.0
511.0,486.0,502.0,518.0
511.0,483.0,502.0,521.0
512.0,503.0,502.0,521.0
501.0,540.0,496.0,520.0
504.0,528.0,502.0,523.0
511.0,507.0,507.0,519.0
512.0,505.0,511.0,518.0
516.0,492.0,521.0,514.0
526.0,469.0,528.0,509.0
526.0,459.0,528.0,511.0
527.0,492.0,529.0,507.0
511.0,510.0,523.0,510.0
490.0,551.0,517.0,511.0
495.0,506.0,514.0,514.0
494.0,509.0,510.0,513.0
503.0,523.0,505.0,519.0
515.0,490.0,504.0,527.0
515.0,493.0,507.0,524.0
515.0,505.0,504.0,520.0
512.0,502.0,504.0,526.0
502.0,535.0,506.0,525.0
513.0,531.0,505.0,516.0
508.0,523.0,505.0,518.0
505.0,528.0,515.0,516.0
521.0,504.0,526.0,513.0
524.0,484.0,525.0,510.0
520.0,486.0,531.0,509.0
517.0,488.0,526.0,509.0
506.0,500.0,520.0,510.0
502.0,501.0,513.0,507.0
502.0,500.0,513.0,509.0
498.0,508.0,514.0,512.0
504.0,500.0,509.0,514.0
513.0,490.0,498.0,515.0
511.0,494.0,502.0,520.0
519.0,507.0,499.0,525.0
513.0,533.0,503.0,527.0
514.0,541.0,504.0,523.0
519.0,514.0,506.0,518.0
516.0,500.0,508.0,518.0
518.0,494.0,518.0,519.0
525.0,470.0,531.0,518.0
523.0,507.0,533.0,513.0
516.0,527.0,528.0,507.0
511.0,531.0,521.0,502.0
499.0,487.0,512.0,508.0
498.0,503.0,508.0,508.0
498.0,513.0,509.0,510.0
501.0,499.0,507.0,511.0
511.0,473.0,509.0,518.0
517.0,472.0,512.0,522.0
517.0,488.0,504.0,523.0
527.0,516.0,496.0,520.0
503.0,559.0,497.0,522.0
498.0,545.0,503.0,526.0
508.0,523.0,513.0,523.0
518.0,502.0,518.0,519.0
518.0,491.0,519.0,515.0
526.0,473.0,526.0,511.0
524.0,471.0,529.0,510.0
522.0,472.0,527.0,507.0
508.0,499.0,518.0,508.0
489.0,528.0,512.0,510.0
495.0,527.0,510.0,510.0
495.0,531.0,511.0,506.0
502.0,508.0,501.0,510.0
516.0,499.0,505.0,514.0
517.0,494.0,502.0,516.0
518.0,503.0,498.0,519.0
516.0,511.0,504.0,522.0
507.0,529.0,506.0,526.0
502.0,540.0,509.0,526.0
504.0,536.0,508.0,521.0
513.0,517.0,510.0,508.0
524.0,465.0,514.0,505.0
526.0,453.0,525.0,504.0
526.0,466.0,526.0,505.0
522.0,475.0,527.0,505.0
509.0,501.0,520.0,508.0
499.0,519.0,514.0,511.0
500.0,526.0,512.0,508.0
497.0,525.0,507.0,508.0
508.0,508.0,504.0,513.0
517.0,496.0,505.0,515.0
514.0,501.0,502.0,521.0
513.0,502.0,500.0,525.0
508.0,514.0,504.0,531.0
495.0,552.0,504.0,525.0
501.0,535.0,507.0,524.0
496.0,541.0,509.0,524.0
509.0,517.0,519.0,520.0
515.0,468.0,524.0,512.0
521.0,474.0,529.0,503.0
519.0,467.0,528.0,502.0
524.0,455.0,523.0,503.0
510.0,528.0,518.0,508.0
507.0,516.0,517.0,507.0
504.0,509.0,508.0,509.0
499.0,516.0,505.0,511.0
512.0,494.0,504.0,513.0
516.0,493.0,503.0,514.0
519.0,497.0,500.0,516.0
513.0,490.0,495.0,523.0
501.0,527.0,498.0,523.0
504.0,529.0,502.0,522.0
511.0,521.0,506.0,522.0
511.0,509.0,516.0,521.0
520.0,506.0,528.0,519.0
524.0,491.0,535.0,514.0
524.0,484.0,537.0,517.0
519.0,491.0,532.0,512.0
510.0,506.0,517.0,508.0
504.0,511.0,515.0,508.0
503.0,508.0,512.0,510.0
500.0,507.0,508.0,506.0
505.0,501.0,502.0,513.0
513.0,484.0,503.0,518.0
517.0,495.0,501.0,517.0
514.0,507.0,498.0,522.0
515.0,512.0,507.0,525.0
500.0,545.0,507.0,523.0
500.0,537.0,502.0,516.0
507.0,516.0,501.0,516.0
516.0,496.0,512.0,515.0
524.0,474.0,524.0,509.0
525.0,473.0,529.0,510.0
521.0,480.0,530.0,511.0
519.0,488.0,526.0,508.0
502.0,505.0,522.0,509.0
493.0,507.0,517.0,509.0
501.0,501.0,511.0,510.0
496.0,510.0,506.0,512.0
508.0,514.0,505.0,514.0
515.0,535.0,504.0,517.0
511.0,529.0,500.0,520.0
513.0,505.0,502.0,524.0
507.0,486.0,496.0,528.0
501.0,535.0,500.0,529.0
506.0,527.0,501.0,527.0
515.0,503.0,510.0,524.0
518.0,497.0,519.0,522.0
525.0,473.0,535.0,520.0
520.0,475.0,543.0,518.0
516.0,481.0,540.0,514.0
512.0,501.0,525.0,505.0
498.0,527.0,516.0,504.0
496.0,519.0,511.0,502.0
495.0,500.0,512.0,506.0
506.0,485.0,503.0,508.0
525.0,478.0,498.0,512.0
518.0,506.0,498.0,515.0
514.0,547.0,504.0,517.0
512.0,540.0,500.0,519.0
500.0,541.0,502.0,523.0
501.0,527.0,506.0,521.0
506.0,502.0,513.0,521.0
510.0,503.0,509.0,519.0
523.0,480.0,519.0,515.0
527.0,469.0,523.0,514.0
524.0,479.0,526.0,516.0
518.0,484.0,529.0,516.0
506.0,507.0,524.0,513.0
495.0,526.0,518.0,506.0
498.0,514.0,519.0,506.0
490.0,535.0,511.0,507.0
500.0,526.0,509.0,514.0
512.0,501.0,507.0,514.0
513.0,492.0,497.0,518.0
515.0,458.0,499.0,517.0
519.0,446.0,498.0,519.0
502.0,508.0,496.0,518.0
501.0,524.0,499.0,516.0
505.0,520.0,505.0,514.0
511.0,532.0,514.0,510.0
523.0,502.0,521.0,511.0
523.0,498.0,529.0,507.0
525.0,485.0,529.0,507.0
522.0,492.0,527.0,507.0
503.0,518.0,521.0,507.0
495.0,518.0,516.0,510.0
501.0,512.0,513.0,510.0
501.0,520.0,507.0,513.0
512.0,520.0,505.0,517.0
516.0,506.0,504.0,521.0
512.0,504.0,500.0,520.0
510.0,489.0,504.0,529.0
498.0,525.0,505.0,526.0
504.0,503.0,505.0,526.0
509.0,496.0,500.0,523.0
509.0,513.0,504.0,515.0
522.0,484.0,516.0,510.0
531.0,459.0,527.0,513.0
527.0,481.0,529.0,510.0
521.0,487.0,535.0,510.0
517.0,505.0,530.0,511.0
500.0,517.0,519.0,512.0
499.0,523.0,514.0,510.0
501.0,518.0,508.0,506.0
500.0,512.0,505.0,507.0
515.0,493.0,501.0,508.0
516.0,489.0,503.0,514.0
518.0,498.0,502.0,519.0
516.0,518.0,499.0,522.0
501.0,528.0,497.0,524.0
503.0,513.0,500.0,523.0
510.0,514.0,506.0,523.0
514.0,509.0,514.0,515.0
520.0,505.0,524.0,511.0
527.0,485.0,529.0,512.0
526.0,491.0,529.0,506.0
524.0,492.0,525.0,509.0
501.0,518.0,520.0,506.0
497.0,518.0,516.0,509.0
502.0,510.0,514.0,507.0
498.0,516.0,507.0,511.0
501.0,510.0,509.0,514.0
513.0,505.0,506.0,514.0
516.0,500.0,505.0,518.0
519.0,510.0,502.0,521.0
516.0,519.0,498.0,528.0
504.0,533.0,502.0,522.0
514.0,505.0,503.0,521.0
513.0,510.0,509.0,520.0
521.0,463.0,514.0,517.0
533.0,466.0,525.0,513.0
524.0,492.0,530.0,512.0
518.0,506.0,527.0,509.0
513.0,501.0,527.0,508.0
503.0,515.0,521.0,506.0
499.0,513.0,518.0,508.0
502.0,511.0,513.0,509.0
503.0,510.0,508.0,512.0
505.0,503.0,504.0,515.0
518.0,491.0,505.0,514.0
510.0,488.0,506.0,520.0
514.0,491.0,503.0,523.0
503.0,503.0,496.0,526.0
499.0,509.0,504.0,527.0
505.0,521.0,499.0,518.0
511.0,503.0,515.0,514.0
520.0,493.0,523.0,515.0
527.0,498.0,519.0,517.0
526.0,517.0,527.0,513.0
522.0,512.0,531.0,509.0
510.0,510.0,535.0,512.0
507.0,508.0,523.0,516.0
508.0,498.0,518.0,511.0
499.0,499.0,512.0,513.0
509.0,493.0,502.0,513.0
508.0,506.0,505.0,515.0
513.0,517.0,506.0,519.0
511.0,513.0,505.0,520.0
514.0,489.0,503.0,520.0
498.0,525.0,495.0,522.0
501.0,553.0,498.0,512.0
512.0,517.0,502.0,509.0
515.0,502.0,511.0,511.0
523.0,492.0,524.0,512.0
527.0,482.0,523.0,506.0
523.0,490.0,529.0,508.0
521.0,490.0,526.0,508.0
505.0,515.0,522.0,510.0
505.0,505.0,516.0,507.0
503.0,502.0,511.0,510.0
503.0,513.0,508.0,510.0
502.0,510.0,502.0,516.0
519.0,501.0,513.0,521.0
514.0,499.0,511.0,519.0
515.0,506.0,503.0,519.0
510.0,513.0,499.0,517.0
506.0,521.0,500.0,518.0
504.0,523.0,502.0,517.0
510.0,514.0,507.0,517.0
513.0,496.0,517.0,519.0
526.0,472.0,526.0,513.0
523.0,479.0,531.0,507.0
516.0,490.0,531.0,510.0
509.0,506.0,527.0,507.0
498.0,526.0,524.0,506.0
489.0,534.0,514.0,505.0
501.0,505.0,510.0,506.0
500.0,526.0,503.0,509.0
514.0,495.0,505.0,513.0
519.0,488.0,504.0,513.0
517.0,496.0,501.0,516.0
516.0,504.0,499.0,519.0
503.0,534.0,497.0,523.0
500.0,546.0,503.0,522.0
504.0,535.0,505.0,522.0
508.0,487.0,512.0,518.0
508.0,484.0,519.0,516.0
516.0,468.0,528.0,514.0
520.0,489.0,531.0,515.0
516.0,507.0,533.0,513.0
511.0,494.0,527.0,511.0
498.0,504.0,518.0,509.0
508.0,505.0,513.0,507.0
513.0,500.0,509.0,506.0
508.0,524.0,505.0,511.0
513.0,511.0,504.0,515.0
516.0,495.0,502.0,515.0
516.0,506.0,500.0,521.0
514.0,528.0,500.0,528.0
506.0,550.0,498.0,523.0
504.0,545.0,503.0,520.0
513.0,482.0,507.0,519.0
520.0,481.0,517.0,515.0
524.0,478.0,523.0,518.0
527.0,474.0,528.0,511.0
525.0,476.0,532.0,509.0
520.0,481.0,529.0,508.0
503.0,513.0,521.0,504.0
492.0,529.0,513.0,507.0
502.0,523.0,514.0,509.0
507.0,503.0,511.0,511.0
510.0,505.0,508.0,514.0
517.0,503.0,506.0,515.0
515.0,509.0,501.0,524.0
514.0,518.0,500.0,522.0
514.0,489.0,499.0,523.0
500.0,511.0,498.0,521.0
503.0,520.0,506.0,517.0
516.0,492.0,509.0,517.0
515.0,504.0,516.0,514.0
524.0,493.0,522.0,512.0
523.0,478.0,529.0,510.0
520.0,480.0,530.0,504.0
515.0,484.0,525.0,507.0
497.0,506.0,517.0,507.0
495.0,511.0,516.0,508.0
497.0,520.0,512.0,509.0
501.0,524.0,504.0,510.0
512.0,508.0,506.0,514.0
518.0,494.0,502.0,515.0
518.0,494.0,502.0,521.0
517.0,493.0,500.0,524.0
510.0,517.0,501.0,525.0
501.0,540.0,501.0,524.0
506.0,528.0,506.0,519.0
508.0,514.0,512.0,518.0
517.0,493.0,520.0,514.0
527.0,465.0,531.0,516.0
522.0,474.0,531.0,513.0
522.0,474.0,535.0,516.0
513.0,503.0,531.0,515.0
498.0,525.0,524.0,512.0
497.0,515.0,519.0,516.0
507.0,500.0,514.0,507.0
502.0,510.0,501.0,512.0
514.0,502.0,498.0,514.0
514.0,497.0,499.0,515.0
516.0,503.0,498.0,519.0
513.0,519.0,502.0,522.0
506.0,537.0,499.0,520.0
504.0,518.0,504.0,519.0
508.0,514.0,512.0,517.0
511.0,503.0,514.0,516.0
523.0,487.0,520.0,510.0
525.0,484.0,522.0,506.0
515.0,487.0,527.0,505.0
517.0,487.0,528.0,505.0
509.0,488.0,519.0,504.0
505.0,507.0,519.0,503.0
497.0,502.0,508.0,506.0
500.0,529.0,505.0,510.0
507.0,531.0,499.0,516.0
521.0,499.0,507.0,520.0
519.0,501.0,507.0,519.0
519.0,511.0,499.0,524.0
511.0,517.0,500.0,523.0
499.0,530.0,498.0,518.0
499.0,531.0,505.0,514.0
506.0,521.0,504.0,516.0
514.0,495.0,512.0,513.0
530.0,466.0,523.0,513.0
528.0,475.0,529.0,513.0
527.0,496.0,527.0,509.0
520.0,519.0,526.0,511.0
500.0,559.0,522.0,510.0
498.0,493.0,520.0,510.0
494.0,503.0,516.0,511.0
493.0,519.0,507.0,514.0
509.0,498.0,509.0,513.0
515.0,476.0,503.0,513.0
515.0,490.0,500.0,516.0
513.0,508.0,493.0,513.0
510.0,524.0,495.0,521.0
500.0,535.0,501.0,522.0
504.0,528.0,505.0,523.0
512.0,508.0,515.0,521.0
518.0,493.0,516.0,509.0
523.0,474.0,528.0,510.0
522.0,478.0,533.0,512.0
521.0,484.0,532.0,513.0
514.0,497.0,530.0,509.0
499.0,522.0,521.0,507.0
497.0,520.0,515.0,507.0
504.0,517.0,511.0,506.0
504.0,519.0,503.0,511.0
514.0,500.0,505.0,514.0
521.0,493.0,501.0,518.0
518.0,486.0,501.0,519.0
516.0,508.0,498.0,523.0
503.0,526.0,503.0,523.0
504.0,523.0,501.0,520.0
511.0,503.0,507.0,516.0
512.0,510.0,515.0,517.0
522.0,480.0,528.0,514.0
526.0,464.0,525.0,508.0
521.0,473.0,531.0,509.0
518.0,499.0,529.0,507.0
504.0,515.0,521.0,506.0
495.0,524.0,517.0,504.0
502.0,534.0,515.0,503.0
500.0,531.0,510.0,511.0
510.0,510.0,503.0,517.0
519.0,488.0,506.0,518.0
518.0,493.0,501.0,518.0
520.0,499.0,500.0,521.0
516.0,509.0,500.0,521.0
497.0,528.0,500.0,524.0
496.0,522.0,506.0,521.0
499.0,516.0,508.0,520.0
504.0,500.0,518.0,519.0
517.0,478.0,529.0,515.0
525.0,475.0,529.0,509.0
519.0,486.0,532.0,508.0
523.0,492.0,526.0,506.0
508.0,507.0,521.0,510.0
500.0,524.0,520.0,510.0
500.0,516.0,514.0,511.0
504.0,508.0,510.0,510.0
512.0,502.0,502.0,513.0
517.0,496.0,506.0,516.0
516.0,496.0,504.0,519.0
514.0,496.0,501.0,523.0
508.0,518.0,499.0,523.0
502.0,519.0,502.0,520.0
500.0,513.0,504.0,519.0
512.0,500.0,509.0,515.0
522.0,492.0,519.0,512.0
531.0,474.0,523.0,509.0
525.0,479.0,530.0,506.0
514.0,497.0,529.0,506.0
504.0,527.0,525.0,506.0
492.0,552.0,518.0,510.0
500.0,534.0,515.0,511.0
497.0,509.0,511.0,507.0
509.0,505.0,505.0,511.0
515.0,500.0,504.0,516.0
521.0,482.0,500.0,519.0
518.0,476.0,498.0,522.0
516.0,493.0,499.0,527.0
500.0,546.0,497.0,519.0
502.0,543.0,502.0,521.0
505.0,520.0,506.0,520.0
509.0,498.0,514.0,518.0
516.0,486.0,525.0,515.0
524.0,479.0,530.0,514.0
518.0,491.0,533.0,507.0
514.0,513.0,526.0,510.0
505.0,533.0,521.0,516.0
497.0,542.0,518.0,512.0
502.0,493.0,511.0,512.0
500.0,509.0,510.0,510.0
505.0,510.0,507.0,516.0
515.0,498.0,501.0,516.0
517.0,485.0,497.0,516.0
521.0,462.0,500.0,521.0
513.0,488.0,502.0,517.0
501.0,523.0,499.0,520.0
499.0,527.0,501.0,517.0
519.0,497.0,508.0,517.0
519.0,512.0,514.0,515.0
524.0,491.0,527.0,511.0
524.0,477.0,533.0,511.0
520.0,473.0,534.0,509.0
516.0,477.0,531.0,507.0
498.0,500.0,520.0,507.0
502.0,505.0,518.0,508.0
505.0,508.0,510.0,507.0
504.0,503.0,504.0,507.0
511.0,501.0,502.0,509.0
512.0,504.0,498.0,514.0
509.0,515.0,496.0,515.0
508.0,521.0,496.0,521.0
502.0,540.0,496.0,522.0
502.0,533.0,503.0,520.0
511.0,520.0,509.0,520.0
510.0,515.0,512.0,517.0
519.0,495.0,521.0,514.0
522.0,482.0,528.0,510.0
523.0,484.0,530.0,506.0
520.0,482.0,528.0,506.0
514.0,496.0,523.0,505.0
503.0,522.0,516.0,506.0
499.0,527.0,515.0,505.0
496.0,524.0,510.0,504.0
501.0,508.0,506.0,513.0
510.0,492.0,504.0,516.0
516.0,501.0,502.0,518.0
519.0,491.0,502.0,522.0
523.0,475.0,499.0,527.0
505.0,525.0,500.0,526.0
503.0,515.0,501.0,522.0
509.0,512.0,504.0,516.0
518.0,503.0,512.0,515.0
526.0,501.0,523.0,511.0
525.0,498.0,526.0,513.0
519.0,510.0,532.0,508.0
515.0,476.0,532.0,510.0
503.0,501.0,527.0,509.0
493.0,521.0,516.0,512.0
496.0,510.0,517.0,512.0
503.0,502.0,514.0,506.0
505.0,499.0,502.0,509.0
512.0,492.0,501.0,512.0
515.0,493.0,500.0,516.0
510.0,507.0,499.0,519.0
509.0,528.0,498.0,521.0
497.0,535.0,500.0,523.0
512.0,545.0,502.0,519.0
517.0,507.0,508.0,518.0
520.0,464.0,514.0,515.0
526.0,469.0,526.0,511.0
521.0,472.0,528.0,508.0
517.0,480.0,528.0,506.0
510.0,492.0,525.0,508.0
495.0,528.0,519.0,510.0
496.0,524.0,517.0,511.0
501.0,513.0,512.0,512.0
503.0,508.0,510.0,514.0
517.0,496.0,507.0,516.0
518.0,502.0,504.0,517.0
516.0,503.0,502.0,518.0
516.0,504.0,500.0,520.0
509.0,517.0,500.0,522.0
504.0,521.0,501.0,520.0
508.0,518.0,503.0,519.0
516.0,501.0,513.0,516.0
519.0,496.0,522.0,515.0
524.0,483.0,523.0,512.0
521.0,485.0,529.0,507.0
518.0,491.0,528.0,508.0
511.0,502.0,523.0,507.0
500.0,513.0,519.0,508.0
503.0,510.0,517.0,507.0
504.0,508.0,513.0,510.0
502.0,513.0,504.0,513.0
514.0,497.0,505.0,515.0
515.0,496.0,500.0,517.0
515.0,503.0,498.0,521.0
514.0,507.0,498.0,523.0
504.0,531.0,503.0,521.0
505.0,531.0,505.0,522.0
513.0,511.0,507.0,519.0
523.0,493.0,514.0,518.0
529.0,464.0,522.0,514.0
532.0,454.0,529.0,512.0
525.0,498.0,532.0,505.0
514.0,507.0,530.0,507.0
509.0,534.0,524.0,508.0
496.0,522.0,516.0,510.0
492.0,484.0,517.0,509.0
493.0,510.0,508.0,511.0
505.0,507.0,503.0,514.0
520.0,483.0,502.0,516.0
515.0,490.0,496.0,517.0
516.0,504.0,503.0,523.0
515.0,510.0,498.0,527.0
503.0,542.0,495.0,525.0
501.0,545.0,506.0,525.0
506.0,517.0,513.0,520.0
515.0,491.0,519.0,524.0
527.0,470.0,532.0,512.0
527.0,475.0,532.0,508.0
522.0,487.0,534.0,507.0
515.0,495.0,523.0,504.0
498.0,527.0,514.0,501.0
492.0,535.0,508.0,505.0
494.0,528.0,513.0,508.0
499.0,520.0,506.0,510.0
510.0,499.0,503.0,515.0
518.0,492.0,505.0,512.0
515.0,497.0,503.0,511.0
515.0,499.0,500.0,519.0
503.0,533.0,498.0,524.0
503.0,556.0,500.0,522.0
504.0,552.0,504.0,521.0
518.0,521.0,511.0,518.0
532.0,463.0,520.0,511.0
535.0,453.0,527.0,509.0
529.0,472.0,526.0,507.0
519.0,484.0,526.0,507.0
507.0,503.0,525.0,506.0
483.0,529.0,517.0,511.0
494.0,512.0,517.0,511.0
502.0,508.0,514.0,509.0
505.0,497.0,514.0,515.0
510.0,485.0,504.0,515.0
514.0,497.0,502.0,519.0
513.0,507.0,506.0,521.0
511.0,515.0,500.0,523.0
500.0,537.0,497.0,518.0
501.0,533.0,502.0,521.0
507.0,518.0,503.0,517.0
520.0,497.0,510.0,512.0
531.0,477.0,527.0,512.0
531.0,473.0,532.0,510.0
526.0,480.0,535.0,510.0
519.0,488.0,534.0,506.0
503.0,518.0,524.0,505.0
495.0,530.0,516.0,503.0
494.0,526.0,510.0,506.0
502.0,515.0,508.0,506.0
506.0,500.0,505.0,510.0
519.0,490.0,504.0,515.0
518.0,496.0,499.0,519.0
517.0,500.0,501.0,522.0
508.0,513.0,500.0,524.0
500.0,527.0,507.0,523.0
505.0,527.0,505.0,517.0
511.0,513.0,509.0,519.0
520.0,500.0,517.0,517.0
530.0,478.0,525.0,516.0
532.0,483.0,531.0,511.0
529.0,493.0,531.0,509.0
521.0,501.0,527.0,512.0
509.0,516.0,522.0,508.0
518.0,502.0,516.0,508.0
519.0,488.0,517.0,511.0
503.0,510.0,508.0,513.0
512.0,497.0,504.0,510.0
509.0,498.0,505.0,516.0
512.0,498.0,503.0,520.0
520.0,492.0,499.0,516.0
506.0,515.0,498.0,521.0
495.0,523.0,500.0,523.0
500.0,524.0,504.0,521.0
503.0,514.0,514.0,518.0
508.0,503.0,522.0,515.0
521.0,481.0,533.0,511.0
522.0,479.0,532.0,506.0
517.0,485.0,531.0,508.0
502.0,503.0,525.0,507.0
484.0,535.0,520.0,510.0
488.0,523.0,515.0,509.0
490.0,521.0,513.0,508.0
494.0,520.0,506.0,513.0
507.0,493.0,504.0,517.0
511.0,490.0,502.0,518.0
513.0,495.0,501.0,520.0
512.0,506.0,500.0,525.0
495.0,537.0,495.0,524.0
494.0,532.0,501.0,520.0
501.0,521.0,507.0,519.0
516.0,491.0,514.0,517.0
527.0,485.0,528.0,513.0
526.0,476.0,534.0,513.0
520.0,484.0,534.0,513.0
514.0,494.0,533.0,513.0
500.0,516.0,525.0,512.0
501.0,514.0,520.0,510.0
502.0,514.0,517.0,510.0
503.0,517.0,512.0,515.0
512.0,502.0,511.0,515.0
520.0,484.0,509.0,519.0
517.0,489.0,506.0,522.0
513.0,497.0,503.0,525.0
510.0,519.0,503.0,524.0
509.0,526.0,508.0,524.0
512.0,522.0,505.0,518.0
515.0,512.0,510.0,515.0
523.0,499.0,517.0,513.0
530.0,477.0,530.0,508.0
520.0,489.0,534.0,508.0
519.0,499.0,536.0,506.0
513.0,504.0,529.0,506.0
496.0,534.0,522.0,509.0
507.0,498.0,521.0,509.0
511.0,487.0,518.0,511.0
509.0,516.0,506.0,512.0
516.0,498.0,509.0,515.0
513.0,499.0,507.0,519.0
511.0,499.0,505.0,522.0
514.0,500.0,505.0,527.0
505.0,523.0,502.0,521.0
493.0,538.0,504.0,524.0
491.0,530.0,509.0,521.0
500.0,513.0,511.0,518.0
515.0,485.0,522.0,511.0
523.0,475.0,532.0,510.0
521.0,482.0,535.0,504.0
514.0,489.0,535.0,509.0
509.0,511.0,529.0,507.0
502.0,529.0,524.0,507.0
492.0,523.0,521.0,508.0
495.0,520.0,517.0,508.0
499.0,518.0,512.0,512.0
517.0,488.0,510.0,516.0
518.0,490.0,509.0,518.0
517.0,496.0,507.0,523.0
515.0,500.0,508.0,525.0
503.0,524.0,504.0,526.0
508.0,511.0,508.0,522.0
505.0,514.0,506.0,517.0
511.0,501.0,517.0,514.0
524.0,477.0,529.0,512.0
527.0,484.0,534.0,510.0
518.0,490.0,539.0,511.0
518.0,492.0,537.0,510.0
512.0,513.0,533.0,512.0
505.0,518.0,524.0,512.0
500.0,530.0,515.0,511.0
501.0,526.0,515.0,513.0
512.0,506.0,519.0,519.0
518.0,493.0,506.0,521.0
515.0,497.0,502.0,517.0
505.0,500.0,504.0,517.0
506.0,513.0,502.0,520.0
501.0,530.0,503.0,520.0
506.0,524.0,508.0,517.0
509.0,511.0,517.0,519.0
517.0,500.0,528.0,519.0
528.0,479.0,535.0,513.0
526.0,479.0,542.0,509.0
521.0,481.0,546.0,513.0
514.0,494.0,543.0,510.0
499.0,522.0,532.0,508.0
499.0,517.0,527.0,508.0
502.0,506.0,524.0,507.0
509.0,504.0,517.0,503.0
511.0,497.0,512.0,510.0
511.0,496.0,512.0,513.0
514.0,505.0,511.0,518.0
518.0,511.0,511.0,525.0
498.0,527.0,507.0,527.0
500.0,518.0,513.0,526.0
497.0,521.0,517.0,522.0
512.0,497.0,525.0,519.0
523.0,483.0,533.0,516.0
527.0,479.0,538.0,515.0
526.0,492.0,542.0,509.0
516.0,492.0,543.0,510.0
508.0,501.0,537.0,509.0
494.0,521.0,529.0,513.0
495.0,519.0,527.0,509.0
499.0,511.0,521.0,505.0
507.0,506.0,512.0,506.0
515.0,493.0,515.0,514.0
521.0,496.0,510.0,519.0
526.0,494.0,498.0,519.0
522.0,506.0,485.0,515.0
507.0,531.0,505.0,523.0
515.0,512.0,510.0,523.0
525.0,500.0,514.0,517.0
528.0,496.0,517.0,516.0
527.0,482.0,536.0,514.0
530.0,481.0,551.0,512.0
514.0,484.0,549.0,517.0
502.0,493.0,527.0,506.0
494.0,523.0,520.0,508.0
491.0,534.0,518.0,507.0
488.0,537.0,511.0,508.0
499.0,518.0,517.0,515.0
510.0,502.0,509.0,521.0
516.0,486.0,495.0,515.0
514.0,497.0,498.0,514.0
512.0,506.0,501.0,527.0
507.0,517.0,504.0,525.0
501.0,530.0,503.0,519.0
505.0,525.0,501.0,518.0
512.0,513.0,503.0,518.0
522.0,493.0,520.0,513.0
530.0,474.0,529.0,513.0
525.0,477.0,536.0,509.0
521.0,479.0,532.0,508.0
509.0,495.0,532.0,507.0
486.0,519.0,522.0,509.0
489.0,523.0,518.0,508.0
493.0,519.0,514.0,508.0
500.0,505.0,509.0,511.0
512.0,489.0,502.0,519.0
518.0,491.0,501.0,517.0
516.0,497.0,498.0,518.0
516.0,503.0,494.0,522.0
506.0,520.0,494.0,523.0
500.0,524.0,496.0,521.0
506.0,523.0,501.0,521.0
517.0,507.0,514.0,517.0
526.0,494.0,525.0,516.0
530.0,482.0,528.0,509.0
524.0,480.0,539.0,509.0
524.0,485.0,527.0,508.0
505.0,502.0,523.0,511.0
493.0,508.0,528.0,514.0
497.0,506.0,524.0,512.0
499.0,508.0,504.0,509.0
499.0,520.0,500.0,514.0
511.0,492.0,502.0,518.0
515.0,490.0,500.0,517.0
516.0,497.0,491.0,523.0
514.0,502.0,490.0,529.0
504.0,519.0,491.0,524.0
503.0,516.0,495.0,521.0
504.0,519.0,504.0,521.0
513.0,507.0,515.0,521.0
524.0,486.0,527.0,517.0
523.0,482.0,531.0,513.0
520.0,478.0,532.0,509.0
513.0,484.0,529.0,509.0
501.0,505.0,521.0,507.0
495.0,517.0,519.0,506.0
500.0,514.0,516.0,509.0
512.0,512.0,504.0,511.0
517.0,504.0,499.0,516.0
521.0,495.0,496.0,511.0
524.0,497.0,498.0,520.0
524.0,499.0,493.0,525.0
517.0,507.0,483.0,524.0
512.0,513.0,492.0,522.0
516.0,501.0,498.0,517.0
511.0,498.0,506.0,517.0
513.0,495.0,517.0,515.0
518.0,487.0,530.0,514.0
514.0,488.0,530.0,508.0
517.0,489.0,531.0,507.0
513.0,503.0,530.0,513.0
498.0,530.0,526.0,513.0
498.0,527.0,511.0,511.0
500.0,524.0,511.0,510.0
497.0,521.0,509.0,518.0
499.0,507.0,502.0,516.0
508.0,496.0,494.0,516.0
509.0,498.0,487.0,523.0
512.0,495.0,487.0,520.0
505.0,514.0,491.0,520.0
502.0,517.0,498.0,522.0
502.0,514.0,506.0,522.0
514.0,502.0,513.0,520.0
519.0,497.0,521.0,514.0
524.0,484.0,535.0,511.0
520.0,489.0,528.0,504.0
516.0,497.0,524.0,502.0
504.0,518.0,520.0,502.0
491.0,531.0,514.0,504.0
502.0,517.0,511.0,508.0
506.0,508.0,509.0,508.0
512.0,504.0,502.0,513.0
518.0,494.0,496.0,517.0
517.0,495.0,490.0,512.0
518.0,497.0,483.0,520.0
516.0,502.0,493.0,523.0
503.0,524.0,495.0,523.0
502.0,521.0,504.0,527.0
507.0,517.0,503.0,518.0
514.0,513.0,509.0,511.0
524.0,492.0,517.0,508.0
528.0,489.0,518.0,510.0
525.0,492.0,530.0,504.0
519.0,498.0,525.0,507.0
506.0,518.0,517.0,508.0
489.0,523.0,510.0,506.0
484.0,530.0,507.0,507.0
501.0,506.0,502.0,515.0
506.0,505.0,503.0,520.0
516.0,490.0,492.0,516.0
516.0,493.0,484.0,515.0
516.0,494.0,487.0,519.0
510.0,510.0,497.0,529.0
503.0,519.0,491.0,524.0
508.0,512.0,489.0,517.0
507.0,509.0,491.0,517.0
515.0,494.0,503.0,512.0
524.0,477.0,520.0,511.0
525.0,478.0,529.0,510.0
520.0,478.0,530.0,507.0
510.0,492.0,529.0,510.0
497.0,520.0,528.0,513.0
495.0,521.0,528.0,517.0
490.0,527.0,514.0,519.0
498.0,518.0,491.0,521.0
510.0,498.0,497.0,521.0
521.0,498.0,502.0,517.0
519.0,502.0,484.0,514.0
517.0,504.0,468.0,514.0
505.0,528.0,473.0,515.0
504.0,527.0,481.0,519.0
497.0,532.0,487.0,518.0
519.0,500.0,505.0,517.0
528.0,485.0,523.0,518.0
528.0,480.0,529.0,511.0
519.0,483.0,537.0,515.0
521.0,485.0,525.0,510.0
511.0,506.0,520.0,505.0
497.0,520.0,512.0,509.0
494.0,523.0,508.0,509.0
496.0,508.0,498.0,503.0
502.0,506.0,496.0,511.0
518.0,486.0,503.0,523.0
520.0,485.0,497.0,522.0
522.0,489.0,487.0,514.0
514.0,505.0,498.0,516.0
504.0,531.0,488.0,518.0
506.0,521.0,475.0,520.0
506.0,522.0,492.0,526.0
508.0,509.0,499.0,520.0
523.0,490.0,518.0,510.0
524.0,490.0,531.0,506.0
522.0,482.0,526.0,503.0
522.0,490.0,519.0,503.0
501.0,524.0,514.0,512.0
498.0,519.0,516.0,514.0
502.0,506.0,508.0,510.0
507.0,496.0,503.0,508.0
508.0,486.0,494.0,505.0
511.0,483.0,493.0,514.0
516.0,489.0,488.0,522.0
520.0,497.0,483.0,522.0
510.0,517.0,485.0,524.0
509.0,528.0,484.0,518.0
510.0,521.0,484.0,521.0
514.0,513.0,496.0,519.0
525.0,502.0,514.0,523.0
529.0,485.0,528.0,523.0
521.0,489.0,533.0,520.0
519.0,494.0,531.0,511.0
514.0,506.0,526.0,510.0
498.0,524.0,520.0,509.0
500.0,521.0,508.0,503.0
500.0,521.0,510.0,513.0
504.0,517.0,495.0,503.0
513.0,496.0,490.0,505.0
514.0,499.0,479.0,505.0
512.0,510.0,486.0,515.0
509.0,509.0,475.0,517.0
494.0,529.0,474.0,523.0
497.0,525.0,485.0,523.0
503.0,517.0,487.0,514.0
514.0,504.0,492.0,513.0
526.0,488.0,516.0,515.0
529.0,480.0,528.0,515.0
524.0,491.0,538.0,514.0
517.0,496.0,527.0,501.0
503.0,502.0,516.0,514.0
496.0,506.0,519.0,516.0
502.0,499.0,503.0,509.0
494.0,513.0,493.0,505.0
499.0,526.0,503.0,514.0
514.0,501.0,505.0,519.0
518.0,493.0,506.0,523.0
519.0,503.0,492.0,524.0
516.0,519.0,482.0,520.0
500.0,535.0,482.0,529.0
501.0,523.0,490.0,524.0
507.0,513.0,504.0,518.0
515.0,504.0,481.0,514.0
532.0,480.0,503.0,500.0
534.0,476.0,531.0,499.0
535.0,477.0,533.0,508.0
526.0,484.0,525.0,506.0
504.0,509.0,515.0,505.0
490.0,517.0,519.0,509.0
485.0,520.0,519.0,514.0
499.0,503.0,504.0,517.0
504.0,502.0,494.0,519.0
510.0,494.0,485.0,517.0
510.0,500.0,484.0,522.0
513.0,514.0,479.0,519.0
507.0,525.0,465.0,521.0
509.0,523.0,502.0,538.0
502.0,520.0,503.0,532.0
507.0,506.0,492.0,525.0
515.0,496.0,508.0,518.0
530.0,477.0,523.0,506.0
527.0,478.0,539.0,519.0
522.0,483.0,528.0,509.0
511.0,493.0,516.0,498.0
495.0,507.0,504.0,503.0
500.0,500.0,510.0,503.0
486.0,510.0,499.0,497.0
498.0,509.0,481.0,500.0
523.0,488.0,472.0,508.0
524.0,490.0,480.0,514.0
521.0,502.0,489.0,520.0
519.0,518.0,491.0,517.0
504.0,535.0,494.0,520.0
511.0,516.0,485.0,527.0
507.0,512.0,485.0,521.0
505.0,520.0,501.0,524.0
518.0,501.0,507.0,516.0
523.0,489.0,501.0,512.0
519.0,488.0,520.0,512.0
512.0,496.0,518.0,511.0
500.0,510.0,529.0,508.0
498.0,518.0,526.0,515.0
501.0,513.0,503.0,508.0
501.0,520.0,509.0,517.0
509.0,514.0,494.0,518.0
526.0,489.0,478.0,508.0
531.0,489.0,508.0,526.0
531.0,490.0,503.0,527.0
527.0,503.0,466.0,518.0
511.0,520.0,496.0,524.0
498.0,525.0,502.0,522.0
483.0,523.0,482.0,516.0
498.0,498.0,484.0,513.0
517.0,484.0,501.0,509.0
522.0,477.0,532.0,515.0
518.0,490.0,531.0,503.0
516.0,499.0,515.0,496.0
493.0,530.0,507.0,508.0
490.0,527.0,513.0,518.0
490.0,529.0,509.0,516.0
492.0,525.0,494.0,518.0
504.0,502.0,486.0,521.0
514.0,487.0,492.0,527.0
517.0,487.0,476.0,524.0
518.0,491.0,472.0,520.0
506.0,512.0,486.0,517.0
501.0,522.0,491.0,522.0
502.0,516.0,513.0,545.0
503.0,516.0,510.0,537.0
514.0,501.0,499.0,506.0
525.0,473.0,541.0,508.0
528.0,466.0,524.0,518.0
521.0,458.0,508.0,501.0
515.0,474.0,532.0,504.0
496.0,514.0,536.0,509.0
496.0,522.0,538.0,504.0
491.0,537.0,502.0,511.0
493.0,535.0,460.0,501.0
511.0,497.0,496.0,512.0
517.0,487.0,500.0,537.0
520.0,500.0,496.0,549.0
516.0,508.0,489.0,543.0
505.0,520.0,483.0,527.0
505.0,524.0,478.0,522.0
507.0,536.0,481.0,513.0
513.0,524.0,506.0,516.0
527.0,497.0,507.0,503.0
533.0,485.0,516.0,490.0
527.0,492.0,550.0,503.0
522.0,496.0,543.0,502.0
507.0,513.0,512.0,501.0
503.0,511.0,489.0,490.0
503.0,512.0,508.0,504.0
501.0,505.0,511.0,512.0
498.0,509.0,495.0,515.0
515.0,490.0,477.0,510.0
512.0,510.0,481.0,511.0
512.0,506.0,485.0,524.0
513.0,514.0,493.0,539.0
506.0,530.0,524.0,537.0
514.0,523.0,516.0,531.0
514.0,514.0,482.0,514.0
518.0,494.0,486.0,504.0
521.0,478.0,485.0,494.0
521.0,470.0,516.0,502.0
517.0,471.0,540.0,511.0
517.0,482.0,525.0,512.0
497.0,514.0,539.0,524.0
501.0,520.0,509.0,500.0
507.0,521.0,498.0,500.0
513.0,510.0,488.0,501.0
521.0,496.0,514.0,520.0
526.0,494.0,497.0,517.0
522.0,502.0,489.0,532.0
517.0,508.0,494.0,528.0
496.0,545.0,507.0,536.0
495.0,547.0,477.0,522.0
500.0,531.0,484.0,520.0
508.0,514.0,510.0,544.0
516.0,503.0,505.0,505.0
527.0,487.0,515.0,487.0
522.0,483.0,550.0,508.0
518.0,484.0,564.0,503.0
508.0,491.0,526.0,500.0
492.0,512.0,507.0,521.0
490.0,513.0,502.0,514.0
489.0,521.0,519.0,505.0
501.0,497.0,501.0,499.0
515.0,483.0,489.0,501.0
527.0,487.0,499.0,512.0
523.0,493.0,468.0,513.0
522.0,501.0,457.0,502.0
512.0,530.0,476.0,517.0
508.0,526.0,478.0,518.0
505.0,545.0,490.0,529.0
512.0,517.0,515.0,547.0
525.0,466.0,522.0,531.0
530.0,472.0,507.0,502.0
528.0,482.0,569.0,519.0
520.0,489.0,550.0,509.0
506.0,524.0,537.0,503.0
491.0,554.0,507.0,500.0
493.0,551.0,524.0,505.0
497.0,530.0,519.0,515.0
507.0,515.0,507.0,513.0
520.0,459.0,485.0,508.0
524.0,474.0,509.0,526.0
519.0,494.0,502.0,507.0
509.0,514.0,479.0,507.0
498.0,533.0,436.0,506.0
506.0,516.0,472.0,526.0
512.0,497.0,534.0,550.0
517.0,483.0,515.0,506.0
532.0,461.0,553.0,507.0
526.0,471.0,567.0,507.0
522.0,504.0,523.0,487.0
511.0,518.0,477.0,474.0
493.0,547.0,507.0,495.0
494.0,541.0,495.0,496.0
490.0,547.0,505.0,508.0
495.0,543.0,498.0,506.0
508.0,482.0,493.0,505.0
513.0,481.0,488.0,500.0
511.0,492.0,501.0,522.0
516.0,494.0,481.0,521.0
506.0,518.0,477.0,547.0
508.0,526.0,484.0,536.0
523.0,510.0,492.0,526.0
531.0,495.0,497.0,501.0
531.0,462.0,501.0,496.0
532.0,467.0,538.0,498.0
525.0,478.0,541.0,495.0
519.0,476.0,521.0,497.0
513.0,494.0,533.0,504.0
497.0,540.0,514.0,498.0
494.0,543.0,516.0,492.0
501.0,521.0,534.0,523.0
501.0,519.0,516.0,494.0
514.0,508.0,466.0,483.0
518.0,484.0,495.0,524.0
516.0,498.0,507.0,531.0
514.0,514.0,488.0,537.0
504.0,543.0,502.0,531.0
509.0,522.0,501.0,535.0
504.0,517.0,504.0,550.0
510.0,508.0,519.0,528.0
519.0,492.0,528.0,506.0
521.0,485.0,512.0,461.0
518.0,492.0,519.0,460.0
516.0,491.0,529.0,473.0
510.0,503.0,510.0,492.0
505.0,495.0,506.0,489.0
499.0,512.0,536.0,495.0
501.0,521.0,560.0,522.0
514.0,522.0,517.0,541.0
517.0,502.0,462.0,506.0
518.0,496.0,475.0,490.0
519.0,496.0,468.0,556.0
513.0,512.0,452.0,526.0
505.0,519.0,467.0,491.0
505.0,498.0,494.0,487.0
502.0,486.0,511.0,511.0
515.0,474.0,513.0,507.0
529.0,473.0,531.0,492.0
523.0,463.0,526.0,495.0
528.0,485.0,540.0,492.0
513.0,517.0,525.0,494.0
485.0,553.0,517.0,491.0
484.0,548.0,526.0,496.0
487.0,544.0,513.0,505.0
504.0,502.0,495.0,494.0
514.0,486.0,509.0,494.0
516.0,506.0,495.0,496.0
506.0,507.0,486.0,509.0
504.0,499.0,479.0,524.0
499.0,523.0,463.0,524.0
507.0,526.0,470.0,530.0
514.0,516.0,518.0,507.0
526.0,492.0,505.0,502.0
548.0,479.0,519.0,499.0
537.0,472.0,541.0,506.0
531.0,481.0,582.0,515.0
518.0,495.0,557.0,476.0
502.0,507.0,526.0,472.0
491.0,513.0,513.0,499.0
507.0,483.0,532.0,491.0
497.0,510.0,550.0,465.0
498.0,524.0,539.0,494.0
516.0,517.0,450.0,499.0
525.0,509.0,449.0,487.0
522.0,515.0,470.0,493.0
517.0,523.0,481.0,502.0
502.0,548.0,484.0,504.0
509.0,519.0,494.0,504.0
509.0,529.0,500.0,500.0
515.0,521.0,469.0,488.0
523.0,504.0,495.0,486.0
523.0,493.0,553.0,495.0
517.0,476.0,529.0,481.0
508.0,481.0,518.0,509.0
499.0,493.0,503.0,503.0
507.0,476.0,516.0,496.0
498.0,497.0,503.0,498.0
496.0,490.0,514.0,511.0
504.0,486.0,509.0,500.0
524.0,480.0,492.0,501.0
506.0,494.0,487.0,497.0
499.0,466.0,495.0,541.0
502.0,520.0,482.0,550.0
494.0,568.0,518.0,506.0
505.0,538.0,534.0,473.0
514.0,530.0,486.0,489.0
528.0,515.0,486.0,503.0
540.0,486.0,536.0,499.0
528.0,484.0,518.0,458.0
525.0,493.0,556.0,472.0
517.0,511.0,585.0,478.0
493.0,538.0,500.0,491.0
491.0,535.0,492.0,468.0
493.0,522.0,498.0,455.0
503.0,520.0,513.0,484.0
507.0,520.0,543.0,502.0
514.0,522.0,472.0,483.0
516.0,525.0,462.0,483.0
518.0,522.0,476.0,501.0
508.0,546.0,466.0,511.0
505.0,505.0,507.0,535.0
516.0,485.0,503.0,505.0
519.0,492.0,479.0,441.0
524.0,488.0,507.0,453.0
535.0,464.0,511.0,477.0
533.0,458.0,529.0,487.0
537.0,461.0,563.0,502.0
525.0,481.0,534.0,517.0
499.0,502.0,499.0,477.0
494.0,524.0,494.0,458.0
498.0,550.0,518.0,467.0
504.0,533.0,487.0,477.0
517.0,516.0,512.0,522.0
516.0,513.0,534.0,525.0
519.0,496.0,546.0,463.0
517.0,513.0,509.0,487.0
498.0,548.0,464.0,484.0
494.0,539.0,476.0,499.0
494.0,531.0,499.0,499.0
505.0,506.0,527.0,483.0
525.0,478.0,538.0,478.0
522.0,477.0,534.0,480.0
515.0,487.0,535.0,481.0
508.0,499.0,533.0,484.0
494.0,503.0,537.0,484.0
489.0,534.0,543.0,488.0
488.0,533.0,488.0,476.0
501.0,509.0,474.0,448.0
513.0,479.0,486.0,467.0
518.0,465.0,481.0,482.0
525.0,439.0,505.0,490.0
538.0,485.0,538.0,499.0
524.0,532.0,446.0,482.0
499.0,536.0,493.0,508.0
500.0,522.0,529.0,489.0
502.0,501.0,446.0,480.0
514.0,459.0,460.0,496.0
521.0,451.0,515.0,491.0
524.0,477.0,545.0,462.0
517.0,500.0,579.0,474.0
506.0,509.0,532.0,478.0
487.0,539.0,512.0,474.0
500.0,546.0,542.0,489.0
508.0,529.0,540.0,473.0
516.0,523.0,515.0,481.0
522.0,503.0,484.0,486.0
523.0,484.0,469.0,484.0
522.0,487.0,487.0,483.0
518.0,489.0,473.0,506.0
503.0,509.0,476.0,488.0
501.0,520.0,440.0,470.0
502.0,527.0,459.0,475.0
512.0,524.0,505.0,479.0
512.0,498.0,521.0,494.0
519.0,468.0,524.0,476.0
514.0,466.0,543.0,467.0
516.0,473.0,566.0,496.0
512.0,505.0,577.0,498.0
511.0,537.0,524.0,482.0
502.0,544.0,472.0,445.0
499.0,547.0,508.0,461.0
506.0,530.0,477.0,462.0
524.0,512.0,495.0,477.0
524.0,513.0,481.0,466.0
514.0,506.0,447.0,474.0
507.0,502.0,461.0,470.0
511.0,486.0,501.0,485.0
522.0,480.0,522.0,504.0
514.0,506.0,477.0,494.0
505.0,501.0,503.0,491.0
512.0,471.0,548.0,477.0
526.0,470.0,542.0,457.0
514.0,492.0,509.0,445.0
506.0,492.0,521.0,462.0
497.0,517.0,529.0,485.0
487.0,549.0,526.0,486.0
492.0,559.0,535.0,478.0
500.0,533.0,497.0,481.0
501.0,521.0,467.0,471.0
511.0,509.0,468.0,478.0
517.0,516.0,509.0,475.0
517.0,507.0,500.0,506.0
518.0,509.0,504.0,518.0
501.0,536.0,475.0,499.0
501.0,547.0,473.0,461.0
511.0,513.0,482.0,458.0
526.0,488.0,510.0,484.0
537.0,462.0,555.0,492.0
533.0,469.0,556.0,482.0
529.0,477.0,531.0,474.0
520.0,497.0,561.0,494.0
499.0,522.0,558.0,485.0
497.0,534.0,488.0,467.0
499.0,529.0,506.0,471.0
503.0,505.0,492.0,474.0
507.0,487.0,490.0,461.0
509.0,471.0,481.0,474.0
517.0,460.0,457.0,487.0
517.0,483.0,490.0,494.0
501.0,496.0,502.0,497.0
497.0,513.0,503.0,485.0
504.0,505.0,506.0,488.0
510.0,493.0,481.0,465.0
527.0,490.0,486.0,462.0
520.0,497.0,541.0,474.0
517.0,502.0,523.0,486.0
510.0,506.0,532.0,485.0
505.0,508.0,527.0,480.0
496.0,534.0,546.0,495.0
491.0,533.0,517.0,497.0
493.0,523.0,484.0,474.0
499.0,511.0,491.0,457.0
514.0,503.0,519.0,496.0
510.0,512.0,572.0,514.0
509.0,510.0,685.0,508.0
509.0,506.0,634.0,487.0
505.0,540.0,345.0,470.0
520.0,531.0,352.0,457.0
526.0,524.0,452.0,470.0
529.0,505.0,471.0,472.0
535.0,478.0,526.0,486.0
537.0,446.0,557.0,499.0
527.0,458.0,579.0,496.0
516.0,491.0,552.0,483.0
505.0,507.0,485.0,470.0
502.0,504.0,494.0,460.0
498.0,505.0,537.0,477.0
496.0,520.0,472.0,476.0
504.0,509.0,496.0,473.0
513.0,497.0,470.0,461.0
521.0,485.0,457.0,468.0
524.0,495.0,480.0,495.0
512.0,519.0,506.0,500.0
500.0,530.0,469.0,480.0
502.0,536.0,473.0,493.0
510.0,543.0,491.0,473.0
513.0,520.0,533.0,475.0
516.0,492.0,568.0,494.0
516.0,451.0,531.0,486.0
516.0,469.0,536.0,529.0
