CH1,CH2,CH3,CH4,CH5
510.0,509.0,515.0,502.0,516.0
513.0,508.0,516.0,504.0,512.0
517.0,507.0,519.0,505.0,510.0
524.0,509.0,522.0,511.0,508.0
525.0,511.0,523.0,517.0,507.0
530.0,510.0,530.0,528.0,501.0
529.0,508.0,526.0,530.0,502.0
525.0,507.0,521.0,530.0,509.0
517.0,505.0,520.0,533.0,513.0
510.0,505.0,510.0,526.0,505.0
500.0,498.0,500.0,517.0,513.0
500.0,501.0,499.0,513.0,524.0
497.0,503.0,499.0,508.0,523.0
499.0,509.0,499.0,502.0,521.0
499.0,508.0,504.0,502.0,516.0
504.0,511.0,509.0,503.0,510.0
506.0,510.0,511.0,503.0,504.0
509.0,510.0,515.0,501.0,501.0
513.0,509.0,517.0,502.0,508.0
516.0,507.0,520.0,511.0,505.0
520.0,505.0,520.0,511.0,505.0
526.0,508.0,524.0,518.0,506.0
533.0,510.0,526.0,531.0,498.0
531.0,511.0,525.0,531.0,500.0
527.0,507.0,518.0,531.0,508.0
517.0,504.0,515.0,528.0,526.0
512.0,507.0,508.0,524.0,525.0
500.0,499.0,498.0,513.0,527.0
495.0,501.0,496.0,507.0,526.0
496.0,507.0,499.0,506.0,527.0
500.0,509.0,503.0,505.0,523.0
499.0,512.0,504.0,502.0,520.0
499.0,509.0,507.0,501.0,513.0
506.0,512.0,515.0,503.0,512.0
509.0,509.0,517.0,502.0,509.0
514.0,506.0,521.0,501.0,507.0
516.0,507.0,519.0,508.0,507.0
521.0,508.0,523.0,514.0,506.0
528.0,510.0,526.0,525.0,501.0
531.0,510.0,527.0,530.0,493.0
527.0,507.0,522.0,530.0,498.0
522.0,506.0,517.0,528.0,506.0
518.0,505.0,514.0,526.0,514.0
508.0,500.0,504.0,517.0,523.0
499.0,499.0,496.0,510.0,528.0
497.0,503.0,498.0,507.0,527.0
499.0,506.0,500.0,505.0,527.0
501.0,509.0,505.0,505.0,527.0
501.0,510.0,508.0,503.0,530.0
503.0,511.0,511.0,501.0,526.0
503.0,509.0,513.0,499.0,524.0
506.0,509.0,516.0,503.0,518.0
513.0,507.0,518.0,504.0,504.0
526.0,508.0,523.0,511.0,496.0
529.0,508.0,523.0,517.0,491.0
532.0,509.0,525.0,525.0,492.0
535.0,509.0,525.0,528.0,498.0
532.0,505.0,521.0,531.0,507.0
525.0,505.0,517.0,528.0,513.0
518.0,503.0,511.0,525.0,513.0
504.0,498.0,498.0,516.0,516.0
497.0,500.0,497.0,511.0,521.0
499.0,504.0,499.0,508.0,525.0
498.0,511.0,502.0,506.0,525.0
502.0,509.0,509.0,505.0,519.0
503.0,507.0,509.0,502.0,509.0
507.0,511.0,513.0,503.0,507.0
508.0,506.0,515.0,505.0,513.0
513.0,507.0,516.0,502.0,512.0
515.0,506.0,519.0,503.0,509.0
522.0,506.0,522.0,512.0,508.0
530.0,509.0,525.0,520.0,500.0
536.0,508.0,526.0,526.0,497.0
533.0,507.0,524.0,530.0,502.0
527.0,509.0,519.0,532.0,503.0
522.0,505.0,517.0,532.0,504.0
518.0,503.0,511.0,524.0,514.0
506.0,498.0,498.0,511.0,528.0
494.0,500.0,496.0,507.0,536.0
490.0,503.0,498.0,504.0,536.0
493.0,506.0,503.0,504.0,524.0
498.0,508.0,505.0,502.0,513.0
507.0,514.0,510.0,504.0,511.0
507.0,512.0,512.0,501.0,509.0
510.0,509.0,517.0,502.0,510.0
515.0,507.0,520.0,505.0,509.0
519.0,507.0,525.0,509.0,502.0
525.0,506.0,524.0,516.0,498.0
533.0,509.0,525.0,524.0,497.0
534.0,509.0,528.0,530.0,491.0
528.0,505.0,521.0,529.0,503.0
524.0,504.0,518.0,527.0,514.0
519.0,503.0,513.0,524.0,521.0
509.0,498.0,504.0,516.0,538.0
498.0,498.0,498.0,509.0,550.0
496.0,502.0,503.0,506.0,545.0
495.0,509.0,502.0,503.0,525.0
498.0,507.0,505.0,505.0,512.0
500.0,510.0,508.0,503.0,514.0
499.0,508.0,508.0,502.0,508.0
507.0,507.0,514.0,501.0,503.0
511.0,508.0,516.0,502.0,503.0
520.0,505.0,518.0,510.0,503.0
521.0,506.0,522.0,512.0,494.0
527.0,507.0,524.0,521.0,490.0
532.0,510.0,528.0,529.0,491.0
533.0,508.0,525.0,531.0,493.0
528.0,506.0,521.0,529.0,499.0
522.0,504.0,516.0,527.0,509.0
514.0,507.0,511.0,527.0,513.0
504.0,499.0,501.0,516.0,524.0
498.0,499.0,497.0,513.0,527.0
496.0,501.0,496.0,506.0,520.0
498.0,506.0,501.0,506.0,519.0
500.0,508.0,504.0,504.0,528.0
501.0,510.0,509.0,501.0,523.0
505.0,508.0,511.0,501.0,523.0
507.0,506.0,514.0,501.0,513.0
515.0,508.0,522.0,505.0,507.0
515.0,506.0,518.0,505.0,507.0
524.0,505.0,521.0,510.0,505.0
526.0,508.0,525.0,520.0,503.0
529.0,509.0,526.0,527.0,501.0
527.0,506.0,523.0,531.0,505.0
524.0,504.0,518.0,529.0,510.0
520.0,504.0,514.0,527.0,512.0
517.0,505.0,510.0,525.0,514.0
504.0,499.0,500.0,516.0,522.0
497.0,500.0,496.0,511.0,525.0
495.0,502.0,497.0,505.0,524.0
497.0,504.0,502.0,505.0,521.0
499.0,509.0,505.0,503.0,522.0
504.0,510.0,512.0,503.0,520.0
510.0,512.0,514.0,503.0,520.0
512.0,510.0,518.0,505.0,519.0
515.0,507.0,516.0,504.0,515.0
519.0,506.0,518.0,511.0,505.0
523.0,507.0,521.0,514.0,500.0
534.0,509.0,526.0,525.0,497.0
536.0,510.0,527.0,532.0,486.0
530.0,506.0,522.0,530.0,498.0
523.0,505.0,516.0,529.0,503.0
516.0,504.0,513.0,527.0,508.0
509.0,501.0,509.0,521.0,519.0
499.0,499.0,498.0,511.0,528.0
501.0,502.0,501.0,508.0,528.0
499.0,505.0,502.0,506.0,524.0
498.0,507.0,501.0,502.0,524.0
500.0,508.0,505.0,503.0,522.0
504.0,509.0,509.0,502.0,520.0
508.0,509.0,515.0,502.0,516.0
512.0,508.0,518.0,505.0,511.0
515.0,505.0,517.0,503.0,507.0
521.0,506.0,521.0,508.0,512.0
528.0,510.0,522.0,518.0,503.0
530.0,509.0,526.0,525.0,499.0
531.0,508.0,524.0,529.0,496.0
531.0,505.0,518.0,529.0,497.0
524.0,504.0,515.0,529.0,505.0
518.0,503.0,514.0,525.0,516.0
509.0,502.0,502.0,517.0,533.0
501.0,500.0,498.0,510.0,535.0
501.0,502.0,497.0,506.0,527.0
502.0,511.0,499.0,504.0,520.0
500.0,506.0,502.0,501.0,524.0
498.0,508.0,506.0,503.0,514.0
501.0,508.0,513.0,504.0,510.0
508.0,509.0,515.0,503.0,513.0
513.0,506.0,516.0,502.0,508.0
516.0,505.0,518.0,501.0,508.0
522.0,507.0,522.0,512.0,507.0
530.0,509.0,525.0,523.0,499.0
531.0,508.0,527.0,526.0,497.0
528.0,505.0,522.0,530.0,501.0
522.0,504.0,519.0,530.0,508.0
518.0,504.0,514.0,527.0,515.0
517.0,503.0,511.0,526.0,516.0
505.0,498.0,499.0,513.0,521.0
498.0,500.0,496.0,508.0,518.0
498.0,505.0,502.0,507.0,516.0
501.0,508.0,504.0,506.0,520.0
500.0,512.0,505.0,503.0,519.0
505.0,506.0,508.0,501.0,513.0
509.0,510.0,514.0,503.0,513.0
514.0,508.0,519.0,501.0,513.0
514.0,506.0,518.0,503.0,508.0
518.0,504.0,520.0,506.0,504.0
521.0,504.0,521.0,515.0,501.0
529.0,507.0,525.0,522.0,501.0
533.0,508.0,528.0,529.0,501.0
533.0,509.0,522.0,529.0,506.0
527.0,506.0,518.0,529.0,512.0
518.0,505.0,513.0,526.0,520.0
509.0,503.0,504.0,522.0,529.0
496.0,497.0,499.0,511.0,525.0
495.0,506.0,497.0,508.0,528.0
497.0,505.0,499.0,505.0,524.0
503.0,509.0,505.0,504.0,515.0
503.0,509.0,507.0,503.0,505.0
505.0,509.0,510.0,501.0,507.0
510.0,511.0,517.0,503.0,512.0
513.0,509.0,516.0,502.0,526.0
514.0,506.0,519.0,505.0,514.0
519.0,504.0,520.0,509.0,503.0
523.0,505.0,522.0,515.0,502.0
531.0,508.0,526.0,530.0,502.0
533.0,509.0,526.0,531.0,505.0
533.0,507.0,522.0,528.0,510.0
524.0,504.0,516.0,529.0,511.0
519.0,504.0,512.0,527.0,509.0
507.0,498.0,502.0,517.0,525.0
499.0,500.0,498.0,510.0,532.0
497.0,503.0,497.0,508.0,531.0
502.0,506.0,503.0,504.0,526.0
500.0,507.0,504.0,503.0,523.0
506.0,508.0,507.0,501.0,518.0
506.0,510.0,513.0,503.0,517.0
511.0,510.0,517.0,503.0,514.0
517.0,508.0,521.0,503.0,509.0
517.0,505.0,518.0,506.0,507.0
522.0,506.0,521.0,513.0,502.0
528.0,508.0,525.0,520.0,500.0
531.0,508.0,525.0,526.0,497.0
528.0,505.0,523.0,527.0,506.0
525.0,505.0,519.0,529.0,513.0
519.0,503.0,514.0,528.0,514.0
515.0,503.0,511.0,525.0,514.0
502.0,498.0,499.0,513.0,527.0
498.0,500.0,498.0,510.0,524.0
501.0,503.0,500.0,506.0,527.0
499.0,506.0,502.0,505.0,518.0
499.0,506.0,503.0,501.0,520.0
504.0,509.0,509.0,502.0,514.0
510.0,511.0,514.0,503.0,513.0
511.0,508.0,516.0,501.0,510.0
513.0,506.0,516.0,505.0,509.0
519.0,507.0,521.0,508.0,509.0
523.0,507.0,523.0,514.0,510.0
530.0,509.0,526.0,522.0,507.0
532.0,509.0,527.0,529.0,504.0
529.0,505.0,522.0,529.0,507.0
524.0,506.0,518.0,529.0,510.0
517.0,504.0,514.0,527.0,517.0
509.0,500.0,507.0,520.0,526.0
501.0,499.0,502.0,511.0,527.0
499.0,501.0,497.0,508.0,528.0
497.0,504.0,500.0,506.0,519.0
498.0,506.0,503.0,503.0,521.0
501.0,508.0,508.0,503.0,524.0
502.0,509.0,510.0,500.0,526.0
505.0,505.0,514.0,500.0,516.0
510.0,508.0,517.0,502.0,511.0
517.0,507.0,521.0,508.0,504.0
520.0,505.0,520.0,509.0,505.0
523.0,507.0,521.0,516.0,504.0
530.0,507.0,527.0,522.0,500.0
532.0,508.0,526.0,534.0,495.0
528.0,505.0,525.0,531.0,496.0
525.0,504.0,519.0,529.0,499.0
520.0,502.0,511.0,524.0,507.0
506.0,498.0,501.0,516.0,523.0
499.0,499.0,501.0,512.0,528.0
498.0,503.0,498.0,510.0,529.0
499.0,506.0,501.0,505.0,527.0
504.0,507.0,504.0,501.0,522.0
504.0,509.0,507.0,502.0,521.0
509.0,511.0,512.0,502.0,519.0
511.0,508.0,514.0,502.0,514.0
512.0,507.0,515.0,501.0,514.0
514.0,506.0,519.0,506.0,508.0
522.0,508.0,523.0,513.0,504.0
530.0,510.0,527.0,521.0,499.0
533.0,510.0,527.0,529.0,494.0
528.0,507.0,524.0,530.0,498.0
525.0,505.0,518.0,530.0,506.0
520.0,503.0,514.0,527.0,513.0
513.0,503.0,511.0,525.0,516.0
498.0,498.0,499.0,514.0,524.0
494.0,499.0,496.0,508.0,529.0
495.0,504.0,499.0,504.0,530.0
498.0,509.0,503.0,505.0,529.0
501.0,508.0,504.0,502.0,526.0
506.0,510.0,509.0,503.0,522.0
508.0,510.0,515.0,503.0,520.0
508.0,512.0,514.0,501.0,510.0
510.0,505.0,514.0,502.0,501.0
515.0,505.0,518.0,507.0,503.0
521.0,507.0,521.0,514.0,503.0
526.0,505.0,523.0,522.0,497.0
534.0,509.0,527.0,530.0,497.0
531.0,506.0,522.0,530.0,501.0
525.0,505.0,518.0,527.0,506.0
520.0,504.0,514.0,527.0,511.0
513.0,505.0,506.0,522.0,520.0
501.0,499.0,499.0,512.0,526.0
496.0,499.0,497.0,506.0,522.0
495.0,503.0,498.0,504.0,528.0
499.0,507.0,503.0,504.0,533.0
503.0,510.0,507.0,503.0,525.0
505.0,514.0,509.0,501.0,520.0
510.0,510.0,511.0,500.0,513.0
512.0,507.0,515.0,501.0,512.0
517.0,507.0,519.0,504.0,513.0
523.0,511.0,523.0,511.0,512.0
525.0,512.0,524.0,517.0,507.0
533.0,513.0,527.0,525.0,501.0
533.0,509.0,526.0,528.0,499.0
528.0,506.0,517.0,530.0,498.0
525.0,505.0,519.0,528.0,511.0
524.0,503.0,510.0,525.0,511.0
505.0,499.0,501.0,514.0,528.0
488.0,498.0,495.0,507.0,527.0
488.0,501.0,496.0,506.0,528.0
493.0,506.0,501.0,506.0,522.0
496.0,509.0,506.0,505.0,521.0
502.0,510.0,508.0,502.0,521.0
505.0,509.0,510.0,500.0,519.0
509.0,509.0,515.0,502.0,510.0
513.0,508.0,517.0,502.0,502.0
514.0,506.0,518.0,503.0,509.0
518.0,506.0,521.0,509.0,509.0
523.0,508.0,524.0,518.0,504.0
530.0,509.0,527.0,528.0,498.0
530.0,506.0,522.0,531.0,501.0
529.0,507.0,520.0,532.0,506.0
527.0,506.0,516.0,530.0,513.0
519.0,504.0,511.0,523.0,514.0
506.0,498.0,499.0,513.0,524.0
499.0,499.0,495.0,506.0,527.0
495.0,506.0,496.0,505.0,529.0
495.0,507.0,500.0,504.0,528.0
493.0,507.0,504.0,502.0,522.0
500.0,509.0,508.0,502.0,515.0
507.0,510.0,512.0,501.0,508.0
511.0,508.0,514.0,504.0,503.0
511.0,507.0,516.0,500.0,500.0
518.0,506.0,519.0,506.0,495.0
526.0,507.0,521.0,512.0,492.0
530.0,509.0,525.0,521.0,492.0
533.0,509.0,526.0,526.0,494.0
531.0,507.0,524.0,531.0,503.0
524.0,505.0,519.0,527.0,509.0
521.0,504.0,512.0,528.0,517.0
509.0,500.0,504.0,520.0,518.0
498.0,499.0,496.0,511.0,524.0
494.0,502.0,497.0,505.0,520.0
494.0,505.0,499.0,502.0,522.0
498.0,509.0,503.0,504.0,521.0
502.0,509.0,505.0,502.0,518.0
506.0,513.0,509.0,500.0,516.0
510.0,511.0,515.0,503.0,513.0
512.0,510.0,517.0,503.0,512.0
517.0,509.0,517.0,505.0,512.0
520.0,504.0,522.0,511.0,507.0
521.0,507.0,524.0,513.0,502.0
528.0,508.0,526.0,524.0,502.0
508.0,501.0,507.0,523.0,524.0
498.0,502.0,499.0,513.0,537.0
494.0,501.0,497.0,509.0,533.0
501.0,508.0,501.0,509.0,521.0
500.0,513.0,502.0,508.0,510.0
499.0,509.0,507.0,505.0,518.0
502.0,510.0,512.0,508.0,519.0
505.0,515.0,515.0,502.0,521.0
512.0,507.0,516.0,502.0,520.0
516.0,507.0,517.0,503.0,512.0
520.0,506.0,521.0,510.0,498.0
525.0,508.0,526.0,517.0,503.0
526.0,507.0,526.0,523.0,496.0
529.0,508.0,527.0,531.0,494.0
526.0,507.0,523.0,533.0,497.0
524.0,504.0,515.0,528.0,502.0
516.0,507.0,512.0,528.0,514.0
510.0,502.0,500.0,517.0,522.0
506.0,500.0,497.0,511.0,533.0
506.0,505.0,501.0,509.0,530.0
502.0,505.0,498.0,504.0,525.0
502.0,510.0,504.0,505.0,518.0
502.0,511.0,508.0,504.0,514.0
498.0,510.0,512.0,505.0,510.0
494.0,509.0,514.0,501.0,512.0
503.0,508.0,517.0,505.0,510.0
513.0,507.0,519.0,506.0,507.0
522.0,506.0,521.0,513.0,498.0
524.0,507.0,524.0,519.0,497.0
533.0,509.0,527.0,525.0,487.0
533.0,507.0,524.0,529.0,487.0
530.0,507.0,522.0,532.0,490.0
523.0,504.0,515.0,530.0,492.0
514.0,503.0,510.0,525.0,524.0
498.0,499.0,499.0,517.0,551.0
492.0,499.0,496.0,507.0,537.0
496.0,506.0,498.0,507.0,531.0
497.0,509.0,500.0,504.0,529.0
502.0,511.0,505.0,504.0,527.0
506.0,511.0,508.0,502.0,522.0
509.0,511.0,515.0,504.0,523.0
512.0,510.0,516.0,504.0,517.0
515.0,506.0,515.0,502.0,504.0
519.0,506.0,521.0,507.0,505.0
519.0,505.0,522.0,513.0,500.0
525.0,507.0,526.0,522.0,501.0
530.0,507.0,526.0,528.0,499.0
528.0,506.0,523.0,529.0,508.0
531.0,506.0,520.0,528.0,515.0
517.0,505.0,510.0,527.0,503.0
516.0,498.0,504.0,520.0,505.0
508.0,500.0,496.0,511.0,516.0
500.0,506.0,500.0,510.0,528.0
497.0,506.0,501.0,507.0,525.0
498.0,508.0,504.0,504.0,523.0
498.0,509.0,508.0,502.0,527.0
502.0,509.0,505.0,503.0,514.0
506.0,512.0,515.0,505.0,515.0
512.0,510.0,517.0,504.0,511.0
515.0,506.0,517.0,504.0,508.0
520.0,506.0,521.0,510.0,504.0
524.0,508.0,524.0,516.0,495.0
530.0,507.0,526.0,525.0,498.0
533.0,508.0,528.0,528.0,492.0
528.0,505.0,521.0,529.0,491.0
525.0,508.0,516.0,530.0,501.0
516.0,503.0,511.0,527.0,512.0
500.0,498.0,503.0,518.0,534.0
492.0,499.0,494.0,511.0,531.0
496.0,504.0,499.0,510.0,528.0
497.0,506.0,500.0,506.0,523.0
502.0,508.0,503.0,506.0,515.0
504.0,512.0,508.0,503.0,518.0
506.0,511.0,512.0,500.0,515.0
510.0,512.0,515.0,502.0,521.0
511.0,509.0,517.0,502.0,519.0
515.0,505.0,519.0,506.0,520.0
522.0,505.0,522.0,512.0,507.0
528.0,506.0,526.0,520.0,501.0
531.0,508.0,527.0,525.0,493.0
529.0,506.0,523.0,527.0,490.0
528.0,507.0,519.0,531.0,497.0
520.0,504.0,517.0,526.0,505.0
516.0,503.0,510.0,527.0,504.0
500.0,498.0,500.0,515.0,512.0
493.0,503.0,496.0,514.0,528.0
494.0,504.0,497.0,507.0,531.0
497.0,510.0,503.0,508.0,526.0
496.0,509.0,506.0,503.0,520.0
501.0,511.0,509.0,505.0,517.0
508.0,513.0,515.0,506.0,511.0
510.0,510.0,516.0,503.0,511.0
514.0,504.0,516.0,503.0,511.0
522.0,509.0,519.0,511.0,509.0
531.0,505.0,520.0,512.0,509.0
543.0,508.0,525.0,520.0,504.0
540.0,508.0,525.0,529.0,499.0
527.0,503.0,521.0,530.0,500.0
524.0,506.0,519.0,529.0,504.0
513.0,501.0,512.0,527.0,506.0
506.0,500.0,505.0,520.0,516.0
499.0,500.0,499.0,513.0,528.0
502.0,504.0,502.0,509.0,533.0
494.0,506.0,499.0,507.0,524.0
498.0,508.0,503.0,506.0,516.0
503.0,511.0,506.0,503.0,517.0
508.0,511.0,511.0,503.0,520.0
511.0,512.0,512.0,502.0,521.0
516.0,509.0,514.0,501.0,510.0
514.0,504.0,516.0,505.0,504.0
521.0,507.0,523.0,514.0,507.0
524.0,505.0,524.0,517.0,502.0
531.0,509.0,525.0,524.0,500.0
537.0,511.0,524.0,527.0,495.0
533.0,503.0,520.0,529.0,496.0
530.0,506.0,514.0,527.0,502.0
517.0,504.0,513.0,527.0,511.0
503.0,499.0,499.0,515.0,526.0
497.0,499.0,497.0,512.0,529.0
493.0,502.0,496.0,507.0,527.0
494.0,506.0,500.0,507.0,523.0
494.0,506.0,503.0,507.0,519.0
500.0,511.0,510.0,506.0,522.0
508.0,512.0,515.0,505.0,516.0
509.0,511.0,518.0,505.0,520.0
511.0,507.0,516.0,502.0,510.0
516.0,503.0,515.0,504.0,506.0
518.0,507.0,519.0,511.0,511.0
520.0,508.0,525.0,519.0,502.0
525.0,510.0,528.0,528.0,494.0
525.0,507.0,526.0,532.0,497.0
524.0,507.0,522.0,532.0,508.0
519.0,504.0,514.0,528.0,514.0
518.0,503.0,509.0,526.0,512.0
504.0,496.0,498.0,515.0,516.0
497.0,497.0,494.0,508.0,520.0
498.0,504.0,501.0,506.0,518.0
501.0,507.0,501.0,506.0,519.0
504.0,508.0,503.0,503.0,524.0
507.0,510.0,508.0,502.0,524.0
509.0,509.0,512.0,502.0,517.0
507.0,506.0,514.0,504.0,514.0
524.0,508.0,516.0,503.0,511.0
522.0,504.0,519.0,507.0,499.0
522.0,505.0,522.0,514.0,501.0
524.0,507.0,524.0,520.0,499.0
532.0,508.0,526.0,527.0,494.0
531.0,506.0,523.0,531.0,497.0
525.0,505.0,517.0,529.0,504.0
520.0,505.0,514.0,527.0,516.0
508.0,499.0,503.0,519.0,521.0
504.0,502.0,499.0,514.0,528.0
495.0,501.0,499.0,508.0,526.0
496.0,507.0,500.0,509.0,520.0
497.0,506.0,503.0,505.0,519.0
503.0,509.0,508.0,504.0,519.0
507.0,512.0,513.0,506.0,513.0
512.0,509.0,514.0,502.0,508.0
515.0,509.0,516.0,507.0,502.0
512.0,505.0,517.0,504.0,519.0
518.0,505.0,520.0,511.0,505.0
523.0,506.0,526.0,514.0,499.0
533.0,508.0,526.0,526.0,503.0
531.0,506.0,525.0,528.0,503.0
529.0,505.0,520.0,528.0,508.0
524.0,504.0,516.0,528.0,508.0
518.0,503.0,511.0,526.0,505.0
505.0,499.0,500.0,516.0,521.0
495.0,504.0,495.0,510.0,532.0
494.0,504.0,498.0,505.0,532.0
494.0,508.0,501.0,506.0,536.0
497.0,508.0,503.0,505.0,529.0
507.0,509.0,506.0,503.0,523.0
510.0,509.0,510.0,502.0,521.0
516.0,510.0,515.0,502.0,507.0
515.0,508.0,515.0,501.0,504.0
518.0,507.0,519.0,506.0,513.0
517.0,504.0,520.0,510.0,509.0
520.0,507.0,523.0,519.0,507.0
522.0,506.0,525.0,526.0,499.0
526.0,506.0,525.0,531.0,496.0
522.0,506.0,521.0,533.0,504.0
517.0,504.0,515.0,528.0,503.0
516.0,504.0,511.0,528.0,503.0
500.0,499.0,499.0,514.0,522.0
494.0,501.0,496.0,513.0,533.0
494.0,504.0,499.0,506.0,531.0
501.0,509.0,505.0,506.0,524.0
506.0,508.0,506.0,501.0,508.0
502.0,509.0,506.0,499.0,511.0
507.0,511.0,516.0,502.0,522.0
506.0,508.0,516.0,501.0,515.0
511.0,508.0,520.0,504.0,508.0
509.0,504.0,517.0,506.0,499.0
524.0,506.0,519.0,512.0,507.0
528.0,508.0,525.0,521.0,499.0
529.0,510.0,527.0,528.0,496.0
524.0,505.0,525.0,529.0,495.0
527.0,505.0,518.0,529.0,494.0
518.0,503.0,518.0,529.0,506.0
509.0,500.0,504.0,521.0,519.0
500.0,500.0,498.0,516.0,530.0
495.0,503.0,497.0,508.0,536.0
495.0,509.0,498.0,510.0,532.0
498.0,509.0,502.0,503.0,525.0
502.0,511.0,505.0,505.0,513.0
510.0,511.0,510.0,504.0,506.0
512.0,512.0,513.0,502.0,498.0
512.0,508.0,516.0,504.0,500.0
513.0,510.0,517.0,505.0,502.0
520.0,506.0,520.0,510.0,508.0
520.0,505.0,521.0,514.0,510.0
527.0,507.0,525.0,520.0,501.0
532.0,507.0,524.0,528.0,500.0
525.0,508.0,520.0,533.0,500.0
522.0,505.0,519.0,529.0,507.0
523.0,509.0,517.0,528.0,514.0
506.0,500.0,502.0,513.0,520.0
501.0,501.0,494.0,510.0,529.0
498.0,503.0,493.0,508.0,531.0
499.0,508.0,502.0,505.0,532.0
497.0,512.0,504.0,504.0,522.0
507.0,513.0,507.0,500.0,519.0
508.0,512.0,517.0,505.0,515.0
514.0,509.0,519.0,504.0,506.0
520.0,509.0,522.0,506.0,502.0
526.0,507.0,518.0,505.0,502.0
528.0,504.0,514.0,510.0,501.0
530.0,506.0,520.0,516.0,507.0
532.0,508.0,524.0,524.0,498.0
529.0,505.0,523.0,528.0,492.0
528.0,505.0,519.0,529.0,494.0
523.0,504.0,517.0,526.0,500.0
512.0,501.0,508.0,523.0,519.0
497.0,502.0,497.0,515.0,534.0
492.0,501.0,496.0,508.0,531.0
493.0,506.0,500.0,509.0,535.0
493.0,508.0,501.0,504.0,532.0
497.0,509.0,504.0,502.0,534.0
505.0,510.0,512.0,503.0,529.0
508.0,513.0,514.0,503.0,522.0
513.0,509.0,516.0,502.0,518.0
516.0,506.0,515.0,501.0,515.0
519.0,505.0,524.0,507.0,521.0
523.0,506.0,524.0,515.0,505.0
530.0,508.0,526.0,521.0,505.0
533.0,507.0,526.0,527.0,497.0
526.0,503.0,520.0,530.0,488.0
523.0,504.0,518.0,531.0,496.0
516.0,503.0,514.0,526.0,512.0
510.0,501.0,506.0,521.0,523.0
502.0,499.0,498.0,513.0,535.0
499.0,503.0,497.0,508.0,537.0
498.0,505.0,498.0,512.0,526.0
501.0,509.0,503.0,506.0,520.0
498.0,509.0,506.0,502.0,513.0
498.0,509.0,510.0,508.0,507.0
506.0,510.0,514.0,503.0,513.0
506.0,505.0,515.0,499.0,519.0
513.0,506.0,522.0,504.0,513.0
518.0,506.0,521.0,512.0,494.0
522.0,506.0,524.0,518.0,498.0
526.0,508.0,526.0,524.0,495.0
529.0,507.0,526.0,529.0,495.0
523.0,505.0,518.0,529.0,493.0
522.0,505.0,517.0,530.0,503.0
514.0,504.0,512.0,528.0,511.0
506.0,498.0,499.0,516.0,527.0
504.0,501.0,497.0,512.0,531.0
498.0,504.0,498.0,506.0,536.0
500.0,508.0,502.0,506.0,536.0
501.0,508.0,502.0,505.0,531.0
507.0,513.0,509.0,504.0,522.0
506.0,511.0,512.0,503.0,517.0
508.0,507.0,514.0,502.0,507.0
514.0,508.0,519.0,504.0,509.0
518.0,507.0,519.0,507.0,510.0
520.0,506.0,521.0,510.0,510.0
526.0,507.0,526.0,520.0,494.0
530.0,507.0,527.0,526.0,485.0
535.0,506.0,523.0,529.0,490.0
532.0,509.0,520.0,531.0,496.0
526.0,503.0,515.0,527.0,499.0
518.0,500.0,509.0,528.0,518.0
505.0,502.0,499.0,513.0,531.0
496.0,498.0,494.0,507.0,532.0
495.0,505.0,499.0,508.0,528.0
495.0,508.0,502.0,506.0,525.0
496.0,510.0,505.0,505.0,527.0
502.0,510.0,508.0,502.0,520.0
513.0,511.0,513.0,501.0,513.0
516.0,508.0,514.0,506.0,512.0
521.0,507.0,517.0,502.0,508.0
525.0,506.0,521.0,507.0,509.0
525.0,507.0,523.0,513.0,513.0
528.0,506.0,522.0,520.0,505.0
526.0,508.0,528.0,529.0,501.0
526.0,506.0,523.0,531.0,498.0
524.0,504.0,517.0,530.0,491.0
522.0,503.0,516.0,525.0,503.0
510.0,498.0,504.0,523.0,511.0
502.0,499.0,499.0,514.0,521.0
497.0,502.0,498.0,509.0,524.0
495.0,504.0,498.0,506.0,531.0
501.0,512.0,504.0,506.0,526.0
501.0,508.0,505.0,503.0,522.0
507.0,510.0,507.0,501.0,521.0
513.0,513.0,515.0,504.0,518.0
511.0,508.0,516.0,503.0,509.0
515.0,506.0,518.0,505.0,503.0
525.0,507.0,521.0,511.0,503.0
531.0,508.0,523.0,515.0,497.0
532.0,506.0,525.0,522.0,504.0
529.0,507.0,526.0,529.0,502.0
523.0,508.0,520.0,531.0,512.0
523.0,505.0,519.0,528.0,513.0
512.0,503.0,511.0,525.0,526.0
500.0,498.0,507.0,516.0,532.0
498.0,501.0,499.0,513.0,525.0
496.0,506.0,499.0,510.0,516.0
500.0,506.0,500.0,506.0,506.0
504.0,507.0,503.0,502.0,508.0
504.0,508.0,509.0,501.0,504.0
503.0,509.0,514.0,501.0,526.0
507.0,510.0,515.0,502.0,518.0
511.0,507.0,516.0,502.0,507.0
515.0,505.0,519.0,505.0,509.0
522.0,506.0,523.0,511.0,507.0
525.0,507.0,527.0,517.0,498.0
532.0,509.0,529.0,529.0,491.0
529.0,505.0,524.0,530.0,495.0
526.0,505.0,522.0,532.0,495.0
520.0,503.0,513.0,526.0,499.0
515.0,503.0,510.0,525.0,526.0
502.0,500.0,500.0,512.0,538.0
495.0,499.0,495.0,505.0,527.0
496.0,505.0,499.0,506.0,529.0
500.0,508.0,503.0,508.0,524.0
502.0,508.0,506.0,504.0,525.0
508.0,511.0,512.0,503.0,525.0
510.0,511.0,516.0,503.0,517.0
511.0,507.0,515.0,501.0,512.0
520.0,507.0,513.0,504.0,511.0
520.0,507.0,521.0,508.0,506.0
522.0,506.0,522.0,513.0,506.0
530.0,508.0,525.0,521.0,503.0
528.0,506.0,524.0,525.0,496.0
527.0,507.0,523.0,529.0,494.0
523.0,505.0,518.0,531.0,498.0
518.0,504.0,515.0,529.0,506.0
507.0,501.0,503.0,520.0,524.0
501.0,499.0,496.0,511.0,536.0
502.0,507.0,497.0,511.0,523.0
500.0,507.0,500.0,508.0,513.0
503.0,510.0,502.0,505.0,513.0
503.0,509.0,504.0,505.0,513.0
507.0,510.0,510.0,502.0,523.0
515.0,511.0,516.0,502.0,524.0
507.0,508.0,517.0,499.0,516.0
510.0,506.0,519.0,509.0,516.0
523.0,508.0,522.0,510.0,503.0
525.0,507.0,524.0,514.0,496.0
531.0,509.0,527.0,524.0,499.0
527.0,507.0,525.0,526.0,499.0
525.0,507.0,525.0,528.0,506.0
517.0,503.0,517.0,528.0,516.0
515.0,506.0,514.0,529.0,522.0
501.0,498.0,496.0,516.0,511.0
495.0,504.0,494.0,511.0,519.0
496.0,504.0,499.0,509.0,518.0
500.0,510.0,499.0,506.0,523.0
498.0,510.0,505.0,504.0,533.0
501.0,511.0,509.0,502.0,523.0
500.0,510.0,512.0,502.0,510.0
506.0,510.0,516.0,506.0,507.0
515.0,510.0,518.0,503.0,508.0
520.0,508.0,518.0,508.0,498.0
522.0,506.0,522.0,510.0,497.0
533.0,509.0,527.0,519.0,492.0
534.0,511.0,529.0,528.0,487.0
530.0,509.0,522.0,529.0,494.0
523.0,505.0,520.0,530.0,510.0
515.0,502.0,513.0,526.0,525.0
516.0,505.0,512.0,526.0,527.0
507.0,501.0,499.0,514.0,521.0
500.0,499.0,493.0,507.0,521.0
501.0,504.0,497.0,505.0,525.0
503.0,509.0,501.0,504.0,527.0
502.0,506.0,502.0,503.0,527.0
504.0,509.0,508.0,502.0,518.0
509.0,514.0,514.0,503.0,514.0
512.0,509.0,519.0,502.0,512.0
517.0,507.0,518.0,502.0,507.0
523.0,507.0,521.0,511.0,504.0
524.0,506.0,523.0,516.0,499.0
525.0,506.0,524.0,523.0,492.0
526.0,508.0,527.0,528.0,491.0
530.0,506.0,523.0,529.0,498.0
524.0,503.0,516.0,528.0,494.0
516.0,502.0,512.0,526.0,513.0
505.0,501.0,504.0,519.0,532.0
494.0,499.0,496.0,511.0,525.0
497.0,503.0,498.0,508.0,521.0
491.0,504.0,498.0,503.0,525.0
487.0,507.0,502.0,503.0,531.0
499.0,509.0,504.0,502.0,526.0
506.0,511.0,511.0,504.0,524.0
508.0,510.0,515.0,503.0,514.0
507.0,507.0,516.0,502.0,504.0
509.0,505.0,517.0,504.0,509.0
528.0,508.0,521.0,509.0,506.0
540.0,509.0,527.0,519.0,499.0
531.0,508.0,524.0,522.0,500.0
530.0,508.0,526.0,528.0,502.0
527.0,506.0,522.0,532.0,506.0
524.0,505.0,516.0,529.0,501.0
520.0,503.0,512.0,527.0,505.0
509.0,499.0,502.0,519.0,520.0
500.0,500.0,497.0,509.0,526.0
496.0,502.0,501.0,506.0,530.0
495.0,507.0,500.0,504.0,529.0
497.0,513.0,502.0,504.0,525.0
503.0,512.0,509.0,504.0,520.0
507.0,512.0,509.0,501.0,517.0
520.0,508.0,513.0,499.0,519.0
519.0,511.0,515.0,502.0,512.0
515.0,505.0,522.0,503.0,505.0
517.0,505.0,527.0,512.0,499.0
524.0,507.0,525.0,523.0,484.0
533.0,510.0,529.0,530.0,481.0
533.0,506.0,527.0,530.0,490.0
527.0,504.0,519.0,530.0,505.0
519.0,503.0,514.0,526.0,520.0
511.0,504.0,509.0,525.0,521.0
500.0,499.0,499.0,515.0,524.0
497.0,500.0,496.0,509.0,525.0
498.0,506.0,499.0,508.0,522.0
499.0,507.0,501.0,505.0,518.0
499.0,509.0,504.0,503.0,520.0
504.0,512.0,508.0,503.0,524.0
510.0,511.0,515.0,501.0,514.0
511.0,508.0,514.0,503.0,511.0
516.0,507.0,519.0,501.0,509.0
520.0,507.0,524.0,508.0,506.0
525.0,507.0,521.0,512.0,509.0
529.0,509.0,528.0,521.0,517.0
531.0,509.0,530.0,529.0,509.0
527.0,507.0,526.0,531.0,516.0
520.0,505.0,512.0,531.0,518.0
519.0,505.0,513.0,531.0,507.0
502.0,499.0,501.0,519.0,512.0
496.0,498.0,495.0,511.0,516.0
503.0,504.0,497.0,510.0,517.0
502.0,507.0,498.0,506.0,522.0
499.0,508.0,502.0,505.0,521.0
505.0,510.0,506.0,504.0,521.0
507.0,510.0,512.0,501.0,520.0
508.0,510.0,520.0,503.0,521.0
510.0,510.0,522.0,504.0,519.0
519.0,508.0,522.0,504.0,514.0
522.0,506.0,516.0,510.0,503.0
524.0,506.0,520.0,517.0,493.0
532.0,509.0,526.0,526.0,489.0
533.0,507.0,524.0,529.0,486.0
530.0,505.0,519.0,531.0,491.0
517.0,502.0,514.0,527.0,499.0
508.0,507.0,510.0,527.0,514.0
503.0,500.0,501.0,517.0,520.0
497.0,499.0,494.0,508.0,535.0
496.0,503.0,495.0,505.0,534.0
494.0,510.0,499.0,508.0,535.0
500.0,510.0,503.0,506.0,516.0
504.0,511.0,509.0,505.0,510.0
505.0,510.0,512.0,505.0,516.0
513.0,511.0,516.0,504.0,513.0
516.0,508.0,517.0,503.0,511.0
518.0,506.0,520.0,511.0,510.0
519.0,505.0,521.0,512.0,508.0
521.0,506.0,526.0,516.0,495.0
524.0,511.0,528.0,528.0,494.0
529.0,506.0,524.0,530.0,496.0
522.0,505.0,518.0,529.0,500.0
520.0,504.0,514.0,526.0,505.0
521.0,505.0,516.0,526.0,505.0
507.0,505.0,500.0,518.0,512.0
499.0,503.0,497.0,511.0,516.0
497.0,510.0,497.0,508.0,520.0
493.0,508.0,507.0,502.0,545.0
497.0,509.0,505.0,502.0,532.0
504.0,509.0,509.0,500.0,524.0
509.0,511.0,515.0,502.0,518.0
512.0,508.0,515.0,502.0,508.0
521.0,509.0,514.0,503.0,496.0
524.0,507.0,521.0,510.0,502.0
521.0,506.0,523.0,514.0,503.0
523.0,507.0,527.0,521.0,513.0
523.0,506.0,529.0,524.0,513.0
523.0,505.0,524.0,529.0,506.0
513.0,502.0,515.0,528.0,505.0
513.0,505.0,515.0,528.0,511.0
503.0,500.0,504.0,520.0,521.0
501.0,499.0,497.0,512.0,511.0
497.0,501.0,498.0,508.0,528.0
496.0,504.0,499.0,506.0,527.0
506.0,509.0,503.0,505.0,513.0
503.0,510.0,509.0,508.0,524.0
507.0,511.0,511.0,501.0,523.0
518.0,509.0,514.0,499.0,512.0
518.0,509.0,518.0,502.0,516.0
512.0,506.0,517.0,502.0,517.0
517.0,505.0,521.0,510.0,510.0
531.0,508.0,524.0,516.0,506.0
537.0,509.0,532.0,524.0,507.0
535.0,507.0,527.0,527.0,503.0
534.0,509.0,519.0,529.0,509.0
527.0,503.0,515.0,529.0,498.0
519.0,505.0,513.0,528.0,503.0
500.0,499.0,500.0,518.0,503.0
492.0,499.0,501.0,508.0,517.0
496.0,504.0,500.0,507.0,524.0
499.0,507.0,501.0,505.0,528.0
500.0,509.0,502.0,504.0,521.0
505.0,511.0,510.0,504.0,524.0
508.0,512.0,515.0,502.0,528.0
508.0,508.0,515.0,500.0,522.0
510.0,509.0,519.0,502.0,511.0
511.0,507.0,520.0,506.0,505.0
522.0,506.0,522.0,511.0,502.0
529.0,506.0,523.0,518.0,490.0
532.0,508.0,526.0,527.0,476.0
528.0,508.0,525.0,532.0,483.0
520.0,505.0,520.0,530.0,511.0
513.0,502.0,516.0,525.0,516.0
517.0,503.0,510.0,528.0,507.0
506.0,499.0,499.0,516.0,517.0
498.0,500.0,496.0,507.0,518.0
497.0,503.0,497.0,506.0,523.0
504.0,510.0,504.0,507.0,524.0
499.0,509.0,506.0,501.0,529.0
503.0,510.0,508.0,503.0,524.0
506.0,512.0,513.0,502.0,517.0
508.0,506.0,513.0,501.0,515.0
514.0,508.0,519.0,502.0,521.0
520.0,506.0,521.0,507.0,513.0
525.0,507.0,523.0,516.0,507.0
526.0,510.0,526.0,527.0,493.0
532.0,508.0,527.0,531.0,483.0
529.0,504.0,521.0,530.0,490.0
526.0,505.0,518.0,531.0,504.0
520.0,504.0,513.0,527.0,504.0
506.0,499.0,504.0,519.0,514.0
496.0,500.0,499.0,514.0,542.0
491.0,501.0,497.0,508.0,542.0
493.0,505.0,500.0,505.0,541.0
497.0,508.0,503.0,504.0,534.0
504.0,510.0,507.0,504.0,525.0
505.0,509.0,510.0,501.0,518.0
509.0,508.0,516.0,503.0,509.0
512.0,509.0,520.0,504.0,509.0
514.0,506.0,519.0,504.0,511.0
519.0,504.0,515.0,509.0,508.0
528.0,507.0,524.0,519.0,498.0
531.0,507.0,525.0,526.0,491.0
534.0,507.0,524.0,530.0,488.0
530.0,505.0,521.0,531.0,499.0
521.0,503.0,515.0,528.0,509.0
514.0,501.0,512.0,527.0,509.0
503.0,496.0,498.0,515.0,524.0
501.0,500.0,496.0,511.0,529.0
501.0,503.0,499.0,506.0,526.0
498.0,506.0,496.0,504.0,532.0
506.0,510.0,504.0,504.0,528.0
505.0,511.0,507.0,503.0,520.0
501.0,507.0,509.0,499.0,518.0
501.0,509.0,514.0,503.0,516.0
505.0,509.0,516.0,503.0,511.0
513.0,505.0,518.0,506.0,506.0
517.0,504.0,520.0,515.0,504.0
522.0,507.0,525.0,522.0,503.0
527.0,508.0,526.0,527.0,506.0
530.0,505.0,527.0,527.0,508.0
526.0,504.0,517.0,528.0,513.0
523.0,503.0,512.0,528.0,516.0
514.0,504.0,509.0,527.0,513.0
500.0,500.0,502.0,516.0,519.0
493.0,500.0,496.0,512.0,525.0
493.0,504.0,501.0,513.0,528.0
497.0,509.0,500.0,504.0,523.0
498.0,507.0,501.0,501.0,516.0
503.0,511.0,509.0,503.0,519.0
515.0,511.0,516.0,501.0,511.0
517.0,511.0,515.0,503.0,514.0
519.0,504.0,515.0,502.0,512.0
524.0,507.0,521.0,510.0,516.0
526.0,506.0,522.0,513.0,508.0
526.0,508.0,525.0,523.0,513.0
520.0,506.0,525.0,532.0,506.0
518.0,506.0,519.0,534.0,484.0
514.0,506.0,517.0,531.0,500.0
509.0,502.0,511.0,525.0,514.0
499.0,497.0,498.0,515.0,513.0
498.0,500.0,495.0,514.0,513.0
500.0,504.0,497.0,508.0,529.0
509.0,507.0,499.0,508.0,514.0
508.0,509.0,506.0,505.0,510.0
507.0,510.0,507.0,506.0,506.0
504.0,508.0,509.0,502.0,518.0
507.0,510.0,517.0,503.0,512.0
511.0,508.0,517.0,504.0,498.0
513.0,505.0,518.0,505.0,497.0
517.0,510.0,520.0,516.0,497.0
515.0,507.0,523.0,516.0,511.0
533.0,508.0,527.0,526.0,510.0
543.0,507.0,524.0,529.0,496.0
534.0,507.0,521.0,531.0,506.0
524.0,504.0,515.0,528.0,509.0
517.0,507.0,510.0,528.0,516.0
509.0,500.0,501.0,518.0,532.0
503.0,498.0,493.0,509.0,539.0
499.0,504.0,497.0,508.0,537.0
499.0,507.0,500.0,507.0,520.0
499.0,507.0,502.0,503.0,527.0
504.0,511.0,507.0,506.0,517.0
505.0,507.0,509.0,502.0,507.0
512.0,510.0,514.0,505.0,496.0
513.0,508.0,518.0,505.0,518.0
519.0,508.0,520.0,506.0,516.0
520.0,507.0,521.0,512.0,508.0
525.0,512.0,525.0,519.0,496.0
528.0,511.0,523.0,525.0,491.0
536.0,505.0,521.0,529.0,493.0
531.0,504.0,520.0,528.0,503.0
528.0,506.0,518.0,529.0,509.0
517.0,506.0,508.0,523.0,531.0
504.0,501.0,495.0,514.0,532.0
501.0,505.0,496.0,510.0,517.0
495.0,505.0,498.0,508.0,512.0
496.0,508.0,500.0,505.0,513.0
494.0,512.0,504.0,505.0,523.0
499.0,515.0,509.0,502.0,526.0
504.0,509.0,512.0,500.0,529.0
506.0,508.0,515.0,502.0,516.0
512.0,508.0,517.0,505.0,498.0
521.0,509.0,521.0,509.0,499.0
525.0,507.0,522.0,516.0,502.0
528.0,508.0,523.0,521.0,502.0
524.0,508.0,524.0,528.0,500.0
518.0,507.0,525.0,530.0,500.0
510.0,503.0,513.0,529.0,493.0
495.0,501.0,510.0,526.0,498.0
470.0,499.0,501.0,518.0,522.0
451.0,496.0,495.0,513.0,530.0
442.0,498.0,493.0,509.0,531.0
445.0,502.0,496.0,506.0,534.0
451.0,506.0,502.0,503.0,536.0
469.0,512.0,504.0,504.0,528.0
519.0,507.0,506.0,501.0,512.0
547.0,511.0,513.0,502.0,507.0
549.0,510.0,516.0,504.0,505.0
564.0,512.0,521.0,500.0,525.0
554.0,514.0,524.0,510.0,543.0
544.0,515.0,524.0,519.0,516.0
545.0,509.0,528.0,529.0,498.0
554.0,509.0,529.0,535.0,490.0
542.0,509.0,523.0,533.0,497.0
526.0,505.0,518.0,530.0,500.0
520.0,504.0,517.0,527.0,500.0
511.0,500.0,506.0,520.0,520.0
509.0,503.0,504.0,515.0,527.0
511.0,505.0,497.0,509.0,521.0
508.0,507.0,486.0,506.0,514.0
506.0,507.0,502.0,503.0,509.0
508.0,510.0,506.0,505.0,501.0
512.0,509.0,508.0,503.0,505.0
515.0,509.0,515.0,504.0,503.0
518.0,506.0,515.0,503.0,503.0
521.0,505.0,518.0,505.0,496.0
525.0,506.0,521.0,513.0,504.0
530.0,508.0,524.0,522.0,502.0
532.0,508.0,525.0,528.0,496.0
527.0,505.0,520.0,528.0,497.0
524.0,505.0,516.0,528.0,509.0
517.0,504.0,508.0,530.0,513.0
511.0,502.0,504.0,528.0,528.0
503.0,500.0,494.0,517.0,531.0
505.0,502.0,489.0,509.0,529.0
501.0,505.0,492.0,508.0,522.0
513.0,512.0,499.0,510.0,521.0
513.0,511.0,501.0,507.0,520.0
507.0,512.0,507.0,510.0,516.0
503.0,508.0,510.0,503.0,514.0
510.0,508.0,512.0,497.0,521.0
506.0,504.0,513.0,495.0,512.0
516.0,506.0,522.0,506.0,506.0
526.0,512.0,529.0,519.0,502.0
528.0,507.0,529.0,525.0,499.0
530.0,508.0,527.0,529.0,499.0
530.0,506.0,519.0,530.0,509.0
525.0,504.0,515.0,528.0,510.0
512.0,503.0,513.0,528.0,511.0
500.0,498.0,501.0,521.0,517.0
499.0,500.0,499.0,516.0,522.0
500.0,504.0,498.0,514.0,519.0
501.0,508.0,498.0,510.0,519.0
501.0,508.0,502.0,508.0,520.0
503.0,508.0,506.0,505.0,522.0
504.0,512.0,507.0,502.0,524.0
510.0,510.0,514.0,504.0,507.0
509.0,507.0,513.0,502.0,504.0
506.0,504.0,515.0,502.0,509.0
516.0,503.0,519.0,510.0,501.0
524.0,507.0,527.0,515.0,498.0
530.0,508.0,524.0,522.0,497.0
538.0,509.0,523.0,528.0,498.0
529.0,505.0,520.0,528.0,516.0
521.0,504.0,517.0,528.0,514.0
515.0,503.0,517.0,530.0,501.0
501.0,498.0,503.0,518.0,528.0
494.0,504.0,499.0,516.0,544.0
490.0,504.0,500.0,512.0,543.0
491.0,504.0,484.0,504.0,532.0
492.0,505.0,495.0,506.0,506.0
499.0,512.0,505.0,508.0,506.0
508.0,510.0,511.0,504.0,518.0
522.0,510.0,517.0,504.0,502.0
517.0,506.0,515.0,502.0,500.0
515.0,504.0,519.0,508.0,496.0
521.0,507.0,520.0,515.0,519.0
527.0,512.0,526.0,527.0,516.0
528.0,512.0,530.0,533.0,509.0
529.0,508.0,526.0,533.0,515.0
519.0,506.0,532.0,536.0,507.0
505.0,508.0,537.0,534.0,519.0
499.0,502.0,535.0,531.0,504.0
497.0,496.0,517.0,518.0,509.0
497.0,502.0,500.0,513.0,536.0
498.0,502.0,464.0,507.0,528.0
518.0,511.0,484.0,505.0,528.0
511.0,508.0,488.0,504.0,505.0
499.0,507.0,494.0,499.0,514.0
501.0,507.0,503.0,498.0,528.0
512.0,509.0,509.0,499.0,523.0
495.0,503.0,507.0,506.0,520.0
500.0,502.0,511.0,508.0,507.0
516.0,504.0,521.0,518.0,489.0
527.0,506.0,521.0,525.0,491.0
519.0,508.0,521.0,535.0,494.0
508.0,504.0,516.0,538.0,490.0
515.0,504.0,512.0,543.0,488.0
512.0,507.0,511.0,544.0,491.0
495.0,502.0,498.0,533.0,506.0
479.0,499.0,487.0,525.0,516.0
432.0,499.0,480.0,515.0,541.0
428.0,504.0,481.0,507.0,552.0
465.0,516.0,487.0,505.0,529.0
460.0,510.0,496.0,504.0,538.0
433.0,504.0,491.0,503.0,523.0
447.0,503.0,493.0,500.0,497.0
557.0,518.0,501.0,507.0,479.0
593.0,515.0,513.0,516.0,485.0
552.0,510.0,515.0,517.0,487.0
548.0,512.0,516.0,518.0,499.0
575.0,514.0,519.0,528.0,513.0
589.0,511.0,516.0,528.0,506.0
568.0,510.0,508.0,529.0,508.0
543.0,509.0,506.0,528.0,496.0
525.0,508.0,500.0,528.0,505.0
512.0,503.0,497.0,529.0,534.0
502.0,503.0,491.0,523.0,556.0
495.0,505.0,494.0,531.0,536.0
487.0,510.0,498.0,523.0,542.0
494.0,505.0,491.0,513.0,543.0
510.0,510.0,493.0,502.0,519.0
515.0,512.0,501.0,502.0,489.0
519.0,516.0,513.0,508.0,495.0
530.0,516.0,517.0,510.0,486.0
555.0,514.0,520.0,504.0,494.0
554.0,512.0,532.0,507.0,518.0
548.0,508.0,535.0,520.0,496.0
554.0,510.0,545.0,530.0,479.0
530.0,507.0,551.0,545.0,467.0
510.0,503.0,531.0,557.0,487.0
506.0,509.0,524.0,553.0,511.0
498.0,498.0,519.0,549.0,517.0
485.0,493.0,503.0,527.0,522.0
489.0,496.0,502.0,520.0,514.0
503.0,501.0,514.0,519.0,514.0
526.0,514.0,528.0,510.0,519.0
526.0,518.0,536.0,515.0,522.0
538.0,518.0,531.0,512.0,538.0
522.0,511.0,502.0,510.0,544.0
528.0,510.0,502.0,516.0,540.0
526.0,502.0,495.0,514.0,511.0
527.0,505.0,515.0,525.0,492.0
533.0,508.0,518.0,531.0,482.0
542.0,509.0,507.0,532.0,497.0
549.0,513.0,517.0,546.0,486.0
540.0,509.0,518.0,558.0,492.0
534.0,506.0,511.0,557.0,503.0
534.0,505.0,507.0,554.0,502.0
506.0,499.0,495.0,547.0,525.0
492.0,501.0,501.0,534.0,535.0
492.0,505.0,497.0,532.0,520.0
486.0,506.0,505.0,529.0,523.0
476.0,509.0,503.0,532.0,512.0
481.0,513.0,502.0,535.0,503.0
500.0,512.0,506.0,533.0,503.0
491.0,509.0,509.0,543.0,508.0
475.0,504.0,499.0,538.0,507.0
469.0,506.0,483.0,534.0,517.0
472.0,511.0,465.0,537.0,518.0
480.0,512.0,468.0,542.0,536.0
489.0,512.0,453.0,552.0,529.0
528.0,517.0,461.0,556.0,495.0
527.0,516.0,453.0,552.0,503.0
546.0,519.0,458.0,556.0,501.0
551.0,515.0,465.0,555.0,508.0
482.0,498.0,468.0,551.0,516.0
447.0,493.0,485.0,544.0,532.0
443.0,497.0,473.0,534.0,538.0
468.0,507.0,466.0,540.0,527.0
479.0,508.0,470.0,523.0,556.0
501.0,509.0,468.0,527.0,521.0
542.0,514.0,501.0,525.0,505.0
557.0,512.0,513.0,515.0,522.0
517.0,494.0,502.0,516.0,492.0
498.0,492.0,495.0,525.0,505.0
517.0,503.0,498.0,537.0,491.0
529.0,508.0,514.0,547.0,472.0
543.0,511.0,526.0,555.0,474.0
537.0,511.0,495.0,556.0,474.0
537.0,512.0,498.0,554.0,499.0
500.0,505.0,505.0,558.0,530.0
490.0,500.0,487.0,565.0,515.0
503.0,497.0,482.0,559.0,524.0
470.0,507.0,504.0,558.0,552.0
486.0,508.0,510.0,560.0,531.0
500.0,513.0,519.0,561.0,510.0
508.0,513.0,512.0,557.0,501.0
531.0,517.0,517.0,550.0,496.0
527.0,509.0,526.0,548.0,484.0
529.0,507.0,517.0,543.0,497.0
522.0,503.0,503.0,538.0,499.0
509.0,504.0,508.0,547.0,493.0
502.0,508.0,509.0,561.0,479.0
525.0,506.0,507.0,568.0,472.0
529.0,501.0,501.0,565.0,485.0
505.0,495.0,493.0,558.0,511.0
501.0,491.0,531.0,560.0,513.0
490.0,500.0,552.0,575.0,504.0
462.0,494.0,544.0,566.0,521.0
447.0,493.0,515.0,545.0,535.0
487.0,498.0,447.0,537.0,525.0
540.0,507.0,461.0,532.0,524.0
536.0,510.0,486.0,543.0,528.0
540.0,511.0,496.0,555.0,537.0
556.0,514.0,503.0,553.0,521.0
527.0,511.0,502.0,539.0,537.0
527.0,517.0,499.0,538.0,549.0
534.0,509.0,477.0,544.0,538.0
530.0,509.0,480.0,550.0,540.0
536.0,508.0,491.0,563.0,524.0
593.0,512.0,495.0,582.0,484.0
580.0,512.0,495.0,584.0,464.0
566.0,511.0,490.0,595.0,459.0
558.0,506.0,468.0,577.0,494.0
546.0,505.0,481.0,578.0,523.0
535.0,497.0,469.0,568.0,509.0
527.0,492.0,461.0,549.0,500.0
514.0,499.0,459.0,543.0,510.0
482.0,509.0,468.0,548.0,496.0
453.0,514.0,471.0,546.0,507.0
477.0,526.0,485.0,551.0,503.0
476.0,519.0,477.0,549.0,521.0
490.0,514.0,468.0,547.0,529.0
516.0,506.0,464.0,556.0,533.0
510.0,499.0,452.0,556.0,514.0
524.0,505.0,458.0,582.0,482.0
511.0,507.0,458.0,590.0,496.0
526.0,510.0,460.0,610.0,501.0
519.0,505.0,443.0,627.0,495.0
501.0,500.0,439.0,624.0,480.0
446.0,488.0,430.0,584.0,479.0
413.0,485.0,439.0,527.0,511.0
412.0,486.0,451.0,507.0,532.0
474.0,501.0,481.0,506.0,519.0
490.0,514.0,489.0,522.0,531.0
511.0,512.0,475.0,522.0,562.0
541.0,520.0,504.0,560.0,565.0
568.0,528.0,523.0,592.0,555.0
591.0,520.0,504.0,627.0,517.0
603.0,510.0,480.0,620.0,497.0
554.0,503.0,460.0,607.0,506.0
500.0,494.0,450.0,617.0,486.0
490.0,504.0,484.0,637.0,474.0
484.0,510.0,494.0,642.0,484.0
485.0,506.0,502.0,637.0,483.0
534.0,507.0,472.0,632.0,473.0
551.0,505.0,466.0,614.0,480.0
551.0,513.0,481.0,596.0,450.0
537.0,511.0,474.0,557.0,491.0
475.0,505.0,470.0,531.0,529.0
457.0,503.0,463.0,534.0,522.0
448.0,499.0,450.0,533.0,515.0
448.0,498.0,450.0,521.0,528.0
466.0,501.0,444.0,517.0,526.0
541.0,507.0,444.0,524.0,522.0
555.0,511.0,465.0,533.0,521.0
556.0,513.0,453.0,574.0,508.0
533.0,509.0,467.0,633.0,509.0
478.0,503.0,481.0,649.0,523.0
430.0,495.0,457.0,597.0,525.0
434.0,487.0,372.0,520.0,532.0
451.0,489.0,410.0,521.0,564.0
495.0,488.0,414.0,531.0,557.0
553.0,496.0,444.0,519.0,558.0
630.0,519.0,476.0,583.0,539.0
628.0,521.0,501.0,610.0,539.0
565.0,511.0,517.0,592.0,543.0
500.0,502.0,529.0,574.0,512.0
485.0,513.0,529.0,539.0,475.0
513.0,521.0,534.0,586.0,485.0
519.0,517.0,507.0,591.0,498.0
504.0,507.0,466.0,570.0,489.0
513.0,515.0,488.0,574.0,489.0
520.0,509.0,475.0,581.0,478.0
510.0,501.0,492.0,588.0,493.0
511.0,502.0,488.0,645.0,481.0
500.0,506.0,494.0,632.0,488.0
439.0,502.0,471.0,600.0,526.0
419.0,501.0,438.0,586.0,532.0
452.0,500.0,434.0,559.0,509.0
446.0,483.0,436.0,530.0,515.0
454.0,480.0,443.0,560.0,546.0
482.0,495.0,443.0,577.0,540.0
542.0,510.0,466.0,598.0,513.0
537.0,515.0,478.0,611.0,523.0
483.0,514.0,493.0,598.0,521.0
431.0,496.0,478.0,566.0,525.0
412.0,486.0,459.0,520.0,518.0
391.0,481.0,468.0,476.0,529.0
378.0,485.0,455.0,454.0,544.0
394.0,481.0,450.0,494.0,550.0
432.0,493.0,478.0,519.0,545.0
500.0,520.0,503.0,577.0,494.0
529.0,525.0,509.0,613.0,484.0
539.0,528.0,534.0,636.0,462.0
564.0,524.0,523.0,663.0,458.0
588.0,517.0,490.0,640.0,472.0
556.0,497.0,465.0,574.0,509.0
509.0,478.0,423.0,510.0,543.0
441.0,484.0,424.0,549.0,568.0
382.0,490.0,453.0,508.0,582.0
338.0,495.0,475.0,499.0,556.0
336.0,505.0,477.0,525.0,540.0
356.0,516.0,472.0,531.0,513.0
427.0,527.0,485.0,537.0,499.0
431.0,530.0,502.0,556.0,496.0
375.0,511.0,514.0,568.0,500.0
407.0,502.0,509.0,549.0,508.0
384.0,499.0,501.0,553.0,525.0
471.0,504.0,505.0,612.0,523.0
604.0,515.0,516.0,670.0,489.0
705.0,522.0,530.0,699.0,474.0
671.0,517.0,519.0,650.0,491.0
535.0,504.0,529.0,639.0,508.0
399.0,497.0,541.0,614.0,503.0
355.0,488.0,513.0,554.0,537.0
388.0,488.0,478.0,475.0,574.0
399.0,490.0,465.0,502.0,556.0
463.0,498.0,474.0,530.0,531.0
544.0,502.0,447.0,532.0,521.0
645.0,518.0,450.0,536.0,505.0
607.0,500.0,448.0,548.0,502.0
625.0,512.0,487.0,536.0,483.0
628.0,517.0,471.0,502.0,485.0
654.0,519.0,474.0,488.0,501.0
662.0,514.0,485.0,530.0,494.0
633.0,506.0,486.0,545.0,518.0
628.0,511.0,516.0,572.0,527.0
626.0,524.0,556.0,603.0,481.0
567.0,520.0,556.0,598.0,513.0
507.0,509.0,544.0,594.0,512.0
480.0,510.0,531.0,599.0,510.0
468.0,501.0,477.0,573.0,510.0
478.0,508.0,467.0,576.0,523.0
458.0,506.0,476.0,561.0,530.0
497.0,500.0,451.0,502.0,537.0
466.0,517.0,442.0,498.0,514.0
441.0,517.0,454.0,494.0,512.0
411.0,508.0,517.0,574.0,495.0
403.0,508.0,529.0,603.0,506.0
403.0,514.0,517.0,559.0,525.0
455.0,512.0,516.0,541.0,512.0
551.0,515.0,508.0,521.0,500.0
747.0,528.0,507.0,534.0,466.0
662.0,520.0,518.0,592.0,456.0
616.0,495.0,499.0,534.0,482.0
552.0,480.0,481.0,490.0,539.0
549.0,491.0,501.0,561.0,529.0
576.0,485.0,492.0,597.0,540.0
608.0,503.0,494.0,561.0,508.0
582.0,504.0,496.0,519.0,511.0
570.0,516.0,507.0,527.0,511.0
556.0,521.0,510.0,523.0,522.0
517.0,516.0,520.0,549.0,518.0
466.0,514.0,527.0,584.0,517.0
444.0,515.0,516.0,583.0,507.0
409.0,503.0,524.0,566.0,488.0
384.0,496.0,513.0,498.0,491.0
389.0,499.0,507.0,518.0,478.0
482.0,498.0,495.0,553.0,475.0
496.0,507.0,490.0,547.0,474.0
524.0,517.0,505.0,560.0,478.0
619.0,516.0,497.0,541.0,491.0
577.0,499.0,511.0,560.0,523.0
499.0,491.0,512.0,540.0,535.0
488.0,479.0,484.0,533.0,554.0
545.0,500.0,481.0,543.0,545.0
543.0,503.0,501.0,574.0,521.0
532.0,511.0,511.0,589.0,509.0
540.0,523.0,524.0,565.0,522.0
480.0,510.0,488.0,555.0,547.0
379.0,499.0,493.0,533.0,539.0
311.0,487.0,478.0,512.0,523.0
279.0,479.0,471.0,485.0,535.0
304.0,478.0,476.0,444.0,546.0
491.0,510.0,519.0,472.0,527.0
730.0,526.0,558.0,517.0,500.0
743.0,536.0,588.0,558.0,499.0
699.0,537.0,592.0,632.0,473.0
643.0,529.0,572.0,634.0,468.0
599.0,514.0,555.0,553.0,477.0
562.0,505.0,546.0,494.0,494.0
521.0,496.0,534.0,478.0,537.0
502.0,503.0,525.0,497.0,520.0
495.0,510.0,518.0,523.0,531.0
521.0,519.0,517.0,525.0,522.0
582.0,532.0,542.0,576.0,494.0
526.0,520.0,558.0,572.0,513.0
475.0,511.0,552.0,538.0,534.0
492.0,507.0,531.0,499.0,498.0
479.0,501.0,507.0,459.0,497.0
353.0,490.0,476.0,458.0,537.0
354.0,488.0,455.0,491.0,546.0
367.0,481.0,444.0,514.0,528.0
375.0,476.0,471.0,509.0,521.0
314.0,481.0,473.0,521.0,534.0
382.0,494.0,477.0,545.0,519.0
388.0,503.0,478.0,555.0,517.0
384.0,500.0,496.0,530.0,533.0
612.0,525.0,526.0,539.0,476.0
695.0,537.0,543.0,561.0,466.0
682.0,528.0,538.0,554.0,498.0
669.0,526.0,505.0,496.0,542.0
638.0,527.0,509.0,487.0,535.0
616.0,519.0,506.0,487.0,537.0
597.0,516.0,500.0,482.0,499.0
590.0,513.0,510.0,452.0,490.0
569.0,503.0,522.0,459.0,508.0
572.0,513.0,539.0,482.0,497.0
563.0,512.0,550.0,490.0,483.0
559.0,521.0,592.0,578.0,463.0
547.0,519.0,575.0,619.0,469.0
510.0,519.0,553.0,577.0,478.0
485.0,515.0,491.0,517.0,493.0
492.0,505.0,478.0,505.0,508.0
502.0,497.0,453.0,510.0,498.0
567.0,508.0,479.0,541.0,466.0
581.0,524.0,511.0,643.0,445.0
531.0,512.0,503.0,696.0,475.0
506.0,507.0,468.0,673.0,514.0
459.0,494.0,478.0,612.0,523.0
426.0,504.0,542.0,563.0,535.0
425.0,503.0,562.0,490.0,550.0
451.0,499.0,550.0,437.0,587.0
498.0,502.0,524.0,392.0,555.0
583.0,506.0,506.0,407.0,529.0
551.0,503.0,529.0,417.0,513.0
535.0,500.0,527.0,440.0,496.0
550.0,508.0,501.0,454.0,466.0
540.0,500.0,471.0,452.0,484.0
585.0,491.0,469.0,444.0,479.0
553.0,484.0,487.0,458.0,489.0
517.0,493.0,511.0,505.0,525.0
495.0,504.0,539.0,537.0,546.0
487.0,515.0,526.0,491.0,548.0
486.0,526.0,538.0,527.0,528.0
510.0,526.0,546.0,554.0,523.0
480.0,518.0,533.0,527.0,564.0
445.0,512.0,560.0,455.0,561.0
415.0,513.0,564.0,453.0,545.0
354.0,492.0,534.0,441.0,536.0
389.0,497.0,539.0,470.0,513.0
401.0,507.0,532.0,498.0,509.0
538.0,521.0,555.0,530.0,479.0
679.0,516.0,562.0,546.0,466.0
646.0,501.0,576.0,530.0,492.0
578.0,504.0,568.0,500.0,504.0
545.0,504.0,549.0,499.0,497.0
467.0,489.0,524.0,510.0,529.0
429.0,500.0,537.0,550.0,542.0
525.0,515.0,529.0,561.0,512.0
477.0,515.0,505.0,532.0,535.0
482.0,515.0,471.0,481.0,580.0
443.0,519.0,464.0,496.0,558.0
439.0,525.0,491.0,571.0,481.0
443.0,519.0,520.0,572.0,455.0
502.0,493.0,535.0,522.0,456.0
595.0,492.0,557.0,532.0,421.0
684.0,501.0,575.0,556.0,452.0
632.0,506.0,559.0,479.0,504.0
596.0,522.0,563.0,464.0,522.0
544.0,520.0,574.0,456.0,550.0
476.0,511.0,567.0,456.0,542.0
469.0,500.0,545.0,429.0,511.0
450.0,492.0,521.0,448.0,497.0
443.0,500.0,499.0,497.0,491.0
521.0,507.0,496.0,531.0,483.0
568.0,515.0,530.0,605.0,521.0
552.0,524.0,552.0,616.0,535.0
559.0,516.0,553.0,556.0,507.0
526.0,517.0,563.0,435.0,532.0
520.0,511.0,563.0,391.0,538.0
507.0,506.0,549.0,401.0,530.0
510.0,507.0,551.0,435.0,516.0
547.0,512.0,547.0,466.0,508.0
575.0,515.0,541.0,491.0,522.0
582.0,500.0,524.0,466.0,533.0
552.0,493.0,511.0,494.0,517.0
538.0,493.0,505.0,519.0,517.0
547.0,497.0,516.0,515.0,500.0
512.0,494.0,496.0,483.0,505.0
458.0,495.0,527.0,506.0,522.0
415.0,496.0,525.0,520.0,535.0
454.0,502.0,515.0,495.0,547.0
461.0,507.0,522.0,481.0,558.0
487.0,529.0,504.0,490.0,525.0
540.0,543.0,513.0,468.0,505.0
553.0,541.0,523.0,450.0,484.0
395.0,516.0,506.0,502.0,501.0
333.0,504.0,489.0,503.0,506.0
337.0,481.0,467.0,484.0,525.0
367.0,482.0,447.0,445.0,549.0
545.0,501.0,436.0,419.0,527.0
550.0,499.0,458.0,481.0,509.0
533.0,490.0,481.0,560.0,511.0
424.0,487.0,489.0,575.0,526.0
457.0,483.0,509.0,545.0,489.0
555.0,525.0,541.0,520.0,423.0
613.0,534.0,534.0,502.0,441.0
466.0,505.0,507.0,559.0,520.0
473.0,508.0,482.0,539.0,515.0
599.0,513.0,479.0,449.0,518.0
721.0,532.0,508.0,414.0,470.0
681.0,524.0,511.0,384.0,447.0
605.0,500.0,543.0,473.0,451.0
594.0,503.0,592.0,481.0,501.0
577.0,508.0,632.0,525.0,520.0
568.0,502.0,595.0,557.0,528.0
586.0,517.0,574.0,546.0,531.0
572.0,518.0,569.0,474.0,566.0
556.0,524.0,588.0,481.0,554.0
545.0,527.0,574.0,467.0,553.0
556.0,518.0,577.0,475.0,528.0
540.0,498.0,563.0,447.0,520.0
516.0,499.0,571.0,488.0,507.0
518.0,508.0,561.0,478.0,481.0
504.0,499.0,528.0,458.0,514.0
472.0,483.0,473.0,438.0,546.0
427.0,473.0,462.0,524.0,555.0
378.0,471.0,482.0,532.0,548.0
349.0,488.0,476.0,516.0,542.0
352.0,507.0,490.0,484.0,534.0
406.0,520.0,523.0,448.0,514.0
467.0,511.0,522.0,436.0,519.0
511.0,519.0,556.0,507.0,493.0
581.0,535.0,610.0,492.0,461.0
636.0,539.0,630.0,521.0,440.0
613.0,520.0,610.0,475.0,420.0
559.0,504.0,585.0,472.0,460.0
569.0,512.0,564.0,519.0,498.0
588.0,500.0,534.0,504.0,543.0
554.0,493.0,503.0,517.0,539.0
535.0,509.0,513.0,519.0,535.0
531.0,512.0,520.0,530.0,542.0
532.0,515.0,532.0,524.0,549.0
522.0,518.0,546.0,502.0,551.0
491.0,519.0,557.0,488.0,569.0
470.0,512.0,554.0,464.0,529.0
453.0,508.0,541.0,445.0,500.0
346.0,493.0,541.0,467.0,513.0
319.0,478.0,513.0,482.0,510.0
356.0,476.0,503.0,508.0,497.0
344.0,483.0,484.0,533.0,527.0
567.0,519.0,491.0,519.0,515.0
729.0,532.0,505.0,482.0,479.0
697.0,538.0,525.0,476.0,411.0
674.0,537.0,573.0,520.0,430.0
574.0,512.0,555.0,511.0,493.0
524.0,491.0,516.0,413.0,567.0
553.0,500.0,535.0,476.0,559.0
550.0,510.0,538.0,493.0,529.0
548.0,510.0,546.0,488.0,497.0
542.0,513.0,548.0,491.0,493.0
543.0,509.0,530.0,499.0,497.0
521.0,511.0,524.0,494.0,501.0
519.0,510.0,524.0,504.0,496.0
490.0,500.0,525.0,505.0,505.0
434.0,492.0,509.0,517.0,542.0
403.0,497.0,481.0,509.0,555.0
338.0,497.0,466.0,510.0,534.0
368.0,503.0,431.0,450.0,509.0
461.0,523.0,415.0,394.0,432.0
505.0,528.0,465.0,456.0,390.0
490.0,504.0,473.0,473.0,485.0
654.0,514.0,501.0,482.0,529.0
630.0,507.0,542.0,474.0,573.0
538.0,490.0,580.0,524.0,563.0
493.0,493.0,576.0,534.0,547.0
536.0,508.0,566.0,535.0,552.0
553.0,514.0,552.0,580.0,551.0
571.0,526.0,552.0,524.0,531.0
572.0,519.0,505.0,458.0,532.0
559.0,510.0,469.0,461.0,508.0
551.0,515.0,442.0,459.0,498.0
542.0,499.0,436.0,442.0,513.0
490.0,507.0,441.0,459.0,486.0
437.0,503.0,432.0,558.0,475.0
376.0,491.0,453.0,559.0,490.0
374.0,496.0,493.0,535.0,497.0
461.0,513.0,551.0,512.0,498.0
647.0,522.0,578.0,531.0,488.0
559.0,506.0,573.0,431.0,556.0
585.0,510.0,579.0,490.0,557.0
571.0,505.0,607.0,484.0,543.0
546.0,504.0,611.0,482.0,516.0
544.0,517.0,620.0,479.0,504.0
539.0,518.0,634.0,488.0,511.0
534.0,517.0,636.0,505.0,512.0
538.0,506.0,565.0,479.0,514.0
550.0,507.0,552.0,455.0,494.0
548.0,497.0,547.0,452.0,476.0
547.0,485.0,561.0,500.0,462.0
537.0,483.0,522.0,481.0,477.0
539.0,497.0,524.0,483.0,476.0
534.0,504.0,511.0,493.0,501.0
533.0,514.0,546.0,571.0,469.0
529.0,525.0,550.0,545.0,477.0
503.0,532.0,536.0,498.0,488.0
441.0,521.0,523.0,488.0,546.0
417.0,503.0,485.0,484.0,543.0
397.0,484.0,453.0,526.0,577.0
406.0,481.0,438.0,515.0,599.0
499.0,502.0,466.0,541.0,554.0
470.0,508.0,472.0,569.0,532.0
584.0,521.0,498.0,513.0,520.0
599.0,521.0,515.0,442.0,497.0
545.0,510.0,514.0,414.0,513.0
518.0,507.0,529.0,420.0,519.0
523.0,509.0,545.0,433.0,523.0
528.0,509.0,550.0,458.0,498.0
523.0,497.0,509.0,479.0,482.0
493.0,500.0,513.0,521.0,484.0
455.0,499.0,519.0,560.0,526.0
464.0,516.0,497.0,561.0,550.0
478.0,512.0,457.0,566.0,535.0
440.0,488.0,426.0,540.0,546.0
467.0,490.0,443.0,483.0,548.0
517.0,507.0,470.0,429.0,528.0
569.0,509.0,506.0,490.0,510.0
564.0,506.0,511.0,513.0,506.0
562.0,518.0,537.0,535.0,474.0
557.0,518.0,577.0,498.0,484.0
509.0,502.0,581.0,476.0,506.0
499.0,505.0,574.0,458.0,509.0
480.0,512.0,583.0,493.0,511.0
497.0,506.0,549.0,492.0,503.0
492.0,509.0,555.0,491.0,529.0
500.0,508.0,554.0,467.0,514.0
526.0,513.0,551.0,460.0,496.0
532.0,519.0,555.0,468.0,503.0
495.0,504.0,526.0,499.0,539.0
482.0,504.0,522.0,517.0,537.0
532.0,506.0,510.0,507.0,500.0
541.0,510.0,513.0,517.0,534.0
442.0,492.0,497.0,486.0,591.0
435.0,498.0,468.0,461.0,561.0
496.0,503.0,496.0,470.0,509.0
543.0,513.0,535.0,505.0,477.0
559.0,512.0,539.0,498.0,471.0
551.0,513.0,538.0,476.0,515.0
531.0,514.0,543.0,491.0,504.0
531.0,518.0,561.0,527.0,485.0
524.0,506.0,541.0,532.0,505.0
539.0,506.0,532.0,538.0,505.0
474.0,509.0,543.0,543.0,491.0
456.0,502.0,535.0,533.0,472.0
475.0,495.0,518.0,529.0,497.0
487.0,502.0,510.0,535.0,505.0
615.0,514.0,514.0,543.0,453.0
596.0,511.0,504.0,524.0,488.0
512.0,501.0,464.0,474.0,520.0
455.0,509.0,421.0,449.0,516.0
413.0,500.0,376.0,415.0,552.0
374.0,504.0,370.0,402.0,554.0
363.0,503.0,380.0,429.0,519.0
478.0,508.0,427.0,451.0,515.0
588.0,518.0,489.0,478.0,507.0
640.0,520.0,527.0,492.0,468.0
640.0,517.0,581.0,534.0,440.0
551.0,507.0,600.0,571.0,466.0
550.0,508.0,596.0,554.0,472.0
609.0,515.0,595.0,577.0,464.0
606.0,511.0,585.0,511.0,511.0
579.0,502.0,526.0,538.0,537.0
531.0,491.0,479.0,526.0,540.0
494.0,492.0,493.0,494.0,536.0
490.0,503.0,509.0,472.0,508.0
490.0,511.0,527.0,438.0,511.0
538.0,521.0,485.0,465.0,518.0
574.0,513.0,508.0,546.0,519.0
520.0,498.0,495.0,559.0,530.0
525.0,505.0,495.0,569.0,528.0
524.0,519.0,539.0,483.0,508.0
530.0,521.0,562.0,455.0,507.0
530.0,514.0,552.0,471.0,518.0
531.0,511.0,551.0,491.0,519.0
537.0,513.0,562.0,505.0,529.0
539.0,513.0,575.0,528.0,542.0
537.0,510.0,567.0,532.0,549.0
512.0,500.0,560.0,537.0,535.0
507.0,502.0,525.0,525.0,515.0
510.0,501.0,516.0,503.0,509.0
513.0,505.0,503.0,494.0,512.0
502.0,515.0,503.0,469.0,518.0
492.0,514.0,513.0,486.0,517.0
498.0,510.0,488.0,488.0,510.0
515.0,514.0,511.0,504.0,515.0
490.0,500.0,495.0,507.0,522.0
461.0,492.0,501.0,510.0,526.0
445.0,485.0,520.0,491.0,517.0
433.0,502.0,557.0,478.0,502.0
473.0,488.0,546.0,492.0,486.0
526.0,496.0,533.0,528.0,495.0
572.0,519.0,541.0,522.0,517.0
596.0,527.0,566.0,544.0,444.0
585.0,539.0,602.0,588.0,443.0
542.0,528.0,570.0,567.0,485.0
493.0,509.0,529.0,514.0,497.0
493.0,508.0,518.0,546.0,508.0
469.0,509.0,504.0,592.0,556.0
440.0,514.0,483.0,556.0,555.0
426.0,501.0,466.0,511.0,587.0
441.0,503.0,474.0,532.0,529.0
457.0,504.0,472.0,554.0,486.0
502.0,500.0,469.0,495.0,491.0
507.0,501.0,512.0,465.0,494.0
547.0,507.0,554.0,435.0,520.0
539.0,505.0,541.0,396.0,536.0
473.0,510.0,520.0,402.0,577.0
449.0,513.0,484.0,437.0,576.0
425.0,500.0,465.0,467.0,554.0
498.0,497.0,490.0,494.0,507.0
541.0,498.0,504.0,511.0,460.0
620.0,501.0,507.0,485.0,429.0
563.0,499.0,514.0,448.0,453.0
533.0,504.0,512.0,474.0,507.0
505.0,504.0,507.0,492.0,586.0
524.0,501.0,512.0,497.0,566.0
587.0,509.0,514.0,499.0,530.0
548.0,514.0,525.0,479.0,514.0
510.0,506.0,525.0,513.0,507.0
522.0,510.0,526.0,498.0,511.0
536.0,507.0,533.0,520.0,494.0
502.0,499.0,533.0,519.0,530.0
479.0,501.0,559.0,516.0,523.0
466.0,500.0,574.0,521.0,506.0
460.0,492.0,546.0,508.0,513.0
449.0,504.0,552.0,517.0,532.0
470.0,505.0,522.0,508.0,538.0
460.0,505.0,505.0,520.0,532.0
496.0,509.0,513.0,525.0,470.0
587.0,515.0,519.0,534.0,459.0
615.0,507.0,485.0,518.0,519.0
567.0,504.0,485.0,515.0,531.0
467.0,496.0,462.0,491.0,528.0
476.0,498.0,444.0,465.0,506.0
492.0,512.0,467.0,463.0,483.0
574.0,523.0,480.0,470.0,480.0
578.0,524.0,479.0,508.0,468.0
536.0,532.0,504.0,572.0,470.0
480.0,511.0,516.0,545.0,508.0
479.0,508.0,512.0,503.0,553.0
551.0,512.0,504.0,523.0,525.0
616.0,512.0,496.0,532.0,502.0
610.0,499.0,479.0,515.0,489.0
582.0,506.0,452.0,525.0,494.0
573.0,514.0,450.0,526.0,508.0
558.0,506.0,454.0,506.0,510.0
521.0,486.0,434.0,482.0,544.0
510.0,502.0,485.0,483.0,549.0
471.0,504.0,506.0,486.0,554.0
435.0,495.0,487.0,490.0,542.0
446.0,509.0,474.0,498.0,515.0
424.0,508.0,467.0,505.0,538.0
420.0,508.0,498.0,463.0,545.0
548.0,515.0,517.0,465.0,497.0
599.0,513.0,536.0,506.0,489.0
572.0,512.0,597.0,511.0,512.0
582.0,509.0,631.0,538.0,485.0
579.0,508.0,638.0,580.0,445.0
572.0,502.0,633.0,561.0,440.0
565.0,506.0,625.0,551.0,472.0
549.0,513.0,599.0,564.0,500.0
527.0,525.0,590.0,535.0,523.0
531.0,521.0,547.0,502.0,520.0
525.0,491.0,520.0,513.0,516.0
518.0,499.0,510.0,511.0,511.0
508.0,498.0,498.0,521.0,511.0
498.0,498.0,497.0,534.0,485.0
499.0,500.0,492.0,508.0,498.0
509.0,512.0,489.0,478.0,524.0
513.0,516.0,504.0,487.0,499.0
503.0,513.0,517.0,505.0,533.0
499.0,503.0,492.0,457.0,549.0
494.0,497.0,461.0,451.0,515.0
521.0,509.0,472.0,506.0,478.0
531.0,503.0,472.0,505.0,495.0
520.0,510.0,508.0,482.0,499.0
465.0,496.0,528.0,482.0,491.0
430.0,494.0,543.0,482.0,518.0
393.0,495.0,545.0,537.0,595.0
392.0,498.0,536.0,518.0,603.0
565.0,514.0,526.0,516.0,543.0
597.0,517.0,539.0,531.0,538.0
535.0,511.0,545.0,528.0,537.0
528.0,521.0,574.0,521.0,553.0
539.0,517.0,538.0,496.0,529.0
536.0,513.0,533.0,496.0,516.0
522.0,504.0,522.0,467.0,509.0
539.0,511.0,512.0,465.0,487.0
545.0,518.0,518.0,479.0,473.0
551.0,518.0,528.0,509.0,477.0
518.0,518.0,535.0,518.0,513.0
461.0,506.0,549.0,533.0,532.0
396.0,495.0,541.0,586.0,516.0
321.0,481.0,519.0,568.0,488.0
298.0,467.0,488.0,511.0,529.0
386.0,485.0,491.0,537.0,571.0
517.0,512.0,487.0,543.0,551.0
603.0,513.0,489.0,515.0,530.0
643.0,522.0,496.0,518.0,494.0
635.0,524.0,509.0,506.0,487.0
587.0,515.0,515.0,503.0,485.0
579.0,511.0,518.0,489.0,479.0
549.0,512.0,527.0,478.0,526.0
522.0,510.0,516.0,467.0,516.0
523.0,513.0,510.0,490.0,489.0
505.0,499.0,498.0,495.0,525.0
510.0,499.0,510.0,526.0,521.0
521.0,508.0,516.0,533.0,490.0
512.0,513.0,512.0,533.0,488.0
446.0,499.0,498.0,571.0,492.0
446.0,506.0,486.0,525.0,471.0
423.0,502.0,466.0,515.0,505.0
470.0,497.0,436.0,488.0,525.0
480.0,491.0,415.0,430.0,536.0
427.0,474.0,372.0,431.0,548.0
525.0,503.0,388.0,473.0,503.0
623.0,551.0,482.0,541.0,463.0
609.0,534.0,493.0,525.0,506.0
539.0,512.0,506.0,512.0,537.0
573.0,511.0,524.0,498.0,530.0
582.0,512.0,549.0,470.0,521.0
572.0,518.0,593.0,507.0,485.0
605.0,524.0,609.0,522.0,469.0
587.0,510.0,577.0,521.0,469.0
562.0,501.0,549.0,502.0,508.0
557.0,505.0,548.0,514.0,540.0
555.0,514.0,535.0,535.0,524.0
543.0,509.0,544.0,545.0,523.0
532.0,498.0,513.0,545.0,510.0
529.0,497.0,503.0,525.0,493.0
503.0,493.0,493.0,507.0,515.0
489.0,494.0,457.0,506.0,533.0
480.0,495.0,474.0,496.0,533.0
489.0,503.0,495.0,510.0,539.0
499.0,517.0,503.0,508.0,525.0
508.0,508.0,516.0,476.0,526.0
514.0,504.0,549.0,484.0,506.0
525.0,520.0,596.0,501.0,497.0
525.0,514.0,574.0,498.0,503.0
529.0,513.0,566.0,532.0,502.0
529.0,506.0,547.0,540.0,497.0
541.0,507.0,549.0,549.0,490.0
542.0,501.0,546.0,573.0,465.0
539.0,498.0,539.0,569.0,466.0
527.0,494.0,523.0,545.0,486.0
521.0,498.0,496.0,504.0,518.0
500.0,494.0,471.0,467.0,545.0
485.0,494.0,486.0,487.0,563.0
485.0,500.0,480.0,497.0,540.0
492.0,510.0,489.0,516.0,525.0
499.0,520.0,519.0,509.0,524.0
500.0,512.0,529.0,494.0,534.0
505.0,510.0,510.0,493.0,526.0
493.0,509.0,534.0,483.0,535.0
498.0,518.0,547.0,491.0,535.0
514.0,509.0,522.0,481.0,519.0
529.0,507.0,518.0,463.0,498.0
548.0,519.0,549.0,544.0,484.0
548.0,512.0,553.0,564.0,451.0
540.0,509.0,536.0,528.0,478.0
526.0,502.0,525.0,525.0,493.0
517.0,502.0,512.0,561.0,507.0
501.0,502.0,496.0,540.0,531.0
484.0,504.0,467.0,483.0,544.0
458.0,509.0,469.0,466.0,570.0
454.0,511.0,484.0,528.0,535.0
455.0,518.0,509.0,551.0,517.0
459.0,505.0,493.0,510.0,545.0
458.0,500.0,499.0,520.0,524.0
455.0,501.0,512.0,535.0,491.0
553.0,507.0,518.0,534.0,499.0
560.0,512.0,521.0,515.0,512.0
535.0,509.0,529.0,503.0,511.0
567.0,519.0,538.0,492.0,497.0
575.0,518.0,555.0,521.0,485.0
567.0,515.0,562.0,542.0,473.0
546.0,503.0,548.0,535.0,481.0
534.0,504.0,533.0,537.0,472.0
519.0,501.0,517.0,528.0,490.0
509.0,495.0,504.0,515.0,545.0
503.0,500.0,498.0,513.0,536.0
492.0,505.0,494.0,501.0,516.0
491.0,509.0,495.0,501.0,517.0
510.0,515.0,507.0,507.0,515.0
528.0,514.0,508.0,509.0,526.0
522.0,514.0,515.0,513.0,536.0
529.0,511.0,517.0,511.0,525.0
524.0,509.0,517.0,506.0,522.0
501.0,503.0,519.0,508.0,512.0
484.0,499.0,519.0,512.0,516.0
474.0,505.0,516.0,505.0,518.0
487.0,507.0,524.0,512.0,513.0
534.0,513.0,534.0,529.0,495.0
560.0,512.0,532.0,533.0,493.0
543.0,508.0,521.0,537.0,495.0
510.0,499.0,509.0,529.0,519.0
544.0,499.0,494.0,506.0,506.0
505.0,497.0,493.0,506.0,521.0
529.0,503.0,491.0,503.0,532.0
548.0,508.0,496.0,506.0,526.0
527.0,510.0,499.0,501.0,525.0
522.0,516.0,507.0,504.0,514.0
510.0,516.0,517.0,505.0,513.0
508.0,508.0,514.0,502.0,508.0
520.0,508.0,520.0,507.0,506.0
524.0,504.0,518.0,508.0,521.0
531.0,499.0,512.0,512.0,529.0
540.0,505.0,514.0,516.0,521.0
539.0,521.0,528.0,522.0,508.0
538.0,515.0,547.0,545.0,479.0
527.0,508.0,543.0,543.0,484.0
517.0,503.0,535.0,538.0,509.0
520.0,506.0,523.0,523.0,513.0
508.0,496.0,502.0,535.0,523.0
507.0,498.0,486.0,531.0,534.0
501.0,496.0,471.0,523.0,525.0
503.0,497.0,465.0,507.0,493.0
501.0,503.0,490.0,492.0,499.0
506.0,495.0,493.0,483.0,508.0
509.0,493.0,503.0,505.0,506.0
514.0,505.0,510.0,514.0,509.0
526.0,507.0,520.0,517.0,496.0
523.0,499.0,526.0,525.0,516.0
528.0,498.0,524.0,537.0,531.0
532.0,508.0,528.0,546.0,515.0
541.0,509.0,520.0,546.0,529.0
541.0,507.0,506.0,545.0,519.0
524.0,505.0,486.0,525.0,502.0
507.0,497.0,476.0,513.0,509.0
510.0,506.0,483.0,518.0,503.0
502.0,505.0,492.0,524.0,513.0
495.0,502.0,502.0,543.0,530.0
498.0,513.0,513.0,539.0,514.0
498.0,508.0,514.0,539.0,513.0
503.0,514.0,519.0,537.0,510.0
509.0,514.0,509.0,532.0,509.0
508.0,504.0,516.0,520.0,506.0
518.0,498.0,510.0,520.0,506.0
517.0,498.0,504.0,527.0,505.0
524.0,504.0,515.0,533.0,499.0
535.0,511.0,523.0,546.0,495.0
538.0,507.0,525.0,553.0,496.0
534.0,514.0,520.0,561.0,492.0
537.0,523.0,529.0,559.0,499.0
526.0,515.0,521.0,548.0,498.0
525.0,519.0,520.0,554.0,504.0
513.0,511.0,508.0,549.0,518.0
504.0,502.0,481.0,544.0,528.0
494.0,500.0,469.0,542.0,532.0
497.0,519.0,497.0,548.0,520.0
505.0,528.0,495.0,542.0,521.0
509.0,522.0,514.0,543.0,517.0
508.0,518.0,513.0,544.0,509.0
509.0,510.0,509.0,537.0,514.0
514.0,504.0,525.0,535.0,513.0
521.0,502.0,517.0,536.0,514.0
529.0,498.0,514.0,541.0,508.0
533.0,502.0,509.0,551.0,497.0
534.0,498.0,502.0,552.0,507.0
543.0,504.0,508.0,553.0,497.0
536.0,510.0,512.0,553.0,498.0
523.0,508.0,530.0,554.0,511.0
515.0,510.0,535.0,556.0,532.0
500.0,505.0,514.0,535.0,546.0
493.0,507.0,506.0,527.0,532.0
495.0,506.0,481.0,537.0,511.0
500.0,510.0,469.0,549.0,499.0
506.0,512.0,487.0,549.0,492.0
505.0,512.0,502.0,546.0,511.0
509.0,513.0,513.0,549.0,515.0
510.0,509.0,519.0,549.0,506.0
522.0,510.0,526.0,542.0,498.0
535.0,508.0,524.0,546.0,490.0
538.0,504.0,516.0,549.0,519.0
534.0,505.0,519.0,551.0,529.0
534.0,503.0,514.0,552.0,534.0
531.0,504.0,513.0,560.0,495.0
529.0,505.0,511.0,562.0,489.0
522.0,500.0,501.0,554.0,510.0
510.0,498.0,497.0,545.0,536.0
509.0,499.0,494.0,540.0,515.0
509.0,503.0,494.0,537.0,528.0
503.0,506.0,493.0,539.0,522.0
507.0,509.0,496.0,533.0,514.0
517.0,515.0,499.0,529.0,498.0
513.0,512.0,504.0,532.0,508.0
507.0,509.0,508.0,530.0,519.0
512.0,509.0,511.0,530.0,518.0
520.0,507.0,516.0,530.0,522.0
521.0,506.0,517.0,537.0,535.0
525.0,508.0,521.0,542.0,509.0
532.0,506.0,522.0,550.0,505.0
533.0,505.0,521.0,554.0,502.0
532.0,505.0,517.0,558.0,495.0
523.0,502.0,512.0,557.0,503.0
514.0,501.0,508.0,554.0,532.0
503.0,499.0,496.0,537.0,542.0
507.0,500.0,487.0,532.0,510.0
511.0,504.0,489.0,535.0,498.0
512.0,508.0,501.0,542.0,514.0
504.0,509.0,505.0,541.0,529.0
509.0,513.0,512.0,537.0,491.0
513.0,515.0,514.0,531.0,524.0
519.0,506.0,494.0,505.0,513.0
530.0,502.0,499.0,513.0,455.0
532.0,500.0,506.0,529.0,445.0
530.0,506.0,514.0,528.0,521.0
529.0,509.0,523.0,538.0,547.0
529.0,509.0,520.0,544.0,539.0
530.0,507.0,516.0,547.0,536.0
530.0,506.0,511.0,547.0,513.0
525.0,501.0,501.0,544.0,468.0
517.0,502.0,499.0,545.0,478.0
502.0,495.0,485.0,530.0,527.0
498.0,497.0,490.0,526.0,516.0
497.0,509.0,512.0,534.0,505.0
503.0,511.0,509.0,530.0,512.0
507.0,512.0,512.0,527.0,511.0
512.0,513.0,512.0,524.0,531.0
520.0,512.0,514.0,517.0,538.0
516.0,505.0,509.0,518.0,519.0
522.0,507.0,517.0,522.0,518.0
529.0,504.0,519.0,526.0,506.0
532.0,508.0,517.0,531.0,500.0
529.0,505.0,527.0,546.0,501.0
534.0,506.0,528.0,551.0,508.0
537.0,508.0,525.0,546.0,505.0
527.0,502.0,517.0,543.0,514.0
518.0,500.0,510.0,539.0,515.0
509.0,497.0,500.0,532.0,505.0
502.0,499.0,494.0,525.0,511.0
502.0,502.0,493.0,524.0,522.0
505.0,506.0,498.0,526.0,518.0
502.0,508.0,497.0,518.0,528.0
502.0,511.0,521.0,524.0,538.0
512.0,515.0,531.0,516.0,521.0
510.0,508.0,529.0,510.0,513.0
515.0,509.0,535.0,517.0,522.0
520.0,504.0,519.0,519.0,529.0
529.0,502.0,517.0,526.0,512.0
531.0,507.0,516.0,521.0,486.0
532.0,506.0,519.0,526.0,479.0
537.0,506.0,511.0,538.0,496.0
534.0,505.0,513.0,537.0,503.0
527.0,501.0,511.0,534.0,498.0
516.0,496.0,506.0,541.0,503.0
509.0,497.0,499.0,531.0,516.0
500.0,499.0,496.0,522.0,518.0
493.0,506.0,499.0,518.0,504.0
497.0,512.0,501.0,513.0,505.0
501.0,514.0,501.0,508.0,516.0
508.0,512.0,507.0,508.0,515.0
513.0,513.0,516.0,518.0,523.0
510.0,504.0,513.0,512.0,538.0
516.0,502.0,514.0,509.0,539.0
520.0,502.0,515.0,514.0,520.0
521.0,502.0,515.0,516.0,519.0
524.0,507.0,518.0,521.0,512.0
527.0,504.0,522.0,529.0,513.0
522.0,501.0,523.0,530.0,520.0
525.0,503.0,524.0,532.0,507.0
519.0,500.0,528.0,520.0,520.0
519.0,502.0,525.0,526.0,518.0
512.0,497.0,509.0,522.0,525.0
510.0,501.0,507.0,520.0,522.0
501.0,491.0,492.0,522.0,532.0
507.0,492.0,493.0,525.0,531.0
517.0,506.0,503.0,525.0,535.0
515.0,512.0,505.0,511.0,538.0
508.0,510.0,505.0,499.0,573.0
507.0,515.0,520.0,502.0,550.0
512.0,525.0,530.0,508.0,487.0
511.0,514.0,532.0,516.0,454.0
515.0,506.0,534.0,527.0,464.0
535.0,503.0,522.0,515.0,462.0
532.0,496.0,516.0,525.0,473.0
527.0,498.0,528.0,537.0,489.0
525.0,508.0,540.0,545.0,513.0
515.0,506.0,544.0,534.0,510.0
502.0,497.0,513.0,510.0,504.0
504.0,500.0,506.0,513.0,491.0
502.0,508.0,514.0,504.0,506.0
506.0,509.0,509.0,490.0,526.0
500.0,506.0,523.0,491.0,544.0
503.0,502.0,515.0,505.0,526.0
508.0,506.0,513.0,513.0,506.0
516.0,516.0,515.0,501.0,493.0
519.0,512.0,520.0,488.0,498.0
519.0,512.0,528.0,492.0,506.0
530.0,508.0,535.0,498.0,513.0
534.0,510.0,537.0,504.0,522.0
535.0,509.0,544.0,516.0,510.0
534.0,506.0,556.0,522.0,492.0
537.0,505.0,542.0,532.0,476.0
529.0,503.0,530.0,531.0,485.0
514.0,500.0,528.0,529.0,514.0
498.0,499.0,520.0,517.0,526.0
492.0,500.0,516.0,504.0,540.0
484.0,505.0,510.0,494.0,564.0
483.0,509.0,521.0,495.0,553.0
492.0,514.0,544.0,499.0,545.0
498.0,516.0,549.0,497.0,534.0
512.0,516.0,552.0,500.0,511.0
514.0,509.0,526.0,491.0,508.0
515.0,511.0,502.0,486.0,524.0
524.0,505.0,526.0,495.0,524.0
529.0,503.0,535.0,501.0,494.0
533.0,502.0,538.0,506.0,501.0
538.0,503.0,544.0,521.0,515.0
541.0,503.0,541.0,523.0,514.0
538.0,505.0,536.0,526.0,486.0
514.0,499.0,529.0,517.0,529.0
506.0,501.0,526.0,519.0,526.0
499.0,501.0,520.0,506.0,530.0
492.0,504.0,523.0,503.0,547.0
495.0,506.0,522.0,494.0,542.0
506.0,509.0,526.0,495.0,524.0
510.0,512.0,529.0,492.0,521.0
505.0,510.0,535.0,496.0,521.0
505.0,509.0,542.0,495.0,495.0
508.0,505.0,547.0,493.0,491.0
522.0,511.0,552.0,504.0,494.0
529.0,505.0,534.0,506.0,495.0
530.0,504.0,540.0,504.0,488.0
533.0,504.0,551.0,512.0,495.0
539.0,508.0,549.0,514.0,492.0
540.0,507.0,548.0,516.0,500.0
533.0,504.0,541.0,511.0,517.0
525.0,502.0,531.0,505.0,518.0
506.0,495.0,517.0,502.0,509.0
507.0,501.0,522.0,503.0,527.0
502.0,505.0,522.0,493.0,540.0
493.0,508.0,522.0,491.0,508.0
487.0,509.0,531.0,498.0,485.0
499.0,510.0,538.0,500.0,478.0
508.0,513.0,547.0,502.0,486.0
498.0,513.0,540.0,494.0,509.0
501.0,509.0,543.0,489.0,525.0
509.0,506.0,543.0,481.0,519.0
525.0,510.0,544.0,483.0,490.0
532.0,508.0,551.0,488.0,501.0
533.0,508.0,559.0,503.0,525.0
528.0,507.0,565.0,517.0,541.0
521.0,506.0,568.0,523.0,560.0
507.0,503.0,552.0,519.0,575.0
497.0,501.0,535.0,509.0,536.0
493.0,501.0,520.0,498.0,466.0
502.0,499.0,501.0,495.0,472.0
512.0,506.0,502.0,477.0,499.0
512.0,506.0,531.0,474.0,536.0
508.0,511.0,545.0,477.0,551.0
511.0,516.0,544.0,484.0,542.0
514.0,511.0,549.0,495.0,527.0
511.0,506.0,545.0,482.0,532.0
512.0,504.0,549.0,487.0,509.0
514.0,503.0,552.0,487.0,517.0
519.0,502.0,551.0,492.0,508.0
533.0,502.0,560.0,509.0,471.0
543.0,509.0,569.0,507.0,489.0
532.0,501.0,564.0,509.0,505.0
526.0,501.0,558.0,512.0,494.0
519.0,500.0,534.0,496.0,507.0
513.0,500.0,536.0,492.0,518.0
503.0,504.0,527.0,479.0,520.0
505.0,507.0,526.0,480.0,498.0
505.0,506.0,530.0,479.0,497.0
506.0,511.0,534.0,481.0,512.0
505.0,512.0,540.0,484.0,502.0
502.0,511.0,542.0,478.0,496.0
503.0,512.0,545.0,479.0,498.0
502.0,510.0,550.0,475.0,535.0
505.0,509.0,557.0,480.0,557.0
515.0,507.0,563.0,493.0,527.0
523.0,505.0,561.0,494.0,524.0
527.0,501.0,547.0,491.0,518.0
535.0,505.0,557.0,495.0,488.0
537.0,506.0,557.0,499.0,487.0
537.0,503.0,552.0,504.0,484.0
534.0,504.0,549.0,499.0,496.0
526.0,502.0,544.0,492.0,519.0
517.0,501.0,539.0,484.0,562.0
504.0,500.0,528.0,472.0,556.0
483.0,505.0,530.0,469.0,549.0
481.0,511.0,536.0,474.0,540.0
485.0,513.0,548.0,487.0,520.0
502.0,515.0,550.0,484.0,491.0
513.0,509.0,566.0,482.0,486.0
515.0,506.0,568.0,478.0,480.0
519.0,508.0,575.0,485.0,505.0
525.0,506.0,570.0,494.0,489.0
530.0,504.0,524.0,484.0,485.0
534.0,506.0,545.0,488.0,502.0
534.0,506.0,554.0,502.0,520.0
523.0,506.0,558.0,501.0,516.0
503.0,505.0,550.0,498.0,515.0
496.0,500.0,549.0,492.0,527.0
497.0,500.0,538.0,487.0,528.0
494.0,499.0,531.0,480.0,524.0
505.0,504.0,531.0,476.0,517.0
504.0,507.0,532.0,477.0,519.0
504.0,509.0,536.0,481.0,504.0
504.0,512.0,544.0,479.0,529.0
508.0,514.0,549.0,479.0,529.0
509.0,511.0,545.0,474.0,518.0
516.0,508.0,551.0,479.0,513.0
519.0,504.0,552.0,480.0,516.0
519.0,504.0,558.0,484.0,516.0
527.0,505.0,560.0,494.0,494.0
537.0,506.0,563.0,503.0,501.0
532.0,505.0,560.0,507.0,509.0
526.0,505.0,556.0,507.0,509.0
515.0,501.0,548.0,503.0,506.0
512.0,501.0,539.0,496.0,506.0
500.0,499.0,529.0,480.0,520.0
493.0,498.0,529.0,477.0,530.0
495.0,508.0,534.0,479.0,515.0
500.0,510.0,535.0,478.0,509.0
501.0,509.0,536.0,474.0,526.0
508.0,514.0,543.0,478.0,515.0
506.0,510.0,546.0,481.0,512.0
506.0,509.0,545.0,479.0,527.0
512.0,506.0,548.0,480.0,520.0
524.0,510.0,548.0,485.0,507.0
525.0,504.0,548.0,489.0,497.0
532.0,507.0,552.0,496.0,495.0
529.0,503.0,554.0,499.0,494.0
535.0,508.0,555.0,503.0,499.0
527.0,503.0,548.0,499.0,517.0
513.0,503.0,540.0,496.0,529.0
502.0,497.0,531.0,494.0,524.0
498.0,501.0,529.0,488.0,543.0
494.0,504.0,528.0,485.0,542.0
501.0,510.0,529.0,481.0,521.0
501.0,510.0,530.0,474.0,514.0
496.0,511.0,534.0,474.0,512.0
502.0,514.0,541.0,474.0,523.0
511.0,514.0,544.0,474.0,525.0
513.0,507.0,539.0,488.0,528.0
524.0,508.0,545.0,489.0,525.0
532.0,505.0,546.0,490.0,495.0
541.0,507.0,548.0,495.0,489.0
534.0,504.0,548.0,499.0,498.0
523.0,506.0,548.0,504.0,492.0
517.0,504.0,545.0,507.0,488.0
516.0,504.0,539.0,502.0,510.0
513.0,502.0,533.0,495.0,522.0
502.0,499.0,522.0,488.0,530.0
498.0,504.0,516.0,483.0,538.0
496.0,506.0,521.0,485.0,545.0
489.0,509.0,526.0,481.0,557.0
503.0,512.0,527.0,481.0,524.0
517.0,515.0,533.0,485.0,510.0
518.0,512.0,534.0,484.0,477.0
519.0,508.0,535.0,478.0,491.0
514.0,507.0,538.0,482.0,500.0
511.0,505.0,540.0,488.0,491.0
510.0,503.0,541.0,491.0,507.0
519.0,505.0,546.0,498.0,536.0
524.0,509.0,544.0,500.0,515.0
525.0,506.0,541.0,505.0,499.0
525.0,504.0,542.0,505.0,504.0
517.0,501.0,531.0,504.0,512.0
507.0,498.0,523.0,502.0,520.0
506.0,502.0,515.0,491.0,523.0
499.0,500.0,514.0,487.0,519.0
497.0,507.0,517.0,485.0,528.0
493.0,509.0,519.0,481.0,546.0
498.0,511.0,523.0,480.0,537.0
503.0,514.0,531.0,486.0,532.0
501.0,510.0,532.0,484.0,532.0
505.0,506.0,530.0,480.0,517.0
517.0,505.0,532.0,483.0,487.0
520.0,506.0,535.0,489.0,476.0
525.0,503.0,536.0,489.0,495.0
535.0,505.0,542.0,499.0,488.0
540.0,506.0,546.0,506.0,483.0
535.0,506.0,538.0,508.0,483.0
521.0,503.0,532.0,505.0,505.0
515.0,501.0,525.0,505.0,502.0
496.0,496.0,515.0,502.0,539.0
493.0,500.0,512.0,500.0,537.0
498.0,504.0,512.0,498.0,526.0
495.0,505.0,507.0,480.0,541.0
511.0,511.0,518.0,473.0,518.0
511.0,512.0,527.0,477.0,505.0
512.0,514.0,534.0,483.0,501.0
505.0,511.0,534.0,483.0,514.0
505.0,507.0,529.0,478.0,523.0
514.0,507.0,537.0,484.0,526.0
517.0,504.0,535.0,491.0,521.0
529.0,504.0,535.0,494.0,492.0
536.0,503.0,535.0,503.0,485.0
535.0,505.0,537.0,509.0,495.0
529.0,504.0,534.0,511.0,501.0
522.0,502.0,528.0,507.0,508.0
514.0,500.0,522.0,502.0,517.0
502.0,498.0,513.0,495.0,523.0
498.0,500.0,509.0,491.0,518.0
496.0,504.0,510.0,489.0,518.0
500.0,510.0,515.0,493.0,504.0
506.0,511.0,521.0,489.0,496.0
511.0,512.0,523.0,490.0,479.0
509.0,511.0,525.0,490.0,489.0
501.0,506.0,524.0,479.0,527.0
516.0,510.0,531.0,487.0,529.0
516.0,506.0,532.0,491.0,547.0
523.0,504.0,531.0,493.0,534.0
534.0,507.0,537.0,505.0,505.0
528.0,506.0,537.0,507.0,510.0
523.0,503.0,535.0,512.0,513.0
523.0,505.0,534.0,516.0,509.0
516.0,503.0,526.0,510.0,517.0
507.0,500.0,518.0,504.0,525.0
498.0,500.0,510.0,497.0,528.0
494.0,500.0,508.0,492.0,533.0
494.0,506.0,510.0,491.0,542.0
499.0,511.0,511.0,490.0,530.0
501.0,512.0,517.0,490.0,528.0
499.0,511.0,520.0,488.0,516.0
507.0,511.0,526.0,489.0,503.0
507.0,507.0,524.0,486.0,511.0
516.0,505.0,525.0,488.0,506.0
524.0,510.0,532.0,496.0,508.0
524.0,505.0,532.0,500.0,503.0
527.0,504.0,533.0,506.0,495.0
533.0,506.0,536.0,515.0,489.0
536.0,508.0,531.0,517.0,489.0
526.0,502.0,527.0,519.0,501.0
520.0,503.0,520.0,512.0,513.0
507.0,497.0,514.0,502.0,525.0
498.0,500.0,506.0,498.0,532.0
494.0,503.0,505.0,495.0,530.0
493.0,508.0,508.0,493.0,530.0
502.0,511.0,512.0,491.0,526.0
504.0,511.0,515.0,487.0,517.0
508.0,513.0,521.0,494.0,520.0
506.0,515.0,521.0,488.0,523.0
506.0,506.0,522.0,485.0,524.0
521.0,505.0,526.0,491.0,515.0
533.0,506.0,527.0,496.0,500.0
538.0,505.0,530.0,502.0,491.0
541.0,506.0,530.0,512.0,481.0
533.0,504.0,533.0,515.0,509.0
516.0,504.0,527.0,516.0,507.0
499.0,502.0,522.0,513.0,496.0
498.0,499.0,514.0,514.0,508.0
496.0,497.0,505.0,502.0,522.0
496.0,502.0,500.0,498.0,543.0
502.0,505.0,503.0,497.0,527.0
505.0,508.0,508.0,494.0,513.0
502.0,507.0,508.0,491.0,512.0
505.0,512.0,515.0,492.0,507.0
511.0,512.0,518.0,491.0,508.0
511.0,507.0,518.0,493.0,518.0
519.0,507.0,521.0,495.0,513.0
521.0,504.0,523.0,495.0,500.0
522.0,503.0,524.0,498.0,503.0
524.0,508.0,529.0,507.0,505.0
528.0,510.0,531.0,514.0,494.0
527.0,504.0,530.0,517.0,494.0
523.0,508.0,524.0,518.0,507.0
518.0,501.0,521.0,515.0,512.0
510.0,499.0,510.0,508.0,521.0
503.0,500.0,504.0,501.0,529.0
499.0,505.0,501.0,498.0,532.0
498.0,508.0,504.0,497.0,524.0
504.0,510.0,507.0,495.0,519.0
500.0,510.0,509.0,493.0,514.0
505.0,513.0,517.0,498.0,505.0
512.0,510.0,518.0,493.0,506.0
511.0,504.0,516.0,488.0,538.0
517.0,504.0,521.0,491.0,535.0
523.0,504.0,524.0,498.0,509.0
527.0,505.0,531.0,504.0,506.0
529.0,508.0,528.0,510.0,494.0
526.0,504.0,528.0,517.0,488.0
526.0,505.0,529.0,525.0,501.0
527.0,504.0,523.0,519.0,512.0
522.0,503.0,516.0,513.0,523.0
510.0,498.0,507.0,505.0,534.0
502.0,498.0,500.0,498.0,527.0
497.0,502.0,500.0,497.0,520.0
490.0,505.0,503.0,496.0,524.0
486.0,512.0,508.0,501.0,522.0
498.0,512.0,514.0,495.0,521.0
507.0,512.0,516.0,495.0,497.0
510.0,514.0,516.0,492.0,499.0
509.0,506.0,518.0,491.0,510.0
513.0,505.0,522.0,493.0,525.0
525.0,503.0,527.0,500.0,505.0
526.0,506.0,527.0,508.0,507.0
531.0,507.0,531.0,517.0,499.0
534.0,507.0,530.0,524.0,497.0
530.0,505.0,525.0,521.0,489.0
524.0,504.0,522.0,520.0,501.0
519.0,500.0,513.0,513.0,511.0
506.0,497.0,506.0,504.0,520.0
498.0,501.0,500.0,499.0,522.0
497.0,506.0,502.0,499.0,518.0
496.0,510.0,503.0,496.0,519.0
498.0,509.0,507.0,493.0,519.0
507.0,511.0,516.0,494.0,512.0
516.0,512.0,518.0,494.0,514.0
511.0,508.0,518.0,492.0,513.0
515.0,505.0,520.0,493.0,506.0
520.0,504.0,523.0,496.0,505.0
525.0,508.0,526.0,507.0,516.0
536.0,507.0,528.0,510.0,515.0
530.0,506.0,530.0,514.0,536.0
529.0,505.0,527.0,518.0,502.0
533.0,504.0,523.0,523.0,480.0
521.0,502.0,516.0,516.0,497.0
506.0,498.0,507.0,512.0,513.0
500.0,498.0,502.0,505.0,520.0
500.0,503.0,502.0,500.0,524.0
500.0,506.0,502.0,497.0,526.0
500.0,508.0,507.0,495.0,525.0
503.0,514.0,508.0,496.0,529.0
512.0,513.0,518.0,494.0,517.0
507.0,510.0,517.0,490.0,510.0
502.0,506.0,514.0,490.0,508.0
512.0,506.0,523.0,499.0,500.0
518.0,507.0,528.0,501.0,506.0
523.0,507.0,527.0,506.0,504.0
529.0,507.0,529.0,517.0,499.0
534.0,509.0,530.0,519.0,497.0
533.0,505.0,524.0,520.0,500.0
531.0,504.0,519.0,520.0,509.0
516.0,501.0,516.0,514.0,511.0
505.0,502.0,503.0,508.0,524.0
494.0,505.0,499.0,505.0,527.0
496.0,506.0,498.0,499.0,528.0
494.0,508.0,503.0,498.0,531.0
497.0,511.0,506.0,497.0,526.0
502.0,511.0,509.0,494.0,520.0
508.0,511.0,514.0,494.0,507.0
509.0,508.0,515.0,493.0,515.0
513.0,509.0,514.0,493.0,515.0
524.0,506.0,520.0,497.0,505.0
523.0,504.0,522.0,502.0,506.0
528.0,508.0,525.0,508.0,504.0
528.0,509.0,530.0,518.0,495.0
527.0,507.0,526.0,520.0,496.0
529.0,509.0,522.0,521.0,503.0
522.0,503.0,517.0,519.0,515.0
511.0,501.0,511.0,516.0,522.0
500.0,499.0,500.0,506.0,533.0
493.0,499.0,495.0,500.0,527.0
493.0,508.0,498.0,501.0,526.0
500.0,510.0,505.0,501.0,518.0
504.0,511.0,511.0,498.0,514.0
505.0,513.0,513.0,501.0,513.0
508.0,512.0,515.0,502.0,512.0
508.0,508.0,516.0,496.0,514.0
514.0,510.0,519.0,499.0,515.0
517.0,507.0,524.0,502.0,510.0
518.0,509.0,522.0,505.0,508.0
521.0,505.0,526.0,511.0,506.0
525.0,506.0,527.0,518.0,503.0
532.0,509.0,525.0,523.0,512.0
530.0,505.0,521.0,522.0,513.0
525.0,502.0,514.0,518.0,507.0
519.0,498.0,507.0,511.0,516.0
507.0,498.0,499.0,505.0,508.0
502.0,500.0,495.0,500.0,518.0
492.0,504.0,499.0,499.0,512.0
492.0,511.0,505.0,503.0,516.0
500.0,512.0,509.0,500.0,527.0
504.0,510.0,513.0,499.0,521.0
504.0,510.0,516.0,496.0,518.0
509.0,509.0,517.0,496.0,519.0
515.0,506.0,520.0,497.0,517.0
523.0,504.0,519.0,501.0,510.0
522.0,505.0,524.0,508.0,501.0
533.0,507.0,529.0,517.0,483.0
535.0,507.0,528.0,525.0,486.0
533.0,507.0,525.0,524.0,491.0
525.0,502.0,518.0,520.0,497.0
517.0,502.0,513.0,524.0,508.0
507.0,498.0,503.0,509.0,527.0
503.0,500.0,499.0,505.0,530.0
498.0,504.0,500.0,504.0,524.0
495.0,505.0,501.0,498.0,530.0
499.0,510.0,510.0,499.0,531.0
503.0,513.0,513.0,500.0,527.0
512.0,514.0,518.0,500.0,511.0
510.0,510.0,519.0,498.0,506.0
512.0,504.0,516.0,495.0,503.0
515.0,505.0,521.0,499.0,521.0
518.0,507.0,525.0,504.0,534.0
527.0,509.0,529.0,518.0,524.0
534.0,508.0,529.0,516.0,517.0
533.0,504.0,528.0,527.0,492.0
525.0,505.0,524.0,525.0,492.0
520.0,502.0,519.0,522.0,491.0
517.0,501.0,507.0,516.0,499.0
502.0,496.0,499.0,506.0,519.0
500.0,500.0,502.0,501.0,531.0
495.0,504.0,500.0,506.0,522.0
500.0,509.0,505.0,502.0,525.0
503.0,510.0,508.0,499.0,521.0
508.0,513.0,513.0,501.0,514.0
513.0,512.0,517.0,500.0,506.0
510.0,509.0,516.0,496.0,503.0
516.0,507.0,520.0,503.0,505.0
521.0,506.0,523.0,502.0,500.0
520.0,505.0,524.0,507.0,493.0
525.0,507.0,528.0,517.0,495.0
530.0,507.0,530.0,522.0,503.0
531.0,506.0,526.0,526.0,509.0
527.0,506.0,522.0,523.0,517.0
520.0,502.0,517.0,520.0,506.0
502.0,499.0,510.0,514.0,510.0
493.0,498.0,500.0,508.0,520.0
492.0,503.0,504.0,506.0,525.0
495.0,507.0,503.0,503.0,524.0
498.0,509.0,506.0,502.0,517.0
500.0,510.0,507.0,501.0,509.0
503.0,509.0,511.0,500.0,511.0
507.0,511.0,516.0,502.0,521.0
509.0,507.0,516.0,498.0,517.0
519.0,505.0,517.0,500.0,507.0
526.0,509.0,522.0,511.0,502.0
526.0,507.0,525.0,511.0,499.0
529.0,505.0,527.0,518.0,502.0
533.0,506.0,527.0,524.0,496.0
530.0,508.0,523.0,530.0,501.0
523.0,507.0,517.0,525.0,514.0
514.0,501.0,512.0,519.0,523.0
504.0,498.0,506.0,513.0,536.0
496.0,502.0,499.0,506.0,539.0
496.0,502.0,497.0,500.0,513.0
497.0,504.0,499.0,501.0,511.0
500.0,509.0,504.0,501.0,517.0
504.0,510.0,508.0,505.0,515.0
514.0,510.0,512.0,504.0,504.0
512.0,510.0,515.0,502.0,497.0
514.0,507.0,518.0,498.0,506.0
515.0,506.0,520.0,503.0,510.0
518.0,504.0,520.0,506.0,505.0
526.0,507.0,531.0,514.0,499.0
533.0,508.0,528.0,522.0,491.0
535.0,509.0,526.0,524.0,502.0
525.0,504.0,521.0,526.0,506.0
519.0,503.0,515.0,524.0,507.0
513.0,501.0,508.0,518.0,520.0
498.0,497.0,499.0,510.0,531.0
495.0,501.0,499.0,506.0,533.0
496.0,506.0,500.0,503.0,532.0
502.0,509.0,503.0,504.0,518.0
506.0,510.0,505.0,502.0,501.0
510.0,512.0,511.0,501.0,503.0
508.0,511.0,514.0,500.0,506.0
507.0,507.0,515.0,498.0,523.0
513.0,508.0,519.0,501.0,521.0
519.0,506.0,521.0,505.0,512.0
521.0,504.0,523.0,508.0,506.0
529.0,508.0,527.0,519.0,503.0
529.0,506.0,526.0,522.0,498.0
531.0,506.0,525.0,527.0,502.0
523.0,504.0,517.0,524.0,507.0
520.0,502.0,513.0,522.0,515.0
513.0,500.0,509.0,514.0,525.0
506.0,500.0,500.0,513.0,530.0
501.0,502.0,498.0,502.0,530.0
495.0,505.0,497.0,502.0,526.0
496.0,508.0,506.0,502.0,528.0
497.0,511.0,508.0,501.0,527.0
500.0,512.0,514.0,503.0,515.0
503.0,509.0,515.0,500.0,522.0
508.0,508.0,516.0,498.0,523.0
513.0,507.0,520.0,499.0,528.0
523.0,508.0,527.0,507.0,500.0
529.0,506.0,528.0,512.0,486.0
528.0,504.0,524.0,518.0,484.0
531.0,506.0,527.0,522.0,493.0
526.0,505.0,524.0,527.0,504.0
527.0,505.0,519.0,526.0,501.0
520.0,503.0,512.0,521.0,516.0
507.0,498.0,500.0,510.0,524.0
501.0,499.0,497.0,505.0,518.0
500.0,504.0,496.0,503.0,514.0
501.0,506.0,500.0,502.0,518.0
502.0,510.0,508.0,500.0,520.0
505.0,513.0,511.0,503.0,513.0
507.0,514.0,517.0,504.0,507.0
507.0,511.0,518.0,502.0,508.0
505.0,507.0,520.0,499.0,507.0
509.0,506.0,520.0,504.0,504.0
518.0,507.0,524.0,510.0,504.0
524.0,507.0,526.0,515.0,505.0
529.0,511.0,528.0,527.0,504.0
533.0,506.0,525.0,524.0,505.0
532.0,504.0,523.0,528.0,511.0
521.0,503.0,516.0,523.0,518.0
509.0,499.0,509.0,518.0,520.0
493.0,499.0,500.0,514.0,531.0
484.0,501.0,498.0,506.0,519.0
490.0,505.0,498.0,505.0,515.0
493.0,513.0,502.0,503.0,513.0
499.0,510.0,506.0,501.0,517.0
507.0,511.0,513.0,506.0,513.0
510.0,516.0,515.0,502.0,514.0
512.0,508.0,515.0,498.0,516.0
515.0,505.0,516.0,499.0,508.0
520.0,505.0,521.0,504.0,503.0
523.0,506.0,525.0,514.0,496.0
527.0,509.0,525.0,517.0,491.0
528.0,506.0,527.0,523.0,498.0
526.0,506.0,525.0,527.0,499.0
523.0,504.0,520.0,527.0,502.0
517.0,504.0,514.0,526.0,505.0
511.0,499.0,507.0,516.0,507.0
503.0,501.0,499.0,510.0,530.0
498.0,502.0,498.0,505.0,525.0
498.0,504.0,498.0,503.0,518.0
495.0,507.0,504.0,503.0,535.0
495.0,511.0,508.0,500.0,549.0
499.0,513.0,514.0,504.0,536.0
507.0,512.0,517.0,501.0,526.0
506.0,506.0,515.0,498.0,516.0
515.0,506.0,519.0,498.0,507.0
518.0,505.0,521.0,505.0,507.0
528.0,508.0,526.0,515.0,499.0
529.0,508.0,527.0,520.0,497.0
532.0,508.0,528.0,526.0,498.0
531.0,506.0,524.0,528.0,496.0
525.0,504.0,517.0,526.0,505.0
520.0,503.0,514.0,521.0,512.0
510.0,499.0,502.0,514.0,527.0
508.0,501.0,500.0,507.0,534.0
498.0,504.0,498.0,504.0,532.0
496.0,510.0,499.0,502.0,534.0
498.0,510.0,504.0,502.0,527.0
498.0,510.0,508.0,504.0,508.0
503.0,510.0,512.0,501.0,504.0
506.0,508.0,514.0,500.0,510.0
508.0,507.0,519.0,499.0,507.0
517.0,506.0,520.0,504.0,511.0
521.0,504.0,520.0,510.0,509.0
530.0,507.0,526.0,518.0,509.0
533.0,507.0,528.0,521.0,494.0
537.0,506.0,528.0,525.0,481.0
532.0,504.0,520.0,526.0,493.0
530.0,504.0,516.0,526.0,499.0
524.0,502.0,510.0,521.0,514.0
511.0,502.0,499.0,512.0,526.0
493.0,499.0,499.0,504.0,531.0
493.0,505.0,501.0,506.0,535.0
496.0,509.0,504.0,504.0,532.0
496.0,509.0,505.0,501.0,525.0
501.0,513.0,512.0,505.0,517.0
504.0,511.0,515.0,502.0,519.0
507.0,510.0,516.0,499.0,507.0
512.0,507.0,519.0,500.0,500.0
514.0,504.0,520.0,506.0,502.0
516.0,506.0,521.0,509.0,501.0
528.0,506.0,527.0,519.0,507.0
530.0,506.0,525.0,525.0,493.0
533.0,505.0,522.0,527.0,487.0
522.0,502.0,518.0,526.0,498.0
515.0,506.0,513.0,527.0,510.0
510.0,499.0,506.0,517.0,518.0
503.0,498.0,498.0,509.0,524.0
501.0,502.0,498.0,503.0,523.0
499.0,506.0,497.0,503.0,517.0
503.0,508.0,503.0,504.0,517.0
505.0,510.0,508.0,501.0,519.0
506.0,512.0,514.0,503.0,532.0
505.0,509.0,514.0,500.0,531.0
510.0,507.0,515.0,500.0,518.0
513.0,508.0,518.0,505.0,501.0
520.0,505.0,522.0,508.0,499.0
525.0,506.0,524.0,515.0,499.0
531.0,506.0,527.0,523.0,489.0
534.0,507.0,527.0,527.0,490.0
528.0,505.0,523.0,528.0,493.0
526.0,504.0,517.0,524.0,505.0
517.0,502.0,511.0,526.0,514.0
504.0,498.0,501.0,515.0,531.0
496.0,499.0,498.0,506.0,538.0
499.0,507.0,499.0,506.0,536.0
495.0,507.0,500.0,503.0,534.0
499.0,508.0,502.0,502.0,526.0
504.0,511.0,508.0,504.0,523.0
511.0,513.0,514.0,504.0,521.0
512.0,509.0,514.0,503.0,518.0
516.0,507.0,516.0,506.0,514.0
520.0,507.0,519.0,505.0,503.0
524.0,505.0,521.0,509.0,490.0
530.0,506.0,523.0,519.0,491.0
533.0,505.0,524.0,524.0,493.0
529.0,508.0,523.0,531.0,518.0
527.0,507.0,523.0,529.0,510.0
521.0,505.0,517.0,525.0,524.0
513.0,499.0,508.0,520.0,525.0
503.0,500.0,500.0,511.0,536.0
496.0,500.0,496.0,507.0,533.0
499.0,506.0,498.0,506.0,517.0
496.0,508.0,501.0,503.0,511.0
494.0,508.0,502.0,501.0,510.0
501.0,514.0,511.0,509.0,506.0
507.0,514.0,512.0,503.0,506.0
511.0,508.0,514.0,500.0,509.0
515.0,510.0,515.0,506.0,511.0
520.0,506.0,521.0,508.0,508.0
528.0,507.0,527.0,512.0,508.0
531.0,505.0,524.0,520.0,491.0
533.0,506.0,525.0,524.0,492.0
532.0,507.0,522.0,531.0,498.0
527.0,505.0,519.0,526.0,507.0
520.0,503.0,516.0,523.0,521.0
511.0,500.0,504.0,515.0,526.0
505.0,500.0,498.0,511.0,530.0
501.0,504.0,497.0,511.0,527.0
494.0,505.0,498.0,503.0,528.0
495.0,511.0,504.0,503.0,535.0
503.0,510.0,509.0,500.0,540.0
512.0,512.0,512.0,498.0,529.0
515.0,510.0,514.0,501.0,507.0
516.0,508.0,517.0,502.0,490.0
510.0,505.0,516.0,503.0,502.0
507.0,506.0,522.0,510.0,495.0
506.0,504.0,523.0,514.0,496.0
525.0,508.0,527.0,522.0,494.0
527.0,504.0,524.0,525.0,492.0
531.0,507.0,523.0,530.0,493.0
522.0,503.0,516.0,524.0,501.0
515.0,501.0,511.0,524.0,509.0
503.0,498.0,500.0,513.0,526.0
500.0,503.0,497.0,509.0,530.0
498.0,505.0,499.0,509.0,530.0
496.0,508.0,501.0,504.0,531.0
499.0,513.0,503.0,501.0,526.0
502.0,511.0,509.0,507.0,525.0
510.0,514.0,513.0,507.0,511.0
509.0,509.0,516.0,504.0,509.0
509.0,506.0,517.0,502.0,515.0
519.0,507.0,520.0,505.0,510.0
523.0,506.0,522.0,511.0,505.0
527.0,507.0,525.0,517.0,507.0
530.0,506.0,526.0,525.0,498.0
534.0,505.0,526.0,526.0,487.0
526.0,504.0,520.0,528.0,496.0
519.0,501.0,514.0,526.0,501.0
514.0,500.0,507.0,521.0,508.0
502.0,498.0,496.0,512.0,521.0
496.0,500.0,496.0,508.0,526.0
496.0,504.0,501.0,504.0,527.0
499.0,509.0,503.0,507.0,520.0
500.0,509.0,505.0,503.0,518.0
506.0,512.0,510.0,502.0,517.0
511.0,510.0,514.0,503.0,517.0
514.0,510.0,516.0,503.0,515.0
515.0,507.0,517.0,502.0,514.0
520.0,506.0,521.0,506.0,512.0
521.0,504.0,521.0,511.0,508.0
526.0,509.0,526.0,519.0,511.0
529.0,506.0,527.0,525.0,494.0
533.0,509.0,526.0,528.0,486.0
527.0,504.0,522.0,525.0,490.0
518.0,502.0,512.0,523.0,506.0
508.0,497.0,503.0,516.0,515.0
499.0,498.0,497.0,510.0,524.0
492.0,503.0,499.0,507.0,548.0
493.0,507.0,501.0,504.0,530.0
500.0,510.0,502.0,505.0,525.0
500.0,511.0,507.0,503.0,534.0
508.0,513.0,514.0,506.0,518.0
506.0,510.0,514.0,501.0,518.0
508.0,508.0,514.0,499.0,520.0
516.0,504.0,518.0,503.0,502.0
522.0,505.0,522.0,514.0,494.0
527.0,506.0,523.0,515.0,489.0
533.0,507.0,526.0,526.0,490.0
535.0,507.0,525.0,526.0,501.0
534.0,507.0,525.0,530.0,504.0
526.0,505.0,517.0,527.0,508.0
518.0,504.0,511.0,524.0,512.0
502.0,497.0,499.0,512.0,520.0
493.0,498.0,496.0,508.0,529.0
495.0,504.0,501.0,506.0,529.0
497.0,509.0,502.0,506.0,530.0
498.0,509.0,505.0,504.0,527.0
501.0,510.0,507.0,502.0,519.0
510.0,511.0,513.0,504.0,510.0
517.0,510.0,517.0,502.0,508.0
512.0,506.0,520.0,502.0,510.0
516.0,506.0,520.0,507.0,507.0
523.0,505.0,523.0,510.0,503.0
527.0,503.0,524.0,521.0,496.0
532.0,511.0,526.0,526.0,495.0
530.0,505.0,524.0,525.0,494.0
527.0,509.0,520.0,528.0,504.0
524.0,504.0,517.0,525.0,510.0
516.0,503.0,510.0,522.0,516.0
505.0,501.0,500.0,514.0,524.0
498.0,502.0,497.0,508.0,529.0
496.0,505.0,499.0,505.0,529.0
497.0,509.0,503.0,504.0,535.0
499.0,511.0,506.0,503.0,534.0
507.0,512.0,511.0,502.0,525.0
510.0,511.0,513.0,502.0,514.0
516.0,510.0,518.0,501.0,513.0
522.0,507.0,518.0,503.0,503.0
522.0,506.0,520.0,506.0,509.0
522.0,504.0,522.0,511.0,509.0
530.0,506.0,525.0,518.0,506.0
527.0,507.0,527.0,527.0,490.0
529.0,506.0,525.0,528.0,497.0
527.0,505.0,519.0,528.0,500.0
522.0,504.0,513.0,526.0,504.0
513.0,499.0,503.0,518.0,515.0
502.0,499.0,498.0,511.0,526.0
498.0,503.0,497.0,512.0,526.0
497.0,506.0,499.0,506.0,517.0
497.0,509.0,504.0,505.0,519.0
498.0,510.0,507.0,504.0,522.0
505.0,514.0,513.0,510.0,503.0
508.0,510.0,515.0,503.0,515.0
509.0,505.0,513.0,500.0,514.0
518.0,506.0,518.0,504.0,502.0
521.0,505.0,522.0,510.0,498.0
526.0,506.0,525.0,517.0,493.0
529.0,506.0,527.0,524.0,487.0
530.0,507.0,527.0,528.0,507.0
529.0,507.0,526.0,532.0,511.0
522.0,504.0,517.0,528.0,508.0
515.0,503.0,513.0,525.0,508.0
504.0,497.0,497.0,514.0,524.0
497.0,501.0,498.0,510.0,539.0
495.0,506.0,498.0,506.0,529.0
499.0,507.0,499.0,504.0,524.0
505.0,508.0,503.0,503.0,521.0
510.0,511.0,507.0,504.0,518.0
512.0,512.0,512.0,503.0,516.0
510.0,509.0,515.0,502.0,512.0
505.0,505.0,515.0,501.0,517.0
510.0,506.0,520.0,507.0,511.0
517.0,506.0,522.0,512.0,507.0
524.0,506.0,524.0,519.0,498.0
530.0,507.0,527.0,524.0,494.0
532.0,505.0,528.0,527.0,498.0
529.0,506.0,519.0,528.0,488.0
518.0,503.0,513.0,530.0,501.0
514.0,502.0,510.0,524.0,514.0
493.0,496.0,498.0,510.0,551.0
492.0,502.0,497.0,508.0,546.0
495.0,505.0,498.0,505.0,525.0
500.0,508.0,504.0,505.0,510.0
501.0,508.0,504.0,502.0,518.0
506.0,512.0,511.0,509.0,515.0
509.0,512.0,515.0,503.0,521.0
508.0,509.0,515.0,501.0,522.0
514.0,508.0,515.0,501.0,515.0
516.0,505.0,520.0,510.0,508.0
522.0,506.0,523.0,514.0,505.0
527.0,506.0,525.0,520.0,496.0
531.0,507.0,528.0,527.0,492.0
527.0,505.0,523.0,528.0,494.0
524.0,505.0,519.0,529.0,502.0
516.0,503.0,513.0,525.0,512.0
507.0,498.0,505.0,514.0,524.0
500.0,500.0,499.0,511.0,540.0
494.0,507.0,498.0,507.0,540.0
496.0,504.0,497.0,504.0,533.0
502.0,509.0,505.0,508.0,520.0
502.0,507.0,507.0,505.0,517.0
509.0,514.0,514.0,506.0,518.0
509.0,511.0,516.0,502.0,524.0
513.0,508.0,515.0,499.0,519.0
513.0,505.0,519.0,504.0,510.0
523.0,506.0,523.0,510.0,493.0
526.0,506.0,523.0,517.0,496.0
532.0,508.0,527.0,523.0,508.0
534.0,505.0,526.0,526.0,513.0
535.0,508.0,524.0,529.0,504.0
531.0,504.0,518.0,526.0,503.0
525.0,504.0,513.0,525.0,500.0
507.0,498.0,503.0,514.0,516.0
491.0,499.0,495.0,507.0,521.0
487.0,502.0,498.0,507.0,513.0
492.0,507.0,502.0,508.0,508.0
495.0,510.0,505.0,504.0,513.0
495.0,511.0,510.0,504.0,506.0
501.0,511.0,514.0,504.0,507.0
504.0,507.0,514.0,502.0,522.0
508.0,511.0,517.0,505.0,519.0
518.0,507.0,521.0,509.0,504.0
521.0,503.0,522.0,510.0,504.0
529.0,512.0,528.0,519.0,507.0
529.0,507.0,528.0,524.0,499.0
532.0,505.0,525.0,528.0,504.0
525.0,504.0,521.0,529.0,497.0
514.0,503.0,515.0,526.0,506.0
509.0,504.0,508.0,521.0,516.0
499.0,500.0,501.0,514.0,529.0
498.0,501.0,500.0,507.0,520.0
499.0,504.0,498.0,507.0,525.0
498.0,507.0,502.0,504.0,525.0
500.0,512.0,506.0,506.0,526.0
504.0,513.0,512.0,504.0,515.0
509.0,511.0,516.0,506.0,490.0
511.0,506.0,513.0,501.0,494.0
518.0,505.0,518.0,508.0,495.0
523.0,506.0,522.0,508.0,517.0
523.0,505.0,520.0,512.0,515.0
527.0,510.0,527.0,525.0,505.0
526.0,506.0,527.0,527.0,503.0
526.0,505.0,523.0,531.0,501.0
522.0,502.0,517.0,527.0,504.0
517.0,502.0,515.0,525.0,504.0
506.0,498.0,503.0,516.0,526.0
498.0,499.0,499.0,509.0,529.0
496.0,503.0,497.0,507.0,528.0
496.0,505.0,500.0,507.0,525.0
499.0,510.0,504.0,506.0,524.0
501.0,511.0,507.0,503.0,520.0
506.0,512.0,512.0,503.0,520.0
509.0,512.0,516.0,502.0,511.0
507.0,508.0,515.0,501.0,514.0
507.0,504.0,517.0,503.0,521.0
514.0,510.0,522.0,511.0,514.0
520.0,508.0,526.0,517.0,511.0
526.0,510.0,529.0,526.0,502.0
533.0,510.0,525.0,531.0,485.0
529.0,506.0,519.0,528.0,505.0
521.0,504.0,518.0,529.0,521.0
517.0,502.0,512.0,525.0,516.0
504.0,499.0,500.0,514.0,527.0
500.0,500.0,495.0,508.0,524.0
499.0,504.0,497.0,507.0,517.0
496.0,507.0,500.0,504.0,518.0
497.0,512.0,503.0,505.0,518.0
501.0,511.0,510.0,504.0,515.0
506.0,514.0,515.0,504.0,523.0
507.0,509.0,514.0,501.0,518.0
511.0,506.0,514.0,500.0,506.0
516.0,505.0,518.0,506.0,503.0
521.0,504.0,520.0,510.0,502.0
532.0,510.0,526.0,520.0,499.0
533.0,507.0,526.0,525.0,498.0
531.0,509.0,523.0,530.0,499.0
526.0,505.0,520.0,531.0,504.0
518.0,503.0,514.0,525.0,521.0
514.0,501.0,509.0,522.0,530.0
506.0,502.0,500.0,514.0,536.0
498.0,501.0,497.0,508.0,532.0
499.0,505.0,498.0,510.0,502.0
503.0,510.0,504.0,508.0,509.0
508.0,510.0,507.0,502.0,516.0
505.0,515.0,508.0,503.0,509.0
510.0,512.0,513.0,502.0,504.0
513.0,509.0,515.0,504.0,508.0
515.0,508.0,518.0,506.0,503.0
521.0,506.0,521.0,508.0,501.0
525.0,505.0,522.0,513.0,508.0
529.0,508.0,524.0,520.0,505.0
527.0,509.0,529.0,530.0,504.0
524.0,505.0,524.0,531.0,511.0
518.0,506.0,517.0,529.0,503.0
517.0,501.0,512.0,526.0,499.0
505.0,498.0,503.0,520.0,520.0
497.0,500.0,499.0,513.0,527.0
497.0,504.0,500.0,512.0,519.0
503.0,506.0,501.0,508.0,519.0
506.0,509.0,504.0,508.0,511.0
509.0,509.0,508.0,505.0,509.0
505.0,512.0,515.0,507.0,527.0
505.0,509.0,515.0,504.0,521.0
507.0,506.0,515.0,508.0,507.0
515.0,503.0,517.0,504.0,505.0
518.0,504.0,521.0,510.0,510.0
526.0,507.0,526.0,518.0,508.0
529.0,506.0,526.0,522.0,508.0
530.0,504.0,526.0,526.0,510.0
527.0,504.0,522.0,529.0,505.0
522.0,502.0,516.0,527.0,509.0
514.0,501.0,511.0,525.0,511.0
505.0,499.0,501.0,516.0,520.0
498.0,500.0,497.0,510.0,525.0
497.0,504.0,499.0,507.0,527.0
498.0,507.0,503.0,505.0,526.0
499.0,508.0,504.0,504.0,526.0
508.0,514.0,511.0,506.0,522.0
510.0,513.0,515.0,505.0,515.0
511.0,510.0,516.0,509.0,510.0
514.0,509.0,518.0,503.0,507.0
517.0,510.0,520.0,507.0,502.0
520.0,507.0,524.0,513.0,500.0
527.0,507.0,526.0,519.0,495.0
531.0,506.0,531.0,525.0,497.0
529.0,505.0,524.0,529.0,499.0
527.0,505.0,521.0,528.0,505.0
518.0,503.0,515.0,526.0,512.0
512.0,504.0,510.0,523.0,517.0
499.0,500.0,499.0,512.0,525.0
494.0,502.0,497.0,508.0,528.0
495.0,509.0,498.0,506.0,533.0
496.0,510.0,504.0,505.0,527.0
502.0,510.0,505.0,502.0,523.0
506.0,513.0,515.0,504.0,522.0
511.0,512.0,515.0,504.0,517.0
509.0,514.0,515.0,502.0,515.0
514.0,506.0,517.0,501.0,516.0
518.0,507.0,521.0,512.0,507.0
521.0,507.0,525.0,514.0,510.0
529.0,507.0,526.0,521.0,504.0
537.0,511.0,528.0,527.0,502.0
530.0,506.0,522.0,528.0,503.0
532.0,506.0,520.0,527.0,505.0
520.0,504.0,513.0,529.0,511.0
511.0,503.0,503.0,519.0,520.0
502.0,501.0,498.0,510.0,525.0
498.0,504.0,497.0,507.0,527.0
499.0,507.0,498.0,505.0,528.0
509.0,512.0,504.0,504.0,523.0
507.0,511.0,505.0,501.0,522.0
508.0,512.0,510.0,502.0,516.0
508.0,510.0,514.0,503.0,502.0
510.0,510.0,519.0,503.0,504.0
515.0,508.0,519.0,506.0,503.0
516.0,505.0,522.0,511.0,498.0
516.0,505.0,522.0,514.0,495.0
530.0,508.0,526.0,524.0,494.0
532.0,507.0,527.0,528.0,491.0
527.0,505.0,521.0,528.0,491.0
523.0,504.0,517.0,527.0,502.0
520.0,504.0,511.0,525.0,514.0
504.0,500.0,499.0,514.0,525.0
496.0,501.0,495.0,511.0,528.0
494.0,509.0,496.0,508.0,530.0
503.0,511.0,505.0,506.0,526.0
496.0,510.0,503.0,502.0,520.0
500.0,514.0,507.0,504.0,515.0
507.0,513.0,511.0,502.0,505.0
509.0,509.0,513.0,501.0,502.0
516.0,509.0,520.0,504.0,493.0
520.0,507.0,522.0,508.0,499.0
524.0,505.0,521.0,510.0,508.0
526.0,506.0,523.0,518.0,506.0
527.0,508.0,526.0,524.0,520.0
530.0,505.0,522.0,525.0,508.0
528.0,509.0,520.0,530.0,507.0
520.0,505.0,513.0,526.0,513.0
516.0,503.0,508.0,524.0,517.0
502.0,499.0,498.0,510.0,529.0
495.0,501.0,496.0,508.0,534.0
496.0,507.0,498.0,506.0,536.0
499.0,510.0,503.0,506.0,528.0
503.0,510.0,505.0,502.0,526.0
505.0,513.0,511.0,510.0,523.0
508.0,511.0,515.0,505.0,519.0
513.0,510.0,516.0,504.0,510.0
520.0,508.0,519.0,502.0,507.0
520.0,507.0,520.0,509.0,500.0
521.0,505.0,520.0,510.0,495.0
530.0,508.0,525.0,521.0,506.0
529.0,505.0,525.0,527.0,501.0
529.0,507.0,524.0,530.0,507.0
523.0,503.0,517.0,528.0,509.0
518.0,502.0,509.0,524.0,502.0
511.0,501.0,500.0,517.0,513.0
502.0,500.0,498.0,511.0,533.0
504.0,504.0,501.0,505.0,538.0
499.0,506.0,497.0,503.0,534.0
501.0,509.0,503.0,504.0,526.0
502.0,511.0,508.0,504.0,530.0
504.0,512.0,514.0,504.0,516.0
509.0,510.0,515.0,506.0,514.0
515.0,508.0,518.0,505.0,509.0
515.0,506.0,517.0,504.0,511.0
516.0,504.0,521.0,510.0,503.0
524.0,506.0,529.0,517.0,503.0
530.0,505.0,525.0,526.0,487.0
534.0,510.0,524.0,528.0,480.0
533.0,505.0,524.0,529.0,491.0
523.0,505.0,515.0,528.0,498.0
520.0,503.0,511.0,525.0,502.0
504.0,499.0,498.0,512.0,520.0
499.0,499.0,499.0,507.0,533.0
496.0,504.0,498.0,506.0,522.0
497.0,508.0,501.0,507.0,516.0
494.0,511.0,503.0,504.0,514.0
500.0,511.0,509.0,505.0,509.0
504.0,512.0,515.0,505.0,519.0
509.0,511.0,517.0,504.0,521.0
510.0,509.0,518.0,503.0,519.0
513.0,506.0,519.0,506.0,519.0
517.0,505.0,523.0,515.0,517.0
528.0,508.0,525.0,519.0,506.0
531.0,507.0,527.0,528.0,496.0
530.0,504.0,523.0,529.0,496.0
529.0,504.0,521.0,530.0,496.0
521.0,503.0,514.0,531.0,504.0
516.0,503.0,509.0,524.0,512.0
502.0,498.0,498.0,515.0,519.0
496.0,500.0,495.0,508.0,524.0
495.0,509.0,497.0,507.0,527.0
500.0,510.0,503.0,507.0,520.0
502.0,510.0,507.0,505.0,515.0
507.0,513.0,512.0,507.0,507.0
507.0,511.0,515.0,504.0,516.0
509.0,508.0,516.0,503.0,519.0
516.0,504.0,515.0,504.0,514.0
520.0,507.0,518.0,508.0,514.0
523.0,504.0,521.0,513.0,513.0
530.0,507.0,528.0,523.0,503.0
532.0,505.0,525.0,523.0,494.0
536.0,505.0,524.0,528.0,501.0
525.0,504.0,518.0,527.0,506.0
516.0,507.0,513.0,525.0,516.0
506.0,498.0,502.0,517.0,524.0
500.0,499.0,495.0,511.0,529.0
496.0,501.0,496.0,507.0,528.0
497.0,507.0,505.0,506.0,528.0
498.0,510.0,505.0,506.0,525.0
499.0,510.0,506.0,503.0,520.0
506.0,511.0,512.0,504.0,512.0
509.0,509.0,515.0,504.0,498.0
512.0,508.0,513.0,503.0,496.0
517.0,505.0,518.0,504.0,505.0
520.0,504.0,521.0,510.0,512.0
523.0,508.0,527.0,518.0,524.0
528.0,506.0,526.0,524.0,506.0
531.0,506.0,525.0,528.0,505.0
528.0,505.0,522.0,528.0,507.0
521.0,502.0,514.0,526.0,518.0
516.0,502.0,512.0,528.0,520.0
505.0,499.0,501.0,515.0,513.0
499.0,506.0,496.0,509.0,519.0
496.0,504.0,498.0,503.0,522.0
496.0,507.0,502.0,506.0,523.0
498.0,510.0,506.0,505.0,525.0
502.0,512.0,511.0,505.0,518.0
506.0,512.0,514.0,503.0,513.0
508.0,508.0,515.0,503.0,510.0
516.0,508.0,519.0,503.0,510.0
518.0,510.0,519.0,507.0,507.0
524.0,506.0,523.0,513.0,508.0
528.0,506.0,526.0,518.0,500.0
535.0,508.0,528.0,526.0,489.0
528.0,504.0,523.0,524.0,501.0
526.0,505.0,521.0,529.0,514.0
525.0,508.0,513.0,526.0,519.0
514.0,503.0,508.0,522.0,526.0
502.0,501.0,497.0,513.0,530.0
495.0,502.0,498.0,509.0,536.0
495.0,505.0,498.0,504.0,536.0
502.0,512.0,501.0,506.0,516.0
501.0,509.0,505.0,503.0,519.0
506.0,517.0,511.0,505.0,524.0
512.0,513.0,515.0,504.0,515.0
514.0,509.0,516.0,501.0,510.0
518.0,507.0,519.0,509.0,506.0
524.0,507.0,523.0,509.0,506.0
524.0,505.0,523.0,514.0,496.0
529.0,508.0,527.0,522.0,496.0
531.0,506.0,526.0,527.0,495.0
527.0,507.0,524.0,529.0,502.0
521.0,504.0,519.0,529.0,506.0
518.0,503.0,514.0,527.0,509.0
507.0,502.0,501.0,517.0,515.0
499.0,500.0,498.0,512.0,515.0
495.0,502.0,497.0,507.0,524.0
492.0,507.0,503.0,505.0,527.0
497.0,508.0,502.0,502.0,521.0
499.0,510.0,506.0,505.0,520.0
507.0,514.0,514.0,505.0,514.0
511.0,511.0,514.0,502.0,513.0
511.0,507.0,515.0,500.0,511.0
515.0,505.0,518.0,504.0,511.0
525.0,508.0,524.0,511.0,503.0
525.0,506.0,522.0,516.0,500.0
533.0,507.0,526.0,524.0,498.0
534.0,507.0,525.0,528.0,499.0
530.0,506.0,522.0,528.0,510.0
521.0,504.0,519.0,528.0,520.0
516.0,503.0,510.0,523.0,513.0
504.0,498.0,498.0,513.0,521.0
499.0,499.0,495.0,509.0,525.0
501.0,505.0,499.0,509.0,524.0
501.0,509.0,501.0,507.0,522.0
502.0,510.0,504.0,504.0,526.0
503.0,515.0,508.0,504.0,523.0
502.0,511.0,512.0,503.0,517.0
512.0,508.0,514.0,503.0,507.0
519.0,508.0,519.0,502.0,500.0
515.0,505.0,522.0,506.0,496.0
520.0,504.0,523.0,514.0,505.0
525.0,506.0,525.0,519.0,507.0
530.0,506.0,528.0,526.0,505.0
527.0,504.0,522.0,528.0,503.0
527.0,506.0,522.0,530.0,506.0
521.0,503.0,515.0,526.0,507.0
514.0,502.0,513.0,523.0,512.0
499.0,498.0,497.0,511.0,527.0
495.0,505.0,496.0,509.0,535.0
497.0,505.0,499.0,506.0,530.0
501.0,509.0,503.0,506.0,523.0
503.0,509.0,504.0,504.0,513.0
509.0,510.0,512.0,504.0,508.0
510.0,508.0,514.0,503.0,515.0
513.0,509.0,517.0,504.0,514.0
515.0,507.0,519.0,505.0,516.0
519.0,505.0,520.0,506.0,510.0
523.0,505.0,523.0,516.0,508.0
527.0,507.0,527.0,520.0,504.0
531.0,505.0,524.0,525.0,503.0
525.0,504.0,522.0,528.0,505.0
524.0,504.0,520.0,527.0,506.0
518.0,503.0,513.0,525.0,511.0
509.0,499.0,502.0,516.0,519.0
501.0,498.0,495.0,508.0,523.0
500.0,501.0,498.0,505.0,526.0
502.0,509.0,498.0,505.0,527.0
498.0,509.0,506.0,506.0,516.0
500.0,510.0,507.0,504.0,517.0
505.0,513.0,514.0,505.0,512.0
508.0,510.0,515.0,503.0,512.0
512.0,510.0,516.0,502.0,512.0
516.0,504.0,518.0,509.0,516.0
524.0,507.0,524.0,509.0,514.0
525.0,504.0,524.0,516.0,508.0
530.0,507.0,528.0,525.0,497.0
526.0,506.0,524.0,532.0,497.0
522.0,505.0,522.0,529.0,503.0
515.0,503.0,514.0,528.0,513.0
511.0,502.0,510.0,524.0,511.0
499.0,499.0,500.0,516.0,520.0
500.0,500.0,497.0,511.0,520.0
498.0,504.0,499.0,507.0,513.0
501.0,510.0,503.0,506.0,514.0
500.0,510.0,505.0,504.0,519.0
503.0,511.0,509.0,501.0,520.0
507.0,512.0,515.0,509.0,517.0
511.0,511.0,517.0,506.0,517.0
514.0,509.0,519.0,505.0,498.0
515.0,505.0,520.0,506.0,506.0
521.0,507.0,524.0,514.0,511.0
526.0,508.0,526.0,519.0,506.0
530.0,509.0,532.0,527.0,502.0
529.0,507.0,525.0,529.0,505.0
525.0,508.0,521.0,533.0,505.0
524.0,505.0,514.0,525.0,512.0
513.0,503.0,509.0,522.0,520.0
498.0,499.0,498.0,512.0,530.0
493.0,504.0,503.0,508.0,540.0
494.0,506.0,500.0,506.0,542.0
497.0,511.0,503.0,504.0,533.0
496.0,510.0,506.0,502.0,530.0
503.0,514.0,513.0,510.0,507.0
508.0,512.0,517.0,506.0,504.0
517.0,511.0,517.0,503.0,503.0
515.0,505.0,517.0,503.0,489.0
521.0,507.0,525.0,512.0,493.0
525.0,508.0,524.0,519.0,495.0
531.0,508.0,526.0,525.0,496.0
532.0,508.0,526.0,527.0,503.0
535.0,507.0,523.0,530.0,504.0
528.0,505.0,517.0,528.0,506.0
520.0,508.0,515.0,528.0,508.0
505.0,501.0,504.0,520.0,519.0
498.0,501.0,498.0,511.0,528.0
495.0,505.0,499.0,513.0,535.0
495.0,508.0,501.0,507.0,533.0
499.0,510.0,505.0,506.0,535.0
503.0,511.0,508.0,504.0,535.0
508.0,513.0,513.0,507.0,519.0
513.0,514.0,518.0,507.0,512.0
514.0,510.0,518.0,505.0,499.0
513.0,506.0,518.0,503.0,506.0
518.0,506.0,522.0,511.0,504.0
525.0,509.0,526.0,519.0,496.0
530.0,510.0,528.0,527.0,495.0
531.0,507.0,526.0,530.0,495.0
528.0,507.0,522.0,530.0,502.0
521.0,504.0,516.0,528.0,506.0
515.0,504.0,514.0,526.0,511.0
506.0,501.0,503.0,515.0,522.0
496.0,501.0,497.0,510.0,524.0
496.0,506.0,501.0,508.0,530.0
498.0,511.0,504.0,512.0,526.0
497.0,511.0,506.0,503.0,528.0
502.0,511.0,511.0,505.0,521.0
510.0,514.0,516.0,506.0,516.0
510.0,511.0,516.0,503.0,511.0
518.0,508.0,519.0,504.0,510.0
524.0,507.0,520.0,507.0,501.0
523.0,505.0,521.0,512.0,499.0
530.0,507.0,525.0,519.0,496.0
530.0,508.0,527.0,526.0,498.0
528.0,506.0,525.0,528.0,513.0
526.0,505.0,519.0,526.0,506.0
522.0,503.0,516.0,527.0,512.0
515.0,501.0,507.0,521.0,519.0
502.0,503.0,499.0,511.0,533.0
499.0,502.0,496.0,508.0,530.0
497.0,505.0,497.0,504.0,530.0
495.0,511.0,504.0,505.0,526.0
499.0,509.0,505.0,504.0,519.0
508.0,514.0,514.0,506.0,520.0
507.0,511.0,515.0,500.0,515.0
506.0,510.0,517.0,502.0,520.0
509.0,506.0,519.0,503.0,514.0
516.0,504.0,522.0,510.0,508.0
525.0,507.0,526.0,517.0,503.0
531.0,507.0,528.0,525.0,489.0
532.0,506.0,526.0,527.0,487.0
530.0,505.0,523.0,530.0,497.0
526.0,503.0,520.0,530.0,505.0
519.0,503.0,512.0,525.0,509.0
503.0,496.0,499.0,515.0,525.0
496.0,500.0,498.0,510.0,538.0
495.0,505.0,500.0,509.0,540.0
496.0,508.0,501.0,506.0,546.0
500.0,510.0,506.0,505.0,544.0
502.0,511.0,508.0,503.0,527.0
505.0,512.0,512.0,503.0,504.0
509.0,510.0,517.0,505.0,483.0
512.0,508.0,517.0,504.0,484.0
512.0,507.0,520.0,507.0,503.0
515.0,505.0,525.0,511.0,514.0
522.0,506.0,524.0,518.0,502.0
533.0,508.0,531.0,524.0,498.0
534.0,506.0,527.0,528.0,500.0
535.0,505.0,521.0,529.0,499.0
524.0,504.0,517.0,528.0,512.0
515.0,509.0,512.0,524.0,518.0
505.0,500.0,497.0,514.0,522.0
498.0,501.0,500.0,508.0,528.0
501.0,506.0,499.0,507.0,534.0
496.0,509.0,501.0,505.0,524.0
500.0,508.0,509.0,505.0,519.0
506.0,512.0,512.0,504.0,523.0
512.0,512.0,515.0,504.0,511.0
517.0,513.0,514.0,502.0,512.0
518.0,510.0,519.0,505.0,510.0
519.0,505.0,519.0,507.0,497.0
522.0,503.0,521.0,511.0,494.0
526.0,507.0,526.0,520.0,498.0
528.0,505.0,526.0,526.0,493.0
529.0,507.0,524.0,528.0,493.0
526.0,504.0,520.0,530.0,498.0
517.0,504.0,516.0,527.0,517.0
510.0,502.0,508.0,523.0,522.0
498.0,498.0,498.0,514.0,527.0
496.0,503.0,500.0,510.0,532.0
493.0,504.0,499.0,503.0,526.0
498.0,508.0,503.0,505.0,529.0
507.0,512.0,507.0,504.0,519.0
511.0,512.0,511.0,501.0,511.0
511.0,510.0,512.0,501.0,512.0
514.0,509.0,519.0,502.0,515.0
516.0,507.0,517.0,502.0,518.0
520.0,505.0,521.0,508.0,520.0
523.0,505.0,524.0,515.0,510.0
526.0,508.0,525.0,522.0,486.0
536.0,508.0,527.0,525.0,485.0
531.0,505.0,520.0,529.0,496.0
521.0,504.0,518.0,526.0,498.0
510.0,502.0,511.0,524.0,520.0
502.0,500.0,502.0,515.0,537.0
497.0,502.0,495.0,509.0,537.0
497.0,505.0,499.0,508.0,535.0
495.0,504.0,498.0,508.0,530.0
499.0,509.0,508.0,509.0,520.0
503.0,511.0,508.0,508.0,518.0
507.0,512.0,514.0,505.0,512.0
509.0,509.0,515.0,505.0,507.0
512.0,507.0,517.0,504.0,510.0
514.0,508.0,519.0,508.0,510.0
522.0,506.0,522.0,511.0,505.0
527.0,507.0,525.0,518.0,500.0
532.0,506.0,531.0,524.0,497.0
531.0,505.0,523.0,527.0,498.0
528.0,507.0,522.0,531.0,508.0
520.0,504.0,515.0,527.0,514.0
514.0,502.0,514.0,527.0,516.0
501.0,498.0,500.0,516.0,524.0
498.0,505.0,496.0,510.0,521.0
496.0,504.0,501.0,507.0,524.0
501.0,509.0,504.0,505.0,526.0
497.0,509.0,505.0,502.0,525.0
501.0,510.0,508.0,503.0,522.0
508.0,512.0,515.0,505.0,518.0
515.0,510.0,515.0,505.0,513.0
516.0,508.0,518.0,505.0,505.0
521.0,507.0,521.0,508.0,500.0
524.0,505.0,523.0,514.0,500.0
528.0,506.0,525.0,520.0,494.0
532.0,506.0,531.0,526.0,494.0
529.0,505.0,524.0,529.0,495.0
527.0,506.0,523.0,529.0,506.0
522.0,503.0,513.0,525.0,512.0
518.0,502.0,506.0,518.0,519.0
505.0,499.0,498.0,512.0,530.0
502.0,505.0,497.0,509.0,532.0
501.0,507.0,502.0,505.0,529.0
499.0,509.0,503.0,504.0,526.0
497.0,510.0,506.0,504.0,527.0
502.0,512.0,513.0,506.0,523.0
505.0,511.0,515.0,504.0,519.0
512.0,509.0,517.0,504.0,511.0
521.0,509.0,517.0,506.0,502.0
523.0,506.0,522.0,510.0,495.0
527.0,505.0,522.0,514.0,495.0
533.0,508.0,526.0,523.0,498.0
530.0,507.0,524.0,528.0,508.0
530.0,505.0,522.0,530.0,511.0
526.0,502.0,515.0,526.0,504.0
511.0,502.0,512.0,526.0,504.0
498.0,497.0,501.0,521.0,514.0
494.0,501.0,498.0,513.0,520.0
495.0,503.0,497.0,506.0,531.0
497.0,507.0,498.0,503.0,529.0
500.0,509.0,503.0,504.0,532.0
504.0,511.0,509.0,503.0,529.0
502.0,507.0,511.0,503.0,524.0
505.0,511.0,515.0,510.0,497.0
512.0,509.0,518.0,506.0,503.0
515.0,507.0,521.0,507.0,501.0
515.0,505.0,523.0,512.0,506.0
524.0,509.0,527.0,522.0,509.0
529.0,506.0,526.0,529.0,500.0
531.0,505.0,524.0,528.0,500.0
530.0,505.0,521.0,529.0,495.0
520.0,502.0,514.0,523.0,504.0
518.0,502.0,510.0,523.0,501.0
509.0,499.0,503.0,513.0,515.0
499.0,500.0,498.0,512.0,520.0
498.0,505.0,498.0,507.0,518.0
499.0,508.0,501.0,505.0,523.0
500.0,508.0,504.0,503.0,533.0
504.0,511.0,509.0,502.0,535.0
506.0,511.0,511.0,502.0,525.0
507.0,508.0,517.0,503.0,520.0
510.0,506.0,518.0,504.0,509.0
519.0,507.0,520.0,508.0,499.0
525.0,507.0,521.0,512.0,494.0
535.0,508.0,526.0,520.0,492.0
532.0,505.0,525.0,524.0,501.0
530.0,506.0,523.0,530.0,509.0
526.0,504.0,517.0,526.0,505.0
519.0,502.0,514.0,526.0,510.0
517.0,501.0,507.0,519.0,514.0
505.0,503.0,500.0,516.0,518.0
498.0,502.0,497.0,509.0,529.0
500.0,504.0,498.0,506.0,525.0
504.0,508.0,502.0,505.0,521.0
507.0,510.0,505.0,504.0,519.0
509.0,511.0,510.0,504.0,520.0
508.0,509.0,514.0,501.0,521.0
508.0,509.0,519.0,504.0,517.0
514.0,507.0,519.0,505.0,515.0
521.0,506.0,521.0,509.0,508.0
527.0,504.0,520.0,515.0,495.0
531.0,508.0,526.0,523.0,497.0
533.0,506.0,526.0,528.0,497.0
530.0,505.0,523.0,528.0,503.0
519.0,502.0,519.0,525.0,511.0
513.0,499.0,509.0,521.0,517.0
504.0,495.0,498.0,514.0,522.0
498.0,498.0,496.0,515.0,524.0
498.0,504.0,500.0,511.0,530.0
498.0,507.0,500.0,506.0,525.0
499.0,507.0,502.0,503.0,520.0
502.0,510.0,506.0,504.0,523.0
509.0,512.0,513.0,504.0,521.0
511.0,510.0,514.0,501.0,519.0
512.0,507.0,519.0,500.0,514.0
522.0,506.0,522.0,506.0,495.0
521.0,505.0,525.0,511.0,503.0
527.0,506.0,524.0,518.0,501.0
533.0,509.0,526.0,529.0,498.0
531.0,505.0,524.0,528.0,500.0
526.0,504.0,518.0,527.0,502.0
525.0,503.0,515.0,524.0,512.0
521.0,505.0,511.0,525.0,518.0
507.0,499.0,498.0,513.0,530.0
502.0,501.0,496.0,508.0,534.0
501.0,504.0,496.0,505.0,533.0
498.0,507.0,501.0,508.0,528.0
496.0,510.0,505.0,504.0,521.0
494.0,510.0,508.0,504.0,508.0
500.0,510.0,513.0,507.0,506.0
506.0,508.0,514.0,503.0,508.0
512.0,507.0,518.0,507.0,507.0
520.0,508.0,520.0,509.0,501.0
526.0,506.0,525.0,512.0,499.0
527.0,505.0,523.0,521.0,494.0
533.0,508.0,527.0,527.0,496.0
526.0,505.0,523.0,529.0,514.0
519.0,505.0,518.0,529.0,515.0
515.0,502.0,513.0,524.0,513.0
510.0,500.0,505.0,520.0,517.0
502.0,503.0,499.0,513.0,529.0
496.0,503.0,497.0,508.0,533.0
495.0,506.0,498.0,508.0,533.0
500.0,510.0,508.0,504.0,524.0
499.0,510.0,506.0,503.0,518.0
504.0,511.0,510.0,504.0,513.0
509.0,511.0,519.0,503.0,509.0
510.0,509.0,517.0,504.0,511.0
515.0,505.0,518.0,504.0,512.0
520.0,506.0,522.0,507.0,506.0
524.0,505.0,523.0,516.0,504.0
529.0,507.0,526.0,523.0,494.0
533.0,506.0,529.0,528.0,494.0
529.0,504.0,521.0,529.0,500.0
522.0,502.0,515.0,527.0,507.0
516.0,503.0,512.0,525.0,512.0
507.0,498.0,502.0,518.0,519.0
500.0,500.0,497.0,512.0,524.0
498.0,503.0,498.0,508.0,521.0
497.0,505.0,500.0,505.0,526.0
501.0,509.0,505.0,506.0,522.0
503.0,509.0,507.0,504.0,518.0
504.0,509.0,512.0,503.0,514.0
506.0,508.0,513.0,503.0,513.0
510.0,508.0,521.0,503.0,513.0
516.0,508.0,519.0,507.0,510.0
520.0,510.0,522.0,511.0,507.0
526.0,510.0,526.0,519.0,503.0
531.0,508.0,526.0,524.0,500.0
531.0,505.0,524.0,528.0,504.0
527.0,505.0,520.0,529.0,507.0
521.0,505.0,517.0,527.0,517.0
517.0,502.0,510.0,524.0,513.0
503.0,496.0,499.0,513.0,526.0
496.0,496.0,495.0,509.0,530.0
498.0,502.0,500.0,507.0,529.0
504.0,506.0,503.0,506.0,519.0
498.0,505.0,505.0,501.0,521.0
500.0,506.0,508.0,502.0,512.0
512.0,519.0,514.0,506.0,504.0
513.0,507.0,516.0,502.0,503.0
510.0,509.0,517.0,502.0,506.0
520.0,509.0,523.0,509.0,511.0
517.0,504.0,522.0,513.0,530.0
523.0,506.0,526.0,521.0,517.0
528.0,507.0,526.0,527.0,503.0
527.0,509.0,523.0,529.0,505.0
524.0,505.0,518.0,529.0,500.0
518.0,503.0,514.0,527.0,506.0
515.0,503.0,508.0,522.0,523.0
503.0,502.0,499.0,512.0,532.0
501.0,504.0,499.0,510.0,529.0
498.0,509.0,499.0,505.0,524.0
498.0,509.0,501.0,502.0,518.0
507.0,514.0,506.0,504.0,522.0
505.0,515.0,510.0,502.0,526.0
507.0,510.0,513.0,506.0,516.0
516.0,508.0,519.0,502.0,506.0
515.0,507.0,518.0,507.0,500.0
521.0,507.0,522.0,509.0,499.0
521.0,506.0,523.0,514.0,495.0
528.0,508.0,527.0,523.0,497.0
532.0,507.0,527.0,529.0,493.0
528.0,505.0,520.0,528.0,499.0
524.0,506.0,518.0,529.0,504.0
516.0,503.0,513.0,525.0,509.0
502.0,498.0,500.0,513.0,522.0
498.0,501.0,498.0,510.0,524.0
497.0,505.0,498.0,505.0,523.0
497.0,511.0,502.0,506.0,520.0
502.0,511.0,508.0,506.0,518.0
504.0,512.0,509.0,502.0,519.0
506.0,511.0,515.0,507.0,523.0
505.0,510.0,516.0,501.0,529.0
512.0,506.0,513.0,499.0,507.0
517.0,505.0,518.0,504.0,507.0
526.0,507.0,521.0,510.0,508.0
529.0,505.0,524.0,518.0,498.0
528.0,506.0,531.0,525.0,490.0
530.0,506.0,525.0,529.0,501.0
532.0,509.0,522.0,531.0,509.0
520.0,502.0,514.0,525.0,515.0
516.0,500.0,508.0,522.0,518.0
493.0,499.0,502.0,515.0,531.0
490.0,501.0,498.0,509.0,529.0
491.0,503.0,498.0,505.0,523.0
498.0,506.0,502.0,508.0,512.0
505.0,510.0,505.0,504.0,514.0
505.0,511.0,510.0,503.0,516.0
506.0,512.0,516.0,505.0,516.0
510.0,511.0,519.0,502.0,515.0
514.0,507.0,521.0,502.0,508.0
521.0,507.0,521.0,509.0,506.0
523.0,506.0,523.0,512.0,510.0
534.0,508.0,528.0,523.0,487.0
530.0,504.0,526.0,525.0,489.0
529.0,506.0,524.0,529.0,502.0
522.0,505.0,518.0,528.0,509.0
515.0,503.0,514.0,526.0,514.0
512.0,500.0,506.0,521.0,523.0
501.0,500.0,498.0,512.0,527.0
499.0,505.0,495.0,507.0,523.0
498.0,506.0,500.0,504.0,522.0
498.0,510.0,505.0,504.0,524.0
498.0,511.0,507.0,501.0,525.0
502.0,510.0,511.0,504.0,519.0
509.0,511.0,518.0,503.0,516.0
514.0,509.0,518.0,507.0,516.0
515.0,506.0,519.0,504.0,509.0
522.0,502.0,522.0,509.0,505.0
529.0,505.0,525.0,517.0,497.0
534.0,507.0,526.0,525.0,487.0
536.0,507.0,526.0,528.0,489.0
529.0,504.0,521.0,528.0,501.0
520.0,504.0,518.0,527.0,525.0
511.0,502.0,515.0,523.0,525.0
504.0,499.0,502.0,519.0,530.0
498.0,501.0,499.0,512.0,524.0
495.0,503.0,498.0,508.0,529.0
497.0,507.0,501.0,511.0,528.0
500.0,510.0,505.0,504.0,530.0
502.0,510.0,509.0,503.0,525.0
511.0,511.0,510.0,503.0,512.0
506.0,509.0,515.0,504.0,513.0
513.0,508.0,521.0,504.0,512.0
515.0,505.0,520.0,506.0,502.0
522.0,506.0,522.0,514.0,498.0
531.0,506.0,522.0,517.0,494.0
532.0,508.0,528.0,526.0,495.0
530.0,504.0,523.0,527.0,496.0
528.0,505.0,520.0,530.0,503.0
523.0,504.0,515.0,530.0,509.0
516.0,502.0,510.0,524.0,513.0
501.0,498.0,498.0,513.0,528.0
496.0,500.0,497.0,509.0,532.0
494.0,509.0,499.0,509.0,526.0
496.0,508.0,502.0,505.0,526.0
495.0,510.0,504.0,502.0,520.0
506.0,511.0,509.0,506.0,516.0
511.0,512.0,514.0,505.0,518.0
513.0,510.0,516.0,502.0,519.0
514.0,507.0,517.0,503.0,519.0
520.0,507.0,519.0,510.0,501.0
527.0,507.0,523.0,518.0,497.0
529.0,506.0,525.0,521.0,498.0
533.0,508.0,527.0,528.0,499.0
529.0,508.0,523.0,527.0,505.0
522.0,505.0,519.0,528.0,500.0
518.0,503.0,514.0,524.0,512.0
511.0,499.0,504.0,517.0,529.0
503.0,501.0,500.0,510.0,542.0
497.0,502.0,498.0,506.0,549.0
498.0,507.0,500.0,505.0,538.0
498.0,510.0,504.0,504.0,511.0
496.0,507.0,505.0,502.0,500.0
506.0,510.0,513.0,503.0,501.0
509.0,515.0,513.0,503.0,501.0
507.0,507.0,514.0,504.0,510.0
510.0,506.0,521.0,503.0,521.0
515.0,507.0,522.0,509.0,511.0
522.0,505.0,523.0,516.0,500.0
528.0,507.0,526.0,523.0,493.0
535.0,511.0,526.0,530.0,484.0
530.0,506.0,521.0,531.0,496.0
523.0,504.0,517.0,527.0,510.0
517.0,504.0,514.0,526.0,516.0
505.0,501.0,502.0,518.0,529.0
496.0,500.0,499.0,509.0,531.0
496.0,506.0,497.0,511.0,530.0
498.0,507.0,501.0,505.0,527.0
505.0,508.0,501.0,503.0,523.0
505.0,511.0,511.0,501.0,528.0
512.0,512.0,512.0,503.0,520.0
511.0,508.0,514.0,507.0,517.0
514.0,508.0,517.0,505.0,514.0
519.0,506.0,519.0,505.0,499.0
524.0,505.0,522.0,512.0,494.0
528.0,512.0,525.0,524.0,492.0
531.0,507.0,526.0,525.0,495.0
528.0,504.0,522.0,529.0,503.0
525.0,503.0,518.0,526.0,505.0
519.0,503.0,515.0,527.0,511.0
517.0,503.0,509.0,525.0,511.0
501.0,499.0,499.0,515.0,523.0
497.0,502.0,497.0,509.0,529.0
497.0,506.0,499.0,507.0,526.0
498.0,508.0,500.0,506.0,521.0
500.0,511.0,507.0,504.0,526.0
504.0,513.0,511.0,505.0,520.0
510.0,513.0,516.0,504.0,507.0
512.0,510.0,516.0,502.0,505.0
516.0,505.0,517.0,501.0,497.0
531.0,506.0,523.0,507.0,495.0
525.0,505.0,522.0,512.0,528.0
531.0,508.0,527.0,520.0,520.0
530.0,504.0,525.0,525.0,505.0
527.0,506.0,524.0,531.0,506.0
521.0,504.0,518.0,528.0,504.0
519.0,504.0,514.0,527.0,504.0
510.0,503.0,503.0,520.0,522.0
498.0,499.0,499.0,512.0,530.0
495.0,501.0,496.0,507.0,529.0
497.0,507.0,498.0,506.0,527.0
505.0,508.0,503.0,505.0,524.0
504.0,510.0,506.0,502.0,518.0
505.0,509.0,510.0,501.0,520.0
506.0,510.0,515.0,503.0,517.0
513.0,512.0,518.0,504.0,514.0
517.0,506.0,519.0,505.0,515.0
522.0,505.0,522.0,510.0,509.0
525.0,505.0,525.0,517.0,509.0
531.0,509.0,532.0,523.0,509.0
531.0,506.0,527.0,529.0,509.0
531.0,511.0,521.0,529.0,499.0
521.0,502.0,513.0,525.0,495.0
513.0,499.0,509.0,524.0,493.0
501.0,497.0,500.0,516.0,522.0
497.0,501.0,498.0,511.0,533.0
495.0,504.0,498.0,507.0,530.0
496.0,507.0,500.0,505.0,526.0
502.0,510.0,506.0,503.0,518.0
509.0,514.0,508.0,504.0,514.0
510.0,512.0,513.0,503.0,513.0
519.0,510.0,515.0,501.0,511.0
517.0,508.0,517.0,502.0,516.0
520.0,505.0,517.0,504.0,510.0
525.0,506.0,524.0,509.0,506.0
527.0,507.0,525.0,520.0,499.0
528.0,507.0,527.0,526.0,499.0
525.0,505.0,524.0,529.0,498.0
522.0,503.0,519.0,530.0,502.0
522.0,502.0,517.0,528.0,507.0
517.0,502.0,510.0,523.0,513.0
502.0,499.0,500.0,513.0,531.0
496.0,500.0,497.0,508.0,537.0
496.0,505.0,498.0,506.0,538.0
504.0,509.0,505.0,503.0,538.0
501.0,510.0,504.0,508.0,519.0
504.0,510.0,508.0,501.0,512.0
508.0,510.0,513.0,502.0,507.0
510.0,508.0,514.0,502.0,505.0
513.0,507.0,518.0,504.0,510.0
515.0,506.0,522.0,509.0,509.0
517.0,506.0,523.0,513.0,502.0
522.0,504.0,524.0,518.0,505.0
534.0,508.0,531.0,527.0,500.0
531.0,504.0,522.0,529.0,498.0
528.0,504.0,518.0,528.0,502.0
521.0,502.0,512.0,526.0,504.0
509.0,498.0,502.0,519.0,518.0
496.0,497.0,495.0,511.0,521.0
493.0,502.0,500.0,507.0,521.0
497.0,506.0,498.0,508.0,514.0
502.0,510.0,504.0,507.0,513.0
505.0,511.0,507.0,504.0,519.0
507.0,510.0,511.0,503.0,515.0
511.0,508.0,513.0,501.0,513.0
515.0,513.0,517.0,503.0,526.0
512.0,505.0,518.0,501.0,529.0
519.0,505.0,522.0,507.0,507.0
526.0,506.0,529.0,515.0,500.0
528.0,507.0,524.0,522.0,492.0
533.0,507.0,526.0,529.0,494.0
528.0,505.0,519.0,528.0,498.0
522.0,503.0,516.0,528.0,505.0
521.0,504.0,514.0,524.0,513.0
504.0,500.0,502.0,516.0,527.0
497.0,500.0,496.0,509.0,535.0
496.0,503.0,498.0,507.0,531.0
499.0,509.0,502.0,506.0,528.0
501.0,509.0,504.0,504.0,525.0
503.0,512.0,506.0,503.0,520.0
512.0,511.0,512.0,504.0,517.0
514.0,509.0,515.0,501.0,519.0
523.0,509.0,518.0,501.0,512.0
522.0,507.0,519.0,506.0,506.0
521.0,504.0,520.0,511.0,501.0
526.0,507.0,525.0,520.0,498.0
522.0,505.0,525.0,525.0,494.0
529.0,506.0,523.0,530.0,495.0
519.0,506.0,517.0,528.0,493.0
518.0,503.0,516.0,528.0,500.0
513.0,503.0,510.0,525.0,512.0
499.0,498.0,499.0,515.0,526.0
493.0,501.0,496.0,510.0,530.0
496.0,507.0,500.0,508.0,528.0
499.0,508.0,503.0,506.0,518.0
501.0,509.0,505.0,505.0,510.0
507.0,510.0,508.0,501.0,507.0
510.0,510.0,511.0,503.0,506.0
513.0,509.0,516.0,503.0,513.0
514.0,508.0,517.0,505.0,527.0
517.0,506.0,520.0,507.0,518.0
523.0,505.0,524.0,514.0,510.0
527.0,507.0,525.0,522.0,497.0
537.0,509.0,528.0,529.0,496.0
530.0,505.0,523.0,528.0,500.0
529.0,504.0,518.0,529.0,507.0
521.0,503.0,513.0,527.0,504.0
509.0,499.0,503.0,518.0,517.0
501.0,499.0,497.0,511.0,529.0
498.0,501.0,497.0,506.0,539.0
504.0,506.0,498.0,505.0,543.0
499.0,508.0,502.0,508.0,526.0
501.0,510.0,506.0,504.0,510.0
504.0,510.0,511.0,500.0,523.0
505.0,511.0,516.0,506.0,521.0
508.0,510.0,517.0,503.0,519.0
515.0,505.0,517.0,504.0,518.0
518.0,505.0,522.0,515.0,499.0
527.0,507.0,525.0,518.0,490.0
531.0,506.0,525.0,524.0,491.0
532.0,506.0,524.0,528.0,494.0
528.0,503.0,520.0,529.0,502.0
525.0,506.0,516.0,529.0,508.0
516.0,504.0,513.0,527.0,508.0
503.0,498.0,501.0,515.0,524.0
497.0,500.0,497.0,510.0,525.0
498.0,505.0,498.0,509.0,528.0
497.0,507.0,500.0,502.0,530.0
499.0,507.0,503.0,503.0,531.0
502.0,511.0,509.0,504.0,531.0
507.0,509.0,511.0,502.0,525.0
509.0,505.0,513.0,500.0,512.0
507.0,507.0,518.0,501.0,512.0
512.0,509.0,523.0,513.0,501.0
519.0,507.0,524.0,518.0,498.0
525.0,505.0,523.0,520.0,494.0
533.0,507.0,527.0,527.0,490.0
533.0,504.0,523.0,529.0,493.0
528.0,503.0,518.0,527.0,496.0
521.0,502.0,514.0,527.0,507.0
515.0,504.0,509.0,524.0,517.0
504.0,499.0,498.0,515.0,520.0
498.0,502.0,498.0,511.0,518.0
496.0,505.0,499.0,508.0,524.0
498.0,509.0,503.0,506.0,531.0
502.0,510.0,509.0,503.0,526.0
506.0,511.0,509.0,503.0,515.0
510.0,509.0,513.0,503.0,509.0
516.0,512.0,516.0,506.0,508.0
516.0,509.0,517.0,505.0,506.0
517.0,505.0,520.0,509.0,509.0
518.0,503.0,521.0,511.0,507.0
526.0,508.0,527.0,523.0,505.0
532.0,506.0,527.0,532.0,495.0
529.0,506.0,522.0,529.0,502.0
522.0,502.0,516.0,527.0,510.0
517.0,503.0,512.0,529.0,510.0
513.0,499.0,506.0,516.0,520.0
501.0,500.0,498.0,512.0,523.0
497.0,506.0,496.0,508.0,527.0
497.0,506.0,499.0,509.0,530.0
502.0,514.0,504.0,505.0,531.0
505.0,511.0,507.0,503.0,522.0
505.0,509.0,509.0,501.0,518.0
511.0,509.0,515.0,503.0,512.0
511.0,509.0,516.0,502.0,511.0
515.0,506.0,522.0,505.0,516.0
519.0,507.0,524.0,514.0,506.0
524.0,507.0,528.0,518.0,493.0
530.0,508.0,526.0,525.0,495.0
531.0,505.0,524.0,528.0,492.0
528.0,505.0,521.0,531.0,498.0
520.0,503.0,516.0,528.0,510.0
514.0,502.0,511.0,527.0,509.0
501.0,499.0,501.0,517.0,518.0
495.0,501.0,497.0,508.0,534.0
492.0,503.0,497.0,503.0,532.0
497.0,509.0,503.0,505.0,525.0
499.0,510.0,505.0,504.0,515.0
505.0,512.0,510.0,505.0,517.0
509.0,512.0,511.0,502.0,521.0
511.0,508.0,516.0,507.0,520.0
517.0,509.0,518.0,504.0,512.0
519.0,506.0,520.0,506.0,507.0
521.0,505.0,522.0,516.0,494.0
525.0,506.0,525.0,520.0,494.0
525.0,506.0,527.0,526.0,515.0
533.0,505.0,523.0,529.0,508.0
525.0,502.0,516.0,525.0,507.0
519.0,501.0,512.0,525.0,509.0
511.0,502.0,508.0,525.0,509.0
498.0,500.0,500.0,515.0,525.0
493.0,502.0,495.0,509.0,527.0
494.0,504.0,497.0,507.0,524.0
504.0,509.0,503.0,506.0,524.0
505.0,510.0,505.0,506.0,524.0
512.0,514.0,511.0,503.0,522.0
513.0,511.0,518.0,502.0,522.0
504.0,508.0,516.0,503.0,509.0
513.0,507.0,518.0,508.0,501.0
528.0,507.0,523.0,515.0,505.0
530.0,507.0,525.0,516.0,508.0
534.0,506.0,525.0,521.0,501.0
542.0,506.0,526.0,528.0,495.0
532.0,503.0,521.0,527.0,503.0
524.0,501.0,516.0,529.0,507.0
519.0,507.0,513.0,526.0,513.0
507.0,500.0,505.0,518.0,525.0
500.0,500.0,499.0,512.0,523.0
499.0,504.0,499.0,508.0,525.0
498.0,507.0,500.0,506.0,524.0
501.0,509.0,503.0,507.0,521.0
503.0,509.0,506.0,502.0,518.0
506.0,510.0,510.0,507.0,521.0
511.0,509.0,513.0,503.0,515.0
512.0,509.0,518.0,505.0,510.0
515.0,506.0,520.0,505.0,506.0
519.0,506.0,522.0,511.0,497.0
526.0,507.0,525.0,518.0,500.0
531.0,507.0,528.0,524.0,497.0
530.0,506.0,526.0,529.0,502.0
528.0,507.0,521.0,533.0,503.0
521.0,504.0,517.0,527.0,507.0
517.0,503.0,512.0,526.0,507.0
505.0,497.0,500.0,513.0,520.0
495.0,499.0,497.0,511.0,528.0
496.0,505.0,499.0,507.0,528.0
497.0,507.0,501.0,505.0,523.0
496.0,509.0,504.0,504.0,522.0
503.0,513.0,510.0,502.0,521.0
507.0,511.0,513.0,502.0,524.0
513.0,512.0,517.0,503.0,525.0
512.0,509.0,518.0,501.0,521.0
517.0,507.0,520.0,508.0,495.0
522.0,505.0,521.0,511.0,495.0
529.0,508.0,527.0,519.0,497.0
531.0,508.0,527.0,525.0,500.0
530.0,506.0,526.0,534.0,500.0
524.0,508.0,520.0,528.0,506.0
519.0,505.0,516.0,527.0,506.0
514.0,503.0,509.0,522.0,511.0
498.0,497.0,496.0,512.0,528.0
496.0,500.0,497.0,510.0,527.0
496.0,505.0,498.0,511.0,533.0
500.0,511.0,504.0,505.0,531.0
501.0,511.0,506.0,502.0,528.0
504.0,510.0,509.0,501.0,517.0
506.0,511.0,514.0,502.0,512.0
510.0,511.0,515.0,505.0,506.0
514.0,508.0,519.0,503.0,505.0
519.0,509.0,522.0,508.0,503.0
525.0,507.0,523.0,513.0,501.0
528.0,505.0,528.0,519.0,494.0
531.0,508.0,528.0,528.0,504.0
528.0,505.0,522.0,529.0,504.0
523.0,503.0,518.0,528.0,513.0
519.0,505.0,515.0,528.0,514.0
512.0,500.0,505.0,518.0,525.0
498.0,500.0,498.0,513.0,535.0
499.0,503.0,498.0,509.0,533.0
495.0,507.0,501.0,507.0,527.0
497.0,510.0,506.0,506.0,518.0
500.0,511.0,507.0,505.0,513.0
505.0,508.0,513.0,500.0,506.0
512.0,508.0,514.0,503.0,504.0
513.0,509.0,523.0,503.0,510.0
510.0,507.0,521.0,506.0,527.0
515.0,506.0,521.0,511.0,524.0
526.0,507.0,529.0,515.0,514.0
533.0,508.0,528.0,527.0,499.0
535.0,508.0,528.0,535.0,500.0
523.0,505.0,520.0,532.0,499.0
520.0,502.0,516.0,532.0,507.0
519.0,505.0,512.0,530.0,511.0
504.0,498.0,499.0,516.0,525.0
497.0,498.0,495.0,510.0,531.0
499.0,505.0,499.0,511.0,533.0
501.0,508.0,501.0,508.0,526.0
503.0,508.0,503.0,503.0,519.0
507.0,512.0,511.0,509.0,514.0
506.0,510.0,513.0,500.0,515.0
509.0,509.0,513.0,499.0,514.0
511.0,506.0,517.0,501.0,518.0
512.0,506.0,520.0,507.0,516.0
520.0,506.0,522.0,513.0,507.0
525.0,506.0,526.0,513.0,501.0
533.0,507.0,529.0,524.0,501.0
526.0,505.0,523.0,532.0,498.0
519.0,503.0,524.0,529.0,497.0
515.0,505.0,516.0,527.0,508.0
509.0,502.0,510.0,521.0,519.0
496.0,499.0,498.0,511.0,524.0
496.0,506.0,496.0,508.0,532.0
500.0,506.0,500.0,507.0,522.0
499.0,508.0,503.0,505.0,521.0
497.0,509.0,505.0,502.0,520.0
502.0,510.0,512.0,507.0,513.0
513.0,511.0,514.0,504.0,506.0
514.0,509.0,516.0,503.0,505.0
511.0,506.0,517.0,503.0,507.0
518.0,507.0,522.0,509.0,504.0
