CH1,CH2,CH3,CH4,CH5
526.0,515.0,527.0,523.0,520.0
533.0,514.0,524.0,527.0,521.0
532.0,515.0,519.0,530.0,520.0
523.0,511.0,512.0,530.0,525.0
512.0,511.0,510.0,531.0,524.0
501.0,505.0,502.0,525.0,528.0
493.0,502.0,499.0,518.0,521.0
491.0,503.0,502.0,514.0,520.0
491.0,502.0,505.0,510.0,522.0
495.0,502.0,510.0,506.0,518.0
517.0,503.0,512.0,502.0,513.0
518.0,504.0,518.0,501.0,510.0
514.0,504.0,520.0,500.0,505.0
516.0,504.0,522.0,501.0,502.0
517.0,503.0,522.0,502.0,504.0
522.0,503.0,521.0,506.0,501.0
528.0,508.0,522.0,514.0,510.0
531.0,508.0,522.0,522.0,516.0
526.0,513.0,520.0,526.0,518.0
524.0,512.0,515.0,529.0,521.0
513.0,511.0,510.0,529.0,520.0
516.0,511.0,509.0,530.0,513.0
502.0,502.0,499.0,521.0,518.0
500.0,503.0,499.0,517.0,518.0
494.0,499.0,505.0,511.0,511.0
498.0,502.0,506.0,508.0,506.0
512.0,505.0,511.0,504.0,500.0
512.0,503.0,515.0,503.0,498.0
512.0,504.0,518.0,500.0,504.0
514.0,504.0,520.0,500.0,503.0
515.0,499.0,518.0,497.0,504.0
518.0,503.0,522.0,504.0,503.0
529.0,506.0,521.0,508.0,508.0
535.0,510.0,523.0,517.0,513.0
533.0,519.0,526.0,529.0,521.0
528.0,513.0,518.0,527.0,522.0
525.0,514.0,516.0,531.0,523.0
520.0,514.0,510.0,529.0,530.0
514.0,511.0,508.0,528.0,534.0
502.0,503.0,499.0,520.0,527.0
497.0,506.0,503.0,515.0,518.0
498.0,503.0,503.0,511.0,513.0
501.0,503.0,508.0,507.0,515.0
501.0,504.0,512.0,504.0,503.0
511.0,506.0,519.0,505.0,505.0
507.0,504.0,519.0,499.0,505.0
513.0,504.0,522.0,501.0,505.0
512.0,502.0,520.0,500.0,503.0
518.0,504.0,523.0,506.0,504.0
518.0,505.0,522.0,511.0,505.0
523.0,512.0,523.0,519.0,509.0
525.0,513.0,522.0,526.0,512.0
528.0,515.0,518.0,531.0,516.0
520.0,513.0,513.0,532.0,522.0
515.0,511.0,508.0,533.0,528.0
509.0,506.0,501.0,527.0,533.0
505.0,505.0,501.0,517.0,525.0
501.0,504.0,503.0,514.0,520.0
499.0,505.0,506.0,508.0,511.0
501.0,502.0,513.0,505.0,507.0
501.0,506.0,514.0,503.0,505.0
507.0,503.0,518.0,501.0,499.0
505.0,503.0,520.0,498.0,506.0
504.0,503.0,521.0,499.0,503.0
510.0,503.0,521.0,502.0,509.0
520.0,506.0,522.0,506.0,510.0
530.0,507.0,524.0,514.0,513.0
539.0,515.0,523.0,522.0,515.0
536.0,514.0,521.0,528.0,519.0
531.0,515.0,518.0,531.0,522.0
521.0,513.0,512.0,529.0,526.0
512.0,510.0,507.0,531.0,523.0
497.0,503.0,500.0,521.0,531.0
494.0,504.0,502.0,516.0,525.0
494.0,502.0,502.0,511.0,511.0
495.0,503.0,508.0,510.0,507.0
494.0,497.0,510.0,504.0,507.0
503.0,503.0,516.0,500.0,509.0
512.0,504.0,520.0,501.0,502.0
509.0,504.0,524.0,499.0,501.0
507.0,503.0,522.0,500.0,507.0
528.0,506.0,524.0,505.0,505.0
536.0,510.0,524.0,511.0,506.0
534.0,510.0,524.0,515.0,523.0
533.0,516.0,528.0,527.0,536.0
528.0,513.0,518.0,527.0,527.0
523.0,511.0,513.0,529.0,517.0
518.0,513.0,510.0,530.0,514.0
516.0,511.0,508.0,529.0,511.0
500.0,505.0,501.0,521.0,517.0
492.0,501.0,499.0,514.0,499.0
494.0,498.0,499.0,516.0,498.0
502.0,506.0,512.0,509.0,506.0
501.0,500.0,511.0,503.0,511.0
502.0,502.0,516.0,501.0,504.0
506.0,502.0,520.0,501.0,504.0
509.0,501.0,520.0,497.0,503.0
516.0,503.0,522.0,500.0,508.0
525.0,502.0,522.0,503.0,511.0
532.0,509.0,524.0,513.0,505.0
532.0,512.0,524.0,520.0,511.0
540.0,519.0,523.0,529.0,512.0
536.0,517.0,520.0,532.0,517.0
526.0,513.0,513.0,530.0,522.0
520.0,513.0,510.0,530.0,525.0
507.0,505.0,500.0,523.0,535.0
501.0,508.0,503.0,518.0,533.0
501.0,502.0,500.0,513.0,517.0
502.0,507.0,507.0,510.0,510.0
505.0,504.0,511.0,508.0,508.0
503.0,502.0,513.0,502.0,504.0
507.0,500.0,522.0,506.0,500.0
509.0,503.0,521.0,501.0,503.0
509.0,503.0,522.0,500.0,502.0
513.0,502.0,521.0,501.0,504.0
517.0,506.0,523.0,509.0,510.0
524.0,509.0,524.0,515.0,509.0
533.0,512.0,524.0,523.0,511.0
534.0,513.0,521.0,530.0,516.0
529.0,519.0,522.0,539.0,525.0
520.0,517.0,517.0,532.0,526.0
514.0,512.0,511.0,532.0,531.0
503.0,504.0,500.0,521.0,541.0
494.0,502.0,498.0,513.0,533.0
491.0,502.0,502.0,511.0,524.0
492.0,501.0,506.0,511.0,510.0
501.0,501.0,509.0,504.0,500.0
510.0,503.0,516.0,505.0,497.0
507.0,506.0,521.0,502.0,503.0
500.0,503.0,521.0,499.0,502.0
515.0,504.0,522.0,499.0,504.0
522.0,504.0,522.0,502.0,511.0
529.0,505.0,522.0,509.0,512.0
528.0,509.0,522.0,517.0,508.0
533.0,512.0,522.0,525.0,508.0
530.0,510.0,514.0,529.0,516.0
527.0,513.0,513.0,531.0,518.0
519.0,512.0,509.0,530.0,521.0
511.0,509.0,504.0,527.0,524.0
504.0,507.0,503.0,525.0,521.0
499.0,502.0,501.0,516.0,518.0
499.0,502.0,503.0,511.0,513.0
501.0,506.0,512.0,506.0,507.0
503.0,501.0,511.0,503.0,503.0
508.0,504.0,518.0,503.0,502.0
507.0,504.0,520.0,501.0,497.0
513.0,503.0,520.0,503.0,504.0
511.0,500.0,522.0,498.0,511.0
516.0,505.0,523.0,506.0,520.0
520.0,506.0,522.0,511.0,517.0
526.0,510.0,523.0,520.0,514.0
526.0,513.0,522.0,527.0,517.0
525.0,513.0,524.0,532.0,520.0
519.0,511.0,513.0,531.0,526.0
518.0,514.0,514.0,533.0,525.0
504.0,503.0,499.0,522.0,528.0
494.0,501.0,498.0,517.0,525.0
500.0,504.0,505.0,513.0,519.0
501.0,504.0,506.0,511.0,511.0
505.0,503.0,511.0,507.0,502.0
502.0,502.0,514.0,504.0,500.0
506.0,503.0,518.0,502.0,497.0
517.0,503.0,521.0,499.0,502.0
512.0,502.0,521.0,500.0,503.0
514.0,502.0,522.0,502.0,514.0
517.0,506.0,522.0,507.0,517.0
522.0,511.0,527.0,518.0,513.0
524.0,510.0,522.0,521.0,513.0
527.0,513.0,520.0,528.0,520.0
533.0,516.0,517.0,534.0,521.0
528.0,514.0,513.0,532.0,528.0
519.0,510.0,509.0,530.0,523.0
503.0,505.0,500.0,522.0,525.0
498.0,502.0,500.0,518.0,525.0
500.0,502.0,503.0,513.0,514.0
501.0,504.0,508.0,510.0,501.0
503.0,502.0,511.0,505.0,496.0
507.0,505.0,519.0,501.0,499.0
512.0,504.0,521.0,501.0,500.0
510.0,503.0,520.0,498.0,504.0
512.0,502.0,521.0,497.0,505.0
516.0,504.0,522.0,504.0,510.0
518.0,506.0,523.0,509.0,503.0
525.0,511.0,525.0,520.0,505.0
526.0,517.0,524.0,526.0,508.0
524.0,512.0,517.0,530.0,511.0
523.0,513.0,513.0,532.0,514.0
519.0,511.0,509.0,530.0,526.0
511.0,508.0,504.0,525.0,534.0
501.0,509.0,504.0,522.0,532.0
497.0,506.0,501.0,514.0,525.0
499.0,503.0,504.0,509.0,518.0
501.0,503.0,509.0,505.0,510.0
503.0,506.0,516.0,504.0,505.0
506.0,500.0,516.0,501.0,499.0
507.0,501.0,516.0,499.0,498.0
514.0,501.0,518.0,499.0,510.0
517.0,504.0,524.0,498.0,513.0
516.0,505.0,523.0,505.0,521.0
523.0,507.0,522.0,511.0,518.0
529.0,512.0,523.0,519.0,517.0
529.0,514.0,522.0,527.0,518.0
527.0,515.0,517.0,532.0,516.0
522.0,515.0,514.0,534.0,522.0
519.0,511.0,508.0,530.0,522.0
498.0,504.0,499.0,523.0,528.0
498.0,503.0,494.0,522.0,521.0
499.0,503.0,502.0,515.0,519.0
500.0,502.0,504.0,509.0,508.0
501.0,501.0,507.0,506.0,500.0
505.0,502.0,513.0,501.0,500.0
510.0,505.0,519.0,499.0,504.0
510.0,503.0,519.0,498.0,505.0
512.0,504.0,521.0,498.0,514.0
513.0,502.0,520.0,500.0,518.0
519.0,505.0,521.0,506.0,524.0
525.0,511.0,523.0,516.0,524.0
527.0,513.0,523.0,524.0,511.0
526.0,512.0,519.0,528.0,514.0
525.0,514.0,516.0,531.0,523.0
518.0,512.0,511.0,531.0,528.0
514.0,511.0,509.0,532.0,521.0
497.0,503.0,498.0,521.0,521.0
490.0,500.0,498.0,515.0,521.0
491.0,501.0,502.0,511.0,516.0
493.0,501.0,510.0,507.0,509.0
497.0,502.0,509.0,503.0,507.0
503.0,502.0,516.0,501.0,503.0
512.0,502.0,518.0,500.0,496.0
521.0,505.0,521.0,499.0,502.0
524.0,504.0,522.0,499.0,505.0
527.0,505.0,523.0,504.0,506.0
529.0,508.0,524.0,511.0,508.0
529.0,513.0,525.0,517.0,509.0
532.0,513.0,523.0,522.0,516.0
531.0,514.0,520.0,531.0,520.0
526.0,515.0,516.0,533.0,523.0
517.0,512.0,511.0,532.0,525.0
509.0,507.0,504.0,525.0,531.0
492.0,500.0,500.0,522.0,530.0
498.0,505.0,504.0,516.0,523.0
499.0,503.0,506.0,511.0,515.0
501.0,505.0,512.0,506.0,506.0
504.0,504.0,513.0,502.0,504.0
516.0,504.0,519.0,501.0,506.0
504.0,502.0,520.0,499.0,503.0
506.0,501.0,519.0,497.0,504.0
509.0,501.0,522.0,500.0,510.0
510.0,502.0,521.0,504.0,509.0
518.0,506.0,522.0,511.0,507.0
519.0,510.0,522.0,520.0,513.0
541.0,513.0,521.0,527.0,513.0
543.0,515.0,522.0,533.0,518.0
525.0,513.0,512.0,532.0,524.0
523.0,512.0,510.0,533.0,520.0
518.0,507.0,502.0,526.0,525.0
508.0,502.0,499.0,519.0,519.0
505.0,503.0,502.0,514.0,510.0
506.0,506.0,505.0,510.0,509.0
511.0,503.0,510.0,503.0,513.0
507.0,503.0,514.0,502.0,506.0
509.0,502.0,520.0,504.0,504.0
507.0,501.0,518.0,496.0,505.0
510.0,500.0,521.0,503.0,508.0
512.0,503.0,521.0,502.0,514.0
514.0,502.0,520.0,505.0,511.0
529.0,510.0,524.0,516.0,513.0
528.0,513.0,523.0,525.0,513.0
524.0,513.0,518.0,529.0,521.0
523.0,514.0,517.0,534.0,532.0
521.0,512.0,512.0,531.0,535.0
529.0,511.0,507.0,530.0,525.0
509.0,504.0,498.0,520.0,528.0
500.0,502.0,498.0,514.0,519.0
499.0,505.0,503.0,511.0,509.0
501.0,503.0,506.0,510.0,504.0
502.0,502.0,512.0,501.0,506.0
501.0,501.0,514.0,499.0,500.0
509.0,503.0,519.0,498.0,503.0
515.0,503.0,520.0,498.0,504.0
521.0,501.0,519.0,496.0,501.0
524.0,504.0,523.0,505.0,509.0
525.0,508.0,522.0,514.0,504.0
528.0,510.0,523.0,519.0,507.0
528.0,512.0,522.0,527.0,512.0
525.0,512.0,514.0,531.0,519.0
520.0,513.0,514.0,532.0,519.0
516.0,512.0,510.0,532.0,522.0
510.0,508.0,505.0,528.0,529.0
498.0,503.0,499.0,520.0,526.0
495.0,501.0,500.0,515.0,520.0
497.0,506.0,505.0,511.0,516.0
501.0,502.0,509.0,507.0,514.0
511.0,502.0,512.0,502.0,503.0
509.0,506.0,520.0,501.0,505.0
510.0,502.0,518.0,497.0,505.0
513.0,504.0,522.0,498.0,506.0
513.0,502.0,522.0,500.0,504.0
518.0,509.0,525.0,506.0,510.0
523.0,508.0,523.0,513.0,516.0
527.0,512.0,524.0,521.0,518.0
527.0,513.0,521.0,529.0,513.0
523.0,510.0,516.0,532.0,517.0
519.0,513.0,513.0,532.0,523.0
514.0,512.0,510.0,531.0,527.0
503.0,506.0,501.0,524.0,533.0
497.0,503.0,500.0,518.0,525.0
495.0,503.0,502.0,511.0,521.0
498.0,501.0,504.0,510.0,514.0
501.0,502.0,511.0,507.0,502.0
505.0,501.0,514.0,499.0,501.0
512.0,503.0,518.0,497.0,504.0
510.0,504.0,521.0,495.0,506.0
512.0,503.0,520.0,498.0,497.0
518.0,507.0,526.0,503.0,500.0
520.0,504.0,521.0,506.0,505.0
529.0,510.0,523.0,516.0,509.0
530.0,514.0,524.0,525.0,510.0
530.0,514.0,520.0,530.0,515.0
524.0,515.0,515.0,534.0,517.0
519.0,518.0,515.0,533.0,520.0
515.0,512.0,509.0,532.0,521.0
501.0,506.0,499.0,522.0,522.0
495.0,502.0,499.0,516.0,516.0
497.0,504.0,505.0,515.0,509.0
506.0,505.0,509.0,508.0,509.0
502.0,502.0,511.0,503.0,502.0
507.0,501.0,515.0,503.0,507.0
509.0,504.0,520.0,496.0,505.0
513.0,502.0,520.0,499.0,511.0
514.0,502.0,521.0,498.0,505.0
518.0,504.0,523.0,504.0,510.0
521.0,507.0,524.0,510.0,518.0
525.0,510.0,525.0,520.0,517.0
528.0,514.0,524.0,528.0,519.0
521.0,514.0,520.0,532.0,525.0
519.0,515.0,517.0,534.0,528.0
515.0,513.0,512.0,533.0,526.0
509.0,507.0,504.0,527.0,525.0
501.0,504.0,500.0,522.0,520.0
498.0,502.0,501.0,513.0,514.0
497.0,501.0,502.0,509.0,506.0
499.0,499.0,506.0,502.0,505.0
501.0,501.0,513.0,502.0,506.0
505.0,505.0,520.0,501.0,506.0
506.0,504.0,521.0,499.0,504.0
506.0,503.0,522.0,498.0,503.0
507.0,506.0,525.0,503.0,510.0
518.0,506.0,523.0,506.0,512.0
534.0,512.0,526.0,516.0,512.0
538.0,515.0,526.0,524.0,514.0
533.0,514.0,522.0,529.0,521.0
528.0,512.0,516.0,530.0,524.0
517.0,510.0,510.0,529.0,534.0
509.0,510.0,508.0,529.0,535.0
495.0,503.0,499.0,522.0,533.0
501.0,506.0,502.0,512.0,525.0
496.0,501.0,498.0,508.0,524.0
503.0,502.0,501.0,507.0,519.0
502.0,503.0,504.0,508.0,517.0
504.0,504.0,508.0,505.0,518.0
508.0,506.0,513.0,504.0,518.0
508.0,503.0,514.0,504.0,522.0
511.0,504.0,517.0,506.0,516.0
511.0,504.0,516.0,511.0,509.0
517.0,504.0,519.0,509.0,503.0
524.0,507.0,521.0,517.0,504.0
524.0,511.0,524.0,523.0,502.0
523.0,511.0,529.0,528.0,506.0
518.0,514.0,522.0,529.0,509.0
519.0,513.0,518.0,527.0,513.0
512.0,512.0,515.0,525.0,518.0
513.0,512.0,513.0,523.0,519.0
508.0,504.0,503.0,513.0,524.0
506.0,501.0,499.0,509.0,525.0
507.0,501.0,502.0,505.0,514.0
508.0,504.0,506.0,505.0,511.0
506.0,502.0,510.0,503.0,509.0
510.0,501.0,507.0,507.0,502.0
511.0,502.0,514.0,505.0,501.0
514.0,507.0,522.0,507.0,504.0
518.0,505.0,520.0,509.0,507.0
519.0,506.0,522.0,512.0,512.0
520.0,508.0,523.0,516.0,508.0
520.0,510.0,524.0,523.0,507.0
526.0,513.0,523.0,532.0,509.0
522.0,514.0,522.0,529.0,512.0
512.0,510.0,514.0,523.0,519.0
515.0,516.0,513.0,522.0,515.0
515.0,503.0,510.0,518.0,514.0
504.0,504.0,499.0,515.0,522.0
501.0,502.0,501.0,505.0,524.0
505.0,501.0,502.0,504.0,515.0
506.0,502.0,507.0,505.0,514.0
510.0,503.0,511.0,500.0,512.0
505.0,502.0,510.0,503.0,509.0
509.0,504.0,517.0,508.0,511.0
515.0,504.0,518.0,505.0,512.0
510.0,503.0,519.0,507.0,513.0
519.0,505.0,520.0,512.0,514.0
525.0,508.0,522.0,517.0,513.0
531.0,513.0,526.0,525.0,516.0
529.0,513.0,523.0,527.0,511.0
527.0,514.0,522.0,529.0,511.0
520.0,512.0,516.0,526.0,518.0
519.0,515.0,516.0,524.0,519.0
511.0,504.0,504.0,514.0,528.0
502.0,501.0,499.0,509.0,527.0
501.0,501.0,501.0,506.0,521.0
500.0,501.0,504.0,505.0,511.0
503.0,500.0,510.0,504.0,509.0
506.0,503.0,512.0,506.0,507.0
508.0,502.0,514.0,505.0,509.0
505.0,500.0,517.0,506.0,509.0
503.0,503.0,520.0,508.0,513.0
503.0,506.0,520.0,511.0,512.0
502.0,500.0,521.0,516.0,512.0
511.0,505.0,524.0,524.0,507.0
526.0,513.0,526.0,526.0,511.0
517.0,512.0,521.0,526.0,517.0
523.0,514.0,520.0,525.0,516.0
532.0,512.0,514.0,523.0,520.0
525.0,511.0,510.0,521.0,521.0
523.0,504.0,502.0,511.0,521.0
514.0,503.0,498.0,508.0,521.0
509.0,504.0,504.0,507.0,519.0
506.0,505.0,506.0,505.0,514.0
504.0,502.0,507.0,504.0,511.0
514.0,505.0,514.0,506.0,506.0
511.0,503.0,515.0,504.0,504.0
512.0,504.0,517.0,506.0,507.0
515.0,504.0,519.0,507.0,514.0
524.0,505.0,521.0,512.0,509.0
529.0,511.0,522.0,517.0,509.0
534.0,512.0,525.0,523.0,509.0
530.0,513.0,523.0,526.0,508.0
529.0,515.0,523.0,529.0,514.0
520.0,511.0,515.0,524.0,519.0
514.0,510.0,512.0,522.0,522.0
507.0,507.0,506.0,515.0,529.0
502.0,503.0,500.0,508.0,530.0
500.0,502.0,500.0,506.0,530.0
498.0,501.0,502.0,502.0,527.0
501.0,502.0,506.0,503.0,519.0
506.0,502.0,508.0,504.0,501.0
506.0,501.0,511.0,503.0,501.0
506.0,503.0,515.0,510.0,504.0
508.0,502.0,515.0,509.0,508.0
508.0,501.0,517.0,507.0,506.0
505.0,503.0,519.0,512.0,510.0
508.0,506.0,521.0,517.0,510.0
526.0,517.0,526.0,528.0,510.0
536.0,516.0,525.0,528.0,510.0
528.0,515.0,521.0,528.0,516.0
531.0,512.0,516.0,524.0,522.0
520.0,512.0,513.0,522.0,525.0
508.0,504.0,500.0,517.0,529.0
501.0,505.0,502.0,508.0,526.0
498.0,503.0,502.0,506.0,519.0
501.0,508.0,505.0,507.0,508.0
505.0,502.0,506.0,505.0,499.0
510.0,504.0,512.0,507.0,505.0
510.0,504.0,514.0,508.0,508.0
511.0,504.0,516.0,506.0,501.0
514.0,502.0,517.0,508.0,504.0
515.0,504.0,520.0,510.0,512.0
521.0,508.0,522.0,513.0,514.0
525.0,510.0,527.0,521.0,513.0
527.0,512.0,525.0,525.0,503.0
532.0,515.0,523.0,530.0,504.0
525.0,513.0,518.0,527.0,505.0
519.0,512.0,515.0,525.0,513.0
513.0,511.0,514.0,523.0,516.0
500.0,504.0,502.0,513.0,524.0
497.0,502.0,499.0,510.0,520.0
498.0,503.0,503.0,508.0,514.0
504.0,503.0,505.0,509.0,509.0
501.0,502.0,507.0,504.0,505.0
504.0,503.0,513.0,506.0,504.0
506.0,501.0,515.0,505.0,507.0
513.0,503.0,516.0,506.0,504.0
516.0,502.0,518.0,508.0,508.0
522.0,504.0,518.0,513.0,505.0
522.0,506.0,520.0,516.0,508.0
529.0,512.0,525.0,524.0,509.0
529.0,514.0,524.0,528.0,508.0
529.0,517.0,523.0,530.0,511.0
520.0,511.0,515.0,525.0,516.0
516.0,507.0,513.0,528.0,516.0
508.0,506.0,505.0,516.0,526.0
499.0,501.0,500.0,513.0,526.0
498.0,502.0,499.0,507.0,517.0
496.0,501.0,503.0,505.0,517.0
503.0,502.0,506.0,506.0,513.0
496.0,501.0,508.0,503.0,508.0
498.0,501.0,512.0,504.0,509.0
511.0,506.0,518.0,506.0,510.0
513.0,504.0,518.0,507.0,508.0
513.0,502.0,518.0,509.0,513.0
531.0,510.0,524.0,519.0,513.0
528.0,509.0,523.0,519.0,513.0
526.0,511.0,524.0,522.0,515.0
524.0,512.0,523.0,527.0,514.0
521.0,513.0,521.0,530.0,506.0
513.0,511.0,515.0,526.0,513.0
512.0,511.0,514.0,523.0,520.0
499.0,504.0,503.0,514.0,527.0
507.0,503.0,500.0,508.0,522.0
509.0,503.0,502.0,507.0,518.0
502.0,503.0,506.0,507.0,512.0
504.0,501.0,510.0,503.0,506.0
514.0,504.0,513.0,507.0,503.0
507.0,501.0,513.0,503.0,503.0
508.0,502.0,516.0,506.0,508.0
514.0,505.0,519.0,507.0,514.0
516.0,507.0,523.0,509.0,515.0
530.0,507.0,523.0,515.0,514.0
538.0,512.0,528.0,522.0,513.0
533.0,513.0,525.0,526.0,510.0
533.0,513.0,522.0,529.0,513.0
526.0,513.0,518.0,528.0,515.0
519.0,512.0,514.0,524.0,516.0
516.0,506.0,515.0,521.0,516.0
503.0,501.0,502.0,511.0,523.0
494.0,503.0,499.0,505.0,519.0
494.0,501.0,502.0,505.0,516.0
502.0,504.0,507.0,506.0,513.0
498.0,502.0,508.0,503.0,509.0
506.0,502.0,512.0,505.0,510.0
513.0,502.0,515.0,506.0,505.0
519.0,505.0,518.0,511.0,504.0
514.0,503.0,520.0,508.0,508.0
520.0,507.0,521.0,511.0,511.0
525.0,506.0,526.0,515.0,511.0
528.0,509.0,523.0,524.0,510.0
530.0,515.0,527.0,527.0,509.0
523.0,514.0,522.0,528.0,514.0
513.0,513.0,520.0,524.0,520.0
508.0,512.0,514.0,523.0,520.0
506.0,511.0,512.0,517.0,524.0
501.0,504.0,500.0,514.0,522.0
497.0,506.0,502.0,507.0,516.0
498.0,504.0,508.0,505.0,513.0
514.0,504.0,505.0,504.0,508.0
515.0,502.0,510.0,502.0,511.0
515.0,504.0,514.0,504.0,505.0
515.0,502.0,515.0,505.0,503.0
514.0,503.0,517.0,505.0,507.0
515.0,503.0,520.0,508.0,507.0
517.0,505.0,522.0,514.0,508.0
523.0,510.0,522.0,520.0,515.0
529.0,514.0,527.0,524.0,515.0
528.0,517.0,528.0,526.0,515.0
524.0,515.0,520.0,532.0,517.0
509.0,509.0,513.0,522.0,526.0
505.0,509.0,512.0,520.0,525.0
494.0,506.0,502.0,512.0,529.0
487.0,502.0,499.0,506.0,526.0
498.0,502.0,503.0,506.0,514.0
499.0,502.0,505.0,505.0,508.0
508.0,502.0,511.0,503.0,508.0
518.0,503.0,512.0,503.0,507.0
511.0,502.0,513.0,501.0,514.0
517.0,505.0,513.0,507.0,513.0
519.0,505.0,519.0,509.0,512.0
520.0,507.0,524.0,508.0,512.0
522.0,505.0,521.0,513.0,515.0
525.0,509.0,523.0,519.0,510.0
529.0,512.0,525.0,526.0,500.0
527.0,513.0,523.0,528.0,509.0
517.0,512.0,517.0,525.0,517.0
511.0,510.0,512.0,522.0,524.0
512.0,511.0,515.0,523.0,526.0
505.0,504.0,502.0,511.0,530.0
496.0,501.0,499.0,505.0,519.0
495.0,500.0,502.0,505.0,511.0
504.0,504.0,506.0,506.0,505.0
504.0,502.0,507.0,504.0,504.0
504.0,504.0,513.0,504.0,507.0
518.0,502.0,515.0,505.0,510.0
525.0,503.0,517.0,505.0,509.0
520.0,505.0,518.0,506.0,507.0
519.0,505.0,521.0,513.0,507.0
520.0,506.0,521.0,517.0,501.0
525.0,511.0,523.0,522.0,502.0
530.0,514.0,526.0,527.0,507.0
524.0,514.0,522.0,527.0,508.0
520.0,511.0,516.0,525.0,514.0
525.0,513.0,514.0,523.0,516.0
514.0,508.0,507.0,516.0,529.0
501.0,503.0,501.0,514.0,531.0
497.0,503.0,503.0,508.0,524.0
502.0,502.0,504.0,505.0,513.0
511.0,503.0,507.0,505.0,513.0
509.0,506.0,511.0,504.0,507.0
507.0,502.0,513.0,505.0,505.0
510.0,503.0,517.0,505.0,509.0
509.0,506.0,518.0,507.0,508.0
508.0,503.0,520.0,509.0,510.0
519.0,506.0,518.0,516.0,511.0
526.0,511.0,524.0,518.0,515.0
529.0,511.0,524.0,521.0,512.0
524.0,513.0,524.0,525.0,514.0
526.0,516.0,522.0,531.0,518.0
526.0,512.0,515.0,523.0,517.0
526.0,515.0,514.0,523.0,515.0
510.0,505.0,503.0,518.0,526.0
504.0,501.0,501.0,509.0,526.0
502.0,503.0,502.0,506.0,518.0
500.0,503.0,504.0,504.0,513.0
501.0,503.0,511.0,505.0,515.0
503.0,503.0,512.0,504.0,509.0
505.0,502.0,512.0,504.0,513.0
509.0,504.0,519.0,505.0,512.0
509.0,505.0,517.0,505.0,510.0
521.0,504.0,521.0,509.0,512.0
526.0,510.0,523.0,516.0,510.0
527.0,510.0,526.0,518.0,507.0
530.0,513.0,525.0,525.0,512.0
526.0,513.0,522.0,527.0,512.0
523.0,512.0,517.0,525.0,512.0
517.0,510.0,513.0,522.0,517.0
512.0,509.0,511.0,520.0,516.0
495.0,503.0,501.0,510.0,524.0
491.0,501.0,500.0,506.0,522.0
494.0,498.0,502.0,506.0,519.0
500.0,503.0,506.0,504.0,515.0
499.0,506.0,508.0,503.0,509.0
500.0,504.0,513.0,505.0,506.0
508.0,503.0,515.0,504.0,511.0
521.0,505.0,518.0,506.0,509.0
517.0,503.0,519.0,508.0,510.0
519.0,508.0,521.0,512.0,510.0
523.0,506.0,521.0,515.0,511.0
526.0,509.0,523.0,521.0,511.0
539.0,515.0,526.0,526.0,512.0
534.0,514.0,521.0,527.0,511.0
523.0,513.0,517.0,525.0,520.0
513.0,511.0,514.0,522.0,522.0
509.0,506.0,505.0,515.0,525.0
499.0,501.0,500.0,508.0,526.0
496.0,502.0,501.0,504.0,520.0
499.0,502.0,503.0,505.0,512.0
505.0,504.0,509.0,505.0,505.0
509.0,503.0,509.0,502.0,504.0
507.0,503.0,513.0,503.0,504.0
509.0,505.0,519.0,504.0,506.0
515.0,503.0,517.0,505.0,505.0
509.0,501.0,519.0,508.0,509.0
512.0,504.0,522.0,513.0,510.0
513.0,507.0,522.0,517.0,512.0
524.0,512.0,525.0,523.0,507.0
524.0,514.0,524.0,527.0,510.0
520.0,515.0,522.0,525.0,517.0
522.0,511.0,514.0,524.0,516.0
523.0,510.0,512.0,524.0,509.0
511.0,504.0,506.0,517.0,524.0
503.0,499.0,499.0,510.0,526.0
502.0,501.0,500.0,505.0,519.0
501.0,502.0,504.0,504.0,512.0
504.0,503.0,509.0,504.0,513.0
506.0,503.0,512.0,503.0,506.0
502.0,503.0,514.0,508.0,513.0
500.0,503.0,518.0,506.0,510.0
503.0,503.0,518.0,506.0,510.0
514.0,502.0,519.0,508.0,512.0
512.0,505.0,521.0,512.0,510.0
520.0,514.0,527.0,520.0,506.0
526.0,513.0,525.0,525.0,506.0
541.0,516.0,524.0,528.0,510.0
536.0,514.0,519.0,526.0,514.0
528.0,512.0,515.0,524.0,520.0
515.0,510.0,512.0,521.0,522.0
511.0,504.0,501.0,516.0,524.0
504.0,501.0,500.0,507.0,519.0
506.0,504.0,504.0,507.0,513.0
506.0,502.0,504.0,505.0,511.0
507.0,508.0,509.0,505.0,510.0
513.0,506.0,517.0,506.0,504.0
511.0,501.0,514.0,504.0,506.0
510.0,503.0,517.0,506.0,508.0
513.0,503.0,520.0,511.0,516.0
515.0,505.0,522.0,512.0,516.0
517.0,507.0,523.0,521.0,515.0
523.0,510.0,523.0,520.0,510.0
526.0,514.0,525.0,526.0,513.0
525.0,516.0,522.0,528.0,519.0
517.0,511.0,515.0,524.0,520.0
508.0,515.0,517.0,523.0,527.0
515.0,508.0,505.0,517.0,529.0
505.0,503.0,500.0,511.0,526.0
502.0,504.0,501.0,510.0,516.0
506.0,503.0,504.0,507.0,512.0
511.0,504.0,507.0,506.0,511.0
509.0,502.0,508.0,503.0,510.0
509.0,503.0,512.0,505.0,508.0
511.0,503.0,515.0,506.0,510.0
518.0,504.0,517.0,507.0,512.0
520.0,503.0,517.0,508.0,509.0
520.0,505.0,519.0,511.0,514.0
525.0,511.0,523.0,520.0,516.0
526.0,511.0,523.0,528.0,515.0
526.0,513.0,519.0,527.0,517.0
524.0,518.0,520.0,526.0,525.0
514.0,510.0,512.0,521.0,527.0
509.0,510.0,511.0,522.0,517.0
491.0,502.0,500.0,513.0,521.0
498.0,502.0,499.0,508.0,518.0
497.0,502.0,501.0,506.0,515.0
498.0,505.0,505.0,506.0,513.0
502.0,503.0,506.0,504.0,510.0
505.0,503.0,512.0,505.0,507.0
522.0,503.0,514.0,505.0,504.0
519.0,502.0,517.0,505.0,505.0
522.0,503.0,518.0,506.0,507.0
519.0,507.0,519.0,509.0,510.0
526.0,506.0,520.0,515.0,517.0
529.0,511.0,524.0,521.0,513.0
537.0,512.0,524.0,524.0,508.0
528.0,514.0,522.0,527.0,511.0
528.0,514.0,520.0,528.0,510.0
518.0,514.0,520.0,525.0,519.0
514.0,510.0,511.0,522.0,518.0
502.0,503.0,502.0,513.0,522.0
498.0,503.0,501.0,509.0,515.0
498.0,503.0,504.0,506.0,517.0
497.0,502.0,505.0,504.0,511.0
497.0,500.0,507.0,501.0,510.0
503.0,501.0,518.0,507.0,509.0
504.0,504.0,513.0,503.0,511.0
505.0,502.0,515.0,504.0,513.0
508.0,503.0,518.0,508.0,514.0
524.0,509.0,520.0,511.0,509.0
525.0,505.0,523.0,521.0,513.0
526.0,512.0,524.0,522.0,508.0
532.0,516.0,526.0,528.0,507.0
521.0,513.0,521.0,527.0,509.0
526.0,512.0,515.0,524.0,519.0
520.0,515.0,515.0,524.0,513.0
509.0,505.0,509.0,521.0,522.0
503.0,504.0,501.0,512.0,525.0
497.0,506.0,505.0,507.0,519.0
493.0,505.0,502.0,505.0,517.0
498.0,501.0,505.0,505.0,512.0
509.0,504.0,511.0,507.0,508.0
511.0,505.0,518.0,506.0,507.0
508.0,502.0,515.0,505.0,512.0
516.0,501.0,522.0,511.0,511.0
512.0,504.0,520.0,509.0,517.0
516.0,504.0,520.0,512.0,518.0
516.0,507.0,522.0,517.0,509.0
521.0,513.0,524.0,526.0,504.0
529.0,514.0,523.0,527.0,504.0
533.0,514.0,521.0,529.0,508.0
524.0,512.0,516.0,521.0,517.0
517.0,510.0,511.0,520.0,523.0
502.0,505.0,501.0,516.0,532.0
502.0,504.0,500.0,508.0,529.0
508.0,502.0,501.0,505.0,515.0
503.0,501.0,503.0,503.0,518.0
503.0,506.0,507.0,504.0,505.0
502.0,498.0,513.0,505.0,503.0
509.0,503.0,513.0,509.0,504.0
511.0,504.0,518.0,506.0,506.0
509.0,506.0,519.0,507.0,507.0
513.0,502.0,522.0,508.0,509.0
528.0,507.0,521.0,514.0,509.0
530.0,510.0,523.0,521.0,510.0
532.0,514.0,525.0,526.0,513.0
531.0,516.0,521.0,526.0,515.0
526.0,513.0,519.0,527.0,517.0
516.0,511.0,513.0,523.0,517.0
512.0,512.0,512.0,521.0,516.0
498.0,503.0,501.0,511.0,523.0
496.0,502.0,499.0,506.0,519.0
497.0,502.0,501.0,502.0,519.0
502.0,502.0,506.0,504.0,516.0
502.0,502.0,508.0,503.0,520.0
509.0,505.0,515.0,506.0,513.0
506.0,501.0,514.0,504.0,509.0
508.0,504.0,517.0,506.0,505.0
511.0,504.0,519.0,509.0,503.0
515.0,506.0,522.0,514.0,509.0
516.0,506.0,522.0,517.0,509.0
520.0,509.0,523.0,522.0,508.0
526.0,514.0,526.0,529.0,512.0
533.0,516.0,523.0,529.0,513.0
525.0,515.0,518.0,525.0,515.0
514.0,512.0,516.0,523.0,518.0
506.0,506.0,506.0,516.0,525.0
503.0,505.0,501.0,509.0,527.0
501.0,506.0,500.0,506.0,515.0
496.0,501.0,502.0,504.0,508.0
499.0,502.0,506.0,504.0,508.0
502.0,504.0,511.0,505.0,513.0
510.0,505.0,514.0,505.0,513.0
506.0,500.0,509.0,507.0,508.0
512.0,500.0,518.0,506.0,506.0
518.0,504.0,519.0,509.0,510.0
521.0,506.0,522.0,513.0,507.0
524.0,508.0,524.0,522.0,504.0
527.0,513.0,526.0,525.0,503.0
529.0,513.0,523.0,526.0,505.0
524.0,514.0,524.0,533.0,510.0
513.0,510.0,512.0,524.0,516.0
510.0,510.0,512.0,523.0,518.0
497.0,504.0,502.0,513.0,524.0
491.0,501.0,500.0,506.0,524.0
505.0,504.0,503.0,507.0,520.0
509.0,502.0,504.0,505.0,518.0
510.0,502.0,506.0,500.0,514.0
509.0,503.0,512.0,505.0,511.0
510.0,504.0,515.0,505.0,515.0
515.0,503.0,517.0,502.0,512.0
515.0,503.0,518.0,508.0,504.0
520.0,505.0,520.0,511.0,501.0
523.0,508.0,521.0,518.0,505.0
527.0,510.0,523.0,521.0,507.0
530.0,515.0,527.0,527.0,504.0
527.0,513.0,521.0,527.0,512.0
522.0,513.0,518.0,527.0,507.0
514.0,509.0,512.0,523.0,513.0
510.0,511.0,512.0,522.0,516.0
497.0,503.0,500.0,510.0,523.0
490.0,501.0,500.0,507.0,519.0
489.0,502.0,500.0,504.0,518.0
490.0,502.0,503.0,503.0,514.0
491.0,502.0,508.0,504.0,517.0
509.0,508.0,516.0,507.0,514.0
509.0,502.0,514.0,503.0,518.0
518.0,504.0,518.0,508.0,508.0
527.0,504.0,520.0,511.0,510.0
529.0,507.0,524.0,512.0,506.0
527.0,508.0,523.0,517.0,509.0
529.0,510.0,524.0,523.0,508.0
535.0,515.0,526.0,530.0,508.0
531.0,514.0,521.0,529.0,508.0
523.0,513.0,517.0,528.0,515.0
516.0,511.0,513.0,522.0,522.0
507.0,502.0,506.0,516.0,531.0
498.0,499.0,500.0,509.0,536.0
496.0,501.0,500.0,505.0,532.0
497.0,500.0,501.0,503.0,518.0
500.0,502.0,506.0,506.0,508.0
506.0,503.0,511.0,506.0,501.0
516.0,499.0,516.0,506.0,496.0
512.0,500.0,510.0,506.0,498.0
514.0,501.0,517.0,506.0,503.0
515.0,503.0,519.0,508.0,507.0
519.0,505.0,522.0,515.0,511.0
521.0,509.0,523.0,519.0,507.0
527.0,513.0,527.0,526.0,506.0
524.0,511.0,523.0,526.0,507.0
522.0,515.0,524.0,533.0,512.0
517.0,511.0,516.0,526.0,517.0
521.0,510.0,512.0,523.0,515.0
503.0,503.0,504.0,512.0,524.0
493.0,501.0,501.0,506.0,523.0
491.0,502.0,503.0,506.0,521.0
505.0,502.0,500.0,504.0,516.0
500.0,498.0,506.0,505.0,514.0
503.0,504.0,513.0,508.0,508.0
503.0,502.0,509.0,510.0,501.0
506.0,500.0,513.0,505.0,504.0
525.0,504.0,518.0,504.0,513.0
524.0,506.0,525.0,506.0,522.0
527.0,506.0,525.0,511.0,518.0
532.0,513.0,534.0,520.0,521.0
529.0,514.0,534.0,524.0,521.0
527.0,515.0,529.0,528.0,514.0
524.0,517.0,521.0,528.0,513.0
520.0,508.0,511.0,531.0,495.0
516.0,513.0,502.0,524.0,500.0
497.0,502.0,490.0,512.0,513.0
493.0,505.0,493.0,505.0,520.0
501.0,505.0,507.0,507.0,518.0
499.0,504.0,506.0,504.0,509.0
502.0,501.0,506.0,504.0,508.0
511.0,504.0,513.0,507.0,508.0
514.0,501.0,514.0,503.0,518.0
511.0,502.0,515.0,506.0,516.0
512.0,503.0,518.0,509.0,518.0
518.0,506.0,516.0,515.0,507.0
519.0,507.0,521.0,517.0,506.0
527.0,512.0,523.0,520.0,518.0
532.0,512.0,522.0,523.0,512.0
527.0,515.0,522.0,527.0,516.0
522.0,513.0,517.0,526.0,503.0
517.0,511.0,513.0,524.0,508.0
509.0,506.0,505.0,518.0,517.0
502.0,503.0,500.0,511.0,520.0
495.0,505.0,501.0,507.0,510.0
492.0,502.0,503.0,505.0,506.0
501.0,502.0,510.0,506.0,501.0
502.0,503.0,510.0,506.0,497.0
505.0,503.0,514.0,507.0,492.0
502.0,500.0,512.0,502.0,505.0
512.0,504.0,517.0,511.0,506.0
516.0,504.0,519.0,511.0,514.0
525.0,506.0,521.0,512.0,515.0
530.0,511.0,525.0,520.0,510.0
530.0,511.0,523.0,524.0,507.0
533.0,514.0,525.0,528.0,509.0
526.0,514.0,520.0,527.0,513.0
524.0,513.0,515.0,524.0,522.0
529.0,511.0,512.0,521.0,520.0
511.0,503.0,498.0,512.0,524.0
493.0,501.0,498.0,505.0,529.0
494.0,499.0,504.0,504.0,525.0
496.0,502.0,507.0,503.0,519.0
499.0,503.0,507.0,504.0,512.0
502.0,502.0,511.0,504.0,502.0
506.0,503.0,513.0,505.0,508.0
507.0,505.0,517.0,504.0,511.0
516.0,503.0,517.0,506.0,508.0
521.0,505.0,523.0,509.0,506.0
521.0,507.0,525.0,520.0,505.0
521.0,511.0,520.0,526.0,505.0
528.0,515.0,526.0,525.0,508.0
541.0,516.0,524.0,529.0,513.0
532.0,517.0,521.0,527.0,522.0
517.0,510.0,512.0,520.0,534.0
514.0,513.0,514.0,522.0,529.0
503.0,502.0,501.0,510.0,539.0
494.0,503.0,502.0,505.0,536.0
503.0,503.0,505.0,505.0,507.0
505.0,506.0,512.0,508.0,503.0
512.0,503.0,507.0,506.0,498.0
511.0,505.0,515.0,507.0,493.0
510.0,504.0,518.0,504.0,498.0
515.0,505.0,519.0,506.0,491.0
515.0,504.0,528.0,510.0,491.0
517.0,508.0,531.0,514.0,513.0
524.0,506.0,533.0,518.0,514.0
519.0,510.0,530.0,521.0,528.0
525.0,513.0,513.0,525.0,525.0
526.0,518.0,513.0,526.0,512.0
519.0,510.0,520.0,524.0,499.0
514.0,509.0,517.0,522.0,495.0
512.0,506.0,509.0,518.0,504.0
499.0,502.0,510.0,512.0,511.0
496.0,503.0,507.0,509.0,509.0
495.0,505.0,488.0,504.0,514.0
516.0,504.0,499.0,506.0,506.0
511.0,501.0,502.0,501.0,504.0
509.0,502.0,507.0,504.0,514.0
510.0,503.0,509.0,504.0,520.0
519.0,504.0,515.0,507.0,512.0
519.0,504.0,515.0,512.0,514.0
522.0,506.0,520.0,514.0,517.0
521.0,508.0,519.0,517.0,520.0
527.0,514.0,522.0,525.0,523.0
527.0,514.0,520.0,528.0,517.0
526.0,514.0,517.0,530.0,508.0
521.0,511.0,511.0,525.0,522.0
514.0,512.0,513.0,528.0,522.0
503.0,504.0,502.0,516.0,524.0
496.0,500.0,497.0,508.0,533.0
495.0,502.0,500.0,505.0,531.0
488.0,501.0,503.0,503.0,521.0
493.0,503.0,508.0,504.0,515.0
495.0,503.0,512.0,506.0,514.0
496.0,502.0,513.0,503.0,508.0
504.0,504.0,515.0,505.0,502.0
514.0,507.0,523.0,509.0,497.0
519.0,504.0,520.0,513.0,498.0
523.0,507.0,523.0,517.0,509.0
518.0,510.0,523.0,524.0,521.0
525.0,515.0,526.0,527.0,518.0
532.0,513.0,524.0,532.0,519.0
535.0,518.0,521.0,529.0,518.0
518.0,514.0,515.0,522.0,523.0
516.0,511.0,512.0,519.0,525.0
504.0,507.0,504.0,512.0,529.0
499.0,502.0,501.0,508.0,527.0
500.0,502.0,502.0,506.0,515.0
504.0,503.0,506.0,505.0,509.0
510.0,502.0,509.0,509.0,509.0
513.0,505.0,513.0,505.0,510.0
517.0,502.0,513.0,503.0,515.0
518.0,504.0,516.0,507.0,522.0
518.0,504.0,520.0,507.0,525.0
523.0,504.0,519.0,509.0,519.0
523.0,508.0,521.0,516.0,517.0
528.0,512.0,522.0,523.0,506.0
531.0,515.0,526.0,531.0,508.0
527.0,513.0,521.0,530.0,502.0
515.0,510.0,514.0,525.0,512.0
522.0,512.0,515.0,527.0,518.0
511.0,507.0,507.0,520.0,526.0
506.0,503.0,502.0,511.0,534.0
499.0,506.0,503.0,508.0,522.0
496.0,504.0,507.0,505.0,527.0
498.0,502.0,507.0,505.0,518.0
505.0,503.0,507.0,507.0,506.0
509.0,504.0,515.0,513.0,504.0
503.0,501.0,515.0,505.0,516.0
506.0,506.0,524.0,505.0,531.0
506.0,507.0,521.0,508.0,517.0
509.0,506.0,522.0,515.0,506.0
519.0,507.0,525.0,516.0,496.0
522.0,511.0,526.0,524.0,498.0
525.0,510.0,518.0,526.0,505.0
519.0,510.0,516.0,526.0,502.0
507.0,507.0,511.0,521.0,511.0
525.0,513.0,513.0,524.0,504.0
517.0,506.0,505.0,518.0,507.0
519.0,502.0,499.0,508.0,504.0
522.0,503.0,501.0,508.0,508.0
514.0,504.0,504.0,510.0,513.0
514.0,502.0,508.0,503.0,516.0
511.0,504.0,512.0,504.0,517.0
512.0,503.0,513.0,507.0,500.0
512.0,502.0,515.0,504.0,511.0
517.0,504.0,520.0,508.0,508.0
520.0,505.0,521.0,512.0,503.0
524.0,507.0,521.0,518.0,498.0
531.0,514.0,526.0,526.0,492.0
535.0,516.0,527.0,529.0,487.0
532.0,516.0,525.0,530.0,491.0
528.0,513.0,519.0,527.0,498.0
520.0,510.0,512.0,523.0,512.0
521.0,512.0,512.0,530.0,519.0
507.0,505.0,502.0,522.0,534.0
500.0,504.0,504.0,513.0,551.0
502.0,502.0,508.0,514.0,535.0
503.0,504.0,510.0,502.0,525.0
497.0,503.0,514.0,487.0,543.0
499.0,500.0,513.0,495.0,549.0
503.0,502.0,508.0,501.0,543.0
510.0,505.0,510.0,508.0,515.0
517.0,507.0,523.0,513.0,529.0
519.0,508.0,510.0,517.0,533.0
517.0,509.0,515.0,524.0,521.0
526.0,511.0,540.0,523.0,524.0
529.0,519.0,566.0,527.0,494.0
533.0,520.0,551.0,527.0,484.0
523.0,513.0,541.0,522.0,503.0
508.0,505.0,508.0,516.0,484.0
502.0,503.0,475.0,517.0,466.0
495.0,503.0,493.0,510.0,472.0
491.0,503.0,491.0,505.0,498.0
511.0,506.0,503.0,505.0,509.0
524.0,511.0,517.0,503.0,490.0
518.0,507.0,520.0,496.0,478.0
526.0,509.0,527.0,498.0,517.0
525.0,506.0,517.0,493.0,531.0
514.0,501.0,502.0,488.0,532.0
513.0,499.0,503.0,513.0,497.0
519.0,502.0,519.0,539.0,483.0
523.0,512.0,536.0,533.0,522.0
525.0,514.0,545.0,534.0,541.0
519.0,514.0,529.0,529.0,570.0
514.0,516.0,520.0,516.0,565.0
509.0,511.0,513.0,515.0,542.0
511.0,510.0,495.0,524.0,511.0
508.0,502.0,492.0,517.0,496.0
512.0,501.0,504.0,516.0,454.0
514.0,498.0,498.0,508.0,416.0
512.0,501.0,502.0,509.0,439.0
507.0,502.0,501.0,505.0,486.0
510.0,506.0,508.0,508.0,484.0
512.0,505.0,514.0,508.0,518.0
507.0,502.0,521.0,506.0,542.0
519.0,505.0,530.0,518.0,547.0
516.0,503.0,529.0,523.0,559.0
527.0,508.0,521.0,525.0,521.0
530.0,508.0,497.0,521.0,514.0
532.0,514.0,496.0,515.0,529.0
527.0,515.0,517.0,522.0,558.0
529.0,516.0,533.0,527.0,535.0
523.0,509.0,539.0,524.0,545.0
518.0,515.0,541.0,533.0,561.0
499.0,508.0,527.0,515.0,578.0
493.0,504.0,481.0,493.0,560.0
485.0,499.0,463.0,498.0,538.0
479.0,505.0,490.0,509.0,549.0
484.0,505.0,504.0,500.0,573.0
496.0,502.0,516.0,501.0,529.0
508.0,502.0,518.0,510.0,508.0
511.0,501.0,514.0,506.0,496.0
525.0,501.0,522.0,510.0,478.0
532.0,503.0,523.0,513.0,502.0
543.0,511.0,528.0,517.0,508.0
544.0,516.0,528.0,518.0,513.0
540.0,520.0,528.0,527.0,521.0
531.0,517.0,535.0,528.0,526.0
515.0,504.0,536.0,521.0,513.0
497.0,501.0,521.0,513.0,537.0
507.0,510.0,534.0,512.0,565.0
513.0,507.0,515.0,524.0,536.0
506.0,508.0,507.0,509.0,529.0
508.0,511.0,513.0,535.0,500.0
491.0,505.0,506.0,534.0,451.0
474.0,494.0,484.0,491.0,463.0
496.0,493.0,496.0,507.0,413.0
523.0,491.0,498.0,504.0,426.0
532.0,503.0,511.0,509.0,463.0
523.0,503.0,511.0,506.0,497.0
518.0,504.0,507.0,509.0,481.0
512.0,507.0,506.0,514.0,531.0
517.0,512.0,516.0,527.0,552.0
512.0,517.0,542.0,523.0,528.0
511.0,520.0,539.0,526.0,552.0
500.0,516.0,528.0,519.0,536.0
499.0,514.0,521.0,520.0,535.0
501.0,506.0,489.0,514.0,513.0
505.0,504.0,497.0,511.0,473.0
537.0,510.0,504.0,515.0,436.0
518.0,505.0,496.0,515.0,426.0
515.0,502.0,504.0,516.0,384.0
521.0,506.0,515.0,520.0,429.0
519.0,505.0,523.0,521.0,450.0
510.0,494.0,516.0,515.0,530.0
510.0,494.0,507.0,508.0,554.0
515.0,501.0,500.0,503.0,538.0
540.0,513.0,539.0,515.0,499.0
554.0,521.0,555.0,527.0,442.0
555.0,521.0,547.0,529.0,474.0
543.0,514.0,513.0,525.0,538.0
525.0,507.0,488.0,526.0,526.0
512.0,497.0,502.0,526.0,522.0
517.0,504.0,504.0,526.0,485.0
484.0,495.0,484.0,502.0,522.0
475.0,493.0,481.0,498.0,518.0
475.0,497.0,495.0,501.0,530.0
484.0,506.0,503.0,505.0,538.0
493.0,507.0,513.0,503.0,503.0
491.0,500.0,507.0,502.0,505.0
506.0,504.0,514.0,503.0,513.0
543.0,510.0,520.0,505.0,545.0
524.0,507.0,518.0,503.0,538.0
518.0,506.0,521.0,513.0,495.0
524.0,511.0,523.0,516.0,559.0
529.0,512.0,520.0,520.0,593.0
530.0,512.0,522.0,526.0,532.0
531.0,514.0,516.0,529.0,547.0
527.0,514.0,515.0,530.0,543.0
527.0,520.0,540.0,526.0,517.0
506.0,507.0,518.0,514.0,531.0
490.0,500.0,504.0,508.0,547.0
488.0,497.0,490.0,510.0,528.0
484.0,497.0,491.0,503.0,508.0
493.0,503.0,505.0,506.0,515.0
500.0,505.0,506.0,506.0,525.0
508.0,503.0,506.0,499.0,499.0
514.0,493.0,497.0,486.0,507.0
507.0,500.0,506.0,492.0,526.0
514.0,503.0,520.0,501.0,512.0
519.0,508.0,543.0,516.0,507.0
516.0,516.0,551.0,526.0,529.0
528.0,515.0,531.0,534.0,517.0
536.0,517.0,516.0,538.0,518.0
532.0,515.0,493.0,534.0,537.0
522.0,514.0,518.0,529.0,544.0
514.0,511.0,497.0,514.0,532.0
501.0,506.0,486.0,492.0,507.0
489.0,501.0,486.0,484.0,525.0
491.0,503.0,496.0,504.0,538.0
483.0,499.0,513.0,507.0,566.0
491.0,502.0,525.0,514.0,540.0
509.0,504.0,508.0,521.0,514.0
526.0,507.0,507.0,504.0,480.0
530.0,505.0,517.0,511.0,488.0
528.0,506.0,514.0,506.0,475.0
515.0,505.0,520.0,510.0,470.0
519.0,510.0,533.0,519.0,459.0
509.0,508.0,536.0,526.0,482.0
522.0,521.0,538.0,526.0,511.0
516.0,510.0,519.0,514.0,548.0
517.0,505.0,486.0,512.0,516.0
517.0,501.0,488.0,514.0,503.0
512.0,506.0,500.0,521.0,512.0
499.0,508.0,505.0,525.0,528.0
499.0,510.0,515.0,529.0,546.0
491.0,505.0,526.0,524.0,540.0
485.0,499.0,519.0,509.0,497.0
492.0,497.0,513.0,504.0,497.0
509.0,503.0,500.0,508.0,501.0
513.0,499.0,495.0,499.0,484.0
521.0,507.0,535.0,507.0,478.0
536.0,511.0,532.0,513.0,429.0
545.0,506.0,531.0,512.0,390.0
531.0,510.0,500.0,511.0,388.0
537.0,514.0,515.0,531.0,451.0
528.0,517.0,547.0,538.0,600.0
520.0,516.0,542.0,531.0,616.0
516.0,511.0,502.0,519.0,578.0
506.0,506.0,489.0,503.0,570.0
497.0,506.0,501.0,509.0,541.0
501.0,508.0,509.0,522.0,485.0
489.0,502.0,499.0,503.0,523.0
488.0,497.0,513.0,493.0,502.0
488.0,498.0,517.0,516.0,521.0
514.0,504.0,503.0,512.0,554.0
524.0,512.0,508.0,516.0,509.0
521.0,508.0,520.0,516.0,496.0
504.0,502.0,518.0,503.0,544.0
502.0,502.0,521.0,509.0,522.0
506.0,499.0,523.0,517.0,517.0
509.0,504.0,520.0,519.0,498.0
516.0,511.0,525.0,529.0,494.0
527.0,514.0,523.0,528.0,503.0
526.0,513.0,519.0,526.0,509.0
520.0,511.0,512.0,526.0,511.0
520.0,515.0,516.0,531.0,490.0
510.0,511.0,512.0,527.0,464.0
500.0,503.0,504.0,518.0,446.0
503.0,497.0,500.0,510.0,414.0
523.0,496.0,501.0,505.0,454.0
508.0,495.0,500.0,501.0,508.0
500.0,503.0,510.0,502.0,508.0
505.0,500.0,503.0,504.0,510.0
509.0,501.0,515.0,498.0,535.0
532.0,505.0,510.0,505.0,508.0
516.0,505.0,527.0,514.0,513.0
506.0,502.0,517.0,517.0,539.0
513.0,508.0,524.0,516.0,558.0
528.0,516.0,531.0,528.0,569.0
524.0,514.0,527.0,529.0,557.0
506.0,511.0,520.0,528.0,532.0
488.0,505.0,507.0,526.0,507.0
495.0,510.0,510.0,527.0,491.0
469.0,505.0,503.0,515.0,510.0
461.0,500.0,500.0,505.0,518.0
465.0,497.0,498.0,499.0,535.0
504.0,503.0,505.0,501.0,549.0
562.0,517.0,521.0,512.0,516.0
556.0,515.0,521.0,512.0,534.0
542.0,504.0,520.0,507.0,534.0
503.0,497.0,521.0,503.0,550.0
523.0,504.0,522.0,505.0,498.0
540.0,503.0,517.0,496.0,491.0
549.0,508.0,502.0,500.0,481.0
554.0,501.0,485.0,519.0,482.0
550.0,510.0,518.0,532.0,491.0
541.0,523.0,555.0,541.0,531.0
527.0,517.0,535.0,536.0,564.0
507.0,511.0,524.0,530.0,555.0
490.0,502.0,528.0,525.0,532.0
499.0,499.0,529.0,526.0,514.0
513.0,501.0,514.0,524.0,469.0
523.0,500.0,498.0,499.0,421.0
540.0,501.0,473.0,504.0,351.0
545.0,501.0,501.0,514.0,382.0
518.0,496.0,505.0,497.0,489.0
502.0,497.0,516.0,485.0,606.0
505.0,499.0,532.0,490.0,601.0
515.0,504.0,532.0,505.0,534.0
514.0,508.0,529.0,517.0,541.0
518.0,515.0,523.0,530.0,539.0
528.0,520.0,503.0,535.0,527.0
512.0,514.0,500.0,534.0,535.0
510.0,517.0,509.0,543.0,542.0
493.0,513.0,507.0,537.0,582.0
488.0,512.0,500.0,528.0,553.0
495.0,501.0,503.0,507.0,521.0
497.0,498.0,497.0,488.0,502.0
501.0,497.0,522.0,491.0,529.0
514.0,505.0,525.0,508.0,499.0
514.0,511.0,493.0,507.0,505.0
507.0,510.0,538.0,509.0,510.0
506.0,502.0,532.0,511.0,525.0
510.0,497.0,523.0,506.0,492.0
502.0,497.0,506.0,489.0,505.0
488.0,499.0,492.0,483.0,625.0
508.0,499.0,494.0,483.0,587.0
545.0,510.0,513.0,513.0,521.0
534.0,509.0,525.0,534.0,525.0
514.0,516.0,531.0,536.0,525.0
528.0,519.0,529.0,537.0,459.0
526.0,513.0,513.0,528.0,429.0
527.0,511.0,513.0,529.0,416.0
508.0,506.0,502.0,517.0,442.0
494.0,503.0,502.0,497.0,494.0
481.0,498.0,488.0,507.0,565.0
503.0,511.0,500.0,523.0,507.0
498.0,500.0,504.0,505.0,538.0
507.0,501.0,503.0,517.0,518.0
517.0,501.0,521.0,512.0,512.0
523.0,503.0,522.0,517.0,499.0
517.0,505.0,527.0,516.0,500.0
502.0,501.0,520.0,510.0,531.0
521.0,509.0,537.0,510.0,507.0
518.0,511.0,536.0,516.0,520.0
521.0,515.0,534.0,532.0,503.0
519.0,519.0,522.0,533.0,536.0
511.0,517.0,514.0,538.0,546.0
501.0,514.0,526.0,533.0,476.0
504.0,512.0,525.0,528.0,497.0
507.0,507.0,519.0,517.0,523.0
494.0,499.0,483.0,504.0,551.0
498.0,499.0,491.0,508.0,506.0
516.0,503.0,489.0,502.0,488.0
515.0,500.0,497.0,498.0,484.0
518.0,504.0,510.0,498.0,527.0
513.0,500.0,508.0,495.0,577.0
522.0,498.0,506.0,499.0,533.0
529.0,503.0,515.0,501.0,500.0
533.0,503.0,515.0,508.0,493.0
519.0,509.0,547.0,524.0,522.0
527.0,520.0,560.0,541.0,538.0
509.0,521.0,557.0,549.0,547.0
479.0,517.0,503.0,535.0,548.0
467.0,510.0,490.0,521.0,563.0
460.0,506.0,501.0,523.0,532.0
469.0,498.0,490.0,510.0,497.0
460.0,491.0,485.0,504.0,488.0
456.0,494.0,491.0,506.0,450.0
492.0,501.0,499.0,508.0,439.0
515.0,501.0,502.0,501.0,449.0
509.0,500.0,506.0,502.0,464.0
488.0,500.0,511.0,506.0,495.0
486.0,502.0,515.0,502.0,514.0
504.0,506.0,520.0,511.0,530.0
557.0,512.0,521.0,510.0,528.0
582.0,515.0,525.0,514.0,487.0
570.0,516.0,527.0,521.0,515.0
549.0,516.0,526.0,527.0,549.0
534.0,508.0,516.0,524.0,553.0
530.0,515.0,517.0,533.0,513.0
509.0,509.0,508.0,523.0,538.0
503.0,507.0,506.0,523.0,518.0
490.0,507.0,504.0,515.0,524.0
471.0,495.0,497.0,517.0,541.0
486.0,506.0,507.0,513.0,536.0
503.0,505.0,509.0,506.0,520.0
513.0,503.0,511.0,505.0,499.0
520.0,503.0,512.0,502.0,506.0
526.0,509.0,514.0,499.0,553.0
520.0,503.0,512.0,493.0,535.0
527.0,503.0,517.0,504.0,483.0
543.0,505.0,523.0,521.0,439.0
537.0,509.0,529.0,537.0,468.0
549.0,517.0,537.0,527.0,507.0
551.0,514.0,535.0,534.0,503.0
544.0,518.0,532.0,538.0,508.0
532.0,518.0,504.0,518.0,533.0
525.0,513.0,499.0,521.0,522.0
507.0,510.0,504.0,521.0,545.0
501.0,506.0,504.0,517.0,527.0
493.0,507.0,509.0,511.0,578.0
465.0,498.0,500.0,497.0,601.0
508.0,503.0,512.0,503.0,541.0
516.0,504.0,504.0,497.0,514.0
520.0,504.0,516.0,503.0,482.0
513.0,493.0,504.0,499.0,471.0
519.0,499.0,512.0,501.0,472.0
528.0,503.0,518.0,507.0,492.0
538.0,505.0,517.0,513.0,499.0
542.0,511.0,521.0,519.0,485.0
534.0,511.0,517.0,522.0,476.0
536.0,515.0,517.0,530.0,494.0
533.0,516.0,517.0,529.0,493.0
526.0,514.0,521.0,524.0,502.0
518.0,511.0,510.0,517.0,525.0
507.0,503.0,492.0,509.0,525.0
498.0,499.0,461.0,495.0,526.0
490.0,497.0,473.0,485.0,519.0
496.0,501.0,512.0,507.0,502.0
506.0,506.0,541.0,514.0,503.0
505.0,506.0,542.0,512.0,527.0
507.0,505.0,528.0,528.0,532.0
504.0,498.0,487.0,517.0,515.0
503.0,502.0,529.0,505.0,506.0
512.0,511.0,545.0,515.0,509.0
510.0,506.0,526.0,518.0,545.0
521.0,511.0,520.0,515.0,560.0
524.0,513.0,502.0,525.0,488.0
530.0,514.0,522.0,526.0,471.0
536.0,518.0,521.0,535.0,490.0
521.0,509.0,512.0,535.0,486.0
507.0,509.0,515.0,536.0,513.0
502.0,505.0,506.0,537.0,547.0
500.0,507.0,531.0,515.0,536.0
495.0,502.0,536.0,511.0,538.0
500.0,503.0,526.0,507.0,511.0
511.0,502.0,494.0,487.0,457.0
516.0,502.0,477.0,503.0,433.0
499.0,492.0,496.0,508.0,456.0
489.0,488.0,495.0,504.0,525.0
518.0,504.0,510.0,495.0,539.0
521.0,508.0,524.0,514.0,521.0
514.0,506.0,526.0,519.0,542.0
524.0,516.0,528.0,522.0,511.0
528.0,517.0,529.0,524.0,519.0
529.0,518.0,519.0,526.0,514.0
523.0,517.0,521.0,525.0,527.0
512.0,510.0,507.0,528.0,530.0
511.0,508.0,506.0,535.0,531.0
505.0,510.0,508.0,532.0,534.0
501.0,504.0,494.0,506.0,526.0
484.0,497.0,490.0,491.0,520.0
497.0,504.0,516.0,506.0,522.0
505.0,509.0,516.0,497.0,529.0
509.0,508.0,519.0,507.0,525.0
507.0,502.0,513.0,502.0,492.0
511.0,509.0,526.0,499.0,487.0
508.0,504.0,525.0,502.0,506.0
515.0,503.0,529.0,506.0,525.0
528.0,506.0,517.0,528.0,513.0
533.0,504.0,508.0,535.0,492.0
530.0,511.0,519.0,525.0,483.0
519.0,513.0,516.0,531.0,509.0
514.0,517.0,516.0,518.0,543.0
494.0,512.0,520.0,520.0,553.0
489.0,509.0,517.0,516.0,583.0
478.0,504.0,512.0,512.0,554.0
484.0,504.0,502.0,509.0,524.0
464.0,497.0,488.0,505.0,534.0
469.0,497.0,507.0,503.0,505.0
512.0,501.0,511.0,503.0,468.0
529.0,504.0,516.0,504.0,473.0
524.0,497.0,513.0,501.0,496.0
514.0,498.0,515.0,500.0,530.0
513.0,505.0,517.0,505.0,558.0
541.0,510.0,522.0,515.0,535.0
542.0,519.0,524.0,520.0,516.0
541.0,522.0,527.0,527.0,504.0
522.0,517.0,521.0,526.0,503.0
543.0,518.0,521.0,532.0,477.0
526.0,515.0,513.0,527.0,497.0
506.0,510.0,509.0,523.0,528.0
501.0,505.0,501.0,514.0,522.0
504.0,504.0,501.0,516.0,496.0
501.0,506.0,505.0,518.0,503.0
509.0,508.0,511.0,520.0,469.0
504.0,508.0,516.0,517.0,487.0
501.0,508.0,518.0,497.0,512.0
524.0,505.0,516.0,494.0,534.0
541.0,505.0,518.0,503.0,525.0
521.0,498.0,511.0,498.0,492.0
528.0,497.0,510.0,498.0,493.0
543.0,504.0,516.0,509.0,508.0
548.0,510.0,520.0,519.0,519.0
538.0,513.0,526.0,524.0,505.0
536.0,519.0,526.0,533.0,483.0
532.0,515.0,515.0,523.0,498.0
525.0,511.0,511.0,519.0,503.0
515.0,508.0,507.0,513.0,532.0
504.0,502.0,500.0,513.0,540.0
506.0,503.0,504.0,516.0,519.0
489.0,502.0,503.0,509.0,521.0
480.0,503.0,502.0,507.0,506.0
489.0,501.0,511.0,510.0,498.0
495.0,502.0,515.0,513.0,498.0
499.0,502.0,514.0,496.0,503.0
501.0,503.0,518.0,503.0,531.0
501.0,504.0,519.0,505.0,534.0
525.0,505.0,521.0,512.0,511.0
542.0,509.0,524.0,519.0,492.0
555.0,515.0,523.0,527.0,482.0
543.0,517.0,515.0,525.0,506.0
529.0,516.0,509.0,529.0,520.0
518.0,515.0,508.0,525.0,531.0
507.0,509.0,499.0,513.0,526.0
499.0,497.0,510.0,514.0,518.0
489.0,500.0,507.0,514.0,537.0
493.0,502.0,505.0,512.0,519.0
510.0,502.0,502.0,509.0,503.0
519.0,506.0,509.0,511.0,504.0
514.0,504.0,514.0,508.0,491.0
510.0,502.0,518.0,505.0,502.0
505.0,496.0,517.0,500.0,508.0
509.0,502.0,517.0,503.0,527.0
521.0,507.0,510.0,504.0,497.0
524.0,515.0,512.0,507.0,513.0
533.0,513.0,528.0,508.0,523.0
536.0,514.0,536.0,514.0,509.0
526.0,511.0,512.0,529.0,513.0
520.0,514.0,524.0,552.0,526.0
516.0,510.0,518.0,544.0,539.0
516.0,515.0,502.0,533.0,521.0
503.0,505.0,497.0,525.0,521.0
494.0,502.0,496.0,512.0,543.0
497.0,509.0,494.0,489.0,553.0
494.0,505.0,505.0,487.0,535.0
504.0,506.0,516.0,503.0,518.0
515.0,512.0,519.0,508.0,495.0
513.0,504.0,519.0,502.0,486.0
512.0,500.0,543.0,504.0,506.0
525.0,497.0,549.0,507.0,495.0
527.0,504.0,552.0,514.0,494.0
524.0,501.0,478.0,511.0,499.0
526.0,511.0,499.0,531.0,510.0
529.0,516.0,525.0,541.0,501.0
518.0,518.0,527.0,540.0,526.0
512.0,516.0,522.0,536.0,544.0
502.0,509.0,515.0,526.0,563.0
507.0,508.0,514.0,518.0,533.0
503.0,501.0,502.0,504.0,517.0
490.0,500.0,502.0,508.0,504.0
499.0,504.0,490.0,513.0,496.0
511.0,506.0,493.0,506.0,456.0
512.0,506.0,503.0,504.0,484.0
503.0,503.0,510.0,511.0,526.0
497.0,501.0,521.0,501.0,533.0
504.0,505.0,524.0,511.0,543.0
512.0,506.0,523.0,517.0,542.0
518.0,508.0,518.0,520.0,525.0
522.0,509.0,514.0,507.0,507.0
531.0,515.0,523.0,512.0,502.0
532.0,510.0,522.0,522.0,486.0
532.0,517.0,522.0,531.0,501.0
525.0,513.0,513.0,523.0,498.0
516.0,509.0,510.0,522.0,517.0
501.0,506.0,506.0,517.0,528.0
490.0,504.0,503.0,517.0,537.0
485.0,504.0,508.0,511.0,524.0
478.0,505.0,511.0,508.0,553.0
451.0,501.0,511.0,498.0,568.0
455.0,503.0,515.0,499.0,569.0
473.0,500.0,515.0,500.0,510.0
485.0,496.0,511.0,506.0,476.0
530.0,504.0,519.0,514.0,433.0
542.0,505.0,519.0,513.0,447.0
560.0,505.0,517.0,509.0,508.0
565.0,511.0,519.0,517.0,514.0
566.0,516.0,514.0,522.0,514.0
551.0,514.0,512.0,525.0,522.0
540.0,512.0,506.0,524.0,532.0
534.0,510.0,501.0,519.0,519.0
522.0,505.0,509.0,524.0,506.0
510.0,503.0,516.0,520.0,504.0
502.0,499.0,508.0,514.0,501.0
499.0,503.0,509.0,510.0,520.0
504.0,506.0,511.0,508.0,529.0
495.0,503.0,511.0,500.0,558.0
497.0,506.0,519.0,508.0,527.0
490.0,502.0,519.0,505.0,538.0
496.0,504.0,521.0,508.0,524.0
513.0,504.0,523.0,503.0,524.0
512.0,505.0,524.0,517.0,500.0
513.0,504.0,520.0,520.0,496.0
551.0,511.0,522.0,525.0,457.0
552.0,516.0,525.0,527.0,442.0
539.0,515.0,524.0,534.0,463.0
520.0,514.0,519.0,527.0,546.0
511.0,513.0,517.0,527.0,556.0
505.0,513.0,508.0,528.0,528.0
499.0,507.0,504.0,515.0,530.0
503.0,505.0,504.0,511.0,522.0
510.0,502.0,502.0,507.0,485.0
512.0,503.0,507.0,506.0,498.0
520.0,503.0,505.0,503.0,501.0
523.0,505.0,511.0,501.0,514.0
516.0,495.0,509.0,500.0,505.0
515.0,502.0,514.0,501.0,520.0
526.0,502.0,518.0,503.0,503.0
527.0,504.0,524.0,511.0,506.0
526.0,505.0,529.0,524.0,494.0
523.0,509.0,527.0,527.0,506.0
531.0,512.0,522.0,524.0,501.0
538.0,515.0,520.0,527.0,498.0
529.0,514.0,516.0,527.0,515.0
522.0,509.0,514.0,520.0,517.0
513.0,507.0,504.0,511.0,514.0
502.0,506.0,497.0,505.0,516.0
502.0,502.0,505.0,505.0,514.0
509.0,508.0,508.0,502.0,507.0
504.0,503.0,518.0,503.0,520.0
500.0,502.0,508.0,500.0,523.0
504.0,504.0,528.0,502.0,506.0
501.0,496.0,502.0,505.0,498.0
514.0,502.0,519.0,502.0,511.0
519.0,503.0,532.0,517.0,519.0
520.0,504.0,529.0,522.0,516.0
530.0,507.0,512.0,522.0,511.0
529.0,513.0,507.0,524.0,510.0
527.0,515.0,520.0,523.0,509.0
526.0,517.0,523.0,526.0,507.0
512.0,508.0,511.0,521.0,528.0
509.0,512.0,505.0,524.0,532.0
506.0,506.0,500.0,534.0,539.0
499.0,503.0,498.0,521.0,532.0
495.0,503.0,499.0,512.0,501.0
498.0,503.0,501.0,496.0,496.0
507.0,504.0,504.0,496.0,506.0
508.0,502.0,504.0,503.0,509.0
512.0,505.0,521.0,509.0,506.0
511.0,504.0,522.0,501.0,509.0
511.0,504.0,528.0,508.0,517.0
507.0,504.0,537.0,515.0,519.0
520.0,509.0,526.0,513.0,515.0
524.0,510.0,511.0,525.0,507.0
526.0,512.0,519.0,525.0,508.0
531.0,515.0,522.0,528.0,518.0
524.0,516.0,523.0,532.0,529.0
518.0,511.0,511.0,529.0,530.0
510.0,508.0,501.0,527.0,518.0
506.0,506.0,506.0,521.0,507.0
492.0,505.0,496.0,507.0,505.0
491.0,502.0,502.0,493.0,533.0
492.0,504.0,508.0,493.0,536.0
499.0,503.0,514.0,500.0,512.0
504.0,504.0,516.0,502.0,519.0
509.0,501.0,513.0,505.0,507.0
512.0,501.0,513.0,499.0,505.0
516.0,503.0,519.0,504.0,520.0
514.0,502.0,518.0,508.0,527.0
512.0,506.0,521.0,516.0,522.0
512.0,511.0,524.0,524.0,498.0
510.0,511.0,523.0,531.0,489.0
505.0,518.0,520.0,532.0,489.0
499.0,511.0,513.0,525.0,514.0
508.0,509.0,510.0,524.0,516.0
504.0,504.0,502.0,516.0,523.0
489.0,502.0,499.0,507.0,525.0
506.0,501.0,499.0,507.0,517.0
518.0,503.0,504.0,505.0,501.0
520.0,503.0,507.0,505.0,502.0
507.0,504.0,516.0,509.0,503.0
501.0,498.0,518.0,504.0,497.0
495.0,500.0,513.0,501.0,512.0
519.0,509.0,522.0,506.0,519.0
528.0,509.0,522.0,510.0,507.0
532.0,511.0,523.0,515.0,500.0
521.0,515.0,527.0,522.0,500.0
516.0,513.0,525.0,529.0,509.0
507.0,512.0,521.0,530.0,513.0
514.0,514.0,519.0,530.0,514.0
532.0,507.0,514.0,526.0,515.0
527.0,510.0,508.0,526.0,519.0
517.0,505.0,501.0,514.0,525.0
508.0,499.0,503.0,508.0,520.0
507.0,508.0,509.0,508.0,515.0
497.0,504.0,509.0,506.0,512.0
491.0,503.0,509.0,504.0,507.0
498.0,505.0,515.0,505.0,505.0
493.0,499.0,519.0,504.0,515.0
510.0,503.0,517.0,503.0,518.0
537.0,505.0,519.0,507.0,512.0
530.0,505.0,520.0,511.0,509.0
521.0,505.0,521.0,520.0,496.0
520.0,508.0,522.0,522.0,504.0
519.0,514.0,526.0,528.0,514.0
532.0,513.0,520.0,529.0,517.0
536.0,514.0,518.0,529.0,526.0
522.0,513.0,512.0,525.0,527.0
490.0,507.0,505.0,519.0,533.0
486.0,505.0,501.0,512.0,525.0
496.0,504.0,500.0,509.0,511.0
481.0,502.0,503.0,505.0,521.0
484.0,504.0,511.0,505.0,509.0
510.0,506.0,511.0,505.0,501.0
518.0,506.0,519.0,506.0,494.0
502.0,503.0,515.0,504.0,498.0
486.0,500.0,514.0,502.0,504.0
505.0,505.0,517.0,506.0,509.0
540.0,509.0,526.0,515.0,507.0
542.0,510.0,523.0,518.0,506.0
531.0,517.0,529.0,527.0,506.0
525.0,515.0,519.0,530.0,510.0
554.0,517.0,520.0,531.0,502.0
559.0,515.0,514.0,526.0,512.0
538.0,509.0,510.0,524.0,520.0
532.0,507.0,502.0,515.0,516.0
519.0,505.0,500.0,510.0,518.0
515.0,505.0,504.0,509.0,517.0
512.0,506.0,505.0,505.0,512.0
513.0,504.0,508.0,504.0,508.0
520.0,507.0,515.0,506.0,503.0
521.0,506.0,515.0,505.0,503.0
518.0,505.0,515.0,502.0,507.0
520.0,507.0,517.0,504.0,507.0
523.0,503.0,518.0,508.0,506.0
525.0,507.0,521.0,514.0,511.0
530.0,511.0,524.0,520.0,507.0
529.0,518.0,527.0,527.0,511.0
526.0,514.0,521.0,527.0,512.0
522.0,517.0,522.0,530.0,514.0
515.0,512.0,513.0,524.0,519.0
508.0,509.0,509.0,522.0,521.0
499.0,504.0,501.0,513.0,526.0
497.0,503.0,501.0,511.0,524.0
505.0,503.0,503.0,501.0,518.0
505.0,501.0,507.0,506.0,512.0
504.0,502.0,509.0,504.0,512.0
508.0,504.0,515.0,505.0,504.0
512.0,504.0,519.0,506.0,504.0
508.0,501.0,516.0,504.0,509.0
517.0,505.0,521.0,508.0,510.0
517.0,505.0,526.0,512.0,508.0
520.0,510.0,526.0,516.0,511.0
527.0,510.0,524.0,524.0,511.0
528.0,513.0,524.0,525.0,509.0
531.0,515.0,522.0,527.0,513.0
524.0,515.0,519.0,526.0,519.0
515.0,511.0,512.0,522.0,523.0
504.0,505.0,504.0,516.0,525.0
497.0,501.0,500.0,511.0,524.0
498.0,503.0,503.0,514.0,520.0
501.0,502.0,505.0,517.0,514.0
502.0,503.0,510.0,514.0,509.0
504.0,506.0,514.0,511.0,506.0
508.0,503.0,516.0,511.0,505.0
508.0,503.0,516.0,505.0,507.0
513.0,502.0,519.0,505.0,509.0
518.0,504.0,521.0,503.0,509.0
518.0,506.0,522.0,509.0,509.0
523.0,505.0,528.0,513.0,509.0
529.0,514.0,525.0,521.0,512.0
529.0,513.0,522.0,529.0,508.0
528.0,517.0,522.0,532.0,512.0
519.0,512.0,514.0,525.0,515.0
509.0,508.0,509.0,515.0,522.0
503.0,505.0,503.0,515.0,528.0
498.0,506.0,505.0,514.0,527.0
497.0,501.0,502.0,510.0,519.0
498.0,503.0,505.0,507.0,517.0
501.0,502.0,508.0,504.0,508.0
508.0,506.0,515.0,505.0,508.0
509.0,505.0,516.0,503.0,506.0
507.0,501.0,514.0,500.0,510.0
511.0,502.0,517.0,505.0,513.0
512.0,503.0,518.0,502.0,511.0
515.0,505.0,520.0,507.0,514.0
522.0,512.0,527.0,511.0,514.0
525.0,516.0,528.0,522.0,515.0
526.0,514.0,523.0,526.0,521.0
519.0,515.0,520.0,529.0,521.0
513.0,510.0,511.0,522.0,516.0
513.0,507.0,508.0,521.0,516.0
501.0,503.0,501.0,511.0,522.0
498.0,506.0,504.0,507.0,521.0
501.0,502.0,506.0,505.0,515.0
507.0,506.0,511.0,501.0,507.0
510.0,502.0,510.0,502.0,508.0
509.0,508.0,515.0,502.0,506.0
510.0,506.0,516.0,501.0,507.0
509.0,501.0,516.0,504.0,511.0
519.0,503.0,521.0,507.0,511.0
518.0,507.0,522.0,511.0,508.0
525.0,507.0,522.0,515.0,506.0
525.0,512.0,525.0,521.0,510.0
527.0,513.0,525.0,528.0,513.0
525.0,517.0,528.0,531.0,517.0
515.0,510.0,517.0,527.0,520.0
505.0,508.0,510.0,522.0,525.0
504.0,505.0,505.0,518.0,522.0
495.0,501.0,500.0,512.0,520.0
493.0,503.0,501.0,508.0,516.0
499.0,504.0,504.0,506.0,515.0
501.0,506.0,509.0,504.0,510.0
506.0,504.0,511.0,503.0,507.0
518.0,506.0,516.0,506.0,502.0
524.0,505.0,516.0,508.0,505.0
520.0,503.0,517.0,504.0,506.0
521.0,503.0,519.0,508.0,507.0
525.0,506.0,521.0,513.0,505.0
531.0,510.0,524.0,519.0,513.0
530.0,517.0,528.0,525.0,509.0
527.0,514.0,523.0,527.0,511.0
528.0,514.0,521.0,529.0,513.0
521.0,512.0,514.0,526.0,516.0
513.0,508.0,509.0,517.0,523.0
498.0,503.0,503.0,513.0,525.0
489.0,502.0,503.0,509.0,525.0
502.0,504.0,504.0,509.0,515.0
505.0,504.0,507.0,506.0,508.0
500.0,502.0,509.0,504.0,508.0
504.0,505.0,514.0,507.0,507.0
506.0,502.0,518.0,501.0,508.0
505.0,502.0,516.0,500.0,511.0
508.0,501.0,517.0,503.0,514.0
510.0,504.0,520.0,508.0,514.0
517.0,503.0,522.0,515.0,513.0
529.0,507.0,522.0,525.0,511.0
520.0,511.0,525.0,527.0,513.0
518.0,513.0,522.0,530.0,515.0
516.0,515.0,521.0,531.0,517.0
520.0,510.0,514.0,523.0,519.0
507.0,508.0,509.0,517.0,517.0
496.0,503.0,503.0,512.0,519.0
497.0,506.0,501.0,509.0,514.0
506.0,503.0,505.0,508.0,509.0
514.0,502.0,506.0,502.0,513.0
530.0,504.0,510.0,501.0,521.0
527.0,507.0,517.0,504.0,518.0
519.0,505.0,518.0,504.0,509.0
514.0,502.0,516.0,506.0,511.0
520.0,505.0,522.0,509.0,497.0
523.0,506.0,523.0,513.0,501.0
524.0,512.0,524.0,518.0,507.0
528.0,511.0,524.0,526.0,509.0
531.0,519.0,530.0,533.0,509.0
531.0,514.0,522.0,530.0,514.0
528.0,512.0,517.0,531.0,515.0
520.0,513.0,516.0,525.0,519.0
508.0,507.0,509.0,517.0,524.0
502.0,502.0,500.0,510.0,521.0
501.0,501.0,502.0,506.0,519.0
502.0,502.0,503.0,501.0,513.0
506.0,504.0,509.0,497.0,513.0
503.0,502.0,509.0,499.0,507.0
509.0,504.0,514.0,501.0,505.0
511.0,503.0,515.0,498.0,508.0
512.0,502.0,517.0,500.0,511.0
518.0,505.0,522.0,505.0,513.0
521.0,506.0,523.0,512.0,512.0
523.0,508.0,526.0,514.0,510.0
527.0,513.0,525.0,523.0,512.0
526.0,515.0,525.0,527.0,516.0
525.0,514.0,521.0,525.0,519.0
518.0,513.0,516.0,525.0,519.0
512.0,508.0,510.0,521.0,521.0
502.0,500.0,505.0,517.0,526.0
496.0,498.0,503.0,516.0,524.0
498.0,502.0,502.0,509.0,518.0
501.0,502.0,501.0,511.0,512.0
502.0,501.0,511.0,506.0,510.0
505.0,505.0,515.0,506.0,506.0
508.0,506.0,514.0,506.0,506.0
510.0,504.0,514.0,507.0,508.0
510.0,505.0,519.0,503.0,509.0
516.0,505.0,519.0,508.0,517.0
520.0,507.0,522.0,513.0,518.0
524.0,508.0,523.0,515.0,512.0
530.0,516.0,528.0,521.0,513.0
527.0,513.0,522.0,521.0,520.0
525.0,517.0,522.0,529.0,522.0
515.0,510.0,513.0,521.0,520.0
510.0,512.0,512.0,515.0,521.0
504.0,504.0,502.0,503.0,531.0
497.0,507.0,502.0,493.0,527.0
496.0,502.0,501.0,491.0,521.0
500.0,507.0,506.0,500.0,512.0
502.0,502.0,507.0,497.0,507.0
509.0,504.0,513.0,502.0,503.0
510.0,504.0,518.0,510.0,500.0
508.0,502.0,518.0,509.0,504.0
516.0,502.0,518.0,508.0,508.0
517.0,505.0,520.0,512.0,511.0
521.0,509.0,522.0,517.0,512.0
527.0,512.0,525.0,525.0,512.0
530.0,515.0,525.0,531.0,511.0
527.0,516.0,521.0,530.0,516.0
521.0,513.0,515.0,527.0,518.0
514.0,510.0,510.0,524.0,519.0
504.0,501.0,500.0,518.0,527.0
497.0,505.0,504.0,515.0,526.0
496.0,504.0,500.0,510.0,524.0
495.0,502.0,503.0,506.0,519.0
504.0,504.0,508.0,506.0,514.0
498.0,504.0,512.0,505.0,506.0
504.0,503.0,517.0,506.0,506.0
503.0,507.0,520.0,509.0,508.0
511.0,501.0,516.0,505.0,507.0
515.0,502.0,519.0,509.0,509.0
513.0,505.0,522.0,514.0,513.0
525.0,509.0,523.0,519.0,510.0
530.0,514.0,525.0,526.0,513.0
536.0,513.0,522.0,528.0,511.0
534.0,516.0,521.0,529.0,509.0
526.0,513.0,516.0,530.0,517.0
515.0,509.0,511.0,526.0,522.0
503.0,503.0,502.0,515.0,526.0
499.0,502.0,499.0,511.0,525.0
499.0,503.0,503.0,508.0,521.0
502.0,503.0,507.0,505.0,517.0
503.0,503.0,508.0,503.0,510.0
506.0,504.0,513.0,504.0,507.0
510.0,505.0,518.0,505.0,507.0
508.0,502.0,515.0,502.0,508.0
511.0,502.0,518.0,504.0,504.0
516.0,505.0,520.0,508.0,509.0
520.0,506.0,521.0,513.0,512.0
525.0,510.0,525.0,521.0,512.0
530.0,512.0,524.0,524.0,513.0
532.0,515.0,523.0,530.0,514.0
529.0,515.0,519.0,530.0,514.0
521.0,512.0,513.0,525.0,518.0
506.0,506.0,507.0,520.0,523.0
494.0,502.0,500.0,513.0,527.0
488.0,503.0,502.0,507.0,521.0
489.0,500.0,501.0,505.0,517.0
493.0,503.0,507.0,501.0,516.0
499.0,501.0,508.0,502.0,517.0
511.0,501.0,511.0,506.0,511.0
521.0,507.0,517.0,499.0,513.0
523.0,503.0,515.0,500.0,511.0
522.0,504.0,519.0,504.0,511.0
520.0,503.0,519.0,511.0,511.0
525.0,507.0,520.0,516.0,513.0
534.0,514.0,524.0,522.0,507.0
532.0,511.0,521.0,528.0,506.0
532.0,515.0,521.0,530.0,511.0
525.0,515.0,516.0,533.0,516.0
517.0,512.0,512.0,527.0,520.0
506.0,505.0,504.0,522.0,525.0
501.0,503.0,501.0,515.0,530.0
492.0,499.0,504.0,509.0,522.0
491.0,504.0,502.0,504.0,518.0
493.0,503.0,506.0,504.0,510.0
496.0,503.0,509.0,508.0,501.0
497.0,505.0,515.0,503.0,498.0
504.0,504.0,517.0,503.0,503.0
513.0,507.0,516.0,504.0,508.0
521.0,502.0,517.0,506.0,515.0
518.0,506.0,520.0,515.0,511.0
523.0,511.0,524.0,521.0,510.0
531.0,514.0,525.0,526.0,508.0
525.0,514.0,522.0,527.0,512.0
513.0,515.0,520.0,527.0,512.0
508.0,515.0,513.0,521.0,519.0
499.0,508.0,507.0,514.0,524.0
506.0,506.0,500.0,514.0,527.0
521.0,501.0,501.0,519.0,520.0
530.0,508.0,508.0,514.0,512.0
526.0,507.0,506.0,510.0,508.0
519.0,505.0,511.0,505.0,505.0
519.0,505.0,514.0,506.0,504.0
519.0,506.0,517.0,509.0,505.0
519.0,504.0,518.0,502.0,508.0
523.0,504.0,520.0,502.0,508.0
523.0,506.0,521.0,504.0,508.0
528.0,507.0,521.0,509.0,513.0
527.0,511.0,523.0,515.0,512.0
532.0,514.0,524.0,522.0,512.0
532.0,512.0,519.0,525.0,512.0
528.0,512.0,517.0,532.0,523.0
520.0,511.0,512.0,524.0,517.0
512.0,507.0,506.0,523.0,517.0
503.0,503.0,501.0,519.0,516.0
498.0,501.0,500.0,509.0,515.0
498.0,502.0,502.0,508.0,509.0
500.0,502.0,505.0,506.0,508.0
498.0,501.0,507.0,502.0,510.0
506.0,504.0,514.0,505.0,513.0
506.0,503.0,516.0,503.0,521.0
501.0,499.0,513.0,497.0,532.0
513.0,505.0,516.0,501.0,522.0
517.0,504.0,519.0,510.0,502.0
527.0,509.0,522.0,518.0,493.0
525.0,513.0,525.0,525.0,500.0
536.0,515.0,523.0,528.0,504.0
533.0,516.0,521.0,530.0,510.0
528.0,514.0,517.0,529.0,516.0
518.0,511.0,510.0,529.0,514.0
510.0,505.0,503.0,519.0,519.0
500.0,503.0,500.0,511.0,520.0
499.0,503.0,501.0,509.0,517.0
500.0,504.0,504.0,505.0,512.0
503.0,502.0,506.0,503.0,505.0
505.0,505.0,508.0,507.0,505.0
510.0,504.0,517.0,503.0,502.0
510.0,503.0,515.0,502.0,504.0
513.0,501.0,515.0,501.0,507.0
514.0,504.0,518.0,506.0,507.0
519.0,506.0,522.0,513.0,508.0
523.0,509.0,522.0,519.0,510.0
526.0,512.0,526.0,523.0,512.0
528.0,514.0,522.0,529.0,521.0
528.0,521.0,525.0,534.0,521.0
520.0,513.0,514.0,528.0,521.0
513.0,508.0,509.0,525.0,523.0
499.0,507.0,501.0,516.0,521.0
493.0,502.0,499.0,510.0,522.0
494.0,502.0,498.0,511.0,519.0
498.0,502.0,507.0,505.0,511.0
499.0,501.0,505.0,503.0,506.0
506.0,505.0,513.0,505.0,504.0
512.0,504.0,515.0,504.0,502.0
510.0,502.0,515.0,503.0,506.0
514.0,502.0,518.0,506.0,510.0
517.0,504.0,518.0,511.0,510.0
521.0,506.0,519.0,518.0,516.0
526.0,511.0,525.0,522.0,511.0
522.0,509.0,524.0,527.0,509.0
521.0,513.0,520.0,528.0,514.0
520.0,515.0,518.0,531.0,507.0
512.0,511.0,509.0,526.0,513.0
503.0,508.0,505.0,528.0,517.0
499.0,508.0,501.0,515.0,522.0
503.0,504.0,500.0,507.0,525.0
503.0,503.0,501.0,505.0,511.0
504.0,502.0,504.0,505.0,508.0
504.0,502.0,508.0,505.0,510.0
506.0,507.0,517.0,503.0,503.0
513.0,505.0,516.0,504.0,505.0
516.0,501.0,515.0,503.0,512.0
518.0,505.0,519.0,507.0,509.0
524.0,508.0,522.0,509.0,513.0
525.0,510.0,522.0,514.0,515.0
529.0,511.0,522.0,521.0,507.0
529.0,514.0,523.0,528.0,510.0
527.0,518.0,524.0,535.0,513.0
519.0,513.0,515.0,526.0,518.0
508.0,511.0,510.0,525.0,521.0
497.0,509.0,506.0,519.0,526.0
493.0,505.0,500.0,513.0,524.0
491.0,504.0,498.0,509.0,519.0
494.0,502.0,502.0,504.0,514.0
501.0,503.0,506.0,503.0,510.0
511.0,504.0,510.0,502.0,505.0
514.0,505.0,515.0,503.0,503.0
511.0,503.0,516.0,502.0,505.0
510.0,502.0,515.0,501.0,511.0
528.0,503.0,517.0,504.0,513.0
529.0,507.0,520.0,515.0,516.0
530.0,511.0,523.0,519.0,513.0
533.0,513.0,526.0,525.0,513.0
532.0,514.0,523.0,530.0,514.0
528.0,517.0,523.0,533.0,515.0
522.0,513.0,515.0,529.0,520.0
514.0,508.0,507.0,524.0,516.0
503.0,503.0,500.0,515.0,521.0
500.0,502.0,498.0,510.0,522.0
498.0,506.0,502.0,506.0,524.0
500.0,504.0,504.0,505.0,515.0
503.0,503.0,506.0,504.0,510.0
508.0,510.0,513.0,505.0,503.0
510.0,505.0,519.0,504.0,503.0
510.0,503.0,517.0,502.0,507.0
510.0,503.0,515.0,505.0,509.0
513.0,504.0,518.0,505.0,512.0
516.0,506.0,520.0,512.0,513.0
523.0,511.0,525.0,521.0,512.0
529.0,513.0,523.0,526.0,512.0
523.0,516.0,521.0,529.0,519.0
522.0,516.0,521.0,527.0,516.0
516.0,510.0,510.0,530.0,521.0
513.0,503.0,509.0,522.0,522.0
505.0,503.0,501.0,514.0,526.0
497.0,501.0,498.0,508.0,524.0
493.0,501.0,501.0,505.0,524.0
502.0,505.0,505.0,502.0,523.0
510.0,504.0,509.0,496.0,520.0
505.0,506.0,515.0,501.0,519.0
508.0,508.0,518.0,501.0,522.0
512.0,504.0,517.0,501.0,514.0
508.0,505.0,523.0,504.0,505.0
515.0,505.0,521.0,508.0,499.0
510.0,505.0,518.0,516.0,503.0
526.0,512.0,524.0,525.0,499.0
538.0,517.0,525.0,531.0,505.0
536.0,519.0,524.0,535.0,508.0
528.0,514.0,518.0,532.0,507.0
525.0,513.0,513.0,527.0,518.0
518.0,505.0,503.0,519.0,523.0
508.0,503.0,500.0,510.0,529.0
507.0,503.0,501.0,507.0,519.0
503.0,503.0,505.0,509.0,506.0
508.0,506.0,511.0,507.0,503.0
508.0,504.0,509.0,502.0,499.0
511.0,504.0,515.0,503.0,500.0
513.0,507.0,522.0,503.0,504.0
512.0,498.0,520.0,501.0,507.0
516.0,503.0,518.0,504.0,507.0
521.0,506.0,521.0,509.0,506.0
525.0,510.0,523.0,517.0,508.0
530.0,513.0,524.0,523.0,512.0
531.0,515.0,524.0,530.0,513.0
526.0,515.0,519.0,529.0,513.0
516.0,511.0,514.0,531.0,518.0
510.0,510.0,510.0,525.0,522.0
501.0,504.0,502.0,519.0,525.0
494.0,503.0,502.0,510.0,522.0
495.0,502.0,501.0,506.0,517.0
506.0,502.0,505.0,504.0,512.0
504.0,504.0,509.0,501.0,511.0
502.0,503.0,512.0,503.0,503.0
508.0,503.0,513.0,503.0,504.0
503.0,502.0,516.0,502.0,512.0
503.0,503.0,519.0,504.0,512.0
515.0,504.0,521.0,510.0,510.0
524.0,508.0,523.0,514.0,513.0
529.0,511.0,525.0,521.0,510.0
531.0,515.0,526.0,528.0,513.0
525.0,511.0,521.0,532.0,521.0
530.0,517.0,519.0,531.0,516.0
521.0,512.0,513.0,527.0,517.0
515.0,507.0,507.0,522.0,523.0
496.0,503.0,501.0,514.0,528.0
502.0,504.0,501.0,510.0,519.0
506.0,504.0,504.0,507.0,514.0
506.0,503.0,507.0,505.0,509.0
502.0,505.0,512.0,502.0,509.0
511.0,506.0,516.0,504.0,504.0
514.0,506.0,518.0,504.0,504.0
513.0,503.0,517.0,503.0,508.0
515.0,506.0,522.0,506.0,513.0
515.0,506.0,522.0,512.0,515.0
516.0,508.0,524.0,516.0,516.0
518.0,506.0,525.0,524.0,513.0
519.0,514.0,526.0,528.0,516.0
516.0,514.0,521.0,530.0,510.0
510.0,513.0,518.0,530.0,517.0
511.0,510.0,511.0,525.0,521.0
514.0,503.0,504.0,517.0,528.0
511.0,503.0,500.0,511.0,525.0
510.0,502.0,503.0,508.0,517.0
511.0,505.0,505.0,507.0,514.0
509.0,503.0,508.0,505.0,508.0
516.0,503.0,511.0,503.0,502.0
521.0,505.0,516.0,504.0,499.0
517.0,503.0,517.0,503.0,505.0
513.0,501.0,516.0,505.0,507.0
514.0,501.0,518.0,505.0,509.0
522.0,506.0,521.0,511.0,509.0
523.0,510.0,525.0,519.0,513.0
530.0,512.0,523.0,523.0,510.0
537.0,515.0,523.0,527.0,513.0
533.0,516.0,521.0,530.0,517.0
522.0,513.0,514.0,526.0,520.0
518.0,514.0,514.0,523.0,521.0
507.0,504.0,501.0,519.0,526.0
504.0,502.0,498.0,508.0,522.0
499.0,502.0,502.0,506.0,519.0
503.0,503.0,506.0,506.0,513.0
504.0,502.0,507.0,500.0,511.0
507.0,505.0,514.0,503.0,510.0
511.0,505.0,518.0,505.0,508.0
510.0,501.0,521.0,503.0,511.0
511.0,502.0,517.0,504.0,515.0
512.0,504.0,520.0,508.0,513.0
517.0,505.0,520.0,512.0,513.0
520.0,509.0,523.0,519.0,512.0
527.0,514.0,524.0,527.0,510.0
526.0,513.0,520.0,528.0,510.0
525.0,514.0,523.0,529.0,512.0
519.0,512.0,515.0,527.0,519.0
519.0,510.0,509.0,523.0,521.0
507.0,504.0,504.0,514.0,523.0
498.0,501.0,500.0,508.0,518.0
499.0,502.0,502.0,506.0,514.0
503.0,503.0,510.0,504.0,508.0
503.0,501.0,509.0,503.0,506.0
510.0,506.0,516.0,504.0,509.0
511.0,504.0,517.0,503.0,511.0
506.0,501.0,514.0,499.0,514.0
513.0,497.0,514.0,507.0,522.0
517.0,504.0,520.0,510.0,514.0
521.0,507.0,521.0,513.0,503.0
527.0,515.0,528.0,529.0,500.0
528.0,514.0,525.0,530.0,501.0
526.0,513.0,520.0,534.0,503.0
522.0,513.0,517.0,530.0,511.0
517.0,512.0,513.0,527.0,515.0
503.0,506.0,503.0,520.0,522.0
499.0,501.0,497.0,516.0,519.0
505.0,504.0,502.0,511.0,515.0
502.0,501.0,502.0,507.0,510.0
503.0,503.0,511.0,505.0,505.0
505.0,502.0,514.0,504.0,505.0
514.0,504.0,516.0,504.0,504.0
512.0,503.0,516.0,506.0,501.0
510.0,502.0,516.0,501.0,512.0
518.0,503.0,519.0,507.0,508.0
519.0,503.0,518.0,513.0,508.0
523.0,508.0,522.0,516.0,506.0
529.0,513.0,525.0,525.0,511.0
529.0,511.0,520.0,528.0,513.0
528.0,521.0,525.0,531.0,517.0
519.0,513.0,515.0,528.0,520.0
514.0,508.0,508.0,524.0,521.0
500.0,503.0,500.0,515.0,525.0
491.0,501.0,498.0,510.0,523.0
498.0,503.0,502.0,509.0,516.0
495.0,502.0,504.0,501.0,511.0
496.0,502.0,507.0,503.0,514.0
504.0,508.0,513.0,505.0,503.0
517.0,504.0,515.0,500.0,502.0
512.0,507.0,522.0,504.0,507.0
507.0,501.0,518.0,502.0,507.0
519.0,503.0,519.0,507.0,508.0
521.0,505.0,520.0,513.0,513.0
528.0,511.0,523.0,520.0,511.0
526.0,514.0,524.0,526.0,513.0
523.0,513.0,521.0,529.0,518.0
518.0,513.0,518.0,525.0,517.0
512.0,510.0,511.0,524.0,517.0
516.0,507.0,505.0,519.0,521.0
499.0,503.0,501.0,515.0,530.0
492.0,501.0,500.0,508.0,530.0
499.0,501.0,501.0,505.0,520.0
506.0,503.0,502.0,506.0,513.0
502.0,501.0,508.0,503.0,507.0
501.0,501.0,512.0,503.0,499.0
499.0,502.0,514.0,503.0,499.0
503.0,501.0,516.0,504.0,509.0
523.0,503.0,519.0,507.0,505.0
531.0,504.0,520.0,511.0,502.0
526.0,505.0,520.0,514.0,512.0
539.0,514.0,525.0,524.0,511.0
538.0,514.0,524.0,531.0,509.0
533.0,516.0,523.0,533.0,512.0
525.0,513.0,517.0,526.0,524.0
515.0,512.0,513.0,527.0,522.0
504.0,505.0,503.0,519.0,528.0
494.0,502.0,499.0,511.0,523.0
487.0,501.0,500.0,507.0,521.0
491.0,498.0,507.0,506.0,515.0
505.0,501.0,505.0,503.0,509.0
508.0,504.0,506.0,503.0,512.0
528.0,506.0,516.0,505.0,505.0
524.0,506.0,516.0,508.0,504.0
519.0,503.0,516.0,502.0,505.0
529.0,504.0,519.0,508.0,509.0
530.0,506.0,522.0,513.0,514.0
529.0,510.0,524.0,519.0,516.0
524.0,511.0,523.0,525.0,516.0
531.0,516.0,524.0,530.0,512.0
527.0,515.0,520.0,530.0,510.0
517.0,516.0,514.0,527.0,517.0
514.0,509.0,509.0,523.0,519.0
499.0,499.0,496.0,514.0,524.0
508.0,503.0,499.0,510.0,526.0
513.0,504.0,503.0,508.0,524.0
508.0,507.0,504.0,505.0,517.0
503.0,503.0,506.0,502.0,515.0
510.0,504.0,512.0,506.0,500.0
512.0,504.0,514.0,506.0,501.0
514.0,504.0,516.0,507.0,506.0
516.0,503.0,517.0,503.0,507.0
517.0,504.0,518.0,507.0,507.0
522.0,507.0,521.0,515.0,506.0
527.0,512.0,524.0,521.0,507.0
530.0,517.0,524.0,526.0,512.0
527.0,514.0,520.0,529.0,513.0
527.0,514.0,521.0,531.0,517.0
518.0,512.0,512.0,526.0,521.0
505.0,508.0,506.0,520.0,525.0
492.0,502.0,499.0,513.0,524.0
488.0,501.0,499.0,509.0,522.0
489.0,505.0,502.0,507.0,520.0
493.0,502.0,507.0,505.0,515.0
492.0,501.0,509.0,500.0,515.0
504.0,501.0,513.0,502.0,515.0
525.0,506.0,516.0,503.0,507.0
517.0,504.0,515.0,506.0,503.0
523.0,505.0,519.0,507.0,500.0
528.0,509.0,522.0,511.0,504.0
528.0,509.0,522.0,517.0,509.0
527.0,511.0,523.0,522.0,510.0
529.0,514.0,524.0,528.0,509.0
529.0,516.0,522.0,532.0,508.0
521.0,513.0,516.0,528.0,511.0
515.0,511.0,512.0,525.0,514.0
502.0,503.0,500.0,523.0,524.0
503.0,503.0,502.0,513.0,522.0
503.0,502.0,499.0,511.0,519.0
497.0,503.0,504.0,507.0,513.0
501.0,502.0,505.0,504.0,513.0
503.0,504.0,513.0,504.0,513.0
504.0,504.0,515.0,504.0,504.0
503.0,503.0,516.0,502.0,507.0
515.0,503.0,517.0,504.0,510.0
518.0,504.0,519.0,511.0,510.0
517.0,507.0,519.0,510.0,513.0
527.0,508.0,523.0,519.0,508.0
537.0,513.0,525.0,526.0,512.0
533.0,513.0,522.0,528.0,512.0
532.0,517.0,521.0,531.0,516.0
521.0,513.0,514.0,527.0,521.0
514.0,509.0,509.0,523.0,525.0
502.0,504.0,501.0,514.0,529.0
495.0,502.0,500.0,509.0,527.0
497.0,502.0,498.0,507.0,518.0
497.0,502.0,504.0,505.0,511.0
500.0,502.0,507.0,506.0,511.0
503.0,503.0,513.0,505.0,504.0
510.0,504.0,516.0,505.0,497.0
507.0,502.0,516.0,503.0,502.0
508.0,503.0,517.0,503.0,506.0
511.0,503.0,521.0,513.0,510.0
518.0,508.0,522.0,516.0,512.0
525.0,512.0,520.0,522.0,508.0
532.0,516.0,526.0,530.0,507.0
527.0,515.0,521.0,530.0,511.0
526.0,516.0,518.0,531.0,516.0
515.0,514.0,515.0,527.0,521.0
521.0,511.0,509.0,522.0,522.0
508.0,508.0,504.0,512.0,524.0
499.0,502.0,498.0,511.0,518.0
497.0,503.0,500.0,508.0,515.0
502.0,503.0,505.0,502.0,516.0
498.0,503.0,508.0,501.0,514.0
504.0,504.0,519.0,505.0,509.0
502.0,502.0,516.0,503.0,510.0
501.0,502.0,517.0,504.0,509.0
510.0,504.0,519.0,505.0,505.0
525.0,507.0,522.0,512.0,501.0
525.0,507.0,521.0,521.0,512.0
527.0,513.0,525.0,523.0,513.0
530.0,515.0,524.0,527.0,516.0
529.0,515.0,520.0,529.0,520.0
532.0,515.0,519.0,530.0,514.0
521.0,513.0,515.0,527.0,515.0
509.0,506.0,504.0,517.0,524.0
503.0,502.0,500.0,510.0,523.0
496.0,502.0,501.0,507.0,521.0
496.0,504.0,504.0,505.0,515.0
507.0,500.0,507.0,504.0,507.0
514.0,505.0,512.0,503.0,508.0
512.0,503.0,515.0,502.0,502.0
510.0,503.0,517.0,505.0,506.0
507.0,504.0,516.0,501.0,507.0
511.0,502.0,520.0,505.0,508.0
516.0,506.0,522.0,510.0,512.0
522.0,509.0,524.0,519.0,506.0
527.0,514.0,525.0,523.0,511.0
535.0,516.0,525.0,527.0,511.0
534.0,515.0,521.0,530.0,514.0
519.0,512.0,514.0,526.0,520.0
509.0,508.0,509.0,521.0,524.0
496.0,502.0,500.0,514.0,528.0
492.0,500.0,498.0,506.0,519.0
495.0,502.0,502.0,508.0,504.0
498.0,502.0,505.0,506.0,498.0
507.0,503.0,508.0,504.0,491.0
524.0,506.0,514.0,505.0,485.0
522.0,505.0,516.0,504.0,490.0
513.0,503.0,517.0,503.0,514.0
509.0,501.0,518.0,503.0,528.0
515.0,503.0,519.0,507.0,519.0
519.0,507.0,519.0,516.0,521.0
524.0,511.0,523.0,520.0,521.0
529.0,514.0,526.0,527.0,524.0
537.0,515.0,523.0,529.0,524.0
531.0,517.0,522.0,532.0,525.0
519.0,511.0,512.0,525.0,524.0
514.0,508.0,507.0,520.0,528.0
502.0,502.0,500.0,512.0,525.0
494.0,501.0,499.0,507.0,518.0
494.0,501.0,503.0,506.0,515.0
499.0,507.0,509.0,505.0,515.0
502.0,503.0,511.0,501.0,519.0
506.0,500.0,518.0,502.0,515.0
511.0,499.0,517.0,505.0,507.0
514.0,504.0,520.0,501.0,504.0
512.0,507.0,519.0,506.0,508.0
518.0,506.0,522.0,510.0,509.0
522.0,509.0,522.0,522.0,504.0
523.0,511.0,520.0,524.0,506.0
532.0,515.0,526.0,530.0,507.0
525.0,514.0,521.0,530.0,509.0
519.0,515.0,517.0,527.0,521.0
522.0,513.0,514.0,526.0,516.0
513.0,508.0,506.0,521.0,523.0
502.0,505.0,502.0,514.0,523.0
499.0,504.0,503.0,510.0,518.0
498.0,503.0,506.0,508.0,514.0
497.0,502.0,507.0,503.0,508.0
500.0,501.0,510.0,499.0,509.0
503.0,502.0,514.0,501.0,504.0
512.0,503.0,516.0,503.0,503.0
515.0,501.0,517.0,502.0,508.0
519.0,504.0,521.0,507.0,511.0
529.0,508.0,522.0,511.0,512.0
526.0,510.0,524.0,518.0,512.0
528.0,514.0,525.0,525.0,511.0
529.0,515.0,524.0,530.0,512.0
528.0,514.0,520.0,531.0,510.0
519.0,513.0,515.0,529.0,519.0
515.0,509.0,510.0,520.0,520.0
502.0,505.0,501.0,515.0,525.0
499.0,500.0,498.0,510.0,521.0
495.0,500.0,497.0,506.0,518.0
492.0,502.0,505.0,506.0,516.0
498.0,504.0,508.0,508.0,511.0
504.0,504.0,513.0,502.0,510.0
504.0,503.0,516.0,507.0,503.0
506.0,503.0,520.0,504.0,508.0
505.0,502.0,519.0,506.0,511.0
520.0,503.0,519.0,506.0,510.0
536.0,509.0,523.0,516.0,513.0
533.0,511.0,521.0,521.0,511.0
535.0,513.0,524.0,529.0,516.0
530.0,514.0,521.0,528.0,516.0
527.0,515.0,519.0,530.0,520.0
520.0,513.0,514.0,527.0,525.0
514.0,512.0,508.0,523.0,522.0
501.0,505.0,504.0,513.0,527.0
496.0,503.0,501.0,512.0,529.0
495.0,502.0,502.0,506.0,522.0
499.0,502.0,506.0,503.0,510.0
501.0,500.0,512.0,505.0,500.0
506.0,504.0,515.0,505.0,499.0
511.0,504.0,516.0,503.0,502.0
514.0,505.0,517.0,501.0,506.0
522.0,505.0,519.0,505.0,506.0
523.0,507.0,522.0,509.0,508.0
524.0,510.0,526.0,515.0,508.0
527.0,512.0,523.0,524.0,508.0
531.0,515.0,525.0,530.0,511.0
525.0,513.0,519.0,529.0,515.0
525.0,515.0,517.0,530.0,519.0
512.0,510.0,511.0,526.0,519.0
500.0,504.0,502.0,518.0,526.0
492.0,501.0,499.0,511.0,524.0
498.0,498.0,505.0,509.0,519.0
501.0,503.0,505.0,505.0,515.0
498.0,505.0,506.0,503.0,508.0
499.0,502.0,509.0,502.0,506.0
508.0,502.0,520.0,504.0,504.0
508.0,505.0,517.0,503.0,504.0
506.0,504.0,517.0,504.0,508.0
510.0,508.0,522.0,508.0,512.0
527.0,508.0,522.0,513.0,512.0
528.0,511.0,524.0,520.0,510.0
540.0,517.0,526.0,529.0,513.0
535.0,517.0,524.0,530.0,513.0
528.0,515.0,520.0,530.0,516.0
520.0,513.0,515.0,528.0,525.0
518.0,515.0,514.0,526.0,523.0
505.0,505.0,502.0,517.0,529.0
501.0,503.0,500.0,512.0,523.0
501.0,505.0,501.0,507.0,514.0
506.0,505.0,505.0,508.0,509.0
503.0,502.0,506.0,503.0,508.0
512.0,506.0,515.0,506.0,505.0
513.0,505.0,516.0,504.0,502.0
510.0,504.0,518.0,504.0,508.0
513.0,503.0,518.0,509.0,513.0
521.0,504.0,522.0,509.0,516.0
521.0,506.0,522.0,515.0,516.0
525.0,511.0,524.0,521.0,515.0
528.0,516.0,524.0,527.0,508.0
525.0,512.0,520.0,530.0,510.0
523.0,513.0,518.0,530.0,518.0
517.0,512.0,514.0,526.0,525.0
506.0,509.0,509.0,522.0,528.0
500.0,506.0,502.0,516.0,522.0
497.0,503.0,501.0,510.0,520.0
495.0,498.0,506.0,510.0,514.0
497.0,502.0,506.0,505.0,505.0
499.0,503.0,508.0,507.0,506.0
508.0,504.0,514.0,503.0,505.0
515.0,503.0,517.0,503.0,506.0
514.0,503.0,518.0,504.0,510.0
517.0,502.0,523.0,508.0,512.0
523.0,506.0,523.0,512.0,514.0
523.0,508.0,522.0,515.0,519.0
525.0,511.0,524.0,523.0,514.0
525.0,513.0,524.0,529.0,515.0
525.0,515.0,522.0,532.0,518.0
521.0,512.0,517.0,529.0,520.0
512.0,509.0,511.0,524.0,522.0
499.0,503.0,502.0,521.0,525.0
493.0,504.0,503.0,511.0,522.0
498.0,502.0,501.0,509.0,519.0
507.0,503.0,505.0,507.0,515.0
505.0,503.0,507.0,504.0,509.0
498.0,500.0,508.0,500.0,508.0
516.0,505.0,514.0,508.0,510.0
518.0,503.0,516.0,503.0,512.0
513.0,501.0,516.0,503.0,509.0
517.0,505.0,523.0,506.0,508.0
522.0,506.0,522.0,513.0,511.0
527.0,509.0,524.0,519.0,502.0
533.0,512.0,524.0,523.0,506.0
528.0,512.0,521.0,529.0,506.0
526.0,514.0,520.0,530.0,511.0
520.0,512.0,514.0,529.0,520.0
518.0,510.0,510.0,525.0,519.0
503.0,504.0,501.0,519.0,526.0
499.0,501.0,501.0,510.0,522.0
499.0,502.0,502.0,508.0,515.0
502.0,502.0,504.0,504.0,508.0
501.0,503.0,507.0,505.0,508.0
508.0,506.0,515.0,503.0,505.0
508.0,504.0,516.0,501.0,504.0
505.0,502.0,516.0,501.0,506.0
510.0,503.0,518.0,503.0,511.0
515.0,504.0,520.0,508.0,513.0
514.0,505.0,520.0,513.0,514.0
520.0,506.0,525.0,524.0,513.0
531.0,514.0,526.0,529.0,508.0
527.0,513.0,521.0,533.0,513.0
518.0,515.0,518.0,529.0,516.0
509.0,512.0,512.0,525.0,522.0
505.0,509.0,508.0,519.0,528.0
495.0,505.0,502.0,511.0,533.0
492.0,502.0,501.0,508.0,528.0
501.0,503.0,502.0,506.0,514.0
516.0,504.0,507.0,505.0,505.0
514.0,508.0,511.0,504.0,506.0
516.0,504.0,515.0,503.0,503.0
516.0,504.0,517.0,501.0,508.0
513.0,503.0,518.0,501.0,512.0
519.0,504.0,515.0,508.0,514.0
520.0,505.0,521.0,514.0,509.0
519.0,506.0,522.0,516.0,504.0
524.0,514.0,526.0,524.0,506.0
522.0,512.0,523.0,528.0,509.0
522.0,514.0,520.0,531.0,514.0
520.0,513.0,515.0,530.0,517.0
509.0,511.0,512.0,528.0,522.0
513.0,503.0,499.0,522.0,526.0
510.0,504.0,500.0,516.0,524.0
511.0,505.0,503.0,509.0,520.0
503.0,504.0,505.0,506.0,517.0
504.0,503.0,506.0,503.0,513.0
508.0,503.0,511.0,504.0,506.0
521.0,507.0,518.0,506.0,497.0
517.0,505.0,518.0,504.0,502.0
516.0,502.0,519.0,506.0,507.0
520.0,503.0,519.0,505.0,509.0
525.0,506.0,522.0,512.0,511.0
529.0,511.0,525.0,519.0,511.0
528.0,515.0,525.0,524.0,509.0
530.0,515.0,521.0,533.0,513.0
529.0,518.0,522.0,532.0,516.0
520.0,512.0,514.0,526.0,518.0
517.0,509.0,509.0,523.0,521.0
499.0,502.0,500.0,515.0,530.0
494.0,496.0,498.0,508.0,526.0
501.0,503.0,503.0,507.0,514.0
503.0,503.0,504.0,504.0,508.0
504.0,503.0,508.0,509.0,492.0
511.0,506.0,514.0,510.0,489.0
512.0,505.0,521.0,506.0,491.0
509.0,503.0,517.0,500.0,510.0
507.0,505.0,521.0,503.0,520.0
508.0,504.0,520.0,508.0,518.0
518.0,506.0,520.0,512.0,512.0
522.0,510.0,524.0,522.0,516.0
526.0,514.0,525.0,528.0,515.0
533.0,514.0,521.0,530.0,515.0
527.0,520.0,523.0,535.0,529.0
517.0,512.0,511.0,531.0,535.0
513.0,509.0,509.0,522.0,531.0
506.0,503.0,502.0,515.0,527.0
498.0,504.0,499.0,513.0,521.0
496.0,501.0,502.0,506.0,511.0
495.0,501.0,505.0,505.0,508.0
498.0,502.0,512.0,503.0,506.0
504.0,503.0,513.0,501.0,500.0
506.0,505.0,517.0,506.0,503.0
509.0,502.0,516.0,503.0,504.0
515.0,503.0,518.0,506.0,509.0
527.0,507.0,522.0,515.0,509.0
532.0,508.0,522.0,517.0,509.0
529.0,511.0,523.0,525.0,512.0
529.0,514.0,524.0,528.0,514.0
531.0,516.0,522.0,531.0,518.0
521.0,514.0,514.0,529.0,522.0
517.0,511.0,509.0,526.0,528.0
503.0,505.0,500.0,519.0,531.0
505.0,504.0,500.0,513.0,524.0
503.0,503.0,501.0,508.0,513.0
502.0,507.0,505.0,507.0,512.0
503.0,503.0,507.0,503.0,510.0
506.0,504.0,512.0,503.0,508.0
511.0,504.0,515.0,503.0,505.0
511.0,503.0,517.0,502.0,502.0
511.0,501.0,516.0,501.0,507.0
514.0,503.0,520.0,506.0,510.0
518.0,505.0,521.0,511.0,512.0
523.0,508.0,520.0,522.0,509.0
528.0,514.0,526.0,525.0,510.0
527.0,512.0,522.0,527.0,514.0
523.0,516.0,522.0,531.0,515.0
512.0,511.0,514.0,527.0,517.0
505.0,510.0,512.0,524.0,520.0
496.0,503.0,502.0,515.0,526.0
492.0,502.0,501.0,510.0,530.0
494.0,503.0,503.0,507.0,524.0
509.0,504.0,506.0,505.0,514.0
508.0,503.0,509.0,503.0,516.0
507.0,504.0,515.0,507.0,508.0
512.0,503.0,517.0,503.0,507.0
510.0,503.0,519.0,501.0,509.0
510.0,504.0,520.0,504.0,510.0
526.0,505.0,523.0,507.0,511.0
526.0,507.0,521.0,513.0,510.0
527.0,510.0,523.0,521.0,509.0
528.0,514.0,524.0,526.0,510.0
521.0,514.0,521.0,531.0,520.0
518.0,513.0,519.0,528.0,515.0
514.0,512.0,513.0,526.0,519.0
509.0,508.0,512.0,522.0,523.0
508.0,502.0,500.0,513.0,524.0
507.0,501.0,497.0,509.0,520.0
508.0,504.0,503.0,510.0,513.0
505.0,503.0,508.0,507.0,509.0
503.0,502.0,510.0,502.0,515.0
510.0,504.0,514.0,504.0,508.0
512.0,505.0,518.0,506.0,514.0
509.0,504.0,518.0,506.0,514.0
516.0,503.0,515.0,504.0,512.0
520.0,506.0,522.0,509.0,513.0
521.0,508.0,522.0,516.0,511.0
527.0,512.0,523.0,527.0,513.0
530.0,512.0,521.0,529.0,515.0
535.0,519.0,525.0,531.0,522.0
524.0,512.0,514.0,532.0,525.0
518.0,512.0,513.0,528.0,520.0
506.0,505.0,503.0,519.0,523.0
499.0,501.0,500.0,515.0,516.0
495.0,502.0,501.0,508.0,517.0
502.0,502.0,505.0,507.0,514.0
505.0,502.0,507.0,503.0,506.0
503.0,502.0,511.0,501.0,507.0
509.0,506.0,517.0,505.0,502.0
510.0,504.0,518.0,508.0,503.0
515.0,503.0,518.0,503.0,505.0
514.0,502.0,518.0,507.0,509.0
516.0,505.0,521.0,513.0,511.0
520.0,511.0,524.0,519.0,514.0
521.0,508.0,522.0,529.0,509.0
522.0,514.0,524.0,530.0,516.0
523.0,514.0,520.0,530.0,517.0
523.0,513.0,515.0,528.0,521.0
524.0,511.0,517.0,526.0,522.0
505.0,502.0,502.0,519.0,529.0
503.0,502.0,501.0,509.0,522.0
506.0,502.0,502.0,506.0,513.0
503.0,503.0,505.0,504.0,514.0
504.0,502.0,509.0,503.0,508.0
508.0,506.0,512.0,502.0,504.0
511.0,505.0,517.0,500.0,507.0
513.0,504.0,518.0,503.0,509.0
511.0,503.0,518.0,508.0,511.0
518.0,503.0,520.0,507.0,512.0
518.0,507.0,521.0,518.0,511.0
521.0,511.0,525.0,522.0,509.0
529.0,512.0,524.0,528.0,506.0
526.0,512.0,521.0,529.0,512.0
517.0,513.0,518.0,530.0,515.0
517.0,511.0,513.0,526.0,516.0
510.0,507.0,506.0,524.0,521.0
497.0,501.0,500.0,510.0,529.0
492.0,500.0,499.0,507.0,527.0
502.0,502.0,501.0,505.0,517.0
513.0,504.0,506.0,505.0,514.0
510.0,503.0,507.0,503.0,513.0
513.0,506.0,516.0,504.0,511.0
511.0,500.0,521.0,503.0,509.0
515.0,502.0,515.0,503.0,506.0
514.0,507.0,519.0,507.0,506.0
519.0,506.0,521.0,512.0,504.0
521.0,507.0,522.0,517.0,508.0
525.0,511.0,523.0,522.0,509.0
528.0,513.0,522.0,533.0,513.0
518.0,513.0,519.0,530.0,514.0
519.0,512.0,515.0,528.0,518.0
509.0,512.0,513.0,528.0,525.0
496.0,505.0,503.0,518.0,527.0
490.0,502.0,499.0,512.0,522.0
492.0,501.0,500.0,509.0,515.0
502.0,503.0,503.0,505.0,512.0
509.0,503.0,506.0,502.0,502.0
514.0,502.0,508.0,501.0,495.0
525.0,505.0,518.0,506.0,488.0
523.0,506.0,517.0,504.0,490.0
519.0,504.0,519.0,504.0,495.0
521.0,504.0,519.0,508.0,495.0
520.0,505.0,521.0,513.0,517.0
523.0,508.0,522.0,518.0,527.0
534.0,512.0,524.0,526.0,522.0
532.0,513.0,522.0,529.0,528.0
528.0,514.0,520.0,531.0,531.0
517.0,511.0,512.0,525.0,528.0
514.0,511.0,511.0,526.0,518.0
503.0,507.0,505.0,514.0,525.0
497.0,501.0,499.0,510.0,526.0
499.0,502.0,501.0,507.0,515.0
503.0,503.0,505.0,506.0,510.0
507.0,502.0,507.0,502.0,507.0
509.0,503.0,512.0,508.0,506.0
510.0,505.0,517.0,506.0,505.0
509.0,502.0,516.0,501.0,508.0
513.0,504.0,519.0,503.0,511.0
517.0,505.0,520.0,508.0,513.0
520.0,505.0,519.0,512.0,514.0
528.0,511.0,524.0,521.0,512.0
529.0,512.0,523.0,526.0,510.0
526.0,512.0,521.0,528.0,513.0
525.0,514.0,518.0,529.0,514.0
517.0,515.0,512.0,526.0,520.0
509.0,509.0,505.0,526.0,525.0
501.0,507.0,506.0,513.0,527.0
495.0,506.0,500.0,508.0,518.0
496.0,504.0,500.0,504.0,515.0
499.0,502.0,506.0,504.0,513.0
502.0,503.0,511.0,503.0,511.0
507.0,505.0,515.0,504.0,510.0
508.0,503.0,516.0,502.0,506.0
506.0,502.0,516.0,498.0,506.0
514.0,505.0,522.0,505.0,501.0
516.0,505.0,520.0,510.0,504.0
518.0,507.0,521.0,516.0,509.0
523.0,512.0,524.0,524.0,509.0
537.0,513.0,523.0,527.0,506.0
531.0,514.0,520.0,531.0,511.0
522.0,512.0,514.0,533.0,519.0
511.0,506.0,510.0,529.0,524.0
501.0,504.0,503.0,517.0,537.0
492.0,498.0,499.0,509.0,535.0
495.0,500.0,500.0,507.0,513.0
492.0,500.0,502.0,504.0,506.0
498.0,507.0,511.0,504.0,504.0
510.0,503.0,510.0,502.0,502.0
523.0,505.0,515.0,504.0,496.0
519.0,503.0,517.0,501.0,503.0
515.0,502.0,517.0,501.0,507.0
516.0,506.0,522.0,504.0,509.0
524.0,504.0,520.0,510.0,509.0
525.0,506.0,519.0,520.0,510.0
531.0,513.0,525.0,526.0,506.0
535.0,514.0,522.0,528.0,506.0
528.0,514.0,519.0,530.0,509.0
518.0,511.0,513.0,526.0,516.0
516.0,510.0,512.0,526.0,513.0
499.0,505.0,501.0,514.0,523.0
494.0,501.0,499.0,509.0,524.0
494.0,502.0,503.0,508.0,528.0
494.0,504.0,505.0,507.0,517.0
502.0,502.0,508.0,499.0,510.0
509.0,503.0,508.0,507.0,502.0
507.0,503.0,516.0,505.0,503.0
512.0,503.0,517.0,505.0,505.0
513.0,503.0,519.0,505.0,507.0
517.0,504.0,520.0,509.0,510.0
521.0,505.0,521.0,513.0,513.0
526.0,508.0,521.0,523.0,514.0
527.0,513.0,524.0,525.0,515.0
527.0,514.0,522.0,529.0,520.0
521.0,512.0,517.0,527.0,521.0
515.0,512.0,514.0,527.0,526.0
513.0,509.0,508.0,521.0,526.0
500.0,501.0,500.0,512.0,524.0
504.0,502.0,499.0,508.0,517.0
502.0,503.0,502.0,507.0,515.0
503.0,506.0,506.0,505.0,510.0
503.0,502.0,509.0,501.0,509.0
505.0,504.0,515.0,503.0,505.0
510.0,509.0,518.0,504.0,507.0
510.0,504.0,519.0,505.0,509.0
513.0,504.0,521.0,506.0,514.0
520.0,506.0,523.0,511.0,515.0
525.0,507.0,523.0,516.0,514.0
532.0,512.0,525.0,523.0,514.0
528.0,517.0,525.0,527.0,519.0
533.0,514.0,520.0,529.0,515.0
527.0,514.0,517.0,529.0,515.0
523.0,511.0,513.0,526.0,517.0
508.0,505.0,504.0,513.0,527.0
499.0,503.0,501.0,512.0,528.0
496.0,501.0,501.0,508.0,522.0
496.0,500.0,502.0,504.0,514.0
499.0,502.0,508.0,503.0,509.0
503.0,502.0,510.0,502.0,506.0
507.0,504.0,514.0,498.0,507.0
501.0,502.0,515.0,501.0,506.0
505.0,502.0,516.0,502.0,510.0
513.0,503.0,519.0,502.0,513.0
514.0,508.0,520.0,509.0,516.0
527.0,511.0,524.0,517.0,517.0
538.0,512.0,523.0,522.0,517.0
538.0,513.0,522.0,528.0,514.0
533.0,515.0,520.0,532.0,510.0
526.0,513.0,515.0,524.0,520.0
516.0,512.0,512.0,524.0,524.0
511.0,504.0,502.0,515.0,529.0
511.0,506.0,501.0,509.0,523.0
505.0,505.0,499.0,505.0,516.0
507.0,506.0,509.0,505.0,510.0
502.0,501.0,507.0,502.0,506.0
512.0,504.0,514.0,504.0,506.0
508.0,507.0,516.0,503.0,506.0
512.0,504.0,516.0,504.0,507.0
513.0,503.0,518.0,503.0,509.0
514.0,503.0,520.0,508.0,512.0
515.0,505.0,521.0,511.0,509.0
518.0,509.0,523.0,522.0,505.0
517.0,512.0,523.0,526.0,511.0
517.0,512.0,520.0,529.0,518.0
511.0,512.0,516.0,528.0,520.0
515.0,513.0,514.0,526.0,526.0
510.0,509.0,508.0,521.0,522.0
518.0,505.0,500.0,514.0,518.0
510.0,504.0,501.0,510.0,519.0
511.0,504.0,504.0,508.0,518.0
502.0,503.0,502.0,504.0,510.0
502.0,501.0,509.0,503.0,511.0
507.0,504.0,514.0,504.0,505.0
506.0,503.0,516.0,503.0,504.0
508.0,503.0,517.0,508.0,511.0
527.0,504.0,520.0,507.0,511.0
527.0,506.0,522.0,513.0,515.0
527.0,509.0,523.0,519.0,515.0
528.0,515.0,524.0,524.0,507.0
531.0,513.0,523.0,529.0,501.0
529.0,515.0,521.0,531.0,507.0
523.0,513.0,516.0,530.0,516.0
517.0,511.0,512.0,527.0,515.0
507.0,504.0,503.0,518.0,522.0
498.0,502.0,500.0,511.0,522.0
500.0,504.0,503.0,509.0,519.0
500.0,503.0,503.0,505.0,514.0
502.0,507.0,507.0,503.0,509.0
503.0,502.0,514.0,502.0,509.0
511.0,506.0,513.0,504.0,506.0
511.0,503.0,516.0,501.0,505.0
508.0,507.0,516.0,502.0,504.0
508.0,502.0,518.0,506.0,504.0
515.0,505.0,520.0,512.0,506.0
522.0,507.0,523.0,520.0,512.0
528.0,515.0,523.0,530.0,517.0
527.0,513.0,521.0,529.0,517.0
527.0,513.0,518.0,531.0,518.0
520.0,513.0,514.0,529.0,519.0
511.0,512.0,511.0,528.0,516.0
497.0,502.0,501.0,515.0,525.0
492.0,501.0,497.0,507.0,521.0
493.0,501.0,501.0,506.0,512.0
503.0,502.0,504.0,505.0,506.0
506.0,502.0,507.0,504.0,509.0
507.0,505.0,511.0,508.0,506.0
511.0,504.0,516.0,508.0,505.0
513.0,505.0,518.0,503.0,509.0
513.0,506.0,520.0,505.0,504.0
509.0,502.0,517.0,507.0,504.0
510.0,505.0,519.0,512.0,514.0
530.0,511.0,524.0,524.0,514.0
525.0,514.0,524.0,527.0,509.0
521.0,514.0,520.0,529.0,517.0
517.0,518.0,519.0,531.0,516.0
511.0,512.0,512.0,527.0,519.0
530.0,510.0,508.0,523.0,524.0
516.0,504.0,500.0,512.0,531.0
509.0,503.0,504.0,509.0,527.0
504.0,505.0,501.0,505.0,518.0
506.0,502.0,506.0,505.0,508.0
507.0,504.0,510.0,505.0,501.0
513.0,508.0,517.0,504.0,499.0
512.0,502.0,519.0,503.0,504.0
515.0,503.0,516.0,501.0,507.0
518.0,503.0,518.0,504.0,513.0
527.0,505.0,521.0,514.0,520.0
527.0,507.0,521.0,516.0,515.0
531.0,510.0,523.0,523.0,509.0
532.0,514.0,523.0,529.0,505.0
530.0,515.0,520.0,531.0,512.0
525.0,511.0,519.0,533.0,520.0
516.0,514.0,514.0,525.0,519.0
509.0,504.0,501.0,517.0,525.0
494.0,502.0,499.0,511.0,523.0
500.0,502.0,501.0,508.0,516.0
498.0,504.0,505.0,507.0,509.0
499.0,503.0,507.0,504.0,505.0
501.0,502.0,510.0,502.0,504.0
511.0,505.0,516.0,504.0,503.0
505.0,506.0,517.0,502.0,506.0
505.0,503.0,519.0,502.0,506.0
522.0,502.0,519.0,506.0,508.0
522.0,504.0,519.0,512.0,511.0
524.0,508.0,523.0,518.0,510.0
525.0,513.0,525.0,526.0,513.0
536.0,515.0,524.0,531.0,515.0
531.0,514.0,519.0,530.0,514.0
520.0,516.0,518.0,528.0,521.0
512.0,509.0,510.0,525.0,516.0
502.0,502.0,500.0,514.0,522.0
497.0,502.0,498.0,508.0,523.0
494.0,501.0,501.0,506.0,514.0
497.0,503.0,505.0,504.0,512.0
505.0,503.0,509.0,503.0,511.0
510.0,501.0,514.0,502.0,503.0
516.0,504.0,516.0,502.0,501.0
512.0,502.0,517.0,502.0,502.0
513.0,503.0,520.0,504.0,507.0
517.0,506.0,521.0,511.0,509.0
520.0,506.0,521.0,514.0,509.0
520.0,510.0,524.0,521.0,510.0
525.0,513.0,524.0,526.0,513.0
524.0,515.0,520.0,532.0,518.0
520.0,516.0,521.0,528.0,515.0
512.0,512.0,514.0,526.0,525.0
505.0,511.0,510.0,523.0,525.0
495.0,503.0,500.0,512.0,525.0
496.0,504.0,501.0,509.0,522.0
500.0,503.0,504.0,506.0,518.0
499.0,504.0,509.0,504.0,511.0
508.0,502.0,508.0,501.0,508.0
516.0,503.0,515.0,503.0,503.0
515.0,503.0,514.0,502.0,505.0
512.0,501.0,516.0,501.0,507.0
510.0,501.0,518.0,503.0,512.0
519.0,503.0,520.0,509.0,511.0
522.0,502.0,521.0,515.0,510.0
519.0,509.0,521.0,525.0,517.0
520.0,512.0,520.0,527.0,518.0
520.0,518.0,522.0,530.0,520.0
527.0,517.0,519.0,531.0,524.0
518.0,512.0,513.0,527.0,515.0
506.0,505.0,504.0,518.0,520.0
495.0,503.0,500.0,512.0,520.0
494.0,501.0,500.0,507.0,516.0
500.0,502.0,503.0,503.0,507.0
495.0,501.0,507.0,502.0,505.0
493.0,501.0,510.0,501.0,502.0
496.0,504.0,513.0,500.0,502.0
505.0,503.0,515.0,502.0,506.0
519.0,505.0,519.0,503.0,506.0
529.0,505.0,521.0,509.0,512.0
540.0,507.0,522.0,515.0,510.0
541.0,509.0,523.0,521.0,509.0
539.0,513.0,525.0,526.0,511.0
535.0,518.0,527.0,531.0,516.0
533.0,514.0,521.0,535.0,517.0
525.0,512.0,513.0,527.0,513.0
520.0,514.0,511.0,525.0,520.0
508.0,503.0,501.0,514.0,525.0
501.0,501.0,499.0,508.0,522.0
498.0,505.0,502.0,506.0,514.0
501.0,505.0,505.0,505.0,504.0
501.0,501.0,507.0,501.0,498.0
504.0,502.0,510.0,505.0,502.0
507.0,503.0,514.0,504.0,505.0
507.0,503.0,518.0,501.0,511.0
514.0,505.0,519.0,505.0,514.0
514.0,503.0,521.0,509.0,516.0
520.0,508.0,522.0,515.0,512.0
526.0,511.0,523.0,525.0,515.0
524.0,512.0,523.0,526.0,512.0
531.0,513.0,520.0,530.0,515.0
527.0,514.0,518.0,531.0,516.0
517.0,511.0,515.0,530.0,522.0
509.0,509.0,509.0,528.0,524.0
495.0,502.0,500.0,514.0,525.0
492.0,503.0,498.0,508.0,521.0
493.0,501.0,501.0,509.0,515.0
505.0,503.0,507.0,505.0,511.0
506.0,503.0,510.0,507.0,512.0
513.0,506.0,518.0,504.0,512.0
516.0,505.0,518.0,503.0,515.0
511.0,503.0,517.0,501.0,517.0
511.0,502.0,518.0,504.0,517.0
515.0,503.0,520.0,510.0,511.0
526.0,508.0,523.0,516.0,500.0
527.0,511.0,523.0,523.0,495.0
531.0,512.0,523.0,528.0,499.0
523.0,515.0,521.0,531.0,508.0
519.0,512.0,515.0,526.0,512.0
515.0,510.0,512.0,528.0,509.0
501.0,504.0,503.0,519.0,528.0
494.0,500.0,499.0,510.0,527.0
495.0,502.0,501.0,506.0,526.0
495.0,504.0,504.0,505.0,518.0
496.0,504.0,509.0,503.0,512.0
506.0,505.0,508.0,507.0,506.0
513.0,506.0,517.0,506.0,500.0
510.0,503.0,517.0,504.0,503.0
513.0,503.0,518.0,503.0,502.0
510.0,503.0,518.0,505.0,505.0
515.0,507.0,522.0,512.0,511.0
522.0,511.0,524.0,520.0,517.0
529.0,513.0,524.0,524.0,514.0
531.0,513.0,522.0,527.0,515.0
524.0,515.0,522.0,530.0,510.0
521.0,513.0,515.0,529.0,515.0
519.0,511.0,511.0,525.0,517.0
505.0,505.0,503.0,517.0,523.0
499.0,500.0,498.0,508.0,520.0
500.0,498.0,502.0,505.0,517.0
506.0,500.0,505.0,505.0,510.0
503.0,502.0,510.0,502.0,507.0
507.0,504.0,513.0,504.0,504.0
510.0,506.0,517.0,507.0,507.0
510.0,504.0,518.0,503.0,503.0
513.0,506.0,520.0,503.0,509.0
517.0,509.0,524.0,508.0,509.0
520.0,506.0,521.0,513.0,513.0
525.0,505.0,523.0,524.0,511.0
526.0,513.0,524.0,527.0,509.0
526.0,513.0,520.0,529.0,513.0
525.0,515.0,518.0,531.0,517.0
519.0,515.0,517.0,528.0,523.0
513.0,509.0,509.0,528.0,528.0
500.0,504.0,500.0,514.0,532.0
496.0,501.0,500.0,508.0,526.0
494.0,503.0,501.0,509.0,516.0
497.0,504.0,506.0,502.0,505.0
501.0,502.0,509.0,500.0,506.0
503.0,502.0,514.0,502.0,503.0
508.0,504.0,517.0,501.0,501.0
513.0,504.0,518.0,502.0,502.0
515.0,503.0,519.0,506.0,504.0
520.0,506.0,523.0,512.0,508.0
521.0,508.0,522.0,516.0,510.0
523.0,513.0,528.0,523.0,515.0
524.0,508.0,520.0,524.0,518.0
522.0,513.0,519.0,530.0,517.0
520.0,512.0,515.0,530.0,518.0
508.0,510.0,511.0,526.0,523.0
500.0,505.0,502.0,517.0,528.0
501.0,503.0,499.0,511.0,523.0
496.0,503.0,501.0,507.0,519.0
494.0,506.0,504.0,503.0,515.0
500.0,502.0,506.0,502.0,508.0
497.0,505.0,509.0,500.0,506.0
502.0,505.0,517.0,501.0,502.0
515.0,502.0,515.0,500.0,504.0
518.0,502.0,521.0,502.0,505.0
517.0,502.0,517.0,506.0,513.0
516.0,505.0,524.0,511.0,513.0
523.0,512.0,526.0,520.0,512.0
530.0,511.0,523.0,527.0,516.0
524.0,507.0,520.0,527.0,516.0
529.0,515.0,519.0,532.0,514.0
516.0,512.0,513.0,525.0,517.0
522.0,512.0,512.0,526.0,522.0
501.0,504.0,502.0,516.0,529.0
493.0,501.0,499.0,508.0,529.0
504.0,500.0,507.0,506.0,522.0
509.0,505.0,506.0,504.0,512.0
513.0,504.0,508.0,501.0,505.0
527.0,505.0,514.0,502.0,506.0
524.0,507.0,518.0,503.0,506.0
523.0,505.0,518.0,502.0,507.0
523.0,503.0,518.0,502.0,511.0
522.0,505.0,524.0,507.0,513.0
525.0,509.0,523.0,513.0,516.0
529.0,510.0,523.0,520.0,513.0
532.0,516.0,528.0,531.0,514.0
527.0,513.0,519.0,532.0,513.0
526.0,512.0,517.0,531.0,514.0
520.0,513.0,513.0,527.0,516.0
513.0,511.0,510.0,524.0,523.0
500.0,505.0,501.0,519.0,527.0
496.0,502.0,500.0,509.0,523.0
496.0,502.0,502.0,506.0,518.0
500.0,503.0,507.0,503.0,514.0
504.0,503.0,509.0,503.0,507.0
508.0,506.0,520.0,506.0,505.0
508.0,505.0,515.0,504.0,508.0
508.0,503.0,518.0,500.0,513.0
512.0,503.0,519.0,506.0,509.0
518.0,504.0,520.0,511.0,505.0
518.0,503.0,517.0,516.0,507.0
522.0,510.0,524.0,524.0,513.0
526.0,514.0,523.0,528.0,514.0
518.0,513.0,519.0,529.0,518.0
524.0,513.0,516.0,529.0,522.0
521.0,511.0,513.0,527.0,522.0
504.0,504.0,503.0,521.0,528.0
497.0,501.0,499.0,510.0,523.0
498.0,501.0,502.0,512.0,513.0
499.0,502.0,504.0,505.0,509.0
501.0,502.0,507.0,503.0,502.0
504.0,501.0,514.0,502.0,502.0
511.0,505.0,516.0,503.0,500.0
514.0,504.0,518.0,504.0,502.0
512.0,504.0,521.0,505.0,506.0
516.0,506.0,520.0,507.0,509.0
519.0,510.0,523.0,515.0,510.0
523.0,509.0,523.0,520.0,508.0
526.0,514.0,527.0,530.0,507.0
526.0,513.0,522.0,529.0,512.0
525.0,516.0,520.0,532.0,514.0
517.0,510.0,513.0,529.0,516.0
510.0,511.0,512.0,527.0,522.0
496.0,502.0,500.0,514.0,530.0
497.0,505.0,503.0,511.0,525.0
500.0,502.0,502.0,507.0,518.0
501.0,503.0,505.0,504.0,512.0
502.0,502.0,507.0,502.0,515.0
506.0,502.0,515.0,501.0,508.0
509.0,504.0,515.0,501.0,507.0
511.0,498.0,519.0,500.0,509.0
513.0,502.0,518.0,502.0,511.0
515.0,504.0,523.0,510.0,514.0
517.0,507.0,522.0,514.0,516.0
526.0,510.0,523.0,520.0,506.0
526.0,513.0,524.0,527.0,510.0
522.0,513.0,520.0,529.0,517.0
516.0,514.0,517.0,532.0,518.0
513.0,513.0,513.0,529.0,517.0
513.0,508.0,509.0,524.0,518.0
497.0,503.0,501.0,513.0,525.0
497.0,502.0,500.0,509.0,520.0
502.0,502.0,502.0,506.0,514.0
504.0,505.0,506.0,504.0,512.0
504.0,504.0,512.0,504.0,507.0
510.0,506.0,516.0,506.0,500.0
510.0,504.0,519.0,505.0,507.0
509.0,504.0,521.0,503.0,510.0
510.0,503.0,517.0,506.0,513.0
516.0,505.0,520.0,508.0,512.0
521.0,509.0,523.0,516.0,513.0
523.0,511.0,523.0,522.0,510.0
531.0,515.0,524.0,529.0,516.0
531.0,515.0,519.0,530.0,519.0
526.0,514.0,517.0,531.0,523.0
518.0,512.0,510.0,529.0,526.0
508.0,507.0,507.0,518.0,530.0
500.0,504.0,501.0,512.0,530.0
497.0,503.0,503.0,509.0,525.0
496.0,503.0,503.0,504.0,513.0
494.0,506.0,509.0,504.0,504.0
498.0,503.0,512.0,503.0,503.0
504.0,506.0,517.0,504.0,503.0
505.0,505.0,519.0,502.0,503.0
509.0,505.0,520.0,503.0,505.0
514.0,505.0,521.0,506.0,515.0
528.0,504.0,520.0,514.0,515.0
534.0,511.0,526.0,521.0,514.0
530.0,513.0,526.0,528.0,513.0
522.0,513.0,522.0,530.0,517.0
519.0,511.0,516.0,533.0,521.0
521.0,512.0,514.0,527.0,523.0
506.0,510.0,511.0,524.0,523.0
497.0,505.0,503.0,516.0,530.0
488.0,499.0,495.0,507.0,529.0
496.0,500.0,501.0,506.0,523.0
503.0,502.0,506.0,503.0,518.0
515.0,503.0,507.0,501.0,517.0
519.0,503.0,512.0,502.0,511.0
517.0,503.0,516.0,503.0,505.0
512.0,503.0,517.0,503.0,503.0
524.0,507.0,524.0,507.0,506.0
530.0,507.0,522.0,507.0,517.0
527.0,505.0,520.0,510.0,517.0
532.0,509.0,521.0,518.0,519.0
530.0,513.0,524.0,527.0,513.0
535.0,514.0,521.0,530.0,515.0
537.0,516.0,520.0,534.0,515.0
526.0,517.0,514.0,529.0,516.0
517.0,509.0,508.0,525.0,519.0
504.0,504.0,500.0,516.0,518.0
503.0,502.0,500.0,509.0,508.0
497.0,500.0,501.0,506.0,508.0
505.0,502.0,508.0,508.0,509.0
508.0,503.0,510.0,503.0,505.0
514.0,504.0,514.0,502.0,506.0
512.0,504.0,517.0,501.0,502.0
513.0,503.0,518.0,502.0,503.0
513.0,503.0,519.0,505.0,504.0
516.0,504.0,520.0,509.0,506.0
523.0,507.0,522.0,517.0,509.0
523.0,511.0,524.0,523.0,510.0
525.0,516.0,526.0,535.0,517.0
525.0,514.0,520.0,529.0,516.0
529.0,512.0,515.0,528.0,519.0
514.0,515.0,515.0,526.0,523.0
509.0,504.0,501.0,517.0,525.0
501.0,502.0,498.0,511.0,523.0
493.0,501.0,500.0,508.0,515.0
499.0,503.0,502.0,505.0,509.0
503.0,503.0,508.0,507.0,506.0
503.0,502.0,511.0,505.0,505.0
518.0,506.0,516.0,506.0,504.0
514.0,504.0,516.0,502.0,510.0
516.0,503.0,518.0,502.0,514.0
515.0,504.0,518.0,504.0,516.0
520.0,510.0,523.0,515.0,518.0
521.0,506.0,522.0,518.0,513.0
527.0,513.0,524.0,526.0,514.0
525.0,513.0,520.0,528.0,513.0
523.0,515.0,519.0,530.0,517.0
522.0,514.0,515.0,529.0,521.0
514.0,511.0,511.0,525.0,523.0
502.0,505.0,501.0,514.0,528.0
497.0,500.0,498.0,509.0,530.0
497.0,501.0,501.0,507.0,518.0
502.0,503.0,506.0,506.0,513.0
502.0,497.0,511.0,502.0,505.0
506.0,501.0,512.0,501.0,509.0
510.0,503.0,517.0,503.0,501.0
511.0,502.0,516.0,500.0,503.0
507.0,500.0,519.0,503.0,508.0
515.0,507.0,523.0,506.0,508.0
518.0,508.0,522.0,517.0,510.0
522.0,510.0,523.0,520.0,510.0
525.0,513.0,525.0,525.0,511.0
521.0,511.0,519.0,527.0,513.0
520.0,514.0,517.0,528.0,521.0
513.0,511.0,511.0,524.0,523.0
514.0,509.0,508.0,522.0,523.0
503.0,505.0,501.0,513.0,525.0
496.0,502.0,499.0,505.0,527.0
507.0,504.0,503.0,505.0,518.0
507.0,503.0,506.0,504.0,508.0
507.0,501.0,507.0,501.0,508.0
509.0,504.0,513.0,503.0,505.0
510.0,504.0,516.0,502.0,506.0
507.0,503.0,517.0,502.0,509.0
512.0,502.0,519.0,503.0,508.0
517.0,504.0,523.0,510.0,507.0
519.0,509.0,526.0,521.0,512.0
521.0,514.0,527.0,523.0,510.0
524.0,514.0,523.0,532.0,514.0
519.0,511.0,516.0,529.0,522.0
511.0,512.0,514.0,528.0,519.0
513.0,511.0,512.0,527.0,518.0
515.0,511.0,506.0,520.0,524.0
500.0,503.0,500.0,512.0,524.0
493.0,502.0,501.0,508.0,520.0
495.0,501.0,502.0,500.0,515.0
495.0,501.0,506.0,502.0,511.0
496.0,501.0,506.0,500.0,503.0
514.0,504.0,515.0,503.0,505.0
525.0,507.0,519.0,501.0,507.0
522.0,507.0,519.0,504.0,507.0
520.0,502.0,524.0,507.0,508.0
523.0,505.0,521.0,511.0,513.0
525.0,508.0,523.0,519.0,509.0
530.0,513.0,525.0,526.0,509.0
530.0,513.0,522.0,528.0,507.0
533.0,513.0,517.0,530.0,507.0
522.0,513.0,514.0,528.0,515.0
514.0,510.0,509.0,524.0,523.0
499.0,501.0,499.0,516.0,537.0
495.0,502.0,499.0,508.0,540.0
496.0,502.0,501.0,506.0,531.0
497.0,501.0,503.0,504.0,514.0
494.0,500.0,507.0,503.0,496.0
494.0,501.0,511.0,504.0,494.0
505.0,503.0,516.0,503.0,506.0
509.0,502.0,517.0,507.0,508.0
508.0,503.0,519.0,507.0,497.0
510.0,504.0,520.0,508.0,505.0
510.0,505.0,523.0,513.0,511.0
525.0,511.0,523.0,521.0,510.0
535.0,516.0,525.0,529.0,508.0
528.0,515.0,520.0,530.0,509.0
529.0,515.0,517.0,529.0,511.0
523.0,516.0,518.0,528.0,517.0
519.0,509.0,508.0,523.0,518.0
513.0,503.0,500.0,514.0,519.0
511.0,504.0,500.0,510.0,516.0
506.0,501.0,500.0,505.0,507.0
509.0,503.0,505.0,504.0,506.0
512.0,500.0,509.0,507.0,505.0
514.0,504.0,514.0,501.0,504.0
514.0,504.0,516.0,502.0,498.0
513.0,505.0,522.0,504.0,502.0
515.0,504.0,520.0,506.0,500.0
518.0,506.0,521.0,513.0,496.0
522.0,511.0,525.0,520.0,502.0
526.0,511.0,525.0,524.0,506.0
529.0,515.0,525.0,529.0,512.0
527.0,513.0,519.0,530.0,513.0
520.0,513.0,515.0,528.0,519.0
513.0,515.0,516.0,527.0,529.0
497.0,501.0,501.0,520.0,535.0
497.0,505.0,501.0,512.0,527.0
500.0,505.0,501.0,508.0,519.0
497.0,503.0,503.0,505.0,515.0
499.0,501.0,505.0,500.0,508.0
503.0,502.0,510.0,500.0,509.0
509.0,502.0,516.0,503.0,507.0
514.0,503.0,518.0,503.0,507.0
512.0,504.0,518.0,503.0,507.0
511.0,503.0,520.0,507.0,509.0
515.0,505.0,521.0,513.0,514.0
519.0,510.0,528.0,520.0,514.0
533.0,513.0,524.0,526.0,511.0
531.0,513.0,522.0,528.0,514.0
524.0,513.0,519.0,531.0,515.0
524.0,513.0,514.0,528.0,522.0
519.0,512.0,511.0,528.0,524.0
504.0,504.0,502.0,516.0,532.0
496.0,501.0,496.0,508.0,527.0
496.0,502.0,501.0,507.0,521.0
499.0,501.0,505.0,506.0,511.0
500.0,501.0,509.0,503.0,508.0
503.0,501.0,512.0,501.0,507.0
507.0,503.0,517.0,503.0,506.0
515.0,502.0,518.0,503.0,504.0
520.0,503.0,519.0,502.0,506.0
518.0,503.0,520.0,508.0,507.0
521.0,506.0,522.0,517.0,514.0
521.0,510.0,524.0,521.0,514.0
524.0,514.0,526.0,529.0,515.0
524.0,514.0,523.0,530.0,519.0
519.0,517.0,518.0,530.0,520.0
510.0,510.0,513.0,526.0,524.0
523.0,508.0,511.0,523.0,523.0
508.0,504.0,502.0,515.0,526.0
500.0,501.0,501.0,509.0,521.0
498.0,500.0,501.0,504.0,520.0
501.0,501.0,508.0,505.0,513.0
504.0,500.0,510.0,501.0,510.0
511.0,503.0,514.0,505.0,507.0
517.0,503.0,517.0,502.0,505.0
506.0,502.0,518.0,502.0,505.0
514.0,502.0,520.0,505.0,506.0
517.0,505.0,523.0,512.0,505.0
522.0,508.0,524.0,518.0,511.0
523.0,510.0,524.0,523.0,510.0
527.0,512.0,524.0,529.0,514.0
526.0,516.0,521.0,532.0,516.0
517.0,513.0,516.0,528.0,520.0
510.0,512.0,513.0,527.0,526.0
497.0,504.0,504.0,518.0,529.0
490.0,503.0,501.0,512.0,526.0
492.0,503.0,505.0,511.0,517.0
493.0,502.0,504.0,505.0,507.0
511.0,502.0,508.0,505.0,503.0
516.0,506.0,516.0,504.0,507.0
519.0,505.0,516.0,504.0,506.0
512.0,505.0,519.0,503.0,507.0
515.0,506.0,520.0,504.0,513.0
519.0,504.0,521.0,506.0,520.0
522.0,506.0,521.0,512.0,518.0
524.0,512.0,525.0,520.0,521.0
528.0,512.0,524.0,525.0,511.0
531.0,512.0,522.0,529.0,502.0
526.0,515.0,521.0,531.0,505.0
519.0,512.0,515.0,528.0,513.0
518.0,508.0,509.0,525.0,514.0
504.0,505.0,505.0,515.0,527.0
507.0,503.0,501.0,511.0,525.0
507.0,502.0,504.0,510.0,517.0
506.0,504.0,507.0,507.0,513.0
502.0,504.0,509.0,504.0,511.0
505.0,504.0,514.0,504.0,505.0
508.0,505.0,517.0,505.0,500.0
513.0,503.0,519.0,506.0,505.0
513.0,503.0,518.0,510.0,505.0
515.0,502.0,519.0,508.0,508.0
519.0,505.0,521.0,515.0,510.0
524.0,509.0,522.0,521.0,512.0
525.0,516.0,524.0,528.0,509.0
523.0,514.0,521.0,528.0,517.0
524.0,514.0,517.0,529.0,525.0
515.0,513.0,513.0,532.0,528.0
507.0,508.0,506.0,522.0,534.0
499.0,504.0,501.0,515.0,531.0
499.0,505.0,505.0,509.0,523.0
496.0,503.0,502.0,506.0,518.0
499.0,504.0,508.0,506.0,510.0
499.0,502.0,509.0,503.0,510.0
498.0,502.0,514.0,502.0,510.0
501.0,505.0,520.0,501.0,508.0
508.0,506.0,516.0,502.0,504.0
510.0,501.0,522.0,505.0,505.0
520.0,507.0,523.0,512.0,505.0
523.0,507.0,522.0,514.0,507.0
531.0,514.0,526.0,525.0,508.0
544.0,518.0,527.0,533.0,508.0
540.0,517.0,522.0,532.0,513.0
529.0,515.0,517.0,531.0,515.0
519.0,511.0,512.0,525.0,517.0
507.0,506.0,506.0,518.0,524.0
499.0,503.0,500.0,513.0,524.0
500.0,504.0,504.0,509.0,518.0
499.0,503.0,505.0,507.0,514.0
501.0,502.0,511.0,504.0,509.0
511.0,502.0,510.0,502.0,501.0
511.0,506.0,520.0,504.0,500.0
516.0,506.0,517.0,506.0,508.0
519.0,505.0,519.0,503.0,506.0
519.0,504.0,519.0,506.0,508.0
526.0,507.0,521.0,513.0,513.0
526.0,509.0,522.0,517.0,511.0
528.0,514.0,524.0,525.0,513.0
527.0,514.0,522.0,528.0,515.0
523.0,516.0,520.0,530.0,515.0
517.0,508.0,511.0,532.0,517.0
511.0,515.0,514.0,526.0,520.0
498.0,503.0,501.0,514.0,525.0
494.0,501.0,498.0,507.0,521.0
493.0,502.0,500.0,509.0,516.0
504.0,504.0,505.0,504.0,510.0
506.0,501.0,507.0,502.0,508.0
508.0,502.0,512.0,501.0,507.0
506.0,501.0,515.0,503.0,504.0
509.0,506.0,516.0,501.0,505.0
512.0,503.0,519.0,504.0,500.0
517.0,504.0,520.0,507.0,507.0
520.0,508.0,523.0,515.0,514.0
534.0,511.0,524.0,521.0,513.0
533.0,513.0,524.0,527.0,518.0
531.0,513.0,521.0,530.0,518.0
524.0,515.0,516.0,533.0,512.0
521.0,512.0,515.0,527.0,520.0
513.0,507.0,508.0,523.0,518.0
499.0,501.0,500.0,511.0,521.0
498.0,505.0,501.0,508.0,522.0
501.0,502.0,504.0,503.0,521.0
499.0,503.0,507.0,506.0,509.0
499.0,502.0,510.0,502.0,503.0
504.0,506.0,514.0,502.0,503.0
506.0,501.0,519.0,500.0,506.0
506.0,503.0,518.0,500.0,508.0
510.0,503.0,518.0,504.0,510.0
516.0,506.0,521.0,509.0,511.0
521.0,507.0,522.0,515.0,512.0
528.0,512.0,524.0,523.0,512.0
524.0,515.0,524.0,529.0,510.0
522.0,512.0,518.0,528.0,511.0
528.0,513.0,513.0,533.0,519.0
528.0,515.0,516.0,529.0,517.0
511.0,505.0,502.0,517.0,524.0
501.0,506.0,497.0,515.0,524.0
500.0,502.0,502.0,507.0,521.0
500.0,502.0,506.0,504.0,524.0
502.0,503.0,508.0,503.0,519.0
504.0,503.0,515.0,502.0,513.0
510.0,504.0,515.0,502.0,503.0
515.0,503.0,516.0,502.0,501.0
516.0,504.0,519.0,503.0,504.0
515.0,505.0,524.0,506.0,510.0
516.0,505.0,521.0,512.0,515.0
518.0,509.0,523.0,519.0,510.0
524.0,512.0,525.0,527.0,512.0
521.0,510.0,519.0,532.0,513.0
513.0,510.0,518.0,530.0,517.0
507.0,515.0,513.0,530.0,526.0
513.0,511.0,510.0,526.0,518.0
513.0,507.0,505.0,517.0,523.0
503.0,502.0,499.0,510.0,526.0
496.0,502.0,502.0,508.0,520.0
506.0,504.0,508.0,506.0,513.0
510.0,503.0,509.0,503.0,504.0
513.0,504.0,509.0,506.0,502.0
516.0,504.0,518.0,504.0,503.0
514.0,504.0,517.0,508.0,509.0
512.0,502.0,520.0,503.0,511.0
515.0,503.0,518.0,505.0,516.0
527.0,508.0,523.0,515.0,514.0
527.0,511.0,525.0,520.0,515.0
527.0,510.0,525.0,529.0,514.0
524.0,512.0,521.0,530.0,517.0
515.0,512.0,515.0,529.0,517.0
521.0,513.0,513.0,529.0,517.0
515.0,512.0,512.0,524.0,520.0
501.0,503.0,500.0,517.0,530.0
495.0,501.0,500.0,507.0,527.0
495.0,501.0,501.0,500.0,523.0
501.0,503.0,506.0,503.0,508.0
503.0,502.0,509.0,502.0,500.0
499.0,501.0,512.0,501.0,507.0
499.0,502.0,513.0,506.0,507.0
507.0,501.0,516.0,502.0,508.0
520.0,503.0,519.0,506.0,510.0
528.0,507.0,521.0,509.0,515.0
536.0,510.0,522.0,516.0,518.0
536.0,512.0,526.0,524.0,519.0
534.0,516.0,525.0,529.0,525.0
531.0,515.0,519.0,530.0,520.0
525.0,515.0,516.0,530.0,515.0
517.0,510.0,511.0,531.0,512.0
506.0,506.0,502.0,519.0,517.0
498.0,502.0,499.0,512.0,519.0
499.0,504.0,502.0,509.0,518.0
502.0,505.0,506.0,506.0,514.0
503.0,507.0,507.0,504.0,510.0
505.0,503.0,511.0,502.0,503.0
510.0,505.0,515.0,506.0,499.0
512.0,504.0,518.0,503.0,503.0
516.0,504.0,519.0,504.0,507.0
518.0,504.0,520.0,507.0,510.0
520.0,507.0,522.0,513.0,508.0
523.0,510.0,523.0,520.0,508.0
529.0,514.0,524.0,526.0,514.0
525.0,515.0,522.0,530.0,518.0
520.0,513.0,517.0,529.0,518.0
514.0,512.0,513.0,526.0,521.0
512.0,510.0,509.0,523.0,517.0
505.0,504.0,502.0,514.0,524.0
497.0,503.0,500.0,510.0,525.0
505.0,504.0,503.0,507.0,518.0
507.0,505.0,506.0,506.0,513.0
504.0,504.0,509.0,503.0,511.0
500.0,502.0,511.0,501.0,513.0
501.0,503.0,515.0,502.0,506.0
504.0,503.0,517.0,502.0,512.0
506.0,502.0,518.0,502.0,514.0
508.0,503.0,519.0,507.0,516.0
513.0,506.0,522.0,513.0,516.0
533.0,511.0,524.0,522.0,512.0
546.0,515.0,526.0,528.0,513.0
536.0,514.0,522.0,531.0,513.0
531.0,513.0,517.0,529.0,511.0
516.0,511.0,512.0,526.0,519.0
511.0,509.0,509.0,521.0,522.0
503.0,504.0,502.0,513.0,526.0
505.0,504.0,502.0,510.0,519.0
505.0,502.0,504.0,506.0,514.0
507.0,506.0,509.0,503.0,508.0
509.0,502.0,509.0,498.0,505.0
506.0,502.0,511.0,505.0,505.0
508.0,507.0,521.0,501.0,505.0
507.0,504.0,518.0,504.0,508.0
512.0,505.0,521.0,507.0,509.0
514.0,505.0,523.0,512.0,512.0
528.0,506.0,521.0,521.0,511.0
534.0,513.0,526.0,524.0,513.0
530.0,514.0,525.0,527.0,518.0
525.0,513.0,519.0,527.0,517.0
524.0,514.0,516.0,527.0,513.0
516.0,512.0,513.0,525.0,516.0
507.0,505.0,503.0,516.0,525.0
498.0,502.0,501.0,511.0,524.0
496.0,503.0,503.0,508.0,518.0
497.0,503.0,506.0,506.0,512.0
502.0,505.0,512.0,503.0,506.0
504.0,503.0,512.0,503.0,502.0
507.0,507.0,517.0,504.0,501.0
508.0,503.0,518.0,504.0,505.0
508.0,503.0,518.0,504.0,507.0
509.0,502.0,519.0,506.0,512.0
514.0,509.0,520.0,513.0,514.0
520.0,509.0,524.0,520.0,514.0
526.0,512.0,525.0,526.0,519.0
519.0,512.0,522.0,529.0,524.0
525.0,512.0,518.0,529.0,526.0
524.0,514.0,514.0,531.0,521.0
511.0,509.0,510.0,525.0,517.0
496.0,502.0,499.0,515.0,516.0
493.0,501.0,501.0,511.0,519.0
495.0,505.0,502.0,509.0,512.0
495.0,502.0,505.0,505.0,507.0
512.0,502.0,507.0,502.0,503.0
515.0,503.0,512.0,498.0,507.0
511.0,503.0,515.0,503.0,501.0
509.0,503.0,517.0,502.0,502.0
507.0,502.0,518.0,504.0,507.0
521.0,508.0,522.0,508.0,508.0
523.0,507.0,521.0,512.0,513.0
528.0,511.0,523.0,522.0,517.0
535.0,518.0,527.0,528.0,510.0
534.0,514.0,522.0,531.0,510.0
522.0,516.0,520.0,529.0,508.0
515.0,513.0,513.0,532.0,513.0
505.0,513.0,512.0,524.0,518.0
493.0,505.0,500.0,512.0,521.0
498.0,502.0,501.0,509.0,518.0
499.0,505.0,502.0,505.0,515.0
502.0,503.0,507.0,500.0,515.0
502.0,503.0,511.0,503.0,515.0
500.0,502.0,513.0,503.0,517.0
520.0,503.0,516.0,500.0,509.0
521.0,504.0,519.0,503.0,507.0
519.0,504.0,520.0,506.0,509.0
520.0,506.0,521.0,510.0,505.0
522.0,509.0,523.0,518.0,497.0
533.0,510.0,523.0,524.0,507.0
532.0,514.0,523.0,526.0,514.0
527.0,516.0,523.0,530.0,520.0
522.0,513.0,516.0,529.0,520.0
518.0,513.0,515.0,526.0,519.0
501.0,505.0,503.0,517.0,525.0
500.0,503.0,499.0,512.0,522.0
499.0,501.0,501.0,509.0,513.0
498.0,501.0,503.0,504.0,509.0
500.0,502.0,508.0,503.0,506.0
506.0,504.0,512.0,502.0,505.0
514.0,506.0,518.0,504.0,507.0
512.0,505.0,519.0,504.0,506.0
511.0,506.0,521.0,505.0,508.0
514.0,504.0,522.0,510.0,514.0
518.0,505.0,521.0,510.0,514.0
526.0,510.0,525.0,520.0,516.0
529.0,514.0,526.0,526.0,513.0
526.0,513.0,522.0,529.0,517.0
519.0,513.0,517.0,528.0,515.0
515.0,514.0,516.0,530.0,510.0
506.0,510.0,511.0,524.0,516.0
494.0,505.0,501.0,513.0,521.0
490.0,502.0,500.0,508.0,528.0
490.0,502.0,503.0,503.0,523.0
497.0,504.0,508.0,503.0,520.0
507.0,503.0,508.0,501.0,514.0
515.0,505.0,514.0,502.0,513.0
516.0,505.0,516.0,501.0,509.0
518.0,504.0,516.0,501.0,508.0
515.0,502.0,520.0,507.0,504.0
517.0,505.0,521.0,509.0,506.0
521.0,507.0,521.0,514.0,509.0
536.0,511.0,523.0,522.0,510.0
538.0,514.0,524.0,527.0,510.0
531.0,514.0,520.0,530.0,515.0
523.0,513.0,516.0,528.0,521.0
517.0,513.0,513.0,526.0,528.0
509.0,508.0,507.0,520.0,528.0
501.0,503.0,500.0,513.0,533.0
495.0,500.0,503.0,513.0,525.0
496.0,505.0,502.0,506.0,511.0
507.0,505.0,508.0,506.0,497.0
509.0,503.0,511.0,507.0,503.0
513.0,502.0,514.0,502.0,500.0
512.0,504.0,518.0,503.0,500.0
512.0,503.0,517.0,501.0,507.0
513.0,503.0,519.0,505.0,506.0
517.0,505.0,520.0,509.0,508.0
521.0,508.0,521.0,517.0,509.0
529.0,512.0,522.0,523.0,507.0
528.0,515.0,524.0,528.0,517.0
524.0,514.0,518.0,528.0,519.0
521.0,513.0,515.0,529.0,522.0
513.0,512.0,512.0,526.0,523.0
505.0,504.0,501.0,516.0,526.0
498.0,502.0,495.0,512.0,518.0
498.0,505.0,503.0,507.0,510.0
500.0,497.0,503.0,508.0,506.0
502.0,503.0,507.0,503.0,505.0
511.0,503.0,511.0,502.0,507.0
508.0,503.0,514.0,501.0,508.0
511.0,503.0,518.0,503.0,508.0
505.0,504.0,519.0,503.0,510.0
508.0,502.0,520.0,503.0,514.0
509.0,503.0,519.0,510.0,510.0
521.0,511.0,524.0,520.0,515.0
524.0,515.0,526.0,527.0,515.0
523.0,513.0,522.0,529.0,518.0
529.0,514.0,518.0,529.0,521.0
520.0,512.0,514.0,528.0,524.0
513.0,508.0,511.0,525.0,523.0
497.0,502.0,500.0,516.0,523.0
502.0,502.0,499.0,511.0,516.0
510.0,502.0,501.0,507.0,514.0
508.0,502.0,505.0,505.0,509.0
505.0,503.0,507.0,506.0,509.0
509.0,504.0,514.0,503.0,509.0
512.0,504.0,517.0,504.0,508.0
512.0,504.0,521.0,505.0,511.0
513.0,502.0,519.0,504.0,513.0
516.0,502.0,519.0,506.0,516.0
520.0,509.0,524.0,513.0,518.0
523.0,510.0,524.0,518.0,511.0
536.0,513.0,523.0,526.0,506.0
533.0,513.0,520.0,530.0,510.0
527.0,513.0,517.0,529.0,517.0
522.0,513.0,513.0,528.0,519.0
509.0,508.0,506.0,522.0,519.0
502.0,502.0,500.0,513.0,522.0
500.0,503.0,501.0,510.0,520.0
500.0,505.0,505.0,506.0,515.0
503.0,507.0,506.0,504.0,509.0
504.0,499.0,510.0,505.0,506.0
507.0,500.0,513.0,502.0,505.0
509.0,503.0,516.0,503.0,505.0
507.0,502.0,516.0,504.0,510.0
507.0,501.0,518.0,505.0,512.0
515.0,508.0,525.0,514.0,510.0
519.0,510.0,524.0,518.0,513.0
519.0,509.0,523.0,523.0,510.0
520.0,514.0,523.0,529.0,514.0
524.0,515.0,521.0,532.0,516.0
522.0,513.0,516.0,532.0,519.0
512.0,510.0,511.0,525.0,522.0
506.0,505.0,505.0,516.0,526.0
500.0,501.0,497.0,509.0,530.0
502.0,505.0,504.0,507.0,519.0
502.0,501.0,503.0,505.0,518.0
501.0,504.0,506.0,503.0,510.0
506.0,501.0,509.0,501.0,508.0
513.0,502.0,513.0,502.0,504.0
527.0,503.0,513.0,506.0,503.0
529.0,506.0,520.0,505.0,507.0
523.0,503.0,519.0,506.0,510.0
518.0,503.0,519.0,510.0,514.0
521.0,514.0,526.0,519.0,513.0
523.0,513.0,524.0,526.0,512.0
523.0,514.0,523.0,530.0,514.0
522.0,512.0,517.0,530.0,520.0
510.0,510.0,512.0,527.0,522.0
526.0,512.0,511.0,525.0,521.0
518.0,506.0,502.0,517.0,529.0
505.0,504.0,500.0,509.0,530.0
504.0,503.0,503.0,507.0,525.0
507.0,503.0,507.0,505.0,518.0
510.0,501.0,507.0,502.0,512.0
507.0,499.0,512.0,503.0,505.0
511.0,502.0,515.0,505.0,499.0
513.0,502.0,517.0,504.0,500.0
516.0,503.0,518.0,505.0,510.0
519.0,504.0,519.0,507.0,512.0
523.0,507.0,522.0,514.0,511.0
523.0,509.0,522.0,520.0,508.0
530.0,513.0,524.0,527.0,510.0
533.0,514.0,521.0,529.0,519.0
523.0,512.0,516.0,525.0,526.0
516.0,510.0,512.0,526.0,522.0
510.0,507.0,506.0,518.0,524.0
502.0,501.0,499.0,515.0,515.0
495.0,501.0,498.0,509.0,518.0
497.0,501.0,502.0,507.0,513.0
499.0,502.0,505.0,509.0,509.0
501.0,503.0,511.0,503.0,510.0
508.0,502.0,513.0,504.0,505.0
509.0,500.0,518.0,503.0,507.0
510.0,502.0,517.0,502.0,508.0
511.0,501.0,518.0,505.0,509.0
517.0,503.0,519.0,508.0,513.0
528.0,509.0,525.0,518.0,509.0
530.0,511.0,523.0,525.0,507.0
530.0,514.0,524.0,530.0,511.0
526.0,512.0,517.0,530.0,511.0
524.0,514.0,516.0,531.0,516.0
516.0,509.0,510.0,526.0,516.0
503.0,506.0,501.0,518.0,525.0
496.0,504.0,502.0,517.0,526.0
497.0,502.0,501.0,508.0,525.0
498.0,502.0,504.0,506.0,515.0
496.0,501.0,506.0,504.0,508.0
495.0,501.0,510.0,502.0,510.0
508.0,504.0,515.0,502.0,503.0
506.0,501.0,514.0,504.0,505.0
513.0,503.0,518.0,506.0,505.0
518.0,507.0,519.0,508.0,512.0
522.0,507.0,522.0,513.0,514.0
526.0,509.0,522.0,517.0,513.0
528.0,512.0,524.0,524.0,515.0
528.0,511.0,521.0,529.0,517.0
530.0,512.0,516.0,528.0,521.0
527.0,510.0,512.0,528.0,523.0
518.0,510.0,510.0,526.0,517.0
506.0,502.0,500.0,516.0,522.0
503.0,501.0,498.0,508.0,522.0
499.0,501.0,501.0,510.0,518.0
502.0,505.0,502.0,509.0,511.0
502.0,501.0,507.0,501.0,510.0
502.0,501.0,511.0,502.0,505.0
508.0,503.0,516.0,503.0,506.0
509.0,503.0,517.0,503.0,508.0
511.0,501.0,519.0,505.0,512.0
516.0,507.0,522.0,511.0,513.0
520.0,509.0,521.0,518.0,518.0
525.0,509.0,522.0,521.0,514.0
528.0,515.0,526.0,532.0,516.0
527.0,512.0,519.0,529.0,518.0
530.0,512.0,515.0,529.0,520.0
518.0,508.0,510.0,527.0,514.0
507.0,506.0,504.0,524.0,516.0
499.0,505.0,501.0,512.0,517.0
497.0,505.0,500.0,507.0,517.0
505.0,501.0,502.0,505.0,514.0
503.0,504.0,507.0,501.0,513.0
507.0,505.0,511.0,504.0,505.0
512.0,503.0,514.0,504.0,503.0
511.0,504.0,517.0,503.0,505.0
505.0,503.0,518.0,503.0,506.0
507.0,498.0,519.0,506.0,509.0
515.0,503.0,519.0,511.0,513.0
517.0,507.0,522.0,516.0,515.0
516.0,510.0,523.0,524.0,516.0
529.0,514.0,523.0,530.0,516.0
535.0,515.0,520.0,531.0,518.0
532.0,514.0,517.0,532.0,520.0
526.0,510.0,511.0,525.0,516.0
511.0,505.0,503.0,518.0,519.0
504.0,503.0,503.0,512.0,522.0
506.0,503.0,502.0,507.0,517.0
501.0,502.0,503.0,505.0,511.0
503.0,502.0,507.0,504.0,506.0
507.0,503.0,511.0,503.0,502.0
509.0,502.0,514.0,503.0,509.0
511.0,504.0,518.0,504.0,504.0
512.0,503.0,520.0,504.0,506.0
513.0,509.0,527.0,509.0,505.0
515.0,506.0,526.0,514.0,506.0
524.0,512.0,530.0,523.0,498.0
528.0,515.0,529.0,528.0,506.0
526.0,515.0,519.0,532.0,520.0
528.0,514.0,512.0,529.0,526.0
518.0,511.0,511.0,527.0,521.0
514.0,511.0,510.0,526.0,520.0
501.0,502.0,499.0,515.0,520.0
498.0,500.0,497.0,507.0,521.0
497.0,501.0,500.0,510.0,509.0
500.0,503.0,506.0,508.0,493.0
508.0,503.0,509.0,505.0,491.0
519.0,503.0,512.0,504.0,492.0
518.0,503.0,514.0,503.0,491.0
517.0,504.0,517.0,505.0,496.0
519.0,508.0,522.0,507.0,508.0
520.0,505.0,521.0,511.0,521.0
522.0,509.0,524.0,517.0,535.0
523.0,513.0,524.0,523.0,536.0
526.0,515.0,524.0,528.0,530.0
524.0,516.0,526.0,531.0,533.0
520.0,514.0,523.0,530.0,533.0
517.0,518.0,524.0,532.0,520.0
513.0,509.0,514.0,524.0,507.0
507.0,505.0,501.0,521.0,498.0
507.0,502.0,495.0,511.0,484.0
500.0,502.0,495.0,504.0,501.0
504.0,503.0,504.0,504.0,479.0
511.0,501.0,509.0,502.0,468.0
514.0,504.0,513.0,507.0,482.0
512.0,504.0,514.0,503.0,509.0
514.0,502.0,511.0,503.0,502.0
513.0,503.0,515.0,505.0,529.0
518.0,503.0,518.0,511.0,519.0
523.0,507.0,520.0,516.0,521.0
529.0,511.0,522.0,523.0,520.0
530.0,512.0,520.0,527.0,518.0
527.0,513.0,517.0,527.0,530.0
518.0,509.0,512.0,527.0,525.0
515.0,511.0,510.0,526.0,522.0
506.0,505.0,502.0,518.0,524.0
499.0,502.0,499.0,510.0,526.0
497.0,499.0,501.0,509.0,518.0
499.0,501.0,503.0,504.0,516.0
504.0,502.0,506.0,503.0,509.0
504.0,503.0,512.0,503.0,510.0
507.0,501.0,513.0,501.0,508.0
511.0,503.0,517.0,504.0,507.0
512.0,504.0,522.0,509.0,512.0
518.0,505.0,523.0,510.0,515.0
522.0,506.0,523.0,513.0,515.0
526.0,510.0,525.0,521.0,516.0
528.0,513.0,525.0,526.0,512.0
529.0,515.0,529.0,530.0,519.0
524.0,515.0,530.0,528.0,520.0
520.0,514.0,528.0,527.0,519.0
514.0,510.0,525.0,523.0,516.0
504.0,505.0,508.0,514.0,516.0
497.0,498.0,485.0,505.0,518.0
497.0,504.0,482.0,500.0,511.0
502.0,503.0,507.0,507.0,503.0
504.0,502.0,514.0,510.0,501.0
507.0,503.0,519.0,506.0,507.0
509.0,503.0,521.0,503.0,506.0
518.0,503.0,516.0,501.0,502.0
519.0,504.0,515.0,509.0,511.0
522.0,506.0,514.0,510.0,511.0
521.0,511.0,521.0,518.0,516.0
524.0,510.0,521.0,521.0,512.0
530.0,515.0,523.0,527.0,512.0
529.0,515.0,522.0,533.0,509.0
519.0,508.0,513.0,527.0,519.0
516.0,511.0,512.0,527.0,526.0
507.0,506.0,502.0,521.0,528.0
499.0,503.0,500.0,512.0,533.0
496.0,506.0,504.0,510.0,524.0
497.0,501.0,502.0,505.0,517.0
502.0,502.0,506.0,503.0,512.0
500.0,502.0,509.0,502.0,508.0
506.0,503.0,509.0,502.0,509.0
510.0,503.0,515.0,502.0,509.0
515.0,503.0,518.0,504.0,512.0
515.0,504.0,520.0,507.0,514.0
518.0,506.0,522.0,512.0,511.0
519.0,506.0,522.0,517.0,508.0
526.0,511.0,524.0,525.0,511.0
528.0,516.0,523.0,531.0,515.0
524.0,515.0,519.0,527.0,523.0
519.0,512.0,512.0,527.0,524.0
519.0,512.0,510.0,526.0,530.0
503.0,504.0,500.0,517.0,536.0
499.0,505.0,504.0,510.0,538.0
502.0,505.0,507.0,509.0,524.0
499.0,502.0,505.0,503.0,522.0
505.0,503.0,509.0,501.0,512.0
509.0,503.0,513.0,500.0,496.0
510.0,500.0,514.0,499.0,486.0
516.0,503.0,513.0,504.0,481.0
516.0,504.0,519.0,512.0,495.0
516.0,503.0,516.0,513.0,506.0
511.0,502.0,520.0,512.0,516.0
515.0,511.0,531.0,521.0,516.0
523.0,514.0,532.0,530.0,503.0
523.0,514.0,531.0,533.0,507.0
519.0,515.0,527.0,531.0,525.0
518.0,512.0,511.0,527.0,529.0
518.0,512.0,501.0,523.0,532.0
503.0,505.0,492.0,512.0,529.0
504.0,501.0,495.0,508.0,525.0
500.0,501.0,498.0,506.0,524.0
504.0,502.0,503.0,510.0,509.0
507.0,508.0,508.0,506.0,497.0
514.0,505.0,513.0,505.0,496.0
512.0,506.0,516.0,503.0,498.0
519.0,504.0,517.0,504.0,496.0
516.0,504.0,519.0,505.0,499.0
523.0,504.0,520.0,510.0,499.0
526.0,506.0,520.0,516.0,489.0
534.0,511.0,522.0,524.0,484.0
534.0,514.0,523.0,528.0,512.0
527.0,515.0,519.0,531.0,530.0
521.0,509.0,512.0,528.0,536.0
517.0,510.0,507.0,529.0,528.0
510.0,508.0,506.0,523.0,524.0
495.0,499.0,500.0,515.0,525.0
487.0,501.0,499.0,511.0,537.0
477.0,498.0,500.0,502.0,539.0
486.0,500.0,508.0,503.0,525.0
497.0,502.0,508.0,500.0,512.0
500.0,500.0,511.0,495.0,519.0
514.0,502.0,513.0,500.0,509.0
518.0,505.0,515.0,503.0,493.0
527.0,509.0,523.0,513.0,493.0
529.0,508.0,523.0,513.0,487.0
529.0,510.0,523.0,519.0,482.0
533.0,513.0,524.0,523.0,477.0
530.0,517.0,525.0,531.0,504.0
518.0,521.0,523.0,532.0,545.0
500.0,516.0,520.0,531.0,549.0
502.0,519.0,521.0,533.0,542.0
491.0,508.0,507.0,520.0,562.0
496.0,506.0,504.0,519.0,539.0
496.0,502.0,501.0,506.0,490.0
504.0,500.0,498.0,504.0,465.0
516.0,500.0,501.0,504.0,471.0
523.0,502.0,509.0,506.0,470.0
522.0,505.0,512.0,506.0,489.0
525.0,503.0,515.0,508.0,501.0
527.0,504.0,526.0,515.0,518.0
529.0,508.0,554.0,527.0,508.0
531.0,509.0,553.0,532.0,515.0
530.0,510.0,551.0,530.0,526.0
528.0,512.0,539.0,524.0,552.0
525.0,509.0,481.0,505.0,554.0
526.0,513.0,510.0,511.0,533.0
514.0,507.0,498.0,511.0,518.0
512.0,502.0,487.0,517.0,480.0
507.0,503.0,488.0,508.0,482.0
499.0,503.0,485.0,509.0,486.0
492.0,500.0,498.0,501.0,538.0
499.0,507.0,506.0,501.0,525.0
497.0,507.0,510.0,498.0,517.0
506.0,504.0,515.0,509.0,507.0
505.0,502.0,514.0,513.0,503.0
513.0,506.0,522.0,508.0,487.0
516.0,508.0,529.0,507.0,517.0
524.0,501.0,527.0,501.0,522.0
531.0,510.0,529.0,499.0,491.0
530.0,513.0,517.0,510.0,495.0
536.0,519.0,526.0,519.0,476.0
545.0,516.0,488.0,525.0,476.0
531.0,512.0,494.0,525.0,502.0
517.0,507.0,526.0,536.0,503.0
515.0,505.0,535.0,544.0,521.0
510.0,502.0,512.0,534.0,525.0
501.0,505.0,516.0,523.0,497.0
503.0,505.0,493.0,501.0,459.0
505.0,504.0,500.0,487.0,481.0
507.0,507.0,512.0,507.0,483.0
501.0,503.0,502.0,512.0,514.0
509.0,504.0,517.0,507.0,501.0
507.0,505.0,512.0,510.0,503.0
522.0,512.0,522.0,523.0,493.0
521.0,506.0,522.0,517.0,516.0
531.0,505.0,521.0,515.0,462.0
532.0,509.0,531.0,522.0,458.0
532.0,512.0,535.0,533.0,490.0
521.0,512.0,531.0,530.0,563.0
510.0,509.0,507.0,529.0,568.0
507.0,508.0,498.0,523.0,551.0
496.0,502.0,503.0,511.0,535.0
499.0,504.0,506.0,519.0,500.0
494.0,504.0,507.0,533.0,538.0
485.0,504.0,510.0,530.0,514.0
514.0,506.0,483.0,519.0,463.0
522.0,509.0,519.0,517.0,486.0
511.0,498.0,506.0,489.0,553.0
493.0,497.0,494.0,478.0,593.0
499.0,504.0,529.0,487.0,602.0
498.0,501.0,540.0,494.0,608.0
505.0,503.0,546.0,496.0,612.0
534.0,512.0,550.0,516.0,525.0
541.0,517.0,520.0,531.0,478.0
533.0,524.0,540.0,542.0,474.0
529.0,525.0,539.0,543.0,458.0
518.0,519.0,519.0,534.0,472.0
492.0,512.0,493.0,517.0,548.0
473.0,501.0,470.0,492.0,547.0
481.0,495.0,471.0,490.0,506.0
496.0,504.0,489.0,495.0,507.0
506.0,505.0,502.0,493.0,505.0
506.0,497.0,519.0,508.0,469.0
518.0,494.0,514.0,512.0,456.0
520.0,495.0,506.0,498.0,489.0
538.0,501.0,516.0,510.0,480.0
528.0,502.0,510.0,523.0,532.0
514.0,497.0,516.0,504.0,592.0
528.0,512.0,521.0,504.0,549.0
518.0,512.0,525.0,527.0,581.0
505.0,513.0,521.0,528.0,586.0
523.0,518.0,523.0,525.0,513.0
526.0,510.0,523.0,526.0,497.0
527.0,504.0,514.0,523.0,482.0
522.0,507.0,516.0,521.0,489.0
512.0,497.0,479.0,512.0,488.0
507.0,501.0,493.0,508.0,511.0
502.0,503.0,498.0,495.0,540.0
501.0,503.0,498.0,493.0,518.0
508.0,504.0,503.0,498.0,473.0
513.0,500.0,522.0,506.0,442.0
512.0,500.0,538.0,512.0,446.0
489.0,503.0,518.0,501.0,552.0
493.0,509.0,514.0,514.0,558.0
505.0,518.0,522.0,524.0,538.0
510.0,511.0,530.0,532.0,531.0
519.0,507.0,532.0,533.0,539.0
526.0,510.0,547.0,533.0,567.0
530.0,516.0,542.0,536.0,554.0
526.0,507.0,521.0,529.0,510.0
531.0,500.0,481.0,523.0,507.0
536.0,506.0,492.0,514.0,471.0
521.0,505.0,495.0,506.0,519.0
501.0,501.0,497.0,503.0,549.0
499.0,504.0,502.0,504.0,535.0
502.0,501.0,499.0,500.0,505.0
512.0,507.0,509.0,499.0,482.0
517.0,503.0,510.0,500.0,492.0
501.0,500.0,508.0,507.0,509.0
490.0,499.0,505.0,528.0,516.0
516.0,508.0,521.0,524.0,521.0
