CH1,CH2
520.0,519.0
511.0,507.0
507.0,512.0
503.0,515.0
495.0,509.0
499.0,504.0
509.0,494.0
505.0,492.0
505.0,490.0
498.0,489.0
496.0,487.0
494.0,504.0
507.0,501.0
520.0,513.0
519.0,513.0
518.0,500.0
526.0,514.0
519.0,520.0
523.0,519.0
516.0,505.0
511.0,500.0
514.0,500.0
512.0,502.0
515.0,501.0
514.0,496.0
509.0,486.0
502.0,481.0
502.0,483.0
500.0,495.0
502.0,499.0
509.0,498.0
518.0,503.0
524.0,515.0
516.0,512.0
518.0,515.0
514.0,502.0
508.0,506.0
506.0,507.0
510.0,502.0
510.0,499.0
507.0,493.0
505.0,493.0
496.0,492.0
496.0,489.0
498.0,487.0
508.0,495.0
508.0,503.0
511.0,507.0
518.0,512.0
527.0,516.0
526.0,519.0
517.0,516.0
518.0,514.0
505.0,512.0
505.0,500.0
507.0,504.0
505.0,497.0
498.0,498.0
501.0,495.0
503.0,489.0
501.0,484.0
504.0,493.0
509.0,499.0
519.0,507.0
521.0,507.0
525.0,511.0
523.0,519.0
522.0,515.0
516.0,509.0
507.0,511.0
513.0,505.0
512.0,503.0
509.0,502.0
500.0,506.0
504.0,499.0
500.0,491.0
495.0,495.0
504.0,486.0
505.0,482.0
512.0,498.0
523.0,510.0
526.0,516.0
528.0,521.0
523.0,515.0
517.0,518.0
504.0,498.0
515.0,502.0
499.0,509.0
502.0,505.0
498.0,503.0
503.0,490.0
504.0,485.0
498.0,495.0
503.0,487.0
508.0,492.0
508.0,490.0
517.0,503.0
516.0,511.0
521.0,513.0
526.0,518.0
515.0,521.0
513.0,512.0
518.0,513.0
508.0,508.0
511.0,504.0
509.0,501.0
497.0,503.0
503.0,495.0
499.0,489.0
500.0,490.0
489.0,496.0
502.0,494.0
509.0,501.0
519.0,507.0
520.0,504.0
528.0,512.0
519.0,519.0
516.0,520.0
514.0,510.0
530.0,509.0
527.0,503.0
519.0,502.0
523.0,502.0
518.0,499.0
503.0,500.0
487.0,491.0
484.0,483.0
488.0,498.0
488.0,491.0
507.0,499.0
511.0,506.0
516.0,512.0
524.0,509.0
519.0,520.0
518.0,512.0
514.0,514.0
510.0,509.0
506.0,505.0
508.0,503.0
500.0,505.0
497.0,497.0
504.0,497.0
505.0,490.0
499.0,482.0
510.0,492.0
509.0,500.0
506.0,503.0
517.0,505.0
521.0,514.0
520.0,513.0
524.0,518.0
521.0,516.0
516.0,513.0
511.0,505.0
504.0,500.0
504.0,496.0
505.0,499.0
505.0,498.0
503.0,493.0
504.0,490.0
500.0,491.0
501.0,484.0
511.0,499.0
516.0,508.0
525.0,513.0
528.0,517.0
529.0,523.0
521.0,522.0
509.0,516.0
510.0,509.0
511.0,511.0
503.0,505.0
498.0,514.0
502.0,506.0
495.0,506.0
494.0,497.0
501.0,484.0
502.0,494.0
507.0,490.0
513.0,498.0
515.0,501.0
517.0,504.0
528.0,515.0
516.0,516.0
522.0,519.0
517.0,516.0
503.0,507.0
505.0,505.0
501.0,501.0
506.0,491.0
504.0,488.0
500.0,484.0
497.0,489.0
492.0,491.0
486.0,497.0
508.0,499.0
516.0,511.0
523.0,515.0
528.0,518.0
528.0,524.0
515.0,516.0
515.0,507.0
511.0,488.0
503.0,507.0
498.0,511.0
503.0,503.0
504.0,488.0
500.0,488.0
486.0,495.0
496.0,487.0
497.0,491.0
507.0,493.0
506.0,502.0
512.0,501.0
523.0,503.0
525.0,514.0
523.0,518.0
510.0,515.0
524.0,514.0
509.0,514.0
508.0,507.0
516.0,501.0
511.0,500.0
505.0,489.0
504.0,493.0
499.0,484.0
500.0,492.0
510.0,489.0
512.0,493.0
511.0,505.0
521.0,503.0
516.0,511.0
521.0,516.0
507.0,511.0
510.0,520.0
507.0,515.0
507.0,506.0
502.0,498.0
502.0,499.0
507.0,500.0
508.0,494.0
493.0,496.0
498.0,485.0
501.0,490.0
499.0,490.0
499.0,495.0
504.0,499.0
525.0,501.0
522.0,516.0
523.0,516.0
522.0,518.0
519.0,517.0
515.0,511.0
506.0,509.0
499.0,507.0
500.0,503.0
502.0,501.0
501.0,499.0
497.0,492.0
493.0,489.0
489.0,495.0
504.0,496.0
507.0,499.0
514.0,509.0
519.0,510.0
524.0,514.0
531.0,518.0
522.0,519.0
514.0,507.0
509.0,508.0
504.0,501.0
501.0,510.0
501.0,500.0
503.0,492.0
503.0,492.0
501.0,495.0
499.0,491.0
491.0,499.0
507.0,496.0
513.0,502.0
514.0,504.0
525.0,518.0
530.0,520.0
519.0,517.0
518.0,515.0
516.0,514.0
513.0,511.0
498.0,512.0
505.0,501.0
503.0,499.0
502.0,494.0
497.0,496.0
491.0,494.0
486.0,495.0
501.0,489.0
511.0,498.0
507.0,501.0
524.0,504.0
526.0,512.0
526.0,515.0
523.0,518.0
519.0,519.0
513.0,511.0
507.0,504.0
509.0,503.0
498.0,504.0
503.0,501.0
504.0,491.0
506.0,485.0
503.0,489.0
499.0,492.0
500.0,494.0
508.0,500.0
505.0,506.0
522.0,512.0
526.0,519.0
525.0,515.0
512.0,511.0
521.0,517.0
509.0,508.0
498.0,511.0
497.0,506.0
497.0,499.0
507.0,497.0
508.0,494.0
496.0,493.0
499.0,485.0
501.0,490.0
498.0,492.0
514.0,507.0
515.0,509.0
522.0,518.0
518.0,511.0
523.0,518.0
522.0,520.0
516.0,513.0
503.0,514.0
507.0,504.0
510.0,501.0
515.0,498.0
512.0,495.0
506.0,492.0
495.0,496.0
504.0,493.0
502.0,486.0
501.0,501.0
514.0,513.0
524.0,517.0
525.0,514.0
531.0,505.0
527.0,511.0
518.0,513.0
504.0,506.0
487.0,518.0
502.0,508.0
503.0,504.0
491.0,505.0
495.0,487.0
503.0,485.0
489.0,494.0
489.0,486.0
499.0,498.0
502.0,504.0
511.0,491.0
515.0,500.0
521.0,514.0
522.0,515.0
524.0,522.0
522.0,523.0
508.0,508.0
501.0,499.0
496.0,503.0
504.0,493.0
505.0,491.0
508.0,492.0
500.0,495.0
499.0,483.0
500.0,484.0
502.0,493.0
507.0,502.0
522.0,512.0
527.0,517.0
527.0,515.0
527.0,516.0
521.0,517.0
519.0,512.0
499.0,514.0
512.0,504.0
506.0,501.0
507.0,499.0
502.0,499.0
502.0,497.0
499.0,488.0
509.0,489.0
503.0,494.0
501.0,497.0
494.0,500.0
500.0,505.0
519.0,512.0
524.0,518.0
520.0,516.0
519.0,514.0
508.0,513.0
508.0,507.0
511.0,502.0
500.0,503.0
504.0,499.0
502.0,489.0
502.0,491.0
495.0,493.0
499.0,491.0
498.0,488.0
511.0,497.0
518.0,502.0
524.0,509.0
528.0,515.0
518.0,516.0
516.0,515.0
511.0,523.0
503.0,515.0
507.0,505.0
498.0,505.0
510.0,500.0
510.0,495.0
507.0,493.0
499.0,491.0
495.0,491.0
500.0,495.0
508.0,493.0
513.0,506.0
517.0,507.0
525.0,515.0
527.0,520.0
525.0,519.0
520.0,514.0
505.0,509.0
499.0,512.0
506.0,500.0
503.0,491.0
504.0,490.0
505.0,488.0
509.0,487.0
504.0,491.0
492.0,493.0
502.0,490.0
504.0,496.0
511.0,502.0
523.0,515.0
526.0,517.0
526.0,521.0
515.0,522.0
520.0,516.0
518.0,511.0
503.0,511.0
508.0,502.0
507.0,500.0
503.0,489.0
503.0,495.0
499.0,491.0
501.0,490.0
500.0,490.0
504.0,499.0
502.0,498.0
514.0,507.0
514.0,511.0
526.0,516.0
518.0,518.0
519.0,516.0
513.0,513.0
511.0,509.0
498.0,509.0
500.0,508.0
489.0,508.0
504.0,500.0
505.0,497.0
506.0,490.0
508.0,492.0
502.0,496.0
508.0,497.0
513.0,500.0
527.0,510.0
530.0,513.0
531.0,519.0
524.0,512.0
515.0,507.0
517.0,511.0
515.0,502.0
512.0,498.0
497.0,501.0
487.0,499.0
495.0,491.0
496.0,493.0
500.0,491.0
491.0,500.0
505.0,496.0
507.0,500.0
515.0,505.0
517.0,509.0
523.0,517.0
528.0,517.0
518.0,517.0
522.0,515.0
511.0,511.0
504.0,509.0
510.0,503.0
501.0,503.0
503.0,500.0
500.0,498.0
490.0,492.0
504.0,491.0
495.0,497.0
510.0,499.0
509.0,498.0
513.0,506.0
525.0,514.0
527.0,517.0
527.0,517.0
521.0,517.0
507.0,509.0
516.0,509.0
505.0,506.0
504.0,497.0
503.0,495.0
503.0,502.0
492.0,500.0
493.0,495.0
501.0,482.0
503.0,488.0
499.0,496.0
509.0,501.0
518.0,504.0
519.0,509.0
519.0,517.0
513.0,510.0
519.0,515.0
512.0,507.0
503.0,508.0
506.0,496.0
504.0,497.0
509.0,496.0
505.0,489.0
504.0,490.0
503.0,489.0
494.0,495.0
509.0,493.0
506.0,501.0
517.0,503.0
523.0,511.0
521.0,514.0
517.0,518.0
497.0,517.0
495.0,512.0
491.0,511.0
487.0,512.0
495.0,505.0
511.0,499.0
531.0,497.0
530.0,495.0
527.0,494.0
531.0,483.0
525.0,494.0
514.0,498.0
516.0,494.0
513.0,506.0
508.0,501.0
516.0,517.0
516.0,516.0
503.0,515.0
506.0,516.0
509.0,508.0
507.0,500.0
503.0,507.0
514.0,502.0
525.0,497.0
524.0,486.0
510.0,494.0
517.0,486.0
509.0,491.0
500.0,500.0
501.0,513.0
522.0,515.0
529.0,513.0
511.0,521.0
510.0,515.0
522.0,506.0
518.0,507.0
512.0,512.0
510.0,505.0
513.0,498.0
506.0,496.0
507.0,493.0
504.0,493.0
503.0,494.0
506.0,490.0
509.0,502.0
505.0,504.0
513.0,507.0
517.0,512.0
523.0,518.0
521.0,505.0
516.0,503.0
522.0,514.0
517.0,517.0
513.0,507.0
509.0,505.0
506.0,495.0
503.0,492.0
505.0,490.0
496.0,482.0
495.0,493.0
492.0,487.0
502.0,492.0
492.0,490.0
510.0,508.0
525.0,509.0
530.0,518.0
521.0,517.0
509.0,525.0
512.0,524.0
511.0,504.0
506.0,509.0
510.0,497.0
504.0,488.0
500.0,502.0
495.0,507.0
498.0,504.0
497.0,497.0
507.0,482.0
504.0,487.0
513.0,494.0
525.0,501.0
533.0,509.0
519.0,515.0
522.0,513.0
517.0,509.0
519.0,514.0
519.0,509.0
511.0,497.0
504.0,503.0
490.0,502.0
494.0,494.0
489.0,485.0
485.0,496.0
511.0,487.0
525.0,495.0
523.0,502.0
533.0,499.0
536.0,512.0
517.0,516.0
508.0,514.0
503.0,503.0
497.0,514.0
522.0,505.0
543.0,500.0
524.0,506.0
477.0,498.0
462.0,495.0
464.0,489.0
487.0,491.0
492.0,490.0
504.0,483.0
511.0,492.0
501.0,498.0
503.0,504.0
522.0,509.0
533.0,516.0
539.0,528.0
547.0,524.0
549.0,515.0
538.0,515.0
525.0,502.0
503.0,509.0
502.0,504.0
521.0,489.0
486.0,490.0
471.0,491.0
492.0,492.0
509.0,499.0
513.0,503.0
511.0,504.0
519.0,510.0
515.0,514.0
510.0,517.0
512.0,513.0
533.0,516.0
520.0,500.0
509.0,504.0
493.0,504.0
500.0,502.0
499.0,501.0
502.0,508.0
509.0,496.0
512.0,491.0
511.0,488.0
513.0,475.0
520.0,485.0
533.0,503.0
532.0,514.0
514.0,518.0
510.0,518.0
520.0,517.0
523.0,515.0
506.0,517.0
502.0,504.0
500.0,504.0
489.0,509.0
490.0,504.0
499.0,489.0
497.0,476.0
500.0,483.0
496.0,495.0
502.0,492.0
510.0,489.0
532.0,509.0
531.0,517.0
531.0,529.0
512.0,518.0
512.0,507.0
509.0,510.0
513.0,510.0
517.0,509.0
496.0,497.0
485.0,492.0
483.0,502.0
493.0,498.0
501.0,491.0
492.0,490.0
495.0,492.0
511.0,501.0
525.0,501.0
512.0,502.0
516.0,508.0
551.0,516.0
544.0,512.0
549.0,511.0
542.0,502.0
495.0,513.0
498.0,503.0
475.0,498.0
464.0,491.0
481.0,496.0
490.0,497.0
491.0,494.0
488.0,492.0
492.0,493.0
472.0,496.0
485.0,506.0
515.0,510.0
542.0,515.0
540.0,515.0
555.0,510.0
546.0,509.0
504.0,504.0
505.0,505.0
504.0,511.0
513.0,507.0
516.0,510.0
537.0,506.0
553.0,493.0
550.0,485.0
535.0,486.0
532.0,498.0
465.0,505.0
482.0,509.0
496.0,504.0
501.0,504.0
491.0,518.0
473.0,517.0
480.0,501.0
491.0,493.0
519.0,492.0
542.0,490.0
557.0,497.0
558.0,494.0
549.0,489.0
522.0,503.0
506.0,497.0
478.0,506.0
461.0,500.0
493.0,502.0
528.0,493.0
531.0,506.0
518.0,515.0
505.0,521.0
506.0,514.0
520.0,508.0
533.0,506.0
523.0,496.0
513.0,506.0
498.0,501.0
484.0,497.0
475.0,495.0
471.0,488.0
493.0,492.0
512.0,493.0
518.0,503.0
513.0,506.0
496.0,509.0
504.0,510.0
505.0,505.0
514.0,512.0
507.0,511.0
508.0,503.0
514.0,502.0
521.0,503.0
506.0,500.0
503.0,497.0
464.0,494.0
476.0,484.0
492.0,488.0
504.0,500.0
523.0,497.0
518.0,501.0
522.0,509.0
523.0,514.0
523.0,512.0
554.0,511.0
519.0,502.0
513.0,507.0
524.0,505.0
524.0,503.0
523.0,501.0
512.0,501.0
488.0,497.0
453.0,487.0
444.0,494.0
448.0,503.0
475.0,502.0
502.0,501.0
530.0,504.0
545.0,500.0
549.0,503.0
534.0,510.0
517.0,508.0
511.0,507.0
534.0,507.0
529.0,501.0
532.0,495.0
519.0,501.0
517.0,499.0
506.0,504.0
491.0,503.0
485.0,509.0
481.0,493.0
473.0,498.0
475.0,511.0
480.0,498.0
493.0,501.0
537.0,500.0
558.0,482.0
550.0,486.0
540.0,501.0
535.0,500.0
509.0,503.0
503.0,494.0
496.0,504.0
504.0,514.0
473.0,510.0
495.0,513.0
497.0,507.0
515.0,507.0
525.0,504.0
515.0,505.0
517.0,496.0
539.0,502.0
538.0,511.0
529.0,504.0
523.0,501.0
517.0,499.0
525.0,495.0
523.0,494.0
534.0,487.0
528.0,509.0
545.0,497.0
530.0,504.0
505.0,501.0
471.0,508.0
444.0,510.0
502.0,495.0
556.0,504.0
539.0,517.0
513.0,510.0
508.0,497.0
513.0,493.0
517.0,506.0
522.0,516.0
524.0,517.0
516.0,508.0
522.0,512.0
519.0,514.0
521.0,509.0
514.0,501.0
520.0,501.0
508.0,503.0
504.0,497.0
496.0,499.0
499.0,491.0
502.0,491.0
501.0,489.0
505.0,491.0
513.0,501.0
514.0,500.0
518.0,508.0
524.0,517.0
511.0,511.0
519.0,517.0
507.0,509.0
507.0,503.0
503.0,497.0
509.0,500.0
503.0,495.0
500.0,500.0
503.0,495.0
491.0,498.0
490.0,498.0
495.0,501.0
504.0,492.0
519.0,506.0
521.0,513.0
526.0,516.0
525.0,519.0
516.0,515.0
512.0,509.0
512.0,505.0
509.0,499.0
509.0,507.0
512.0,499.0
503.0,492.0
500.0,499.0
499.0,485.0
490.0,498.0
494.0,497.0
506.0,495.0
511.0,500.0
512.0,505.0
521.0,510.0
524.0,514.0
521.0,517.0
514.0,513.0
513.0,515.0
508.0,504.0
506.0,509.0
511.0,503.0
507.0,494.0
503.0,502.0
507.0,496.0
504.0,492.0
498.0,487.0
504.0,492.0
501.0,501.0
510.0,497.0
510.0,504.0
521.0,515.0
517.0,518.0
512.0,511.0
515.0,513.0
506.0,507.0
501.0,512.0
505.0,510.0
512.0,506.0
505.0,501.0
501.0,503.0
513.0,499.0
498.0,499.0
502.0,494.0
507.0,492.0
503.0,492.0
512.0,503.0
514.0,511.0
517.0,506.0
516.0,516.0
517.0,511.0
515.0,515.0
514.0,514.0
508.0,505.0
504.0,498.0
506.0,502.0
502.0,493.0
497.0,499.0
497.0,496.0
502.0,490.0
500.0,491.0
501.0,492.0
508.0,498.0
516.0,505.0
517.0,503.0
519.0,514.0
518.0,515.0
518.0,514.0
517.0,511.0
513.0,506.0
512.0,505.0
507.0,494.0
509.0,500.0
509.0,496.0
502.0,495.0
503.0,492.0
498.0,494.0
501.0,493.0
510.0,493.0
509.0,501.0
515.0,503.0
523.0,511.0
522.0,521.0
521.0,514.0
520.0,507.0
514.0,509.0
509.0,505.0
512.0,506.0
512.0,503.0
499.0,505.0
509.0,496.0
499.0,498.0
505.0,496.0
502.0,488.0
494.0,495.0
515.0,498.0
505.0,508.0
514.0,510.0
526.0,515.0
521.0,512.0
513.0,516.0
512.0,508.0
510.0,511.0
508.0,508.0
505.0,507.0
500.0,505.0
504.0,499.0
496.0,499.0
500.0,490.0
496.0,493.0
506.0,491.0
497.0,493.0
511.0,496.0
518.0,505.0
523.0,516.0
529.0,516.0
527.0,520.0
513.0,503.0
513.0,511.0
500.0,509.0
506.0,507.0
495.0,510.0
501.0,492.0
506.0,496.0
499.0,499.0
499.0,487.0
494.0,499.0
506.0,498.0
506.0,491.0
517.0,502.0
516.0,505.0
530.0,508.0
521.0,512.0
521.0,518.0
513.0,510.0
513.0,512.0
509.0,506.0
508.0,504.0
499.0,503.0
506.0,495.0
512.0,495.0
507.0,495.0
505.0,482.0
499.0,494.0
505.0,488.0
508.0,493.0
508.0,501.0
524.0,511.0
525.0,509.0
530.0,517.0
523.0,516.0
520.0,514.0
514.0,513.0
508.0,509.0
511.0,503.0
503.0,504.0
505.0,492.0
501.0,496.0
501.0,486.0
492.0,497.0
501.0,489.0
510.0,494.0
504.0,503.0
506.0,502.0
523.0,505.0
521.0,512.0
520.0,512.0
512.0,511.0
515.0,506.0
511.0,502.0
502.0,504.0
503.0,497.0
503.0,500.0
499.0,503.0
499.0,488.0
502.0,491.0
494.0,493.0
498.0,486.0
507.0,500.0
515.0,506.0
513.0,501.0
523.0,513.0
524.0,520.0
523.0,518.0
508.0,511.0
516.0,518.0
502.0,511.0
504.0,498.0
513.0,502.0
498.0,508.0
510.0,497.0
506.0,489.0
501.0,493.0
492.0,495.0
500.0,495.0
496.0,499.0
501.0,496.0
512.0,509.0
519.0,513.0
512.0,511.0
513.0,516.0
508.0,516.0
505.0,515.0
505.0,503.0
496.0,508.0
504.0,506.0
508.0,496.0
511.0,496.0
510.0,491.0
508.0,491.0
503.0,487.0
508.0,494.0
506.0,492.0
512.0,511.0
522.0,513.0
527.0,510.0
523.0,516.0
513.0,514.0
516.0,520.0
513.0,509.0
517.0,506.0
497.0,509.0
497.0,506.0
506.0,500.0
503.0,492.0
493.0,495.0
498.0,487.0
500.0,490.0
505.0,498.0
504.0,503.0
518.0,505.0
522.0,514.0
524.0,517.0
512.0,514.0
509.0,507.0
505.0,512.0
505.0,503.0
498.0,509.0
510.0,501.0
509.0,496.0
513.0,497.0
503.0,489.0
503.0,492.0
501.0,479.0
493.0,496.0
505.0,491.0
509.0,502.0
517.0,505.0
515.0,511.0
521.0,517.0
513.0,512.0
514.0,502.0
510.0,514.0
502.0,512.0
502.0,507.0
509.0,503.0
509.0,505.0
504.0,486.0
501.0,496.0
509.0,490.0
510.0,490.0
503.0,497.0
498.0,498.0
510.0,503.0
515.0,506.0
522.0,512.0
520.0,513.0
519.0,517.0
513.0,517.0
500.0,516.0
496.0,510.0
506.0,501.0
502.0,503.0
503.0,496.0
500.0,488.0
496.0,495.0
499.0,489.0
499.0,490.0
493.0,500.0
501.0,496.0
509.0,507.0
524.0,511.0
523.0,517.0
523.0,510.0
523.0,515.0
516.0,511.0
505.0,512.0
508.0,504.0
501.0,504.0
507.0,499.0
499.0,498.0
499.0,492.0
495.0,488.0
486.0,497.0
503.0,492.0
508.0,495.0
515.0,501.0
521.0,512.0
526.0,511.0
527.0,516.0
506.0,514.0
514.0,512.0
510.0,508.0
502.0,515.0
505.0,500.0
508.0,501.0
508.0,493.0
501.0,499.0
503.0,485.0
499.0,491.0
504.0,490.0
498.0,488.0
499.0,493.0
508.0,500.0
522.0,514.0
514.0,516.0
513.0,514.0
521.0,515.0
523.0,514.0
520.0,511.0
511.0,506.0
506.0,503.0
501.0,496.0
500.0,498.0
501.0,488.0
493.0,496.0
496.0,484.0
495.0,487.0
500.0,498.0
506.0,500.0
505.0,500.0
518.0,514.0
523.0,517.0
529.0,521.0
515.0,511.0
518.0,515.0
512.0,508.0
503.0,510.0
507.0,502.0
507.0,492.0
508.0,494.0
507.0,494.0
502.0,496.0
500.0,491.0
501.0,483.0
508.0,496.0
509.0,508.0
517.0,512.0
525.0,512.0
523.0,519.0
526.0,518.0
515.0,511.0
509.0,509.0
509.0,493.0
509.0,499.0
514.0,500.0
507.0,499.0
504.0,497.0
501.0,489.0
498.0,489.0
499.0,492.0
501.0,487.0
509.0,500.0
524.0,504.0
523.0,511.0
522.0,517.0
512.0,516.0
517.0,515.0
518.0,513.0
507.0,513.0
502.0,507.0
507.0,492.0
507.0,502.0
502.0,490.0
495.0,499.0
495.0,484.0
500.0,489.0
502.0,491.0
513.0,495.0
515.0,493.0
522.0,512.0
530.0,513.0
538.0,514.0
529.0,513.0
515.0,515.0
510.0,514.0
510.0,512.0
500.0,505.0
510.0,504.0
503.0,503.0
508.0,496.0
505.0,495.0
500.0,489.0
493.0,495.0
501.0,493.0
511.0,497.0
514.0,502.0
518.0,505.0
521.0,511.0
522.0,511.0
518.0,507.0
507.0,510.0
516.0,513.0
512.0,510.0
497.0,503.0
495.0,504.0
502.0,491.0
502.0,498.0
507.0,492.0
491.0,494.0
500.0,487.0
496.0,492.0
498.0,498.0
514.0,503.0
518.0,510.0
518.0,507.0
522.0,509.0
510.0,514.0
512.0,518.0
502.0,507.0
495.0,511.0
501.0,504.0
511.0,497.0
506.0,493.0
510.0,493.0
500.0,488.0
498.0,481.0
496.0,498.0
490.0,493.0
510.0,495.0
518.0,506.0
525.0,514.0
525.0,510.0
519.0,516.0
522.0,515.0
511.0,509.0
509.0,508.0
508.0,505.0
508.0,502.0
509.0,498.0
497.0,498.0
502.0,493.0
500.0,489.0
491.0,499.0
497.0,497.0
493.0,492.0
497.0,501.0
511.0,510.0
520.0,512.0
516.0,513.0
525.0,516.0
522.0,513.0
522.0,512.0
513.0,503.0
507.0,499.0
504.0,494.0
504.0,496.0
506.0,494.0
509.0,491.0
492.0,494.0
504.0,489.0
507.0,492.0
512.0,496.0
520.0,504.0
529.0,507.0
531.0,519.0
526.0,515.0
518.0,516.0
509.0,514.0
509.0,505.0
506.0,505.0
506.0,502.0
508.0,500.0
504.0,496.0
506.0,489.0
500.0,494.0
495.0,487.0
498.0,482.0
503.0,489.0
513.0,501.0
514.0,501.0
523.0,508.0
520.0,513.0
521.0,516.0
513.0,513.0
513.0,517.0
510.0,505.0
509.0,502.0
509.0,501.0
499.0,504.0
505.0,491.0
512.0,493.0
501.0,496.0
501.0,489.0
505.0,490.0
508.0,495.0
509.0,495.0
516.0,502.0
527.0,512.0
526.0,517.0
515.0,519.0
503.0,512.0
509.0,516.0
505.0,505.0
510.0,498.0
511.0,493.0
512.0,497.0
504.0,499.0
498.0,493.0
494.0,497.0
503.0,491.0
505.0,493.0
517.0,499.0
516.0,498.0
526.0,510.0
520.0,512.0
513.0,511.0
509.0,509.0
509.0,511.0
512.0,510.0
509.0,506.0
502.0,506.0
503.0,497.0
506.0,501.0
496.0,500.0
500.0,489.0
499.0,491.0
497.0,492.0
502.0,494.0
498.0,500.0
512.0,502.0
526.0,514.0
528.0,517.0
525.0,517.0
524.0,515.0
516.0,515.0
516.0,509.0
510.0,509.0
507.0,497.0
508.0,501.0
503.0,484.0
498.0,496.0
501.0,489.0
503.0,492.0
500.0,495.0
516.0,498.0
512.0,498.0
519.0,510.0
520.0,506.0
520.0,510.0
516.0,515.0
519.0,515.0
515.0,511.0
510.0,503.0
510.0,504.0
496.0,508.0
504.0,493.0
508.0,493.0
501.0,487.0
501.0,493.0
484.0,493.0
500.0,496.0
510.0,499.0
517.0,501.0
520.0,507.0
525.0,511.0
519.0,519.0
517.0,512.0
514.0,509.0
508.0,512.0
506.0,509.0
506.0,499.0
509.0,499.0
504.0,501.0
507.0,493.0
495.0,497.0
499.0,487.0
499.0,485.0
488.0,493.0
508.0,499.0
510.0,508.0
519.0,510.0
525.0,514.0
524.0,515.0
519.0,516.0
514.0,513.0
513.0,504.0
510.0,504.0
502.0,500.0
504.0,498.0
500.0,496.0
498.0,500.0
479.0,496.0
492.0,477.0
503.0,489.0
502.0,490.0
502.0,501.0
515.0,512.0
524.0,506.0
526.0,516.0
517.0,517.0
519.0,516.0
518.0,512.0
510.0,515.0
507.0,498.0
511.0,491.0
501.0,502.0
508.0,495.0
492.0,501.0
495.0,489.0
488.0,497.0
501.0,501.0
506.0,497.0
518.0,507.0
523.0,511.0
525.0,515.0
524.0,519.0
520.0,519.0
518.0,515.0
512.0,509.0
510.0,506.0
497.0,508.0
508.0,499.0
510.0,497.0
505.0,497.0
501.0,489.0
501.0,493.0
503.0,491.0
503.0,495.0
507.0,495.0
518.0,506.0
519.0,509.0
533.0,516.0
527.0,516.0
522.0,508.0
517.0,513.0
510.0,516.0
512.0,505.0
507.0,498.0
511.0,499.0
497.0,501.0
499.0,492.0
506.0,491.0
499.0,491.0
492.0,497.0
507.0,492.0
515.0,505.0
511.0,503.0
525.0,513.0
526.0,512.0
523.0,514.0
520.0,505.0
510.0,511.0
510.0,508.0
499.0,508.0
508.0,502.0
510.0,499.0
508.0,498.0
513.0,493.0
511.0,491.0
499.0,495.0
503.0,498.0
506.0,500.0
511.0,504.0
523.0,515.0
526.0,505.0
526.0,515.0
522.0,515.0
515.0,509.0
515.0,509.0
509.0,509.0
506.0,502.0
504.0,495.0
505.0,500.0
501.0,488.0
500.0,492.0
497.0,485.0
500.0,491.0
495.0,499.0
512.0,499.0
518.0,505.0
521.0,512.0
527.0,509.0
526.0,519.0
517.0,515.0
503.0,510.0
501.0,506.0
491.0,502.0
492.0,499.0
486.0,503.0
498.0,495.0
495.0,494.0
502.0,491.0
505.0,498.0
525.0,492.0
521.0,502.0
528.0,504.0
530.0,509.0
537.0,513.0
527.0,518.0
527.0,512.0
521.0,520.0
519.0,514.0
510.0,513.0
511.0,507.0
505.0,508.0
501.0,503.0
500.0,500.0
506.0,491.0
509.0,492.0
502.0,493.0
502.0,496.0
517.0,497.0
512.0,503.0
527.0,508.0
521.0,511.0
525.0,517.0
508.0,511.0
511.0,514.0
510.0,509.0
498.0,501.0
495.0,507.0
508.0,500.0
510.0,492.0
507.0,499.0
502.0,487.0
505.0,494.0
496.0,496.0
503.0,491.0
506.0,496.0
511.0,509.0
515.0,514.0
512.0,513.0
509.0,516.0
509.0,522.0
506.0,521.0
517.0,516.0
506.0,518.0
515.0,505.0
518.0,490.0
520.0,498.0
514.0,499.0
513.0,495.0
507.0,490.0
503.0,485.0
508.0,483.0
513.0,494.0
512.0,505.0
517.0,511.0
518.0,506.0
509.0,511.0
517.0,514.0
509.0,509.0
512.0,515.0
522.0,507.0
513.0,507.0
512.0,500.0
512.0,496.0
512.0,490.0
516.0,485.0
516.0,487.0
515.0,490.0
509.0,499.0
507.0,497.0
519.0,510.0
517.0,510.0
521.0,519.0
515.0,520.0
510.0,519.0
504.0,517.0
514.0,508.0
514.0,504.0
509.0,499.0
502.0,491.0
490.0,499.0
491.0,493.0
495.0,491.0
487.0,496.0
506.0,492.0
507.0,496.0
512.0,505.0
524.0,512.0
530.0,518.0
525.0,510.0
518.0,509.0
516.0,513.0
504.0,513.0
505.0,506.0
503.0,503.0
502.0,503.0
500.0,496.0
494.0,498.0
501.0,494.0
505.0,492.0
501.0,500.0
514.0,499.0
513.0,504.0
525.0,512.0
517.0,509.0
526.0,514.0
522.0,510.0
521.0,517.0
516.0,511.0
510.0,512.0
503.0,505.0
498.0,503.0
504.0,499.0
502.0,499.0
508.0,495.0
495.0,496.0
501.0,488.0
506.0,496.0
509.0,501.0
517.0,504.0
515.0,506.0
523.0,514.0
524.0,513.0
519.0,515.0
507.0,513.0
502.0,513.0
488.0,511.0
499.0,503.0
497.0,495.0
491.0,502.0
500.0,490.0
501.0,498.0
494.0,492.0
482.0,492.0
475.0,500.0
487.0,500.0
498.0,500.0
513.0,510.0
531.0,512.0
541.0,510.0
554.0,515.0
529.0,507.0
526.0,508.0
510.0,505.0
509.0,502.0
513.0,492.0
496.0,501.0
501.0,496.0
494.0,496.0
500.0,490.0
501.0,497.0
515.0,499.0
519.0,493.0
526.0,504.0
533.0,514.0
537.0,517.0
522.0,512.0
523.0,510.0
508.0,511.0
508.0,504.0
501.0,504.0
497.0,506.0
506.0,501.0
501.0,495.0
502.0,493.0
498.0,490.0
488.0,495.0
491.0,500.0
513.0,499.0
518.0,499.0
526.0,509.0
533.0,517.0
525.0,510.0
526.0,514.0
523.0,507.0
504.0,515.0
488.0,507.0
496.0,506.0
502.0,500.0
499.0,502.0
505.0,498.0
503.0,488.0
507.0,483.0
514.0,490.0
515.0,487.0
518.0,500.0
507.0,505.0
500.0,504.0
512.0,519.0
516.0,515.0
515.0,508.0
525.0,513.0
522.0,508.0
509.0,496.0
505.0,497.0
510.0,498.0
504.0,496.0
496.0,492.0
484.0,487.0
481.0,489.0
478.0,495.0
494.0,501.0
504.0,503.0
510.0,509.0
529.0,514.0
532.0,518.0
528.0,509.0
518.0,517.0
512.0,512.0
513.0,507.0
508.0,503.0
509.0,505.0
504.0,500.0
508.0,498.0
504.0,501.0
505.0,494.0
498.0,495.0
500.0,493.0
512.0,498.0
517.0,500.0
518.0,502.0
524.0,509.0
522.0,511.0
508.0,511.0
496.0,509.0
498.0,500.0
492.0,500.0
491.0,495.0
496.0,499.0
497.0,500.0
504.0,501.0
511.0,489.0
505.0,492.0
506.0,491.0
509.0,493.0
508.0,504.0
518.0,506.0
522.0,507.0
536.0,511.0
528.0,512.0
533.0,501.0
528.0,505.0
518.0,506.0
511.0,502.0
507.0,501.0
491.0,500.0
476.0,493.0
485.0,495.0
487.0,490.0
497.0,494.0
483.0,487.0
469.0,499.0
483.0,502.0
503.0,506.0
514.0,514.0
530.0,513.0
540.0,511.0
561.0,520.0
550.0,512.0
545.0,505.0
528.0,509.0
518.0,506.0
522.0,502.0
509.0,502.0
501.0,497.0
507.0,487.0
499.0,495.0
505.0,488.0
510.0,503.0
518.0,504.0
523.0,505.0
527.0,514.0
530.0,506.0
524.0,516.0
521.0,513.0
517.0,512.0
514.0,507.0
492.0,498.0
490.0,499.0
481.0,497.0
476.0,499.0
486.0,489.0
488.0,494.0
510.0,491.0
510.0,493.0
523.0,497.0
534.0,496.0
542.0,506.0
544.0,511.0
536.0,515.0
514.0,512.0
508.0,509.0
504.0,508.0
495.0,509.0
501.0,508.0
510.0,504.0
513.0,499.0
517.0,495.0
507.0,492.0
495.0,493.0
480.0,495.0
482.0,498.0
478.0,497.0
487.0,504.0
509.0,513.0
533.0,520.0
541.0,515.0
540.0,518.0
525.0,510.0
503.0,509.0
491.0,507.0
497.0,499.0
489.0,504.0
498.0,495.0
482.0,499.0
488.0,484.0
489.0,485.0
488.0,494.0
502.0,498.0
520.0,504.0
526.0,511.0
547.0,515.0
563.0,512.0
558.0,515.0
554.0,515.0
532.0,509.0
510.0,514.0
511.0,506.0
517.0,494.0
507.0,482.0
501.0,486.0
489.0,496.0
490.0,491.0
493.0,496.0
497.0,493.0
498.0,498.0
518.0,502.0
543.0,512.0
538.0,509.0
520.0,515.0
514.0,510.0
515.0,515.0
510.0,509.0
505.0,507.0
501.0,497.0
515.0,498.0
508.0,507.0
494.0,501.0
489.0,492.0
475.0,490.0
460.0,489.0
459.0,495.0
470.0,496.0
475.0,512.0
491.0,504.0
504.0,508.0
537.0,514.0
560.0,518.0
553.0,515.0
529.0,504.0
519.0,504.0
517.0,493.0
505.0,498.0
494.0,486.0
491.0,492.0
502.0,493.0
500.0,492.0
518.0,489.0
530.0,496.0
531.0,497.0
522.0,513.0
523.0,522.0
524.0,524.0
511.0,519.0
514.0,514.0
513.0,511.0
506.0,506.0
488.0,507.0
491.0,509.0
495.0,501.0
500.0,497.0
509.0,494.0
514.0,485.0
505.0,492.0
520.0,495.0
528.0,501.0
519.0,509.0
545.0,518.0
548.0,517.0
530.0,507.0
526.0,512.0
517.0,510.0
524.0,512.0
501.0,499.0
512.0,505.0
531.0,499.0
523.0,495.0
489.0,486.0
458.0,484.0
454.0,490.0
482.0,488.0
493.0,493.0
483.0,487.0
495.0,507.0
522.0,516.0
520.0,517.0
512.0,526.0
503.0,527.0
507.0,527.0
492.0,526.0
490.0,518.0
493.0,522.0
492.0,515.0
493.0,506.0
507.0,510.0
520.0,493.0
510.0,484.0
507.0,487.0
503.0,494.0
502.0,486.0
492.0,501.0
484.0,508.0
432.0,513.0
384.0,506.0
417.0,503.0
480.0,491.0
527.0,495.0
580.0,495.0
609.0,490.0
649.0,491.0
623.0,494.0
547.0,498.0
517.0,499.0
496.0,500.0
485.0,497.0
501.0,506.0
520.0,504.0
537.0,506.0
554.0,519.0
553.0,517.0
552.0,524.0
529.0,516.0
529.0,516.0
513.0,512.0
508.0,504.0
483.0,499.0
466.0,492.0
455.0,495.0
461.0,490.0
451.0,482.0
454.0,487.0
470.0,491.0
499.0,507.0
505.0,505.0
522.0,503.0
536.0,512.0
547.0,506.0
533.0,509.0
521.0,512.0
512.0,505.0
520.0,508.0
513.0,509.0
524.0,508.0
537.0,495.0
535.0,494.0
526.0,499.0
524.0,486.0
478.0,492.0
469.0,496.0
496.0,508.0
517.0,504.0
530.0,503.0
534.0,515.0
523.0,510.0
492.0,506.0
481.0,508.0
499.0,505.0
484.0,499.0
472.0,509.0
465.0,505.0
474.0,501.0
473.0,499.0
490.0,494.0
479.0,482.0
486.0,497.0
498.0,504.0
499.0,499.0
534.0,513.0
519.0,524.0
478.0,530.0
459.0,522.0
515.0,517.0
545.0,507.0
555.0,496.0
531.0,512.0
528.0,512.0
496.0,495.0
496.0,489.0
492.0,491.0
475.0,482.0
468.0,485.0
468.0,484.0
471.0,491.0
446.0,499.0
473.0,502.0
463.0,505.0
474.0,518.0
521.0,536.0
507.0,529.0
477.0,516.0
450.0,501.0
498.0,489.0
537.0,491.0
584.0,494.0
604.0,485.0
613.0,488.0
565.0,493.0
528.0,492.0
502.0,482.0
535.0,507.0
572.0,507.0
606.0,528.0
522.0,514.0
491.0,512.0
478.0,510.0
443.0,503.0
393.0,499.0
391.0,492.0
450.0,495.0
538.0,488.0
571.0,484.0
572.0,492.0
574.0,496.0
556.0,496.0
547.0,491.0
525.0,488.0
487.0,497.0
492.0,489.0
497.0,506.0
486.0,519.0
512.0,527.0
526.0,539.0
481.0,536.0
441.0,521.0
458.0,529.0
449.0,513.0
478.0,487.0
527.0,478.0
595.0,469.0
587.0,475.0
563.0,474.0
536.0,485.0
517.0,505.0
506.0,522.0
549.0,534.0
586.0,523.0
597.0,522.0
540.0,516.0
457.0,527.0
397.0,533.0
418.0,524.0
468.0,502.0
497.0,506.0
490.0,498.0
470.0,488.0
479.0,501.0
442.0,493.0
390.0,473.0
452.0,468.0
488.0,504.0
486.0,509.0
485.0,522.0
498.0,530.0
498.0,514.0
504.0,497.0
619.0,498.0
654.0,500.0
642.0,509.0
590.0,516.0
529.0,507.0
485.0,487.0
454.0,490.0
467.0,476.0
471.0,469.0
476.0,479.0
473.0,484.0
507.0,502.0
527.0,520.0
528.0,506.0
527.0,518.0
538.0,521.0
512.0,502.0
533.0,495.0
505.0,500.0
477.0,534.0
456.0,515.0
388.0,505.0
358.0,503.0
448.0,491.0
447.0,494.0
464.0,491.0
557.0,500.0
643.0,505.0
617.0,515.0
546.0,509.0
529.0,504.0
497.0,502.0
518.0,507.0
587.0,507.0
568.0,521.0
516.0,518.0
461.0,514.0
462.0,509.0
478.0,491.0
484.0,497.0
544.0,491.0
552.0,491.0
559.0,504.0
546.0,509.0
485.0,507.0
449.0,515.0
480.0,518.0
475.0,531.0
439.0,515.0
424.0,509.0
424.0,502.0
464.0,501.0
514.0,502.0
595.0,491.0
625.0,501.0
569.0,518.0
527.0,519.0
507.0,501.0
502.0,493.0
474.0,484.0
437.0,494.0
494.0,480.0
565.0,475.0
595.0,495.0
581.0,510.0
581.0,517.0
563.0,524.0
557.0,512.0
465.0,498.0
413.0,489.0
421.0,483.0
435.0,472.0
417.0,474.0
469.0,477.0
515.0,497.0
520.0,497.0
544.0,500.0
567.0,495.0
575.0,497.0
592.0,537.0
600.0,536.0
571.0,530.0
464.0,532.0
462.0,517.0
416.0,516.0
346.0,509.0
395.0,490.0
439.0,496.0
482.0,483.0
553.0,486.0
616.0,474.0
608.0,471.0
634.0,483.0
635.0,485.0
564.0,491.0
475.0,500.0
519.0,505.0
496.0,521.0
503.0,533.0
488.0,532.0
484.0,510.0
439.0,518.0
443.0,503.0
502.0,499.0
526.0,486.0
536.0,484.0
543.0,499.0
522.0,496.0
513.0,502.0
506.0,499.0
498.0,502.0
483.0,509.0
465.0,501.0
481.0,503.0
507.0,512.0
539.0,516.0
538.0,504.0
515.0,500.0
462.0,503.0
473.0,512.0
526.0,499.0
533.0,496.0
558.0,492.0
537.0,501.0
501.0,486.0
460.0,480.0
484.0,494.0
509.0,497.0
501.0,509.0
508.0,505.0
512.0,524.0
491.0,529.0
540.0,532.0
534.0,519.0
507.0,514.0
549.0,506.0
535.0,500.0
509.0,495.0
474.0,489.0
464.0,486.0
469.0,492.0
501.0,497.0
524.0,491.0
592.0,510.0
585.0,518.0
466.0,528.0
440.0,527.0
478.0,521.0
463.0,503.0
502.0,502.0
513.0,492.0
520.0,493.0
525.0,490.0
469.0,496.0
403.0,502.0
488.0,510.0
590.0,518.0
567.0,519.0
604.0,515.0
570.0,499.0
518.0,484.0
512.0,492.0
509.0,505.0
501.0,500.0
524.0,500.0
511.0,510.0
504.0,516.0
461.0,512.0
454.0,483.0
507.0,494.0
572.0,483.0
598.0,495.0
594.0,492.0
535.0,502.0
537.0,501.0
530.0,494.0
567.0,502.0
472.0,502.0
453.0,499.0
511.0,492.0
418.0,495.0
333.0,476.0
393.0,508.0
494.0,534.0
616.0,501.0
683.0,501.0
612.0,501.0
471.0,483.0
478.0,474.0
473.0,497.0
476.0,493.0
449.0,486.0
408.0,506.0
410.0,494.0
454.0,500.0
532.0,510.0
609.0,516.0
617.0,531.0
633.0,534.0
607.0,521.0
552.0,516.0
489.0,506.0
434.0,513.0
435.0,504.0
459.0,492.0
491.0,482.0
521.0,484.0
522.0,502.0
518.0,500.0
506.0,494.0
469.0,493.0
474.0,496.0
495.0,496.0
493.0,514.0
483.0,518.0
501.0,509.0
518.0,507.0
542.0,505.0
572.0,509.0
545.0,511.0
534.0,501.0
521.0,488.0
527.0,483.0
568.0,492.0
542.0,494.0
477.0,499.0
379.0,511.0
386.0,528.0
424.0,514.0
503.0,518.0
509.0,506.0
488.0,508.0
492.0,510.0
493.0,496.0
510.0,492.0
578.0,499.0
604.0,497.0
570.0,487.0
568.0,509.0
560.0,496.0
537.0,487.0
515.0,483.0
505.0,494.0
503.0,483.0
519.0,506.0
536.0,509.0
513.0,520.0
459.0,513.0
469.0,514.0
492.0,521.0
493.0,517.0
489.0,512.0
461.0,509.0
468.0,508.0
469.0,496.0
469.0,495.0
539.0,498.0
561.0,486.0
493.0,486.0
476.0,488.0
518.0,488.0
575.0,506.0
568.0,510.0
544.0,495.0
574.0,516.0
586.0,542.0
551.0,531.0
479.0,529.0
426.0,521.0
452.0,518.0
489.0,505.0
476.0,482.0
471.0,473.0
449.0,477.0
485.0,483.0
533.0,491.0
573.0,507.0
610.0,507.0
580.0,504.0
571.0,501.0
521.0,510.0
472.0,512.0
459.0,513.0
464.0,515.0
461.0,503.0
469.0,492.0
509.0,495.0
499.0,492.0
542.0,504.0
556.0,494.0
541.0,477.0
520.0,478.0
499.0,501.0
439.0,518.0
502.0,507.0
606.0,515.0
593.0,532.0
571.0,527.0
515.0,524.0
469.0,516.0
503.0,510.0
534.0,492.0
525.0,496.0
475.0,500.0
482.0,490.0
455.0,478.0
489.0,468.0
515.0,463.0
468.0,479.0
487.0,491.0
478.0,508.0
480.0,510.0
478.0,512.0
469.0,510.0
452.0,518.0
483.0,519.0
491.0,520.0
508.0,514.0
494.0,495.0
483.0,505.0
508.0,502.0
499.0,505.0
512.0,482.0
506.0,474.0
529.0,475.0
573.0,500.0
565.0,503.0
556.0,491.0
525.0,496.0
535.0,511.0
526.0,508.0
489.0,509.0
502.0,501.0
538.0,487.0
562.0,494.0
603.0,509.0
568.0,509.0
525.0,494.0
435.0,492.0
405.0,496.0
427.0,497.0
397.0,491.0
402.0,491.0
400.0,494.0
436.0,496.0
496.0,505.0
562.0,514.0
581.0,521.0
645.0,521.0
621.0,524.0
568.0,504.0
587.0,496.0
637.0,498.0
618.0,505.0
584.0,504.0
499.0,491.0
422.0,501.0
310.0,479.0
411.0,475.0
503.0,488.0
480.0,488.0
487.0,515.0
561.0,522.0
557.0,509.0
530.0,498.0
541.0,506.0
505.0,517.0
444.0,518.0
454.0,516.0
524.0,505.0
552.0,519.0
568.0,514.0
555.0,518.0
502.0,513.0
500.0,487.0
507.0,464.0
509.0,477.0
491.0,503.0
516.0,521.0
581.0,546.0
587.0,537.0
605.0,500.0
577.0,511.0
477.0,522.0
419.0,521.0
518.0,517.0
515.0,496.0
497.0,488.0
487.0,485.0
449.0,491.0
438.0,493.0
465.0,498.0
496.0,486.0
507.0,475.0
552.0,482.0
529.0,508.0
509.0,522.0
554.0,526.0
546.0,514.0
505.0,506.0
505.0,486.0
496.0,500.0
468.0,516.0
452.0,498.0
428.0,503.0
418.0,492.0
444.0,487.0
550.0,485.0
549.0,477.0
502.0,479.0
482.0,498.0
529.0,515.0
529.0,512.0
572.0,510.0
577.0,500.0
523.0,508.0
523.0,513.0
520.0,508.0
532.0,499.0
551.0,515.0
548.0,501.0
538.0,491.0
506.0,496.0
502.0,491.0
459.0,486.0
390.0,484.0
401.0,480.0
502.0,481.0
600.0,495.0
615.0,506.0
614.0,519.0
466.0,529.0
401.0,521.0
491.0,520.0
505.0,500.0
550.0,497.0
598.0,499.0
552.0,498.0
496.0,499.0
458.0,505.0
410.0,493.0
417.0,500.0
542.0,500.0
561.0,494.0
557.0,500.0
589.0,513.0
558.0,515.0
537.0,514.0
543.0,514.0
525.0,516.0
509.0,517.0
508.0,517.0
481.0,507.0
480.0,491.0
463.0,501.0
448.0,503.0
492.0,493.0
506.0,480.0
532.0,479.0
528.0,480.0
526.0,488.0
514.0,495.0
512.0,501.0
510.0,507.0
521.0,517.0
509.0,515.0
473.0,507.0
437.0,505.0
435.0,505.0
476.0,505.0
520.0,501.0
601.0,501.0
565.0,495.0
509.0,481.0
510.0,490.0
504.0,501.0
486.0,507.0
484.0,506.0
510.0,505.0
533.0,507.0
517.0,490.0
483.0,476.0
471.0,478.0
518.0,503.0
596.0,532.0
558.0,525.0
544.0,500.0
557.0,501.0
518.0,505.0
470.0,495.0
498.0,500.0
483.0,505.0
492.0,485.0
494.0,498.0
451.0,497.0
446.0,502.0
479.0,505.0
499.0,504.0
561.0,504.0
576.0,506.0
554.0,512.0
536.0,511.0
484.0,507.0
443.0,509.0
467.0,518.0
461.0,504.0
435.0,503.0
438.0,504.0
480.0,489.0
470.0,482.0
502.0,479.0
518.0,480.0
535.0,492.0
568.0,512.0
625.0,524.0
622.0,524.0
559.0,512.0
489.0,505.0
492.0,493.0
506.0,484.0
538.0,504.0
508.0,500.0
572.0,496.0
545.0,487.0
487.0,497.0
504.0,497.0
487.0,500.0
491.0,501.0
507.0,496.0
515.0,498.0
543.0,517.0
545.0,520.0
531.0,521.0
526.0,528.0
506.0,517.0
469.0,502.0
446.0,489.0
464.0,485.0
388.0,482.0
376.0,500.0
446.0,508.0
471.0,493.0
571.0,489.0
647.0,492.0
548.0,491.0
560.0,495.0
592.0,505.0
575.0,519.0
564.0,538.0
552.0,529.0
523.0,517.0
513.0,512.0
540.0,510.0
512.0,507.0
478.0,499.0
484.0,501.0
473.0,496.0
477.0,494.0
468.0,495.0
429.0,507.0
440.0,497.0
460.0,495.0
529.0,498.0
570.0,502.0
581.0,523.0
552.0,522.0
520.0,526.0
507.0,507.0
519.0,501.0
516.0,508.0
507.0,489.0
498.0,481.0
501.0,489.0
471.0,477.0
499.0,479.0
516.0,478.0
538.0,486.0
539.0,499.0
524.0,502.0
526.0,514.0
512.0,517.0
540.0,514.0
545.0,506.0
524.0,507.0
442.0,518.0
455.0,520.0
454.0,513.0
460.0,504.0
462.0,495.0
464.0,491.0
425.0,494.0
442.0,488.0
472.0,490.0
514.0,482.0
546.0,490.0
556.0,493.0
529.0,508.0
588.0,518.0
562.0,520.0
539.0,514.0
508.0,514.0
490.0,503.0
476.0,503.0
500.0,513.0
528.0,512.0
510.0,509.0
499.0,501.0
518.0,488.0
533.0,499.0
510.0,490.0
522.0,507.0
476.0,502.0
482.0,511.0
521.0,507.0
554.0,509.0
529.0,508.0
536.0,519.0
520.0,511.0
461.0,503.0
455.0,504.0
488.0,508.0
552.0,506.0
549.0,513.0
520.0,504.0
515.0,494.0
523.0,492.0
499.0,486.0
508.0,494.0
485.0,507.0
475.0,509.0
521.0,507.0
558.0,513.0
553.0,518.0
537.0,509.0
490.0,509.0
483.0,503.0
476.0,497.0
482.0,483.0
527.0,498.0
536.0,498.0
511.0,504.0
518.0,504.0
503.0,516.0
536.0,511.0
520.0,519.0
509.0,520.0
492.0,523.0
455.0,510.0
465.0,493.0
544.0,488.0
543.0,498.0
518.0,501.0
513.0,508.0
504.0,496.0
503.0,509.0
492.0,516.0
489.0,513.0
481.0,507.0
452.0,497.0
425.0,494.0
460.0,479.0
499.0,475.0
537.0,488.0
607.0,506.0
599.0,517.0
557.0,533.0
520.0,526.0
505.0,507.0
466.0,498.0
457.0,477.0
498.0,477.0
537.0,507.0
549.0,507.0
544.0,497.0
490.0,495.0
489.0,493.0
493.0,505.0
500.0,514.0
498.0,516.0
504.0,507.0
509.0,522.0
496.0,514.0
490.0,505.0
483.0,507.0
498.0,514.0
486.0,520.0
502.0,517.0
481.0,505.0
459.0,501.0
454.0,494.0
437.0,498.0
485.0,492.0
536.0,490.0
565.0,490.0
602.0,477.0
595.0,495.0
530.0,506.0
506.0,513.0
496.0,507.0
495.0,515.0
508.0,525.0
529.0,505.0
495.0,508.0
492.0,500.0
494.0,500.0
519.0,497.0
573.0,496.0
528.0,494.0
477.0,493.0
480.0,495.0
515.0,490.0
530.0,497.0
592.0,502.0
600.0,511.0
494.0,531.0
491.0,523.0
509.0,521.0
503.0,519.0
474.0,517.0
488.0,519.0
461.0,503.0
456.0,498.0
454.0,486.0
487.0,488.0
505.0,480.0
575.0,477.0
634.0,481.0
668.0,502.0
624.0,500.0
516.0,513.0
457.0,535.0
458.0,530.0
491.0,530.0
502.0,523.0
499.0,506.0
510.0,501.0
522.0,511.0
506.0,509.0
496.0,489.0
477.0,497.0
409.0,483.0
457.0,478.0
506.0,496.0
551.0,500.0
521.0,497.0
547.0,519.0
547.0,530.0
532.0,532.0
513.0,525.0
516.0,513.0
508.0,497.0
502.0,491.0
496.0,496.0
477.0,491.0
451.0,496.0
455.0,492.0
481.0,481.0
524.0,473.0
530.0,494.0
533.0,499.0
520.0,495.0
507.0,503.0
511.0,509.0
532.0,514.0
558.0,508.0
539.0,519.0
537.0,529.0
540.0,509.0
530.0,513.0
526.0,507.0
528.0,506.0
503.0,502.0
422.0,501.0
434.0,482.0
440.0,470.0
449.0,464.0
507.0,480.0
511.0,510.0
512.0,515.0
546.0,513.0
529.0,522.0
507.0,511.0
515.0,503.0
534.0,508.0
550.0,524.0
523.0,523.0
488.0,519.0
510.0,510.0
532.0,496.0
542.0,486.0
513.0,484.0
513.0,478.0
452.0,494.0
448.0,498.0
503.0,493.0
539.0,504.0
576.0,513.0
602.0,524.0
557.0,519.0
527.0,518.0
513.0,515.0
515.0,495.0
509.0,505.0
485.0,510.0
441.0,510.0
446.0,500.0
460.0,491.0
484.0,484.0
543.0,485.0
555.0,491.0
550.0,498.0
543.0,485.0
520.0,501.0
547.0,506.0
531.0,521.0
497.0,511.0
494.0,513.0
538.0,501.0
549.0,502.0
532.0,503.0
495.0,499.0
478.0,499.0
437.0,494.0
492.0,480.0
536.0,490.0
529.0,503.0
510.0,503.0
514.0,499.0
530.0,499.0
522.0,497.0
523.0,502.0
512.0,512.0
497.0,520.0
494.0,501.0
504.0,511.0
496.0,518.0
487.0,517.0
492.0,517.0
491.0,488.0
488.0,505.0
482.0,484.0
453.0,485.0
445.0,482.0
469.0,491.0
478.0,504.0
536.0,502.0
577.0,509.0
585.0,509.0
544.0,505.0
499.0,516.0
464.0,508.0
493.0,501.0
530.0,497.0
556.0,496.0
547.0,494.0
521.0,494.0
478.0,489.0
502.0,479.0
511.0,496.0
525.0,490.0
525.0,510.0
508.0,521.0
492.0,508.0
503.0,512.0
517.0,507.0
542.0,513.0
535.0,519.0
534.0,508.0
533.0,500.0
555.0,499.0
533.0,486.0
515.0,488.0
460.0,492.0
489.0,488.0
500.0,500.0
511.0,508.0
511.0,499.0
491.0,505.0
483.0,511.0
489.0,515.0
472.0,518.0
460.0,514.0
466.0,519.0
477.0,514.0
489.0,509.0
533.0,504.0
550.0,488.0
554.0,486.0
548.0,500.0
547.0,514.0
543.0,504.0
534.0,490.0
517.0,493.0
524.0,489.0
530.0,501.0
518.0,520.0
502.0,515.0
495.0,503.0
478.0,505.0
482.0,503.0
507.0,513.0
497.0,511.0
527.0,506.0
502.0,501.0
502.0,497.0
496.0,490.0
512.0,495.0
533.0,487.0
536.0,485.0
530.0,478.0
531.0,491.0
518.0,498.0
484.0,503.0
499.0,504.0
516.0,517.0
517.0,518.0
508.0,509.0
498.0,513.0
501.0,508.0
500.0,506.0
496.0,497.0
503.0,500.0
510.0,496.0
490.0,497.0
503.0,488.0
493.0,492.0
502.0,490.0
510.0,500.0
518.0,513.0
515.0,509.0
518.0,516.0
515.0,517.0
522.0,518.0
511.0,518.0
520.0,510.0
505.0,508.0
495.0,494.0
492.0,501.0
501.0,499.0
493.0,486.0
495.0,489.0
498.0,482.0
497.0,488.0
517.0,487.0
526.0,497.0
518.0,501.0
528.0,511.0
541.0,517.0
539.0,519.0
509.0,511.0
509.0,509.0
516.0,511.0
521.0,506.0
516.0,492.0
514.0,495.0
505.0,480.0
489.0,489.0
462.0,496.0
448.0,490.0
462.0,479.0
456.0,493.0
476.0,486.0
497.0,503.0
539.0,506.0
570.0,501.0
584.0,517.0
572.0,515.0
540.0,516.0
527.0,513.0
531.0,512.0
527.0,513.0
511.0,511.0
508.0,502.0
494.0,492.0
483.0,495.0
483.0,495.0
494.0,490.0
506.0,492.0
529.0,497.0
529.0,497.0
536.0,511.0
529.0,513.0
523.0,514.0
512.0,509.0
494.0,502.0
489.0,502.0
505.0,495.0
520.0,498.0
527.0,491.0
545.0,494.0
523.0,493.0
505.0,496.0
493.0,485.0
465.0,503.0
474.0,499.0
471.0,500.0
511.0,505.0
552.0,507.0
546.0,520.0
560.0,522.0
563.0,512.0
552.0,511.0
526.0,512.0
515.0,497.0
491.0,510.0
502.0,501.0
507.0,496.0
498.0,498.0
497.0,498.0
498.0,494.0
512.0,495.0
520.0,492.0
518.0,499.0
525.0,511.0
524.0,516.0
514.0,520.0
518.0,516.0
510.0,508.0
506.0,503.0
506.0,504.0
505.0,500.0
508.0,500.0
504.0,494.0
504.0,490.0
500.0,480.0
501.0,489.0
500.0,492.0
505.0,504.0
506.0,503.0
521.0,507.0
526.0,513.0
526.0,515.0
516.0,517.0
516.0,512.0
512.0,513.0
498.0,513.0
498.0,504.0
503.0,488.0
493.0,494.0
499.0,490.0
500.0,492.0
493.0,495.0
501.0,496.0
502.0,497.0
504.0,495.0
524.0,506.0
524.0,510.0
526.0,515.0
518.0,508.0
510.0,502.0
502.0,508.0
504.0,509.0
507.0,497.0
508.0,501.0
503.0,490.0
488.0,501.0
491.0,497.0
499.0,491.0
499.0,489.0
503.0,489.0
504.0,494.0
509.0,504.0
511.0,504.0
524.0,506.0
525.0,518.0
509.0,511.0
510.0,515.0
507.0,505.0
516.0,507.0
522.0,504.0
514.0,492.0
508.0,495.0
498.0,491.0
491.0,489.0
496.0,489.0
508.0,491.0
523.0,493.0
520.0,498.0
520.0,503.0
530.0,507.0
519.0,517.0
515.0,512.0
510.0,517.0
499.0,507.0
443.0,513.0
443.0,509.0
469.0,505.0
499.0,497.0
534.0,495.0
549.0,496.0
543.0,497.0
550.0,490.0
535.0,496.0
527.0,490.0
528.0,496.0
523.0,510.0
510.0,510.0
501.0,516.0
494.0,514.0
490.0,515.0
499.0,511.0
530.0,514.0
534.0,504.0
499.0,505.0
507.0,499.0
515.0,488.0
515.0,491.0
505.0,494.0
509.0,489.0
494.0,496.0
500.0,497.0
501.0,504.0
517.0,501.0
521.0,513.0
527.0,517.0
530.0,516.0
525.0,516.0
512.0,507.0
515.0,501.0
494.0,502.0
497.0,504.0
502.0,501.0
501.0,498.0
497.0,497.0
492.0,495.0
492.0,494.0
502.0,492.0
498.0,492.0
512.0,504.0
524.0,504.0
526.0,514.0
521.0,519.0
521.0,516.0
514.0,512.0
508.0,501.0
500.0,512.0
498.0,506.0
500.0,499.0
502.0,493.0
502.0,495.0
496.0,496.0
500.0,491.0
495.0,493.0
495.0,499.0
507.0,493.0
513.0,503.0
523.0,513.0
520.0,518.0
520.0,523.0
521.0,518.0
505.0,511.0
509.0,506.0
499.0,512.0
508.0,501.0
504.0,487.0
491.0,493.0
497.0,500.0
504.0,490.0
498.0,485.0
503.0,491.0
504.0,495.0
511.0,502.0
509.0,506.0
521.0,514.0
524.0,511.0
520.0,517.0
522.0,518.0
506.0,516.0
501.0,515.0
508.0,505.0
507.0,499.0
506.0,496.0
501.0,488.0
494.0,492.0
493.0,482.0
496.0,489.0
496.0,495.0
510.0,504.0
510.0,508.0
510.0,517.0
532.0,519.0
520.0,521.0
516.0,518.0
509.0,519.0
515.0,522.0
506.0,509.0
499.0,517.0
502.0,507.0
487.0,494.0
490.0,472.0
498.0,472.0
487.0,487.0
497.0,489.0
496.0,489.0
501.0,494.0
519.0,496.0
527.0,514.0
526.0,523.0
517.0,519.0
517.0,514.0
512.0,510.0
506.0,499.0
499.0,503.0
510.0,494.0
502.0,492.0
498.0,500.0
487.0,499.0
492.0,495.0
488.0,496.0
495.0,498.0
498.0,490.0
504.0,494.0
511.0,507.0
516.0,513.0
521.0,514.0
505.0,512.0
504.0,515.0
507.0,509.0
503.0,508.0
506.0,502.0
515.0,490.0
523.0,494.0
510.0,486.0
501.0,501.0
491.0,500.0
489.0,494.0
498.0,494.0
500.0,493.0
512.0,504.0
525.0,501.0
521.0,511.0
523.0,514.0
525.0,517.0
513.0,516.0
499.0,508.0
504.0,506.0
502.0,506.0
515.0,499.0
512.0,487.0
503.0,500.0
501.0,490.0
499.0,487.0
489.0,485.0
477.0,493.0
500.0,495.0
501.0,499.0
517.0,511.0
517.0,508.0
520.0,515.0
519.0,513.0
509.0,516.0
511.0,508.0
504.0,498.0
499.0,497.0
503.0,497.0
501.0,493.0
501.0,491.0
497.0,490.0
496.0,489.0
505.0,492.0
500.0,503.0
503.0,497.0
515.0,514.0
523.0,515.0
515.0,518.0
514.0,511.0
519.0,514.0
505.0,512.0
508.0,505.0
507.0,495.0
508.0,499.0
496.0,503.0
499.0,498.0
504.0,491.0
499.0,490.0
498.0,477.0
495.0,491.0
508.0,502.0
511.0,512.0
516.0,512.0
522.0,516.0
517.0,510.0
520.0,514.0
516.0,516.0
506.0,506.0
497.0,514.0
503.0,504.0
505.0,501.0
504.0,499.0
507.0,493.0
502.0,493.0
499.0,490.0
494.0,493.0
505.0,492.0
505.0,493.0
519.0,508.0
519.0,515.0
526.0,534.0
523.0,537.0
522.0,533.0
510.0,519.0
513.0,501.0
505.0,483.0
512.0,490.0
500.0,499.0
500.0,503.0
498.0,481.0
492.0,488.0
502.0,485.0
490.0,492.0
507.0,482.0
509.0,488.0
518.0,500.0
520.0,509.0
524.0,514.0
522.0,511.0
519.0,517.0
511.0,505.0
504.0,509.0
495.0,511.0
508.0,501.0
501.0,492.0
492.0,501.0
505.0,493.0
497.0,485.0
496.0,482.0
494.0,497.0
500.0,503.0
512.0,502.0
510.0,510.0
523.0,517.0
520.0,519.0
509.0,509.0
514.0,511.0
508.0,505.0
506.0,503.0
496.0,507.0
501.0,496.0
503.0,496.0
491.0,500.0
501.0,485.0
497.0,494.0
495.0,489.0
505.0,493.0
499.0,494.0
509.0,500.0
520.0,511.0
518.0,514.0
520.0,515.0
513.0,511.0
516.0,513.0
508.0,513.0
509.0,505.0
505.0,499.0
508.0,498.0
501.0,487.0
495.0,497.0
500.0,490.0
493.0,484.0
502.0,491.0
504.0,494.0
502.0,496.0
509.0,506.0
519.0,514.0
527.0,521.0
517.0,511.0
516.0,516.0
510.0,516.0
509.0,512.0
505.0,504.0
505.0,500.0
506.0,497.0
501.0,489.0
494.0,498.0
499.0,485.0
500.0,484.0
495.0,498.0
519.0,500.0
523.0,504.0
528.0,505.0
522.0,511.0
518.0,510.0
522.0,514.0
504.0,513.0
493.0,503.0
501.0,503.0
502.0,500.0
491.0,503.0
493.0,489.0
499.0,493.0
500.0,489.0
499.0,487.0
495.0,487.0
498.0,486.0
503.0,499.0
504.0,500.0
519.0,513.0
520.0,522.0
509.0,520.0
518.0,520.0
517.0,519.0
515.0,514.0
512.0,507.0
502.0,510.0
510.0,494.0
501.0,486.0
496.0,494.0
498.0,493.0
497.0,491.0
497.0,494.0
497.0,498.0
507.0,495.0
517.0,508.0
522.0,515.0
518.0,510.0
522.0,512.0
520.0,516.0
511.0,510.0
499.0,510.0
508.0,501.0
505.0,500.0
503.0,495.0
503.0,501.0
500.0,496.0
494.0,500.0
505.0,494.0
502.0,488.0
505.0,499.0
509.0,497.0
514.0,507.0
525.0,515.0
522.0,516.0
521.0,509.0
517.0,513.0
515.0,503.0
502.0,512.0
511.0,502.0
496.0,504.0
512.0,497.0
503.0,493.0
499.0,493.0
499.0,482.0
500.0,485.0
505.0,496.0
507.0,495.0
513.0,500.0
521.0,507.0
524.0,512.0
527.0,516.0
525.0,516.0
517.0,517.0
503.0,506.0
498.0,511.0
505.0,497.0
500.0,506.0
500.0,497.0
506.0,493.0
501.0,491.0
502.0,491.0
503.0,490.0
505.0,486.0
512.0,500.0
516.0,499.0
518.0,512.0
524.0,518.0
523.0,519.0
518.0,507.0
509.0,512.0
509.0,503.0
497.0,508.0
504.0,501.0
507.0,500.0
503.0,489.0
501.0,488.0
486.0,494.0
498.0,484.0
502.0,487.0
500.0,500.0
515.0,501.0
520.0,504.0
517.0,500.0
526.0,509.0
521.0,513.0
523.0,516.0
513.0,513.0
510.0,509.0
510.0,505.0
498.0,512.0
503.0,503.0
507.0,502.0
493.0,509.0
497.0,501.0
492.0,496.0
504.0,481.0
501.0,487.0
510.0,509.0
517.0,518.0
532.0,531.0
523.0,516.0
511.0,496.0
507.0,479.0
515.0,507.0
512.0,499.0
506.0,497.0
502.0,496.0
506.0,496.0
501.0,487.0
496.0,501.0
496.0,493.0
501.0,477.0
504.0,483.0
504.0,498.0
514.0,504.0
527.0,510.0
524.0,510.0
524.0,511.0
519.0,510.0
516.0,516.0
506.0,515.0
505.0,501.0
508.0,501.0
504.0,495.0
509.0,495.0
512.0,497.0
509.0,490.0
511.0,488.0
509.0,494.0
503.0,500.0
511.0,499.0
516.0,507.0
525.0,514.0
524.0,519.0
511.0,519.0
511.0,516.0
511.0,512.0
502.0,507.0
502.0,492.0
499.0,501.0
493.0,504.0
500.0,500.0
494.0,495.0
490.0,496.0
492.0,492.0
500.0,489.0
504.0,490.0
515.0,496.0
522.0,508.0
526.0,516.0
519.0,519.0
522.0,512.0
512.0,510.0
514.0,511.0
508.0,506.0
505.0,499.0
502.0,502.0
507.0,497.0
513.0,494.0
494.0,497.0
494.0,496.0
501.0,485.0
502.0,501.0
504.0,500.0
523.0,508.0
521.0,510.0
527.0,512.0
523.0,517.0
516.0,517.0
517.0,518.0
513.0,513.0
509.0,502.0
507.0,496.0
513.0,504.0
506.0,495.0
494.0,496.0
492.0,496.0
495.0,495.0
496.0,496.0
507.0,489.0
514.0,502.0
520.0,505.0
520.0,507.0
524.0,509.0
524.0,518.0
518.0,522.0
506.0,509.0
513.0,503.0
510.0,500.0
501.0,507.0
511.0,498.0
505.0,494.0
494.0,499.0
504.0,493.0
503.0,494.0
493.0,504.0
508.0,496.0
513.0,510.0
514.0,505.0
527.0,512.0
530.0,519.0
530.0,518.0
525.0,513.0
508.0,514.0
500.0,513.0
500.0,500.0
491.0,507.0
495.0,504.0
492.0,501.0
503.0,489.0
500.0,491.0
494.0,494.0
507.0,494.0
508.0,499.0
514.0,509.0
523.0,508.0
528.0,516.0
517.0,515.0
520.0,514.0
516.0,512.0
510.0,509.0
509.0,504.0
510.0,492.0
505.0,492.0
495.0,500.0
503.0,492.0
499.0,492.0
502.0,490.0
504.0,492.0
508.0,495.0
520.0,501.0
528.0,508.0
531.0,510.0
531.0,518.0
524.0,521.0
513.0,512.0
507.0,506.0
497.0,508.0
507.0,507.0
504.0,498.0
500.0,493.0
483.0,498.0
499.0,490.0
495.0,480.0
497.0,485.0
506.0,491.0
505.0,498.0
512.0,508.0
520.0,511.0
522.0,516.0
522.0,515.0
514.0,515.0
513.0,509.0
516.0,514.0
514.0,506.0
509.0,502.0
505.0,497.0
502.0,495.0
498.0,488.0
491.0,496.0
489.0,495.0
498.0,485.0
502.0,493.0
505.0,505.0
520.0,507.0
523.0,511.0
524.0,514.0
522.0,517.0
509.0,511.0
511.0,509.0
505.0,502.0
501.0,509.0
504.0,502.0
507.0,499.0
501.0,489.0
501.0,486.0
498.0,488.0
491.0,490.0
495.0,497.0
503.0,489.0
512.0,501.0
517.0,508.0
516.0,504.0
523.0,512.0
519.0,516.0
510.0,509.0
512.0,510.0
507.0,503.0
500.0,501.0
502.0,506.0
504.0,499.0
503.0,496.0
507.0,491.0
504.0,488.0
504.0,487.0
507.0,486.0
511.0,495.0
516.0,501.0
518.0,504.0
517.0,511.0
521.0,515.0
513.0,510.0
512.0,506.0
516.0,508.0
500.0,511.0
501.0,504.0
507.0,498.0
508.0,495.0
501.0,496.0
501.0,497.0
501.0,484.0
502.0,491.0
508.0,497.0
515.0,502.0
513.0,502.0
514.0,509.0
522.0,516.0
517.0,516.0
518.0,519.0
508.0,513.0
500.0,504.0
502.0,505.0
491.0,504.0
507.0,502.0
505.0,493.0
503.0,488.0
499.0,489.0
500.0,492.0
504.0,494.0
500.0,501.0
508.0,508.0
517.0,516.0
520.0,520.0
528.0,524.0
521.0,516.0
519.0,511.0
512.0,500.0
506.0,499.0
505.0,507.0
506.0,509.0
503.0,495.0
502.0,493.0
506.0,480.0
502.0,488.0
492.0,494.0
503.0,500.0
510.0,508.0
513.0,509.0
525.0,510.0
512.0,492.0
522.0,510.0
518.0,515.0
516.0,513.0
510.0,515.0
505.0,505.0
506.0,508.0
508.0,501.0
508.0,499.0
500.0,498.0
495.0,495.0
496.0,492.0
502.0,493.0
498.0,498.0
516.0,499.0
521.0,500.0
534.0,514.0
535.0,520.0
525.0,511.0
521.0,517.0
512.0,519.0
491.0,514.0
488.0,509.0
497.0,502.0
496.0,505.0
500.0,500.0
499.0,494.0
499.0,488.0
502.0,490.0
504.0,492.0
503.0,500.0
505.0,503.0
512.0,508.0
520.0,511.0
522.0,520.0
511.0,514.0
514.0,516.0
512.0,513.0
505.0,506.0
505.0,504.0
505.0,501.0
502.0,491.0
507.0,496.0
502.0,494.0
496.0,497.0
499.0,488.0
505.0,495.0
508.0,499.0
515.0,504.0
517.0,507.0
528.0,516.0
516.0,510.0
521.0,520.0
515.0,513.0
516.0,511.0
507.0,504.0
501.0,505.0
495.0,509.0
498.0,502.0
506.0,489.0
510.0,496.0
509.0,491.0
506.0,489.0
504.0,493.0
509.0,496.0
508.0,501.0
520.0,512.0
514.0,512.0
518.0,522.0
517.0,517.0
509.0,510.0
511.0,509.0
509.0,505.0
507.0,502.0
507.0,499.0
503.0,500.0
499.0,502.0
493.0,494.0
493.0,494.0
501.0,493.0
496.0,498.0
506.0,497.0
520.0,502.0
524.0,511.0
520.0,520.0
522.0,516.0
513.0,511.0
515.0,516.0
512.0,508.0
509.0,503.0
508.0,502.0
510.0,500.0
502.0,499.0
501.0,499.0
499.0,486.0
502.0,490.0
503.0,491.0
506.0,496.0
513.0,502.0
526.0,514.0
525.0,517.0
524.0,516.0
521.0,519.0
518.0,514.0
511.0,509.0
505.0,501.0
505.0,493.0
505.0,493.0
507.0,497.0
506.0,496.0
493.0,496.0
500.0,489.0
494.0,498.0
504.0,487.0
512.0,503.0
518.0,507.0
529.0,514.0
521.0,503.0
525.0,521.0
520.0,517.0
519.0,515.0
503.0,502.0
508.0,503.0
516.0,501.0
514.0,495.0
512.0,492.0
508.0,485.0
509.0,494.0
496.0,499.0
490.0,500.0
498.0,500.0
509.0,506.0
515.0,509.0
523.0,514.0
520.0,515.0
526.0,521.0
518.0,518.0
510.0,508.0
511.0,503.0
512.0,503.0
506.0,492.0
508.0,492.0
505.0,493.0
509.0,493.0
493.0,496.0
497.0,487.0
504.0,497.0
511.0,492.0
515.0,500.0
525.0,510.0
525.0,511.0
524.0,517.0
516.0,515.0
511.0,514.0
513.0,510.0
510.0,511.0
509.0,504.0
506.0,494.0
505.0,492.0
503.0,489.0
504.0,492.0
502.0,492.0
500.0,494.0
498.0,500.0
511.0,498.0
514.0,509.0
521.0,512.0
517.0,519.0
522.0,515.0
518.0,516.0
516.0,507.0
507.0,513.0
497.0,504.0
496.0,506.0
503.0,502.0
511.0,495.0
507.0,492.0
502.0,490.0
500.0,492.0
497.0,497.0
508.0,494.0
512.0,501.0
514.0,505.0
523.0,513.0
524.0,515.0
516.0,509.0
518.0,518.0
514.0,516.0
511.0,508.0
509.0,503.0
510.0,501.0
509.0,497.0
507.0,495.0
507.0,492.0
501.0,490.0
498.0,495.0
503.0,488.0
508.0,500.0
518.0,499.0
524.0,509.0
530.0,515.0
522.0,510.0
523.0,517.0
517.0,507.0
512.0,510.0
509.0,506.0
508.0,502.0
507.0,498.0
511.0,497.0
501.0,497.0
494.0,499.0
500.0,483.0
500.0,492.0
506.0,500.0
517.0,508.0
524.0,514.0
524.0,503.0
523.0,498.0
525.0,517.0
515.0,515.0
513.0,511.0
513.0,513.0
503.0,504.0
497.0,495.0
511.0,493.0
502.0,488.0
501.0,488.0
502.0,493.0
505.0,491.0
500.0,487.0
505.0,477.0
504.0,488.0
519.0,500.0
525.0,508.0
524.0,517.0
519.0,513.0
508.0,507.0
513.0,512.0
515.0,511.0
512.0,503.0
509.0,501.0
504.0,495.0
505.0,490.0
503.0,494.0
493.0,498.0
499.0,491.0
503.0,494.0
503.0,497.0
517.0,504.0
517.0,505.0
526.0,509.0
524.0,517.0
519.0,520.0
515.0,511.0
517.0,513.0
515.0,507.0
513.0,503.0
509.0,499.0
507.0,496.0
506.0,496.0
488.0,497.0
501.0,486.0
496.0,487.0
507.0,494.0
510.0,499.0
519.0,501.0
525.0,516.0
524.0,511.0
523.0,519.0
511.0,511.0
517.0,515.0
512.0,505.0
505.0,503.0
507.0,507.0
509.0,501.0
511.0,497.0
506.0,494.0
496.0,495.0
499.0,485.0
500.0,497.0
512.0,496.0
511.0,503.0
522.0,513.0
527.0,516.0
523.0,519.0
523.0,517.0
511.0,510.0
504.0,516.0
508.0,504.0
508.0,505.0
499.0,505.0
496.0,504.0
503.0,499.0
501.0,489.0
499.0,490.0
500.0,492.0
505.0,490.0
502.0,494.0
506.0,500.0
527.0,508.0
534.0,513.0
530.0,516.0
522.0,519.0
522.0,509.0
504.0,513.0
493.0,513.0
495.0,503.0
483.0,507.0
491.0,502.0
490.0,503.0
495.0,495.0
489.0,494.0
499.0,493.0
502.0,497.0
498.0,495.0
513.0,508.0
521.0,514.0
515.0,513.0
523.0,519.0
518.0,509.0
518.0,517.0
514.0,510.0
505.0,502.0
503.0,494.0
504.0,496.0
506.0,493.0
506.0,492.0
506.0,492.0
503.0,491.0
500.0,487.0
507.0,495.0
510.0,500.0
524.0,509.0
530.0,513.0
519.0,519.0
521.0,512.0
512.0,513.0
507.0,514.0
510.0,508.0
508.0,504.0
506.0,502.0
508.0,498.0
510.0,495.0
508.0,493.0
500.0,494.0
501.0,484.0
504.0,494.0
502.0,494.0
513.0,507.0
517.0,500.0
526.0,510.0
525.0,519.0
521.0,515.0
523.0,520.0
512.0,512.0
508.0,506.0
509.0,504.0
508.0,499.0
508.0,498.0
508.0,495.0
503.0,492.0
503.0,491.0
500.0,485.0
496.0,500.0
511.0,500.0
517.0,509.0
516.0,509.0
521.0,511.0
524.0,520.0
518.0,516.0
512.0,514.0
506.0,506.0
514.0,506.0
507.0,503.0
509.0,500.0
502.0,498.0
506.0,496.0
500.0,484.0
498.0,482.0
492.0,496.0
496.0,490.0
517.0,503.0
524.0,508.0
525.0,507.0
526.0,516.0
519.0,510.0
518.0,515.0
513.0,515.0
505.0,510.0
506.0,498.0
511.0,503.0
516.0,498.0
515.0,492.0
509.0,487.0
503.0,483.0
501.0,491.0
498.0,497.0
498.0,499.0
508.0,503.0
518.0,505.0
523.0,521.0
519.0,521.0
529.0,522.0
524.0,517.0
515.0,511.0
508.0,498.0
507.0,493.0
504.0,502.0
499.0,497.0
486.0,501.0
494.0,485.0
495.0,472.0
501.0,489.0
505.0,486.0
505.0,500.0
516.0,506.0
521.0,500.0
524.0,503.0
525.0,512.0
519.0,515.0
516.0,505.0
511.0,510.0
506.0,504.0
501.0,504.0
504.0,500.0
503.0,498.0
502.0,490.0
499.0,486.0
498.0,482.0
502.0,486.0
504.0,492.0
506.0,497.0
517.0,507.0
526.0,513.0
520.0,517.0
518.0,511.0
518.0,517.0
514.0,512.0
506.0,501.0
504.0,497.0
502.0,504.0
506.0,499.0
506.0,496.0
507.0,492.0
496.0,488.0
498.0,487.0
501.0,486.0
506.0,494.0
503.0,504.0
515.0,504.0
525.0,508.0
525.0,514.0
519.0,510.0
518.0,514.0
502.0,514.0
504.0,502.0
501.0,502.0
496.0,503.0
505.0,499.0
502.0,487.0
502.0,494.0
499.0,492.0
499.0,492.0
502.0,488.0
507.0,497.0
516.0,507.0
521.0,513.0
517.0,513.0
518.0,517.0
520.0,518.0
508.0,516.0
506.0,503.0
495.0,511.0
510.0,502.0
503.0,495.0
498.0,494.0
501.0,498.0
485.0,497.0
489.0,488.0
497.0,493.0
489.0,499.0
509.0,494.0
520.0,500.0
519.0,504.0
523.0,518.0
520.0,514.0
508.0,513.0
504.0,511.0
507.0,511.0
503.0,508.0
507.0,501.0
504.0,497.0
487.0,502.0
502.0,487.0
499.0,482.0
499.0,493.0
501.0,494.0
507.0,496.0
515.0,497.0
521.0,513.0
521.0,508.0
516.0,520.0
520.0,518.0
514.0,508.0
516.0,511.0
509.0,503.0
502.0,494.0
505.0,504.0
508.0,497.0
506.0,494.0
504.0,496.0
506.0,485.0
500.0,493.0
502.0,486.0
503.0,498.0
519.0,503.0
522.0,510.0
523.0,515.0
524.0,517.0
515.0,512.0
521.0,514.0
511.0,509.0
505.0,501.0
502.0,507.0
500.0,503.0
501.0,500.0
504.0,489.0
502.0,487.0
503.0,491.0
499.0,487.0
495.0,493.0
511.0,497.0
521.0,504.0
523.0,512.0
518.0,510.0
519.0,517.0
520.0,515.0
513.0,513.0
507.0,505.0
499.0,508.0
503.0,494.0
503.0,495.0
503.0,493.0
505.0,492.0
501.0,492.0
487.0,487.0
504.0,493.0
512.0,499.0
517.0,501.0
519.0,506.0
527.0,507.0
515.0,509.0
513.0,513.0
507.0,509.0
506.0,503.0
498.0,513.0
505.0,502.0
498.0,502.0
499.0,498.0
496.0,498.0
503.0,485.0
507.0,492.0
509.0,490.0
502.0,496.0
512.0,497.0
515.0,498.0
518.0,511.0
515.0,516.0
521.0,519.0
519.0,516.0
515.0,508.0
511.0,508.0
494.0,512.0
500.0,505.0
502.0,493.0
502.0,494.0
502.0,494.0
501.0,491.0
491.0,496.0
502.0,491.0
505.0,494.0
505.0,496.0
518.0,505.0
523.0,513.0
524.0,515.0
522.0,516.0
518.0,508.0
519.0,513.0
509.0,506.0
503.0,508.0
504.0,496.0
508.0,496.0
503.0,497.0
506.0,495.0
497.0,495.0
504.0,494.0
505.0,491.0
503.0,496.0
516.0,502.0
511.0,504.0
526.0,513.0
526.0,512.0
521.0,512.0
517.0,515.0
503.0,511.0
507.0,511.0
509.0,503.0
499.0,505.0
505.0,494.0
506.0,497.0
503.0,493.0
504.0,494.0
507.0,495.0
506.0,496.0
509.0,490.0
508.0,500.0
527.0,512.0
520.0,521.0
524.0,516.0
523.0,510.0
515.0,507.0
504.0,512.0
507.0,506.0
498.0,512.0
497.0,509.0
502.0,503.0
499.0,486.0
504.0,487.0
506.0,486.0
500.0,481.0
497.0,498.0
509.0,493.0
511.0,502.0
523.0,504.0
525.0,517.0
523.0,512.0
516.0,512.0
511.0,513.0
516.0,511.0
511.0,505.0
511.0,501.0
506.0,499.0
496.0,502.0
493.0,497.0
492.0,488.0
506.0,491.0
504.0,494.0
512.0,497.0
503.0,496.0
521.0,512.0
518.0,514.0
525.0,516.0
520.0,515.0
516.0,508.0
511.0,507.0
506.0,509.0
510.0,508.0
506.0,498.0
501.0,503.0
499.0,497.0
500.0,499.0
500.0,489.0
506.0,491.0
508.0,491.0
510.0,503.0
516.0,499.0
518.0,512.0
518.0,512.0
520.0,514.0
517.0,516.0
515.0,517.0
509.0,514.0
502.0,509.0
503.0,504.0
499.0,504.0
496.0,505.0
502.0,490.0
502.0,492.0
500.0,490.0
504.0,492.0
506.0,499.0
509.0,493.0
514.0,503.0
526.0,509.0
525.0,517.0
518.0,510.0
518.0,516.0
512.0,515.0
514.0,508.0
511.0,506.0
501.0,507.0
500.0,505.0
505.0,499.0
498.0,499.0
496.0,497.0
501.0,482.0
502.0,492.0
502.0,497.0
505.0,502.0
520.0,509.0
525.0,513.0
529.0,516.0
523.0,516.0
515.0,510.0
513.0,502.0
507.0,509.0
502.0,508.0
504.0,505.0
508.0,492.0
506.0,495.0
489.0,497.0
498.0,485.0
494.0,494.0
505.0,495.0
513.0,499.0
507.0,504.0
523.0,512.0
522.0,512.0
526.0,516.0
519.0,512.0
520.0,517.0
507.0,515.0
505.0,515.0
506.0,503.0
509.0,499.0
502.0,498.0
504.0,494.0
513.0,489.0
510.0,488.0
509.0,490.0
511.0,493.0
517.0,501.0
504.0,501.0
517.0,507.0
520.0,517.0
519.0,512.0
522.0,516.0
512.0,511.0
495.0,511.0
502.0,503.0
491.0,508.0
504.0,499.0
497.0,489.0
497.0,488.0
500.0,488.0
500.0,483.0
501.0,489.0
503.0,500.0
509.0,496.0
520.0,505.0
523.0,512.0
515.0,515.0
519.0,516.0
516.0,517.0
513.0,511.0
502.0,509.0
511.0,499.0
510.0,498.0
507.0,490.0
509.0,497.0
506.0,493.0
494.0,493.0
499.0,490.0
501.0,488.0
502.0,487.0
517.0,504.0
522.0,505.0
528.0,520.0
523.0,509.0
514.0,507.0
515.0,515.0
513.0,501.0
502.0,511.0
499.0,506.0
496.0,503.0
500.0,502.0
498.0,498.0
495.0,500.0
501.0,482.0
498.0,498.0
510.0,496.0
512.0,506.0
519.0,509.0
523.0,514.0
521.0,511.0
516.0,513.0
518.0,516.0
518.0,516.0
511.0,513.0
514.0,504.0
506.0,497.0
505.0,494.0
504.0,495.0
501.0,496.0
499.0,494.0
502.0,488.0
505.0,493.0
507.0,491.0
507.0,503.0
519.0,502.0
529.0,514.0
520.0,516.0
517.0,517.0
515.0,512.0
513.0,506.0
508.0,499.0
501.0,511.0
492.0,500.0
504.0,492.0
505.0,491.0
506.0,492.0
496.0,495.0
502.0,491.0
507.0,494.0
512.0,498.0
513.0,507.0
519.0,515.0
525.0,514.0
514.0,516.0
518.0,513.0
522.0,515.0
514.0,510.0
507.0,498.0
509.0,503.0
503.0,504.0
498.0,503.0
498.0,502.0
505.0,485.0
506.0,491.0
509.0,491.0
512.0,491.0
501.0,493.0
513.0,498.0
517.0,503.0
517.0,505.0
519.0,519.0
520.0,521.0
511.0,522.0
514.0,519.0
502.0,513.0
501.0,487.0
502.0,487.0
502.0,500.0
503.0,492.0
504.0,496.0
498.0,497.0
502.0,482.0
505.0,490.0
506.0,505.0
520.0,510.0
524.0,514.0
525.0,523.0
524.0,507.0
518.0,505.0
514.0,512.0
510.0,506.0
506.0,497.0
504.0,495.0
506.0,500.0
507.0,495.0
494.0,497.0
493.0,495.0
502.0,492.0
507.0,495.0
506.0,500.0
512.0,501.0
514.0,513.0
522.0,509.0
531.0,512.0
529.0,518.0
522.0,518.0
505.0,515.0
513.0,506.0
501.0,502.0
493.0,490.0
490.0,500.0
502.0,494.0
504.0,491.0
500.0,491.0
487.0,498.0
502.0,493.0
503.0,501.0
516.0,505.0
515.0,510.0
522.0,512.0
527.0,518.0
517.0,507.0
514.0,507.0
509.0,512.0
506.0,502.0
503.0,495.0
503.0,493.0
509.0,492.0
497.0,495.0
501.0,489.0
494.0,494.0
499.0,494.0
507.0,492.0
514.0,495.0
519.0,505.0
522.0,512.0
528.0,516.0
517.0,511.0
518.0,516.0
503.0,513.0
515.0,508.0
506.0,498.0
509.0,500.0
506.0,499.0
499.0,499.0
502.0,488.0
499.0,486.0
506.0,489.0
499.0,497.0
509.0,500.0
516.0,502.0
518.0,514.0
526.0,517.0
515.0,516.0
522.0,517.0
515.0,514.0
507.0,506.0
503.0,511.0
508.0,503.0
508.0,500.0
497.0,501.0
499.0,497.0
498.0,495.0
497.0,484.0
485.0,496.0
505.0,496.0
500.0,498.0
517.0,507.0
525.0,511.0
524.0,512.0
524.0,515.0
515.0,506.0
515.0,515.0
511.0,509.0
509.0,505.0
505.0,502.0
505.0,499.0
505.0,493.0
501.0,488.0
499.0,482.0
498.0,482.0
501.0,486.0
506.0,491.0
515.0,507.0
520.0,502.0
523.0,507.0
518.0,510.0
524.0,518.0
516.0,510.0
513.0,512.0
498.0,512.0
504.0,505.0
513.0,500.0
513.0,497.0
507.0,495.0
501.0,492.0
496.0,489.0
501.0,490.0
492.0,496.0
505.0,488.0
511.0,497.0
508.0,503.0
522.0,518.0
517.0,509.0
524.0,516.0
509.0,509.0
510.0,506.0
499.0,514.0
499.0,510.0
504.0,499.0
505.0,492.0
507.0,493.0
506.0,489.0
502.0,490.0
503.0,494.0
504.0,498.0
511.0,502.0
519.0,506.0
524.0,512.0
524.0,514.0
523.0,522.0
524.0,521.0
506.0,507.0
505.0,515.0
506.0,499.0
508.0,501.0
498.0,504.0
498.0,498.0
503.0,493.0
501.0,489.0
498.0,489.0
504.0,490.0
507.0,494.0
512.0,500.0
516.0,509.0
521.0,515.0
519.0,512.0
505.0,508.0
508.0,515.0
498.0,515.0
501.0,508.0
499.0,510.0
494.0,508.0
506.0,494.0
504.0,489.0
507.0,494.0
491.0,487.0
497.0,496.0
506.0,500.0
502.0,510.0
515.0,515.0
526.0,513.0
527.0,513.0
521.0,509.0
525.0,517.0
515.0,517.0
504.0,512.0
508.0,508.0
502.0,491.0
505.0,489.0
503.0,493.0
501.0,501.0
494.0,481.0
488.0,476.0
482.0,481.0
486.0,491.0
491.0,489.0
499.0,501.0
517.0,509.0
514.0,511.0
529.0,521.0
531.0,520.0
530.0,515.0
512.0,510.0
509.0,499.0
508.0,507.0
505.0,503.0
511.0,498.0
515.0,494.0
497.0,496.0
501.0,484.0
503.0,482.0
506.0,499.0
512.0,502.0
515.0,509.0
524.0,512.0
525.0,519.0
511.0,513.0
515.0,516.0
510.0,506.0
506.0,509.0
496.0,497.0
496.0,504.0
487.0,501.0
487.0,502.0
481.0,500.0
487.0,496.0
486.0,493.0
495.0,485.0
513.0,491.0
535.0,503.0
545.0,508.0
536.0,510.0
532.0,518.0
526.0,510.0
526.0,517.0
520.0,513.0
519.0,508.0
513.0,504.0
517.0,504.0
515.0,495.0
512.0,498.0
510.0,492.0
494.0,497.0
495.0,496.0
505.0,495.0
511.0,498.0
512.0,505.0
521.0,513.0
517.0,511.0
515.0,510.0
504.0,515.0
494.0,517.0
493.0,504.0
496.0,511.0
497.0,492.0
508.0,503.0
516.0,497.0
522.0,493.0
513.0,496.0
510.0,491.0
504.0,498.0
515.0,489.0
515.0,498.0
512.0,508.0
512.0,514.0
515.0,516.0
507.0,510.0
510.0,512.0
515.0,518.0
522.0,510.0
522.0,503.0
526.0,504.0
515.0,506.0
515.0,494.0
509.0,490.0
497.0,488.0
507.0,491.0
504.0,498.0
505.0,497.0
518.0,510.0
518.0,504.0
521.0,508.0
529.0,521.0
520.0,510.0
515.0,508.0
512.0,510.0
505.0,505.0
487.0,494.0
487.0,501.0
482.0,499.0
486.0,501.0
483.0,485.0
490.0,486.0
519.0,491.0
524.0,482.0
517.0,495.0
511.0,496.0
517.0,504.0
525.0,509.0
528.0,518.0
524.0,514.0
523.0,513.0
518.0,508.0
508.0,506.0
506.0,503.0
517.0,499.0
511.0,492.0
505.0,501.0
509.0,493.0
506.0,495.0
501.0,495.0
504.0,493.0
507.0,500.0
512.0,511.0
522.0,514.0
519.0,513.0
506.0,512.0
508.0,511.0
524.0,509.0
510.0,507.0
515.0,506.0
523.0,498.0
521.0,499.0
514.0,494.0
495.0,493.0
482.0,494.0
490.0,493.0
492.0,494.0
486.0,498.0
506.0,500.0
533.0,499.0
526.0,507.0
521.0,512.0
505.0,513.0
494.0,510.0
481.0,510.0
464.0,511.0
486.0,503.0
511.0,507.0
533.0,495.0
526.0,493.0
502.0,483.0
497.0,487.0
499.0,490.0
513.0,486.0
533.0,498.0
539.0,499.0
550.0,509.0
550.0,517.0
548.0,517.0
529.0,510.0
517.0,510.0
501.0,516.0
501.0,501.0
514.0,507.0
503.0,500.0
501.0,507.0
518.0,501.0
513.0,497.0
514.0,478.0
516.0,494.0
517.0,499.0
514.0,504.0
526.0,506.0
516.0,504.0
516.0,513.0
510.0,519.0
514.0,520.0
504.0,515.0
505.0,509.0
495.0,486.0
490.0,491.0
489.0,493.0
479.0,498.0
491.0,485.0
493.0,489.0
495.0,490.0
502.0,495.0
509.0,495.0
526.0,503.0
529.0,513.0
534.0,513.0
532.0,517.0
523.0,518.0
514.0,508.0
506.0,511.0
503.0,502.0
486.0,508.0
498.0,497.0
494.0,492.0
496.0,496.0
514.0,487.0
508.0,488.0
500.0,498.0
494.0,500.0
483.0,501.0
491.0,504.0
504.0,516.0
502.0,511.0
519.0,522.0
520.0,522.0
528.0,522.0
518.0,513.0
508.0,509.0
490.0,509.0
502.0,501.0
507.0,497.0
514.0,499.0
496.0,483.0
506.0,491.0
526.0,491.0
523.0,498.0
519.0,505.0
531.0,504.0
538.0,516.0
532.0,515.0
523.0,521.0
513.0,516.0
516.0,513.0
520.0,508.0
516.0,503.0
508.0,501.0
500.0,504.0
487.0,499.0
483.0,496.0
481.0,485.0
488.0,485.0
489.0,492.0
498.0,491.0
514.0,503.0
508.0,508.0
518.0,517.0
513.0,513.0
525.0,512.0
534.0,514.0
525.0,505.0
523.0,506.0
512.0,503.0
491.0,505.0
486.0,505.0
488.0,505.0
474.0,507.0
476.0,492.0
478.0,499.0
507.0,494.0
523.0,499.0
529.0,498.0
537.0,510.0
533.0,513.0
526.0,520.0
522.0,523.0
524.0,522.0
513.0,508.0
498.0,505.0
516.0,500.0
515.0,495.0
519.0,497.0
511.0,500.0
515.0,490.0
512.0,488.0
507.0,485.0
510.0,498.0
500.0,500.0
501.0,512.0
520.0,516.0
520.0,523.0
512.0,517.0
515.0,517.0
520.0,517.0
508.0,519.0
503.0,510.0
493.0,496.0
478.0,497.0
484.0,500.0
506.0,487.0
498.0,479.0
489.0,480.0
485.0,485.0
486.0,480.0
494.0,502.0
515.0,517.0
549.0,520.0
544.0,518.0
530.0,520.0
514.0,519.0
503.0,506.0
497.0,511.0
500.0,499.0
518.0,507.0
521.0,513.0
530.0,496.0
517.0,492.0
504.0,496.0
497.0,487.0
512.0,491.0
526.0,498.0
522.0,509.0
516.0,509.0
526.0,513.0
523.0,510.0
513.0,512.0
521.0,517.0
512.0,513.0
509.0,507.0
504.0,492.0
496.0,490.0
475.0,501.0
497.0,492.0
499.0,497.0
497.0,489.0
501.0,492.0
506.0,498.0
502.0,501.0
501.0,511.0
495.0,505.0
498.0,508.0
502.0,521.0
516.0,525.0
524.0,518.0
522.0,503.0
526.0,498.0
509.0,509.0
497.0,504.0
496.0,509.0
495.0,502.0
493.0,494.0
503.0,484.0
519.0,485.0
518.0,489.0
528.0,505.0
529.0,504.0
533.0,514.0
538.0,521.0
539.0,521.0
535.0,520.0
533.0,519.0
537.0,517.0
522.0,514.0
509.0,515.0
472.0,500.0
438.0,495.0
435.0,486.0
436.0,482.0
454.0,480.0
482.0,484.0
521.0,495.0
536.0,504.0
547.0,522.0
549.0,519.0
568.0,511.0
567.0,516.0
557.0,517.0
550.0,509.0
535.0,507.0
532.0,506.0
536.0,504.0
534.0,497.0
510.0,495.0
479.0,496.0
490.0,492.0
501.0,488.0
473.0,491.0
466.0,493.0
473.0,511.0
472.0,515.0
482.0,514.0
492.0,512.0
508.0,506.0
523.0,511.0
525.0,516.0
512.0,501.0
493.0,496.0
488.0,496.0
493.0,496.0
494.0,499.0
518.0,491.0
530.0,486.0
529.0,496.0
534.0,499.0
533.0,507.0
519.0,513.0
507.0,513.0
485.0,511.0
476.0,512.0
467.0,514.0
492.0,510.0
502.0,505.0
515.0,504.0
523.0,505.0
537.0,492.0
545.0,492.0
544.0,489.0
531.0,483.0
507.0,490.0
504.0,492.0
505.0,502.0
509.0,510.0
517.0,513.0
518.0,522.0
524.0,518.0
503.0,508.0
500.0,504.0
483.0,508.0
504.0,498.0
526.0,494.0
514.0,502.0
507.0,504.0
490.0,509.0
492.0,496.0
496.0,493.0
509.0,493.0
486.0,494.0
478.0,496.0
493.0,509.0
518.0,515.0
554.0,514.0
579.0,510.0
561.0,508.0
533.0,507.0
528.0,517.0
516.0,513.0
502.0,499.0
501.0,500.0
475.0,500.0
477.0,494.0
478.0,492.0
477.0,489.0
397.0,503.0
425.0,497.0
467.0,507.0
495.0,513.0
523.0,515.0
580.0,519.0
581.0,522.0
552.0,521.0
522.0,513.0
488.0,503.0
498.0,492.0
487.0,485.0
498.0,490.0
534.0,487.0
498.0,497.0
503.0,502.0
529.0,498.0
549.0,503.0
530.0,499.0
533.0,498.0
556.0,497.0
553.0,506.0
534.0,520.0
518.0,521.0
525.0,518.0
495.0,526.0
443.0,518.0
436.0,506.0
437.0,508.0
473.0,497.0
525.0,491.0
513.0,497.0
498.0,467.0
450.0,484.0
466.0,490.0
500.0,490.0
512.0,494.0
525.0,521.0
534.0,523.0
526.0,526.0
521.0,511.0
524.0,515.0
547.0,505.0
542.0,500.0
571.0,499.0
568.0,496.0
528.0,499.0
479.0,495.0
472.0,501.0
487.0,492.0
497.0,502.0
488.0,511.0
496.0,516.0
516.0,517.0
518.0,518.0
499.0,519.0
511.0,508.0
494.0,513.0
468.0,489.0
466.0,481.0
500.0,481.0
519.0,514.0
557.0,512.0
567.0,500.0
535.0,503.0
519.0,504.0
528.0,496.0
527.0,494.0
523.0,498.0
507.0,501.0
516.0,514.0
524.0,513.0
496.0,522.0
478.0,531.0
482.0,503.0
466.0,481.0
463.0,494.0
460.0,503.0
463.0,493.0
456.0,492.0
473.0,475.0
491.0,498.0
488.0,510.0
526.0,520.0
550.0,519.0
534.0,514.0
500.0,507.0
508.0,512.0
498.0,522.0
454.0,519.0
450.0,505.0
480.0,510.0
511.0,517.0
547.0,505.0
573.0,506.0
583.0,508.0
547.0,494.0
524.0,485.0
546.0,491.0
570.0,484.0
538.0,485.0
477.0,493.0
470.0,505.0
460.0,509.0
461.0,519.0
524.0,512.0
520.0,510.0
535.0,508.0
557.0,511.0
475.0,506.0
385.0,503.0
406.0,505.0
468.0,492.0
528.0,498.0
522.0,487.0
475.0,496.0
482.0,506.0
481.0,513.0
548.0,524.0
593.0,526.0
622.0,528.0
582.0,520.0
549.0,508.0
536.0,516.0
558.0,517.0
543.0,518.0
544.0,522.0
485.0,505.0
488.0,498.0
504.0,492.0
457.0,480.0
460.0,492.0
476.0,490.0
499.0,498.0
497.0,488.0
477.0,475.0
493.0,490.0
476.0,502.0
516.0,514.0
527.0,517.0
541.0,501.0
544.0,511.0
520.0,511.0
490.0,520.0
473.0,529.0
459.0,513.0
481.0,507.0
516.0,507.0
568.0,496.0
583.0,475.0
589.0,484.0
559.0,487.0
558.0,472.0
496.0,459.0
492.0,497.0
505.0,532.0
514.0,548.0
536.0,535.0
528.0,518.0
508.0,506.0
479.0,503.0
467.0,500.0
467.0,497.0
441.0,495.0
400.0,503.0
401.0,481.0
458.0,478.0
521.0,506.0
558.0,509.0
542.0,486.0
544.0,506.0
556.0,511.0
550.0,524.0
530.0,524.0
522.0,508.0
510.0,500.0
512.0,508.0
511.0,493.0
462.0,496.0
447.0,492.0
436.0,464.0
486.0,478.0
543.0,486.0
553.0,494.0
576.0,488.0
570.0,515.0
541.0,515.0
465.0,515.0
421.0,516.0
418.0,510.0
452.0,509.0
466.0,510.0
482.0,510.0
559.0,510.0
544.0,506.0
537.0,503.0
539.0,501.0
544.0,501.0
529.0,489.0
540.0,488.0
536.0,486.0
502.0,507.0
473.0,510.0
486.0,507.0
511.0,527.0
524.0,514.0
544.0,516.0
559.0,520.0
518.0,511.0
539.0,505.0
568.0,500.0
567.0,504.0
496.0,501.0
425.0,503.0
373.0,487.0
385.0,476.0
488.0,493.0
567.0,497.0
587.0,497.0
554.0,500.0
512.0,498.0
484.0,502.0
544.0,490.0
574.0,491.0
531.0,514.0
488.0,508.0
484.0,516.0
514.0,519.0
558.0,517.0
582.0,499.0
543.0,489.0
435.0,491.0
397.0,482.0
441.0,481.0
474.0,479.0
477.0,484.0
533.0,496.0
564.0,506.0
562.0,514.0
548.0,512.0
534.0,500.0
504.0,502.0
490.0,505.0
459.0,499.0
462.0,516.0
475.0,511.0
525.0,517.0
576.0,509.0
607.0,498.0
558.0,497.0
540.0,497.0
505.0,502.0
484.0,506.0
505.0,500.0
510.0,507.0
483.0,524.0
469.0,514.0
484.0,500.0
515.0,527.0
542.0,515.0
549.0,468.0
513.0,508.0
501.0,490.0
514.0,487.0
475.0,492.0
457.0,497.0
465.0,486.0
489.0,495.0
504.0,518.0
541.0,531.0
555.0,510.0
549.0,501.0
505.0,504.0
474.0,500.0
488.0,495.0
499.0,504.0
545.0,500.0
563.0,496.0
537.0,492.0
500.0,486.0
449.0,493.0
407.0,493.0
409.0,491.0
476.0,500.0
587.0,497.0
630.0,493.0
617.0,516.0
524.0,530.0
389.0,514.0
392.0,513.0
549.0,499.0
592.0,492.0
556.0,504.0
522.0,509.0
463.0,495.0
460.0,492.0
458.0,475.0
472.0,482.0
493.0,466.0
547.0,476.0
523.0,490.0
533.0,507.0
561.0,509.0
551.0,496.0
546.0,514.0
525.0,519.0
559.0,493.0
593.0,519.0
553.0,505.0
514.0,501.0
509.0,486.0
503.0,500.0
529.0,520.0
513.0,510.0
442.0,506.0
359.0,486.0
346.0,490.0
440.0,495.0
528.0,494.0
608.0,500.0
644.0,509.0
558.0,520.0
500.0,524.0
495.0,524.0
506.0,515.0
526.0,498.0
507.0,514.0
504.0,507.0
515.0,476.0
523.0,476.0
466.0,503.0
393.0,497.0
409.0,488.0
485.0,484.0
572.0,490.0
595.0,491.0
611.0,512.0
622.0,506.0
559.0,507.0
454.0,503.0
410.0,513.0
440.0,532.0
461.0,516.0
457.0,515.0
503.0,515.0
528.0,523.0
528.0,498.0
508.0,490.0
533.0,502.0
551.0,496.0
527.0,509.0
509.0,516.0
509.0,499.0
510.0,497.0
492.0,501.0
509.0,492.0
526.0,510.0
498.0,516.0
493.0,510.0
537.0,511.0
510.0,501.0
487.0,495.0
463.0,487.0
444.0,494.0
476.0,501.0
413.0,503.0
470.0,489.0
486.0,491.0
513.0,489.0
551.0,496.0
598.0,510.0
565.0,521.0
589.0,524.0
571.0,527.0
556.0,502.0
530.0,484.0
486.0,510.0
493.0,504.0
508.0,516.0
489.0,517.0
449.0,523.0
459.0,511.0
483.0,501.0
502.0,486.0
516.0,479.0
542.0,486.0
562.0,511.0
568.0,512.0
594.0,500.0
533.0,495.0
442.0,496.0
403.0,498.0
448.0,512.0
442.0,513.0
488.0,498.0
574.0,501.0
573.0,489.0
523.0,490.0
506.0,492.0
527.0,503.0
498.0,492.0
503.0,495.0
516.0,491.0
524.0,498.0
532.0,516.0
556.0,531.0
512.0,520.0
505.0,495.0
530.0,517.0
596.0,521.0
616.0,504.0
575.0,490.0
500.0,506.0
425.0,481.0
429.0,481.0
447.0,478.0
490.0,469.0
493.0,502.0
501.0,512.0
485.0,506.0
511.0,513.0
540.0,522.0
534.0,521.0
527.0,509.0
538.0,512.0
532.0,508.0
512.0,502.0
509.0,511.0
482.0,506.0
482.0,500.0
480.0,485.0
479.0,471.0
490.0,473.0
535.0,473.0
466.0,492.0
460.0,500.0
509.0,501.0
503.0,503.0
518.0,511.0
552.0,509.0
530.0,518.0
507.0,510.0
510.0,504.0
517.0,522.0
493.0,502.0
445.0,488.0
465.0,489.0
479.0,486.0
483.0,490.0
554.0,509.0
556.0,499.0
530.0,498.0
522.0,516.0
553.0,505.0
559.0,507.0
555.0,514.0
551.0,513.0
516.0,511.0
474.0,510.0
424.0,503.0
400.0,498.0
457.0,511.0
493.0,516.0
534.0,516.0
568.0,492.0
560.0,472.0
486.0,479.0
461.0,490.0
448.0,508.0
500.0,525.0
538.0,511.0
590.0,511.0
584.0,516.0
527.0,508.0
515.0,493.0
525.0,516.0
530.0,510.0
506.0,503.0
504.0,485.0
507.0,479.0
517.0,495.0
503.0,486.0
462.0,490.0
448.0,492.0
454.0,506.0
451.0,503.0
502.0,503.0
531.0,515.0
526.0,506.0
499.0,506.0
484.0,508.0
518.0,503.0
554.0,508.0
595.0,501.0
607.0,495.0
528.0,489.0
507.0,507.0
508.0,509.0
502.0,497.0
498.0,492.0
512.0,508.0
553.0,499.0
532.0,497.0
497.0,507.0
535.0,510.0
504.0,514.0
466.0,528.0
459.0,503.0
500.0,490.0
527.0,504.0
551.0,515.0
542.0,519.0
501.0,495.0
456.0,488.0
479.0,476.0
491.0,481.0
504.0,485.0
480.0,505.0
475.0,488.0
493.0,505.0
527.0,515.0
517.0,513.0
515.0,515.0
541.0,522.0
543.0,516.0
532.0,510.0
515.0,529.0
495.0,515.0
487.0,506.0
496.0,488.0
495.0,488.0
490.0,496.0
479.0,495.0
450.0,502.0
492.0,491.0
526.0,488.0
515.0,502.0
512.0,513.0
533.0,504.0
519.0,515.0
501.0,533.0
491.0,539.0
491.0,519.0
485.0,510.0
496.0,492.0
485.0,487.0
509.0,490.0
507.0,490.0
515.0,486.0
512.0,502.0
512.0,491.0
519.0,501.0
503.0,512.0
500.0,518.0
539.0,514.0
553.0,513.0
545.0,510.0
526.0,499.0
497.0,497.0
480.0,507.0
478.0,506.0
484.0,502.0
479.0,500.0
482.0,496.0
476.0,487.0
455.0,493.0
460.0,487.0
445.0,475.0
440.0,499.0
492.0,502.0
584.0,506.0
577.0,516.0
594.0,512.0
587.0,519.0
559.0,510.0
546.0,513.0
520.0,504.0
520.0,510.0
511.0,512.0
524.0,493.0
461.0,492.0
420.0,482.0
473.0,477.0
561.0,492.0
584.0,494.0
574.0,494.0
535.0,512.0
518.0,525.0
520.0,528.0
516.0,518.0
518.0,508.0
544.0,505.0
505.0,506.0
496.0,503.0
485.0,519.0
488.0,506.0
505.0,491.0
545.0,498.0
513.0,499.0
507.0,491.0
518.0,482.0
526.0,488.0
508.0,502.0
508.0,518.0
493.0,522.0
526.0,519.0
552.0,527.0
517.0,491.0
491.0,469.0
495.0,486.0
475.0,503.0
482.0,488.0
488.0,483.0
513.0,498.0
493.0,508.0
488.0,495.0
480.0,505.0
496.0,483.0
508.0,504.0
505.0,510.0
511.0,510.0
529.0,513.0
542.0,523.0
526.0,534.0
517.0,526.0
468.0,502.0
448.0,482.0
479.0,456.0
505.0,457.0
518.0,471.0
529.0,505.0
544.0,541.0
540.0,545.0
509.0,537.0
501.0,504.0
491.0,486.0
501.0,499.0
516.0,509.0
506.0,518.0
492.0,488.0
487.0,455.0
511.0,495.0
523.0,515.0
529.0,482.0
502.0,498.0
494.0,511.0
512.0,523.0
500.0,514.0
506.0,497.0
469.0,490.0
450.0,488.0
437.0,495.0
471.0,493.0
520.0,498.0
571.0,512.0
595.0,528.0
579.0,523.0
557.0,516.0
540.0,514.0
519.0,531.0
569.0,522.0
565.0,493.0
531.0,498.0
537.0,483.0
480.0,482.0
360.0,473.0
433.0,468.0
532.0,485.0
575.0,494.0
532.0,503.0
451.0,518.0
392.0,530.0
475.0,524.0
520.0,521.0
546.0,523.0
545.0,524.0
508.0,502.0
501.0,509.0
541.0,519.0
505.0,504.0
495.0,498.0
516.0,478.0
514.0,487.0
514.0,480.0
514.0,489.0
507.0,499.0
524.0,513.0
565.0,512.0
563.0,515.0
535.0,515.0
532.0,507.0
547.0,502.0
556.0,494.0
573.0,487.0
556.0,482.0
527.0,515.0
494.0,516.0
455.0,486.0
483.0,487.0
485.0,493.0
472.0,494.0
489.0,482.0
493.0,484.0
497.0,499.0
520.0,518.0
476.0,527.0
464.0,522.0
494.0,521.0
472.0,510.0
452.0,514.0
476.0,510.0
486.0,507.0
537.0,501.0
609.0,502.0
573.0,490.0
540.0,474.0
519.0,482.0
480.0,477.0
484.0,482.0
496.0,509.0
520.0,537.0
524.0,529.0
518.0,542.0
516.0,533.0
506.0,515.0
528.0,500.0
552.0,497.0
519.0,502.0
486.0,498.0
473.0,509.0
476.0,473.0
486.0,461.0
512.0,493.0
526.0,491.0
522.0,488.0
503.0,494.0
499.0,488.0
497.0,493.0
500.0,510.0
528.0,528.0
556.0,526.0
515.0,508.0
451.0,500.0
436.0,503.0
450.0,499.0
496.0,496.0
540.0,500.0
552.0,505.0
517.0,503.0
510.0,502.0
509.0,481.0
526.0,503.0
508.0,509.0
504.0,505.0
474.0,509.0
461.0,520.0
488.0,520.0
501.0,513.0
538.0,508.0
578.0,501.0
513.0,489.0
490.0,493.0
523.0,494.0
502.0,489.0
489.0,489.0
492.0,491.0
489.0,494.0
474.0,497.0
530.0,517.0
562.0,526.0
595.0,518.0
583.0,527.0
555.0,522.0
481.0,524.0
494.0,512.0
499.0,499.0
495.0,474.0
482.0,482.0
505.0,501.0
514.0,503.0
483.0,497.0
479.0,494.0
448.0,502.0
453.0,493.0
472.0,490.0
481.0,506.0
541.0,511.0
531.0,510.0
551.0,510.0
589.0,514.0
593.0,507.0
531.0,502.0
480.0,513.0
510.0,525.0
508.0,518.0
518.0,499.0
497.0,477.0
485.0,486.0
485.0,497.0
488.0,486.0
515.0,486.0
446.0,485.0
436.0,475.0
476.0,497.0
488.0,522.0
545.0,517.0
603.0,520.0
583.0,518.0
538.0,516.0
538.0,530.0
530.0,526.0
552.0,512.0
539.0,511.0
459.0,482.0
411.0,479.0
445.0,475.0
451.0,473.0
501.0,485.0
525.0,505.0
513.0,494.0
527.0,496.0
534.0,509.0
515.0,512.0
521.0,500.0
522.0,510.0
486.0,519.0
479.0,527.0
471.0,526.0
518.0,515.0
549.0,506.0
523.0,507.0
512.0,499.0
489.0,502.0
477.0,504.0
525.0,499.0
554.0,494.0
555.0,496.0
521.0,500.0
505.0,514.0
493.0,502.0
538.0,510.0
521.0,510.0
503.0,501.0
495.0,512.0
493.0,506.0
533.0,490.0
554.0,473.0
532.0,474.0
485.0,504.0
471.0,508.0
473.0,498.0
460.0,493.0
441.0,507.0
489.0,513.0
516.0,521.0
519.0,522.0
553.0,512.0
575.0,509.0
555.0,505.0
562.0,514.0
550.0,500.0
518.0,509.0
482.0,506.0
468.0,505.0
461.0,492.0
492.0,489.0
538.0,493.0
548.0,484.0
553.0,494.0
538.0,500.0
527.0,513.0
558.0,521.0
529.0,508.0
488.0,500.0
497.0,511.0
510.0,528.0
516.0,516.0
516.0,515.0
481.0,506.0
481.0,474.0
502.0,503.0
497.0,512.0
515.0,491.0
513.0,480.0
538.0,478.0
518.0,488.0
532.0,508.0
493.0,528.0
478.0,541.0
458.0,515.0
462.0,519.0
482.0,512.0
492.0,486.0
498.0,473.0
529.0,479.0
505.0,486.0
491.0,492.0
481.0,501.0
489.0,476.0
511.0,483.0
491.0,488.0
475.0,492.0
484.0,492.0
515.0,514.0
587.0,536.0
624.0,544.0
606.0,525.0
573.0,506.0
515.0,503.0
434.0,502.0
407.0,479.0
397.0,477.0
397.0,478.0
471.0,486.0
513.0,494.0
548.0,503.0
599.0,499.0
587.0,497.0
586.0,492.0
548.0,500.0
539.0,526.0
538.0,537.0
535.0,516.0
505.0,506.0
482.0,509.0
459.0,508.0
463.0,494.0
487.0,498.0
503.0,489.0
499.0,500.0
490.0,514.0
505.0,501.0
516.0,506.0
537.0,497.0
518.0,485.0
500.0,503.0
486.0,504.0
491.0,520.0
475.0,519.0
539.0,520.0
571.0,519.0
557.0,503.0
527.0,501.0
475.0,503.0
447.0,509.0
482.0,504.0
492.0,505.0
488.0,483.0
493.0,490.0
500.0,486.0
518.0,502.0
545.0,508.0
557.0,507.0
552.0,493.0
532.0,501.0
515.0,504.0
570.0,513.0
565.0,536.0
528.0,532.0
521.0,525.0
533.0,495.0
473.0,479.0
447.0,481.0
443.0,482.0
438.0,474.0
468.0,469.0
485.0,469.0
494.0,495.0
518.0,508.0
528.0,512.0
561.0,516.0
630.0,521.0
599.0,511.0
515.0,505.0
483.0,498.0
473.0,520.0
494.0,519.0
502.0,511.0
499.0,516.0
468.0,487.0
475.0,494.0
481.0,495.0
464.0,507.0
444.0,509.0
433.0,489.0
435.0,505.0
464.0,500.0
515.0,514.0
561.0,527.0
595.0,535.0
595.0,510.0
552.0,488.0
522.0,507.0
492.0,509.0
490.0,495.0
508.0,482.0
555.0,463.0
554.0,484.0
552.0,491.0
531.0,495.0
516.0,501.0
473.0,503.0
474.0,496.0
509.0,519.0
537.0,513.0
524.0,496.0
486.0,499.0
472.0,510.0
476.0,522.0
490.0,520.0
522.0,501.0
508.0,495.0
484.0,499.0
449.0,494.0
469.0,495.0
497.0,482.0
534.0,491.0
550.0,497.0
536.0,520.0
465.0,513.0
471.0,512.0
469.0,511.0
480.0,519.0
523.0,511.0
558.0,509.0
537.0,503.0
506.0,500.0
519.0,503.0
477.0,498.0
491.0,493.0
542.0,495.0
556.0,493.0
532.0,477.0
530.0,477.0
534.0,481.0
510.0,500.0
525.0,514.0
535.0,510.0
572.0,524.0
575.0,515.0
542.0,530.0
486.0,528.0
466.0,509.0
421.0,522.0
396.0,503.0
455.0,490.0
516.0,493.0
547.0,485.0
558.0,498.0
563.0,496.0
561.0,498.0
524.0,506.0
517.0,504.0
530.0,519.0
521.0,514.0
523.0,524.0
521.0,519.0
547.0,503.0
538.0,494.0
526.0,481.0
523.0,500.0
490.0,503.0
450.0,488.0
454.0,485.0
484.0,480.0
460.0,477.0
446.0,489.0
460.0,492.0
452.0,480.0
494.0,492.0
514.0,503.0
494.0,515.0
506.0,521.0
531.0,517.0
561.0,518.0
563.0,520.0
545.0,521.0
516.0,504.0
513.0,505.0
492.0,493.0
502.0,487.0
502.0,486.0
482.0,490.0
483.0,495.0
496.0,491.0
510.0,497.0
511.0,508.0
522.0,516.0
531.0,507.0
535.0,520.0
490.0,508.0
520.0,501.0
553.0,506.0
534.0,500.0
517.0,492.0
494.0,484.0
493.0,487.0
524.0,481.0
505.0,493.0
481.0,506.0
485.0,503.0
470.0,496.0
453.0,501.0
481.0,497.0
504.0,499.0
543.0,518.0
541.0,523.0
546.0,523.0
544.0,513.0
515.0,504.0
490.0,501.0
493.0,486.0
533.0,489.0
522.0,510.0
494.0,503.0
491.0,496.0
529.0,504.0
509.0,507.0
502.0,504.0
527.0,509.0
504.0,501.0
458.0,484.0
484.0,491.0
491.0,506.0
462.0,520.0
475.0,508.0
507.0,496.0
518.0,503.0
557.0,507.0
565.0,506.0
560.0,497.0
524.0,492.0
496.0,486.0
498.0,482.0
509.0,492.0
510.0,503.0
523.0,501.0
520.0,519.0
511.0,516.0
509.0,509.0
532.0,507.0
530.0,507.0
503.0,502.0
503.0,504.0
483.0,513.0
487.0,515.0
487.0,505.0
476.0,503.0
475.0,495.0
497.0,476.0
490.0,492.0
500.0,497.0
498.0,488.0
522.0,499.0
515.0,515.0
512.0,517.0
518.0,528.0
521.0,524.0
512.0,516.0
526.0,508.0
537.0,508.0
528.0,492.0
529.0,505.0
494.0,501.0
444.0,497.0
461.0,492.0
454.0,483.0
506.0,484.0
557.0,498.0
556.0,505.0
568.0,511.0
560.0,510.0
547.0,525.0
496.0,515.0
503.0,522.0
490.0,513.0
487.0,498.0
481.0,502.0
484.0,502.0
492.0,501.0
481.0,494.0
473.0,492.0
449.0,502.0
461.0,503.0
503.0,491.0
540.0,482.0
574.0,477.0
559.0,509.0
556.0,530.0
556.0,529.0
523.0,516.0
518.0,508.0
518.0,488.0
506.0,494.0
479.0,490.0
456.0,498.0
480.0,495.0
503.0,494.0
499.0,484.0
508.0,489.0
499.0,489.0
496.0,492.0
473.0,499.0
466.0,496.0
479.0,512.0
504.0,521.0
554.0,515.0
589.0,519.0
546.0,513.0
540.0,512.0
529.0,509.0
520.0,508.0
522.0,502.0
520.0,499.0
515.0,494.0
507.0,494.0
499.0,492.0
493.0,488.0
504.0,485.0
513.0,493.0
495.0,498.0
480.0,512.0
477.0,509.0
490.0,501.0
489.0,510.0
519.0,517.0
527.0,522.0
508.0,508.0
520.0,492.0
514.0,502.0
513.0,498.0
513.0,486.0
524.0,496.0
534.0,495.0
542.0,495.0
538.0,492.0
525.0,502.0
506.0,509.0
503.0,519.0
515.0,513.0
518.0,515.0
515.0,496.0
501.0,501.0
501.0,513.0
496.0,506.0
500.0,507.0
494.0,495.0
481.0,502.0
465.0,495.0
467.0,481.0
474.0,482.0
497.0,498.0
516.0,499.0
517.0,503.0
538.0,509.0
534.0,514.0
519.0,513.0
518.0,520.0
516.0,517.0
519.0,509.0
501.0,507.0
513.0,493.0
505.0,507.0
511.0,495.0
498.0,492.0
497.0,495.0
500.0,480.0
496.0,480.0
501.0,484.0
510.0,498.0
510.0,502.0
534.0,512.0
532.0,514.0
519.0,505.0
512.0,511.0
524.0,502.0
522.0,508.0
520.0,496.0
511.0,504.0
514.0,490.0
511.0,493.0
507.0,490.0
493.0,491.0
486.0,480.0
485.0,483.0
503.0,491.0
514.0,495.0
523.0,514.0
526.0,521.0
520.0,518.0
523.0,509.0
519.0,506.0
508.0,504.0
504.0,512.0
501.0,492.0
505.0,499.0
502.0,491.0
498.0,494.0
493.0,482.0
495.0,490.0
499.0,492.0
508.0,491.0
508.0,502.0
525.0,504.0
524.0,520.0
528.0,517.0
520.0,521.0
509.0,511.0
531.0,514.0
514.0,511.0
514.0,503.0
506.0,494.0
508.0,494.0
501.0,499.0
504.0,492.0
478.0,492.0
474.0,493.0
473.0,490.0
462.0,495.0
463.0,503.0
475.0,499.0
497.0,512.0
531.0,514.0
555.0,520.0
560.0,518.0
559.0,515.0
534.0,512.0
534.0,500.0
528.0,495.0
517.0,506.0
518.0,499.0
516.0,484.0
500.0,498.0
502.0,495.0
519.0,493.0
533.0,507.0
540.0,503.0
549.0,510.0
535.0,518.0
511.0,510.0
495.0,518.0
489.0,512.0
492.0,504.0
492.0,506.0
510.0,496.0
519.0,495.0
510.0,495.0
508.0,493.0
493.0,506.0
493.0,501.0
483.0,498.0
495.0,499.0
511.0,487.0
517.0,498.0
529.0,498.0
541.0,505.0
537.0,521.0
529.0,530.0
517.0,511.0
511.0,494.0
511.0,496.0
500.0,501.0
511.0,499.0
486.0,496.0
496.0,503.0
497.0,498.0
500.0,492.0
503.0,489.0
500.0,502.0
512.0,506.0
521.0,508.0
518.0,515.0
524.0,524.0
521.0,528.0
516.0,519.0
511.0,519.0
508.0,491.0
502.0,496.0
498.0,509.0
509.0,497.0
512.0,494.0
503.0,486.0
493.0,494.0
500.0,492.0
501.0,491.0
503.0,496.0
517.0,509.0
517.0,517.0
524.0,519.0
523.0,514.0
521.0,510.0
525.0,512.0
509.0,512.0
507.0,500.0
508.0,502.0
507.0,502.0
506.0,495.0
504.0,488.0
495.0,496.0
505.0,489.0
505.0,488.0
506.0,490.0
515.0,497.0
513.0,500.0
523.0,509.0
526.0,516.0
522.0,521.0
514.0,512.0
515.0,518.0
513.0,508.0
506.0,495.0
506.0,496.0
505.0,499.0
511.0,495.0
503.0,480.0
501.0,485.0
497.0,495.0
505.0,493.0
512.0,489.0
503.0,494.0
510.0,504.0
523.0,511.0
517.0,511.0
518.0,509.0
518.0,521.0
514.0,517.0
504.0,504.0
512.0,495.0
506.0,493.0
500.0,507.0
503.0,494.0
494.0,497.0
504.0,489.0
496.0,487.0
492.0,490.0
509.0,504.0
517.0,500.0
528.0,511.0
524.0,514.0
525.0,516.0
516.0,520.0
520.0,517.0
514.0,510.0
510.0,506.0
505.0,492.0
498.0,501.0
503.0,491.0
505.0,494.0
502.0,494.0
495.0,494.0
501.0,493.0
499.0,495.0
510.0,494.0
519.0,505.0
522.0,515.0
520.0,518.0
521.0,518.0
516.0,517.0
505.0,516.0
501.0,508.0
507.0,504.0
501.0,512.0
502.0,514.0
500.0,516.0
502.0,507.0
504.0,504.0
502.0,495.0
496.0,498.0
507.0,502.0
516.0,510.0
517.0,520.0
511.0,512.0
519.0,526.0
519.0,529.0
518.0,532.0
516.0,536.0
509.0,512.0
512.0,502.0
505.0,499.0
504.0,505.0
507.0,496.0
496.0,500.0
493.0,482.0
486.0,495.0
499.0,500.0
505.0,504.0
514.0,510.0
526.0,507.0
523.0,506.0
527.0,513.0
523.0,519.0
507.0,520.0
498.0,506.0
498.0,510.0
487.0,510.0
497.0,498.0
497.0,503.0
502.0,504.0
503.0,493.0
503.0,493.0
495.0,499.0
507.0,497.0
510.0,497.0
518.0,508.0
520.0,516.0
529.0,518.0
525.0,519.0
524.0,520.0
511.0,516.0
506.0,517.0
498.0,511.0
500.0,501.0
499.0,504.0
511.0,497.0
501.0,487.0
490.0,500.0
490.0,497.0
499.0,479.0
505.0,499.0
496.0,502.0
517.0,512.0
522.0,506.0
527.0,523.0
521.0,519.0
520.0,518.0
511.0,507.0
513.0,511.0
513.0,502.0
511.0,506.0
499.0,502.0
500.0,482.0
496.0,494.0
505.0,489.0
499.0,485.0
501.0,494.0
505.0,501.0
516.0,498.0
520.0,507.0
521.0,510.0
519.0,512.0
519.0,515.0
517.0,516.0
511.0,511.0
511.0,508.0
504.0,503.0
496.0,507.0
504.0,501.0
497.0,495.0
505.0,492.0
503.0,487.0
502.0,488.0
502.0,487.0
508.0,499.0
512.0,508.0
519.0,507.0
517.0,513.0
514.0,509.0
513.0,512.0
517.0,512.0
510.0,499.0
505.0,504.0
508.0,499.0
512.0,496.0
505.0,498.0
503.0,484.0
489.0,476.0
478.0,476.0
488.0,471.0
496.0,487.0
510.0,499.0
514.0,503.0
519.0,503.0
523.0,511.0
520.0,505.0
519.0,500.0
512.0,505.0
510.0,497.0
499.0,501.0
500.0,489.0
505.0,493.0
501.0,492.0
498.0,479.0
492.0,488.0
495.0,486.0
499.0,487.0
509.0,492.0
507.0,494.0
516.0,498.0
525.0,502.0
524.0,508.0
522.0,513.0
510.0,509.0
510.0,510.0
506.0,494.0
502.0,493.0
507.0,495.0
504.0,494.0
505.0,488.0
498.0,487.0
490.0,484.0
501.0,489.0
501.0,485.0
509.0,497.0
511.0,505.0
524.0,505.0
525.0,508.0
520.0,509.0
519.0,509.0
520.0,513.0
514.0,507.0
516.0,499.0
516.0,497.0
504.0,499.0
511.0,491.0
494.0,493.0
491.0,479.0
480.0,488.0
486.0,492.0
502.0,492.0
506.0,499.0
513.0,507.0
514.0,505.0
518.0,509.0
518.0,517.0
516.0,515.0
512.0,505.0
506.0,500.0
509.0,496.0
502.0,487.0
507.0,487.0
503.0,491.0
496.0,503.0
501.0,495.0
500.0,493.0
503.0,494.0
504.0,501.0
512.0,504.0
520.0,509.0
529.0,517.0
530.0,517.0
522.0,520.0
516.0,518.0
505.0,508.0
494.0,498.0
504.0,510.0
507.0,508.0
496.0,506.0
502.0,498.0
499.0,492.0
493.0,485.0
497.0,486.0
501.0,495.0
503.0,492.0
510.0,501.0
522.0,513.0
525.0,518.0
514.0,516.0
514.0,514.0
516.0,521.0
514.0,510.0
507.0,510.0
507.0,501.0
502.0,492.0
506.0,492.0
504.0,499.0
497.0,486.0
498.0,485.0
506.0,490.0
505.0,483.0
511.0,493.0
518.0,506.0
528.0,519.0
525.0,518.0
520.0,516.0
519.0,508.0
505.0,500.0
510.0,505.0
508.0,505.0
504.0,491.0
499.0,501.0
504.0,496.0
504.0,487.0
501.0,486.0
503.0,494.0
503.0,485.0
506.0,492.0
513.0,492.0
521.0,509.0
520.0,507.0
520.0,514.0
521.0,518.0
517.0,517.0
513.0,499.0
510.0,508.0
508.0,503.0
504.0,491.0
506.0,495.0
505.0,495.0
499.0,484.0
491.0,495.0
497.0,489.0
502.0,500.0
506.0,500.0
526.0,508.0
525.0,514.0
531.0,518.0
523.0,519.0
508.0,514.0
498.0,514.0
501.0,503.0
506.0,505.0
502.0,495.0
498.0,504.0
505.0,497.0
502.0,492.0
506.0,491.0
506.0,484.0
511.0,487.0
509.0,486.0
509.0,489.0
515.0,509.0
513.0,507.0
512.0,518.0
513.0,513.0
519.0,517.0
509.0,517.0
515.0,509.0
511.0,501.0
511.0,504.0
510.0,495.0
505.0,502.0
502.0,496.0
498.0,489.0
494.0,479.0
489.0,491.0
501.0,495.0
510.0,505.0
515.0,510.0
521.0,517.0
517.0,517.0
515.0,514.0
510.0,514.0
511.0,514.0
507.0,506.0
506.0,502.0
494.0,504.0
506.0,496.0
494.0,496.0
504.0,490.0
497.0,483.0
498.0,491.0
503.0,493.0
506.0,503.0
515.0,506.0
519.0,505.0
520.0,512.0
523.0,513.0
517.0,518.0
517.0,516.0
516.0,510.0
499.0,512.0
506.0,501.0
502.0,496.0
505.0,495.0
505.0,494.0
498.0,492.0
496.0,483.0
504.0,490.0
511.0,496.0
510.0,504.0
517.0,513.0
521.0,518.0
524.0,519.0
517.0,517.0
519.0,516.0
519.0,518.0
510.0,510.0
504.0,501.0
500.0,508.0
508.0,500.0
502.0,487.0
494.0,498.0
501.0,491.0
490.0,500.0
496.0,498.0
501.0,502.0
512.0,507.0
519.0,506.0
521.0,515.0
521.0,514.0
518.0,512.0
521.0,517.0
512.0,514.0
505.0,505.0
505.0,506.0
510.0,503.0
503.0,492.0
503.0,492.0
506.0,494.0
488.0,501.0
495.0,496.0
499.0,501.0
508.0,502.0
506.0,506.0
523.0,514.0
526.0,520.0
520.0,522.0
508.0,517.0
509.0,516.0
510.0,508.0
510.0,508.0
507.0,498.0
500.0,508.0
501.0,503.0
505.0,498.0
503.0,494.0
500.0,493.0
496.0,493.0
510.0,491.0
514.0,502.0
515.0,508.0
529.0,515.0
523.0,525.0
518.0,517.0
518.0,520.0
520.0,518.0
513.0,525.0
518.0,516.0
515.0,517.0
515.0,506.0
507.0,506.0
493.0,483.0
483.0,473.0
490.0,483.0
493.0,479.0
502.0,499.0
515.0,509.0
518.0,510.0
520.0,505.0
522.0,509.0
518.0,514.0
510.0,512.0
509.0,520.0
503.0,514.0
502.0,505.0
502.0,490.0
501.0,483.0
491.0,494.0
484.0,501.0
492.0,498.0
497.0,494.0
498.0,503.0
510.0,502.0
514.0,510.0
513.0,507.0
520.0,519.0
517.0,522.0
518.0,519.0
516.0,517.0
502.0,515.0
507.0,505.0
503.0,498.0
501.0,506.0
500.0,501.0
509.0,494.0
503.0,488.0
503.0,492.0
496.0,488.0
500.0,493.0
512.0,497.0
517.0,511.0
522.0,509.0
523.0,514.0
521.0,520.0
516.0,519.0
501.0,515.0
505.0,510.0
504.0,504.0
500.0,509.0
504.0,500.0
510.0,494.0
504.0,486.0
497.0,493.0
491.0,495.0
500.0,493.0
503.0,493.0
510.0,503.0
515.0,510.0
523.0,512.0
529.0,515.0
519.0,517.0
518.0,514.0
509.0,500.0
496.0,515.0
501.0,492.0
498.0,503.0
501.0,499.0
507.0,490.0
507.0,493.0
508.0,491.0
508.0,490.0
502.0,490.0
500.0,501.0
506.0,501.0
515.0,514.0
520.0,518.0
515.0,510.0
520.0,516.0
518.0,514.0
510.0,509.0
502.0,511.0
493.0,508.0
509.0,503.0
506.0,501.0
496.0,500.0
497.0,489.0
499.0,482.0
493.0,494.0
497.0,500.0
502.0,496.0
517.0,513.0
523.0,512.0
527.0,515.0
515.0,510.0
523.0,517.0
512.0,509.0
510.0,511.0
499.0,501.0
496.0,506.0
496.0,503.0
501.0,501.0
502.0,485.0
500.0,493.0
506.0,489.0
494.0,497.0
504.0,500.0
514.0,505.0
519.0,514.0
516.0,517.0
518.0,516.0
520.0,518.0
509.0,507.0
518.0,511.0
509.0,508.0
497.0,508.0
501.0,502.0
496.0,502.0
506.0,494.0
508.0,491.0
501.0,491.0
502.0,483.0
504.0,496.0
507.0,498.0
512.0,506.0
514.0,513.0
510.0,510.0
516.0,523.0
511.0,511.0
513.0,511.0
506.0,508.0
500.0,512.0
498.0,506.0
505.0,503.0
498.0,494.0
498.0,494.0
497.0,486.0
500.0,494.0
502.0,489.0
504.0,492.0
508.0,490.0
516.0,500.0
521.0,513.0
527.0,524.0
515.0,516.0
520.0,514.0
504.0,507.0
499.0,506.0
503.0,496.0
501.0,509.0
502.0,500.0
507.0,495.0
501.0,491.0
497.0,497.0
499.0,494.0
504.0,502.0
503.0,508.0
509.0,502.0
521.0,507.0
527.0,518.0
521.0,518.0
522.0,513.0
518.0,513.0
508.0,505.0
501.0,515.0
511.0,502.0
508.0,501.0
504.0,481.0
501.0,484.0
497.0,491.0
498.0,485.0
499.0,482.0
506.0,495.0
509.0,500.0
520.0,509.0
527.0,515.0
527.0,516.0
525.0,518.0
521.0,517.0
514.0,514.0
514.0,508.0
516.0,506.0
509.0,495.0
503.0,502.0
509.0,496.0
496.0,488.0
486.0,496.0
491.0,489.0
500.0,491.0
501.0,492.0
504.0,492.0
518.0,508.0
518.0,507.0
523.0,513.0
521.0,515.0
517.0,518.0
516.0,515.0
516.0,509.0
509.0,506.0
503.0,504.0
507.0,496.0
501.0,500.0
506.0,493.0
506.0,491.0
508.0,490.0
505.0,496.0
497.0,500.0
499.0,502.0
512.0,508.0
525.0,518.0
530.0,518.0
523.0,520.0
521.0,518.0
510.0,507.0
499.0,514.0
507.0,506.0
506.0,504.0
492.0,497.0
503.0,498.0
503.0,494.0
502.0,491.0
502.0,491.0
496.0,501.0
511.0,498.0
505.0,498.0
523.0,507.0
520.0,510.0
519.0,512.0
518.0,511.0
514.0,515.0
518.0,510.0
508.0,506.0
508.0,494.0
514.0,489.0
517.0,497.0
503.0,501.0
511.0,492.0
505.0,491.0
492.0,497.0
497.0,499.0
497.0,497.0
518.0,509.0
516.0,513.0
525.0,520.0
523.0,519.0
518.0,520.0
512.0,507.0
510.0,511.0
509.0,504.0
505.0,490.0
497.0,500.0
508.0,494.0
490.0,499.0
501.0,490.0
498.0,487.0
493.0,499.0
508.0,496.0
505.0,500.0
510.0,500.0
521.0,517.0
522.0,519.0
516.0,514.0
511.0,516.0
513.0,518.0
512.0,513.0
498.0,512.0
500.0,503.0
512.0,485.0
515.0,491.0
506.0,480.0
505.0,483.0
508.0,490.0
500.0,496.0
502.0,498.0
505.0,510.0
511.0,512.0
517.0,514.0
518.0,515.0
521.0,511.0
509.0,513.0
510.0,506.0
505.0,501.0
498.0,504.0
508.0,498.0
493.0,502.0
499.0,496.0
502.0,492.0
495.0,495.0
505.0,493.0
501.0,498.0
513.0,500.0
519.0,510.0
525.0,508.0
523.0,523.0
520.0,520.0
518.0,501.0
516.0,513.0
510.0,507.0
509.0,500.0
508.0,498.0
497.0,502.0
502.0,495.0
509.0,492.0
504.0,489.0
497.0,480.0
504.0,485.0
508.0,494.0
510.0,504.0
514.0,501.0
519.0,513.0
524.0,521.0
519.0,518.0
515.0,518.0
514.0,517.0
503.0,497.0
509.0,502.0
505.0,507.0
514.0,500.0
505.0,486.0
499.0,484.0
504.0,486.0
496.0,495.0
500.0,496.0
511.0,502.0
517.0,495.0
522.0,501.0
524.0,511.0
520.0,515.0
517.0,514.0
521.0,519.0
508.0,513.0
508.0,496.0
503.0,501.0
500.0,500.0
497.0,502.0
500.0,498.0
503.0,491.0
505.0,490.0
504.0,486.0
512.0,494.0
510.0,501.0
518.0,503.0
525.0,516.0
529.0,518.0
529.0,519.0
517.0,517.0
517.0,510.0
517.0,502.0
510.0,500.0
507.0,495.0
507.0,502.0
510.0,498.0
508.0,499.0
498.0,495.0
501.0,487.0
493.0,490.0
506.0,487.0
512.0,496.0
522.0,506.0
519.0,506.0
526.0,514.0
524.0,519.0
526.0,516.0
519.0,512.0
516.0,507.0
509.0,500.0
506.0,503.0
509.0,495.0
504.0,496.0
512.0,492.0
512.0,489.0
503.0,492.0
509.0,499.0
515.0,496.0
523.0,511.0
522.0,509.0
521.0,509.0
528.0,513.0
523.0,517.0
508.0,514.0
500.0,505.0
497.0,499.0
501.0,496.0
507.0,497.0
508.0,495.0
501.0,488.0
500.0,485.0
503.0,490.0
500.0,486.0
504.0,501.0
514.0,502.0
517.0,503.0
524.0,505.0
525.0,513.0
521.0,519.0
520.0,513.0
516.0,510.0
511.0,508.0
507.0,512.0
496.0,507.0
503.0,502.0
506.0,494.0
503.0,493.0
503.0,494.0
501.0,491.0
499.0,497.0
508.0,492.0
517.0,503.0
517.0,510.0
528.0,515.0
521.0,517.0
521.0,520.0
512.0,510.0
503.0,515.0
507.0,511.0
504.0,507.0
507.0,502.0
504.0,500.0
508.0,498.0
495.0,494.0
492.0,495.0
499.0,484.0
499.0,498.0
507.0,492.0
515.0,499.0
520.0,516.0
527.0,505.0
526.0,514.0
521.0,517.0
516.0,514.0
510.0,515.0
508.0,504.0
503.0,497.0
506.0,496.0
510.0,496.0
510.0,494.0
505.0,491.0
493.0,493.0
506.0,490.0
503.0,487.0
508.0,498.0
508.0,503.0
514.0,506.0
523.0,515.0
520.0,518.0
518.0,515.0
515.0,513.0
501.0,512.0
512.0,503.0
510.0,501.0
508.0,497.0
508.0,495.0
505.0,493.0
501.0,482.0
502.0,490.0
500.0,488.0
507.0,497.0
505.0,505.0
520.0,506.0
521.0,515.0
517.0,510.0
525.0,521.0
519.0,512.0
517.0,514.0
503.0,512.0
505.0,498.0
505.0,498.0
504.0,502.0
505.0,496.0
499.0,484.0
496.0,477.0
500.0,492.0
503.0,488.0
507.0,501.0
514.0,499.0
521.0,510.0
521.0,512.0
523.0,516.0
514.0,516.0
518.0,511.0
515.0,512.0
508.0,501.0
520.0,500.0
519.0,499.0
516.0,497.0
516.0,493.0
505.0,491.0
492.0,481.0
495.0,491.0
491.0,498.0
507.0,505.0
519.0,508.0
526.0,509.0
526.0,518.0
527.0,522.0
517.0,515.0
519.0,512.0
512.0,499.0
502.0,517.0
513.0,509.0
502.0,502.0
498.0,488.0
495.0,486.0
499.0,489.0
497.0,495.0
493.0,497.0
502.0,500.0
511.0,509.0
510.0,496.0
517.0,504.0
523.0,523.0
520.0,524.0
520.0,511.0
513.0,515.0
514.0,499.0
506.0,485.0
504.0,483.0
502.0,490.0
502.0,496.0
496.0,494.0
505.0,486.0
501.0,489.0
496.0,496.0
513.0,499.0
510.0,506.0
520.0,507.0
527.0,519.0
526.0,520.0
517.0,517.0
521.0,519.0
511.0,509.0
501.0,512.0
509.0,504.0
508.0,488.0
504.0,487.0
503.0,488.0
501.0,484.0
503.0,486.0
495.0,494.0
497.0,491.0
510.0,499.0
512.0,499.0
522.0,514.0
523.0,509.0
523.0,517.0
518.0,522.0
519.0,516.0
513.0,513.0
511.0,505.0
509.0,498.0
508.0,499.0
506.0,497.0
498.0,487.0
497.0,490.0
498.0,484.0
503.0,490.0
509.0,496.0
511.0,496.0
516.0,505.0
517.0,511.0
523.0,519.0
513.0,513.0
517.0,518.0
513.0,507.0
505.0,512.0
500.0,507.0
509.0,501.0
504.0,501.0
503.0,490.0
508.0,490.0
502.0,488.0
501.0,484.0
509.0,493.0
509.0,498.0
510.0,502.0
517.0,511.0
525.0,518.0
527.0,518.0
519.0,510.0
520.0,515.0
517.0,514.0
500.0,513.0
499.0,502.0
490.0,504.0
497.0,495.0
495.0,501.0
504.0,490.0
502.0,489.0
494.0,494.0
501.0,497.0
509.0,502.0
513.0,507.0
525.0,513.0
529.0,515.0
526.0,520.0
517.0,519.0
513.0,508.0
506.0,513.0
505.0,506.0
508.0,501.0
504.0,491.0
495.0,502.0
496.0,497.0
498.0,493.0
500.0,490.0
495.0,498.0
505.0,497.0
514.0,501.0
515.0,502.0
522.0,506.0
523.0,507.0
523.0,521.0
519.0,515.0
516.0,509.0
501.0,512.0
509.0,502.0
507.0,499.0
506.0,496.0
506.0,493.0
503.0,492.0
509.0,489.0
497.0,495.0
500.0,496.0
509.0,501.0
514.0,506.0
520.0,504.0
522.0,513.0
526.0,518.0
517.0,517.0
519.0,517.0
514.0,509.0
508.0,504.0
512.0,502.0
514.0,502.0
512.0,496.0
505.0,492.0
501.0,486.0
488.0,493.0
494.0,490.0
496.0,490.0
506.0,502.0
512.0,506.0
528.0,514.0
528.0,516.0
522.0,520.0
517.0,514.0
515.0,517.0
514.0,502.0
498.0,508.0
509.0,503.0
509.0,498.0
506.0,492.0
498.0,488.0
499.0,494.0
497.0,488.0
502.0,493.0
509.0,491.0
506.0,502.0
514.0,506.0
528.0,514.0
525.0,522.0
520.0,516.0
515.0,520.0
516.0,519.0
514.0,516.0
496.0,510.0
504.0,499.0
502.0,492.0
506.0,491.0
507.0,490.0
504.0,488.0
511.0,484.0
511.0,483.0
519.0,494.0
520.0,502.0
523.0,513.0
522.0,515.0
512.0,512.0
503.0,518.0
500.0,509.0
511.0,509.0
500.0,513.0
507.0,502.0
504.0,497.0
502.0,489.0
498.0,497.0
489.0,492.0
499.0,488.0
491.0,495.0
499.0,497.0
505.0,503.0
508.0,503.0
521.0,512.0
524.0,513.0
525.0,519.0
520.0,517.0
508.0,511.0
508.0,509.0
504.0,501.0
505.0,505.0
509.0,502.0
508.0,503.0
503.0,496.0
494.0,491.0
498.0,472.0
502.0,489.0
504.0,502.0
511.0,502.0
518.0,514.0
521.0,504.0
526.0,502.0
526.0,517.0
520.0,517.0
506.0,517.0
505.0,505.0
505.0,495.0
496.0,492.0
506.0,490.0
503.0,488.0
499.0,491.0
499.0,476.0
506.0,489.0
506.0,494.0
511.0,500.0
514.0,503.0
518.0,513.0
528.0,517.0
521.0,518.0
518.0,518.0
518.0,515.0
509.0,514.0
504.0,505.0
495.0,499.0
498.0,502.0
508.0,492.0
503.0,487.0
504.0,485.0
504.0,492.0
503.0,480.0
505.0,492.0
509.0,486.0
516.0,502.0
528.0,516.0
524.0,518.0
516.0,513.0
521.0,522.0
517.0,517.0
509.0,507.0
506.0,510.0
502.0,494.0
503.0,493.0
497.0,502.0
496.0,497.0
496.0,494.0
497.0,489.0
504.0,493.0
505.0,494.0
499.0,495.0
517.0,510.0
530.0,514.0
529.0,519.0
521.0,519.0
514.0,512.0
512.0,509.0
507.0,510.0
504.0,497.0
505.0,504.0
503.0,499.0
502.0,497.0
510.0,493.0
503.0,490.0
505.0,490.0
505.0,493.0
507.0,500.0
514.0,502.0
519.0,515.0
523.0,517.0
524.0,518.0
515.0,518.0
518.0,514.0
504.0,506.0
509.0,502.0
505.0,507.0
518.0,496.0
519.0,496.0
505.0,501.0
515.0,491.0
501.0,496.0
491.0,491.0
487.0,490.0
499.0,501.0
514.0,500.0
515.0,509.0
514.0,509.0
521.0,519.0
518.0,509.0
514.0,508.0
504.0,505.0
499.0,505.0
497.0,507.0
501.0,503.0
493.0,503.0
491.0,500.0
493.0,495.0
502.0,493.0
497.0,495.0
498.0,500.0
513.0,503.0
519.0,512.0
525.0,514.0
529.0,519.0
520.0,514.0
522.0,513.0
518.0,512.0
513.0,511.0
519.0,504.0
508.0,498.0
505.0,498.0
503.0,494.0
497.0,491.0
491.0,490.0
494.0,494.0
501.0,492.0
496.0,494.0
513.0,509.0
515.0,511.0
523.0,516.0
519.0,517.0
520.0,514.0
519.0,509.0
502.0,519.0
507.0,505.0
499.0,507.0
511.0,499.0
503.0,490.0
504.0,493.0
507.0,491.0
502.0,495.0
494.0,501.0
503.0,503.0
505.0,504.0
509.0,504.0
519.0,497.0
521.0,501.0
524.0,513.0
520.0,517.0
519.0,509.0
508.0,515.0
510.0,506.0
505.0,496.0
506.0,496.0
505.0,497.0
499.0,492.0
501.0,493.0
500.0,491.0
507.0,488.0
509.0,495.0
508.0,503.0
511.0,508.0
525.0,517.0
523.0,526.0
514.0,510.0
522.0,500.0
527.0,514.0
510.0,512.0
510.0,500.0
511.0,492.0
492.0,498.0
492.0,490.0
488.0,500.0
498.0,493.0
504.0,490.0
501.0,481.0
505.0,484.0
508.0,500.0
516.0,507.0
527.0,515.0
521.0,519.0
518.0,516.0
518.0,514.0
515.0,505.0
506.0,501.0
506.0,504.0
509.0,497.0
506.0,498.0
504.0,496.0
500.0,485.0
493.0,491.0
500.0,482.0
498.0,500.0
509.0,503.0
516.0,505.0
519.0,514.0
526.0,513.0
526.0,518.0
521.0,518.0
517.0,514.0
512.0,511.0
503.0,513.0
499.0,506.0
502.0,502.0
512.0,495.0
506.0,490.0
503.0,489.0
504.0,489.0
501.0,486.0
510.0,496.0
505.0,501.0
519.0,508.0
518.0,508.0
520.0,510.0
524.0,516.0
524.0,521.0
513.0,518.0
508.0,508.0
501.0,497.0
504.0,507.0
495.0,504.0
502.0,495.0
507.0,491.0
500.0,484.0
501.0,494.0
502.0,494.0
502.0,498.0
510.0,501.0
519.0,505.0
526.0,515.0
524.0,511.0
522.0,513.0
517.0,509.0
509.0,517.0
511.0,503.0
507.0,501.0
504.0,490.0
504.0,498.0
494.0,497.0
496.0,494.0
495.0,494.0
501.0,486.0
503.0,494.0
507.0,499.0
517.0,505.0
519.0,505.0
524.0,510.0
526.0,516.0
529.0,516.0
519.0,515.0
511.0,513.0
508.0,511.0
518.0,502.0
500.0,502.0
507.0,500.0
505.0,493.0
497.0,488.0
499.0,485.0
494.0,483.0
503.0,488.0
509.0,502.0
516.0,510.0
519.0,507.0
525.0,519.0
515.0,509.0
519.0,510.0
513.0,512.0
505.0,504.0
499.0,506.0
510.0,500.0
508.0,497.0
502.0,492.0
498.0,500.0
495.0,493.0
495.0,491.0
496.0,496.0
511.0,495.0
523.0,497.0
528.0,501.0
532.0,516.0
529.0,519.0
522.0,510.0
514.0,507.0
501.0,506.0
499.0,508.0
505.0,502.0
502.0,492.0
507.0,495.0
501.0,498.0
506.0,490.0
504.0,480.0
503.0,489.0
501.0,488.0
500.0,496.0
516.0,498.0
520.0,510.0
523.0,512.0
522.0,514.0
521.0,514.0
516.0,508.0
513.0,509.0
506.0,505.0
503.0,490.0
501.0,502.0
502.0,496.0
504.0,491.0
500.0,481.0
501.0,486.0
493.0,496.0
500.0,499.0
504.0,496.0
517.0,514.0
527.0,514.0
527.0,513.0
523.0,521.0
518.0,521.0
510.0,523.0
502.0,513.0
504.0,502.0
510.0,496.0
505.0,489.0
500.0,495.0
498.0,496.0
504.0,489.0
508.0,490.0
500.0,496.0
501.0,498.0
511.0,503.0
516.0,502.0
519.0,507.0
526.0,518.0
524.0,522.0
519.0,526.0
505.0,525.0
510.0,515.0
506.0,492.0
502.0,498.0
497.0,503.0
503.0,502.0
500.0,492.0
499.0,482.0
501.0,488.0
492.0,497.0
510.0,505.0
517.0,508.0
526.0,513.0
524.0,506.0
523.0,509.0
522.0,512.0
519.0,515.0
512.0,510.0
508.0,503.0
493.0,508.0
504.0,500.0
498.0,499.0
505.0,494.0
496.0,494.0
498.0,484.0
501.0,485.0
498.0,488.0
511.0,500.0
519.0,506.0
525.0,506.0
528.0,518.0
519.0,516.0
516.0,511.0
515.0,515.0
512.0,508.0
509.0,505.0
508.0,502.0
514.0,499.0
511.0,497.0
496.0,497.0
500.0,490.0
499.0,488.0
505.0,489.0
509.0,497.0
508.0,495.0
518.0,507.0
525.0,513.0
525.0,519.0
516.0,510.0
516.0,514.0
517.0,511.0
504.0,508.0
501.0,507.0
502.0,503.0
501.0,499.0
500.0,501.0
506.0,499.0
506.0,486.0
510.0,490.0
507.0,495.0
507.0,493.0
514.0,505.0
511.0,505.0
521.0,517.0
518.0,518.0
520.0,518.0
514.0,516.0
513.0,511.0
505.0,500.0
500.0,497.0
501.0,491.0
502.0,496.0
502.0,486.0
489.0,489.0
488.0,491.0
505.0,491.0
504.0,496.0
500.0,498.0
507.0,510.0
512.0,513.0
514.0,511.0
519.0,518.0
516.0,515.0
519.0,506.0
512.0,507.0
510.0,502.0
505.0,505.0
502.0,504.0
507.0,496.0
502.0,496.0
496.0,495.0
503.0,483.0
507.0,491.0
509.0,499.0
516.0,505.0
517.0,509.0
531.0,517.0
527.0,521.0
518.0,513.0
514.0,511.0
512.0,513.0
499.0,516.0
504.0,507.0
507.0,499.0
507.0,486.0
503.0,489.0
499.0,497.0
502.0,490.0
501.0,493.0
494.0,500.0
506.0,500.0
515.0,502.0
519.0,515.0
529.0,522.0
527.0,522.0
512.0,519.0
502.0,511.0
512.0,500.0
511.0,505.0
507.0,505.0
495.0,506.0
506.0,498.0
503.0,495.0
506.0,487.0
505.0,491.0
508.0,493.0
512.0,497.0
513.0,498.0
523.0,512.0
521.0,511.0
521.0,511.0
516.0,518.0
510.0,515.0
510.0,507.0
496.0,508.0
500.0,503.0
506.0,500.0
501.0,491.0
501.0,495.0
501.0,484.0
499.0,488.0
499.0,479.0
502.0,492.0
511.0,490.0
510.0,501.0
514.0,501.0
522.0,506.0
523.0,516.0
519.0,520.0
514.0,520.0
511.0,506.0
507.0,501.0
503.0,496.0
499.0,503.0
494.0,504.0
497.0,488.0
494.0,498.0
502.0,490.0
502.0,494.0
484.0,501.0
507.0,506.0
513.0,515.0
513.0,513.0
517.0,508.0
516.0,512.0
520.0,519.0
515.0,516.0
512.0,518.0
504.0,499.0
510.0,497.0
506.0,505.0
504.0,498.0
505.0,497.0
501.0,489.0
498.0,478.0
497.0,477.0
508.0,494.0
508.0,502.0
518.0,507.0
524.0,507.0
529.0,511.0
526.0,517.0
520.0,520.0
511.0,509.0
509.0,506.0
509.0,498.0
510.0,503.0
507.0,502.0
513.0,496.0
505.0,490.0
496.0,490.0
489.0,483.0
490.0,495.0
499.0,495.0
505.0,506.0
512.0,501.0
516.0,511.0
513.0,515.0
519.0,520.0
520.0,521.0
502.0,518.0
505.0,517.0
507.0,507.0
501.0,495.0
505.0,497.0
502.0,493.0
504.0,490.0
503.0,491.0
500.0,495.0
507.0,493.0
510.0,502.0
513.0,507.0
519.0,508.0
523.0,519.0
516.0,503.0
519.0,517.0
520.0,517.0
514.0,513.0
504.0,510.0
509.0,504.0
504.0,498.0
505.0,495.0
497.0,492.0
503.0,494.0
501.0,493.0
497.0,489.0
499.0,497.0
510.0,500.0
514.0,504.0
522.0,516.0
529.0,521.0
517.0,521.0
518.0,515.0
514.0,513.0
502.0,512.0
496.0,510.0
511.0,501.0
503.0,497.0
491.0,502.0
503.0,496.0
498.0,488.0
496.0,487.0
484.0,492.0
509.0,498.0
512.0,502.0
517.0,511.0
527.0,514.0
533.0,518.0
526.0,517.0
520.0,512.0
515.0,509.0
513.0,507.0
504.0,516.0
502.0,505.0
489.0,505.0
499.0,492.0
508.0,492.0
507.0,495.0
507.0,490.0
512.0,495.0
503.0,501.0
504.0,505.0
513.0,510.0
513.0,509.0
517.0,518.0
511.0,509.0
510.0,517.0
508.0,511.0
503.0,504.0
498.0,507.0
505.0,492.0
510.0,502.0
511.0,493.0
494.0,495.0
500.0,489.0
491.0,494.0
498.0,489.0
507.0,500.0
511.0,502.0
517.0,508.0
524.0,511.0
526.0,522.0
521.0,511.0
519.0,519.0
510.0,505.0
500.0,512.0
502.0,505.0
504.0,487.0
505.0,493.0
505.0,487.0
499.0,485.0
505.0,491.0
503.0,491.0
497.0,489.0
515.0,499.0
514.0,505.0
517.0,507.0
522.0,519.0
521.0,509.0
519.0,516.0
509.0,515.0
506.0,507.0
506.0,499.0
506.0,501.0
506.0,498.0
503.0,496.0
500.0,496.0
504.0,497.0
499.0,497.0
501.0,485.0
503.0,491.0
514.0,504.0
525.0,516.0
525.0,518.0
522.0,508.0
523.0,514.0
517.0,518.0
497.0,521.0
515.0,510.0
506.0,498.0
500.0,485.0
503.0,472.0
498.0,493.0
503.0,487.0
505.0,486.0
492.0,491.0
509.0,492.0
512.0,501.0
523.0,502.0
517.0,507.0
521.0,513.0
524.0,520.0
512.0,518.0
506.0,516.0
511.0,509.0
499.0,507.0
500.0,504.0
503.0,501.0
505.0,497.0
510.0,492.0
501.0,493.0
496.0,498.0
499.0,498.0
506.0,496.0
512.0,502.0
519.0,503.0
518.0,508.0
518.0,511.0
517.0,509.0
517.0,514.0
511.0,504.0
501.0,504.0
499.0,508.0
510.0,504.0
515.0,494.0
513.0,496.0
509.0,485.0
500.0,495.0
496.0,495.0
497.0,485.0
502.0,504.0
506.0,505.0
514.0,506.0
518.0,507.0
519.0,512.0
517.0,515.0
517.0,506.0
508.0,503.0
497.0,513.0
502.0,500.0
499.0,503.0
503.0,488.0
501.0,491.0
493.0,494.0
501.0,489.0
495.0,495.0
509.0,494.0
517.0,503.0
513.0,499.0
526.0,513.0
525.0,516.0
524.0,519.0
513.0,515.0
518.0,515.0
509.0,503.0
511.0,505.0
505.0,502.0
507.0,498.0
506.0,491.0
503.0,498.0
501.0,494.0
502.0,491.0
502.0,499.0
500.0,498.0
508.0,500.0
519.0,513.0
527.0,515.0
521.0,513.0
521.0,517.0
520.0,510.0
508.0,514.0
511.0,509.0
513.0,507.0
511.0,502.0
509.0,501.0
511.0,495.0
503.0,488.0
500.0,485.0
500.0,485.0
505.0,493.0
504.0,500.0
521.0,506.0
518.0,512.0
525.0,516.0
527.0,519.0
518.0,517.0
513.0,517.0
511.0,501.0
509.0,511.0
507.0,504.0
504.0,493.0
498.0,502.0
504.0,496.0
500.0,489.0
486.0,495.0
502.0,488.0
504.0,499.0
512.0,501.0
513.0,507.0
525.0,508.0
522.0,518.0
518.0,520.0
516.0,516.0
518.0,507.0
505.0,518.0
500.0,508.0
509.0,496.0
511.0,499.0
502.0,495.0
500.0,492.0
489.0,491.0
489.0,485.0
496.0,491.0
503.0,492.0
509.0,503.0
512.0,505.0
526.0,514.0
526.0,515.0
528.0,517.0
525.0,514.0
520.0,511.0
520.0,508.0
518.0,505.0
501.0,507.0
515.0,499.0
509.0,499.0
505.0,488.0
499.0,481.0
498.0,488.0
504.0,492.0
512.0,499.0
519.0,505.0
514.0,505.0
510.0,515.0
532.0,516.0
525.0,514.0
528.0,518.0
516.0,513.0
505.0,515.0
508.0,505.0
489.0,506.0
497.0,498.0
495.0,490.0
492.0,496.0
500.0,482.0
493.0,491.0
502.0,482.0
503.0,494.0
517.0,508.0
514.0,510.0
522.0,516.0
522.0,516.0
518.0,514.0
518.0,517.0
512.0,505.0
506.0,501.0
510.0,506.0
503.0,503.0
510.0,502.0
503.0,493.0
503.0,487.0
498.0,471.0
502.0,490.0
508.0,496.0
508.0,500.0
524.0,513.0
526.0,502.0
526.0,504.0
521.0,518.0
519.0,517.0
517.0,514.0
504.0,516.0
504.0,503.0
504.0,479.0
503.0,494.0
508.0,491.0
501.0,483.0
488.0,491.0
494.0,494.0
501.0,486.0
511.0,502.0
515.0,508.0
520.0,513.0
532.0,517.0
531.0,517.0
514.0,504.0
522.0,511.0
517.0,506.0
502.0,509.0
504.0,502.0
501.0,489.0
496.0,497.0
500.0,479.0
502.0,487.0
488.0,490.0
488.0,491.0
500.0,493.0
507.0,494.0
514.0,505.0
516.0,516.0
514.0,527.0
515.0,517.0
515.0,518.0
512.0,515.0
504.0,508.0
513.0,504.0
505.0,506.0
507.0,503.0
515.0,495.0
507.0,488.0
504.0,493.0
509.0,490.0
505.0,489.0
508.0,491.0
511.0,500.0
506.0,505.0
523.0,515.0
518.0,518.0
512.0,511.0
510.0,509.0
516.0,511.0
511.0,506.0
507.0,503.0
499.0,505.0
503.0,497.0
501.0,489.0
501.0,492.0
496.0,484.0
502.0,488.0
503.0,484.0
504.0,498.0
516.0,505.0
527.0,509.0
519.0,514.0
527.0,520.0
527.0,517.0
517.0,511.0
508.0,514.0
505.0,508.0
513.0,500.0
515.0,495.0
515.0,494.0
513.0,494.0
505.0,490.0
498.0,496.0
487.0,495.0
494.0,494.0
498.0,500.0
498.0,510.0
506.0,511.0
504.0,519.0
506.0,515.0
509.0,518.0
500.0,515.0
508.0,507.0
509.0,493.0
521.0,500.0
521.0,500.0
509.0,505.0
514.0,487.0
509.0,489.0
499.0,497.0
507.0,485.0
514.0,502.0
521.0,514.0
521.0,518.0
525.0,520.0
527.0,511.0
521.0,504.0
522.0,518.0
519.0,516.0
513.0,505.0
507.0,505.0
508.0,501.0
508.0,494.0
512.0,495.0
507.0,488.0
494.0,495.0
503.0,489.0
505.0,490.0
507.0,488.0
513.0,506.0
515.0,508.0
524.0,519.0
522.0,514.0
519.0,517.0
511.0,519.0
512.0,512.0
504.0,503.0
506.0,498.0
497.0,493.0
490.0,498.0
493.0,489.0
496.0,491.0
489.0,491.0
499.0,487.0
504.0,489.0
515.0,501.0
519.0,510.0
523.0,517.0
529.0,521.0
519.0,521.0
520.0,517.0
514.0,520.0
511.0,510.0
517.0,497.0
500.0,502.0
507.0,495.0
498.0,503.0
506.0,487.0
497.0,486.0
501.0,483.0
503.0,497.0
506.0,502.0
514.0,499.0
519.0,493.0
525.0,500.0
523.0,512.0
520.0,514.0
514.0,516.0
509.0,513.0
504.0,510.0
491.0,510.0
495.0,503.0
498.0,498.0
496.0,495.0
480.0,495.0
479.0,492.0
492.0,493.0
492.0,499.0
503.0,506.0
519.0,508.0
541.0,517.0
544.0,518.0
528.0,519.0
505.0,516.0
502.0,513.0
493.0,504.0
473.0,506.0
480.0,506.0
501.0,498.0
499.0,491.0
521.0,495.0
531.0,497.0
539.0,492.0
547.0,492.0
537.0,496.0
530.0,509.0
531.0,510.0
527.0,513.0
534.0,517.0
530.0,515.0
517.0,516.0
509.0,517.0
495.0,503.0
487.0,511.0
500.0,499.0
495.0,488.0
502.0,491.0
499.0,488.0
481.0,495.0
488.0,491.0
499.0,490.0
507.0,497.0
516.0,501.0
523.0,510.0
513.0,507.0
527.0,519.0
534.0,521.0
532.0,519.0
530.0,516.0
519.0,508.0
519.0,502.0
517.0,496.0
516.0,501.0
518.0,497.0
517.0,495.0
517.0,495.0
516.0,492.0
519.0,491.0
508.0,498.0
500.0,506.0
511.0,504.0
516.0,508.0
519.0,522.0
516.0,519.0
513.0,513.0
507.0,498.0
499.0,493.0
497.0,500.0
508.0,497.0
492.0,500.0
503.0,493.0
492.0,494.0
492.0,481.0
486.0,488.0
494.0,493.0
497.0,493.0
504.0,506.0
514.0,513.0
516.0,512.0
529.0,523.0
523.0,515.0
520.0,518.0
515.0,514.0
510.0,502.0
504.0,489.0
505.0,503.0
498.0,504.0
502.0,497.0
504.0,488.0
506.0,491.0
502.0,496.0
505.0,496.0
502.0,495.0
513.0,502.0
521.0,503.0
525.0,518.0
506.0,517.0
505.0,513.0
494.0,516.0
494.0,505.0
497.0,499.0
496.0,492.0
496.0,503.0
511.0,496.0
509.0,490.0
511.0,484.0
498.0,491.0
505.0,485.0
512.0,494.0
514.0,497.0
519.0,506.0
520.0,512.0
523.0,521.0
514.0,519.0
506.0,514.0
503.0,514.0
488.0,505.0
491.0,491.0
504.0,497.0
508.0,495.0
525.0,496.0
526.0,491.0
515.0,486.0
508.0,485.0
504.0,492.0
493.0,504.0
511.0,507.0
517.0,510.0
525.0,517.0
501.0,516.0
475.0,518.0
482.0,509.0
482.0,504.0
497.0,501.0
517.0,497.0
526.0,496.0
531.0,496.0
496.0,498.0
494.0,492.0
471.0,491.0
479.0,489.0
498.0,491.0
512.0,495.0
529.0,517.0
551.0,517.0
578.0,518.0
565.0,515.0
549.0,520.0
532.0,520.0
521.0,511.0
520.0,515.0
522.0,508.0
532.0,493.0
525.0,499.0
511.0,496.0
501.0,480.0
491.0,487.0
486.0,499.0
495.0,501.0
513.0,501.0
506.0,502.0
517.0,510.0
506.0,519.0
484.0,521.0
473.0,513.0
470.0,509.0
475.0,512.0
524.0,498.0
533.0,500.0
516.0,498.0
519.0,497.0
518.0,488.0
506.0,487.0
507.0,494.0
488.0,491.0
495.0,497.0
505.0,503.0
519.0,511.0
527.0,515.0
538.0,524.0
525.0,523.0
517.0,511.0
522.0,509.0
512.0,501.0
513.0,504.0
523.0,495.0
531.0,501.0
518.0,489.0
511.0,491.0
489.0,493.0
490.0,490.0
503.0,489.0
508.0,494.0
523.0,513.0
526.0,517.0
535.0,526.0
521.0,518.0
519.0,505.0
503.0,510.0
503.0,511.0
508.0,505.0
501.0,498.0
496.0,503.0
498.0,491.0
495.0,492.0
493.0,492.0
492.0,488.0
491.0,496.0
491.0,489.0
504.0,494.0
506.0,499.0
516.0,506.0
520.0,520.0
497.0,520.0
491.0,502.0
491.0,510.0
482.0,515.0
486.0,499.0
480.0,493.0
471.0,486.0
457.0,494.0
450.0,492.0
457.0,496.0
485.0,497.0
525.0,496.0
569.0,503.0
607.0,508.0
592.0,506.0
562.0,513.0
567.0,513.0
552.0,500.0
528.0,490.0
515.0,498.0
489.0,497.0
495.0,505.0
514.0,499.0
514.0,494.0
482.0,490.0
458.0,485.0
435.0,488.0
431.0,483.0
473.0,495.0
493.0,502.0
512.0,505.0
554.0,499.0
572.0,507.0
573.0,506.0
561.0,514.0
524.0,510.0
533.0,502.0
562.0,505.0
499.0,499.0
437.0,497.0
360.0,494.0
359.0,481.0
435.0,478.0
486.0,473.0
517.0,487.0
592.0,493.0
579.0,487.0
572.0,498.0
608.0,511.0
612.0,502.0
570.0,507.0
540.0,511.0
542.0,511.0
531.0,512.0
509.0,510.0
502.0,497.0
494.0,489.0
480.0,491.0
488.0,484.0
499.0,490.0
497.0,485.0
503.0,492.0
504.0,503.0
474.0,495.0
471.0,492.0
445.0,506.0
359.0,516.0
375.0,513.0
436.0,503.0
518.0,497.0
574.0,503.0
571.0,504.0
592.0,515.0
610.0,500.0
582.0,481.0
558.0,486.0
538.0,493.0
537.0,499.0
526.0,490.0
524.0,503.0
535.0,518.0
548.0,518.0
525.0,513.0
473.0,515.0
456.0,515.0
408.0,527.0
438.0,519.0
482.0,500.0
469.0,500.0
488.0,493.0
525.0,496.0
501.0,492.0
504.0,497.0
516.0,497.0
521.0,490.0
544.0,502.0
531.0,489.0
516.0,486.0
516.0,503.0
526.0,508.0
508.0,516.0
428.0,507.0
405.0,511.0
433.0,489.0
466.0,489.0
523.0,483.0
565.0,491.0
530.0,493.0
515.0,489.0
547.0,490.0
573.0,486.0
560.0,485.0
523.0,492.0
497.0,494.0
468.0,516.0
448.0,523.0
446.0,518.0
419.0,517.0
438.0,528.0
478.0,516.0
490.0,500.0
537.0,496.0
605.0,495.0
558.0,495.0
557.0,491.0
596.0,482.0
582.0,491.0
632.0,512.0
598.0,512.0
544.0,507.0
503.0,520.0
454.0,509.0
404.0,494.0
397.0,498.0
455.0,513.0
502.0,524.0
550.0,523.0
567.0,510.0
572.0,489.0
511.0,492.0
443.0,490.0
383.0,486.0
409.0,484.0
450.0,476.0
525.0,470.0
599.0,479.0
623.0,480.0
548.0,501.0
571.0,527.0
561.0,520.0
568.0,515.0
555.0,519.0
464.0,512.0
372.0,503.0
397.0,492.0
413.0,519.0
476.0,509.0
537.0,502.0
556.0,494.0
538.0,490.0
517.0,488.0
514.0,497.0
521.0,504.0
527.0,506.0
521.0,499.0
518.0,516.0
543.0,525.0
529.0,532.0
509.0,517.0
475.0,499.0
503.0,485.0
535.0,490.0
508.0,492.0
501.0,470.0
504.0,474.0
520.0,499.0
526.0,509.0
512.0,507.0
530.0,505.0
500.0,511.0
472.0,504.0
474.0,518.0
454.0,513.0
416.0,496.0
427.0,497.0
461.0,499.0
584.0,505.0
600.0,506.0
502.0,505.0
515.0,499.0
514.0,491.0
514.0,487.0
501.0,484.0
499.0,495.0
445.0,501.0
445.0,505.0
524.0,512.0
585.0,503.0
614.0,506.0
511.0,528.0
556.0,543.0
556.0,525.0
539.0,521.0
510.0,512.0
462.0,509.0
422.0,501.0
439.0,477.0
468.0,482.0
507.0,492.0
527.0,483.0
509.0,495.0
536.0,485.0
593.0,496.0
567.0,507.0
546.0,507.0
532.0,511.0
522.0,506.0
498.0,505.0
486.0,490.0
477.0,487.0
471.0,514.0
476.0,504.0
492.0,497.0
523.0,489.0
506.0,493.0
492.0,484.0
467.0,474.0
468.0,474.0
409.0,482.0
453.0,496.0
599.0,510.0
627.0,497.0
564.0,497.0
567.0,502.0
526.0,512.0
501.0,511.0
517.0,514.0
507.0,515.0
493.0,505.0
466.0,495.0
450.0,475.0
394.0,486.0
370.0,487.0
417.0,496.0
546.0,493.0
584.0,497.0
599.0,512.0
590.0,521.0
576.0,515.0
556.0,525.0
549.0,525.0
527.0,535.0
519.0,521.0
503.0,507.0
490.0,511.0
481.0,495.0
469.0,487.0
486.0,481.0
477.0,483.0
478.0,495.0
497.0,488.0
450.0,491.0
398.0,487.0
399.0,497.0
381.0,513.0
451.0,514.0
546.0,518.0
609.0,516.0
632.0,514.0
618.0,496.0
576.0,511.0
510.0,518.0
543.0,497.0
530.0,501.0
544.0,501.0
571.0,502.0
573.0,499.0
587.0,498.0
528.0,488.0
454.0,499.0
407.0,512.0
426.0,514.0
485.0,528.0
567.0,518.0
623.0,515.0
558.0,507.0
528.0,498.0
530.0,511.0
509.0,525.0
532.0,506.0
522.0,490.0
501.0,495.0
464.0,494.0
477.0,486.0
478.0,503.0
475.0,499.0
477.0,506.0
465.0,512.0
451.0,518.0
441.0,529.0
438.0,529.0
440.0,520.0
485.0,507.0
558.0,503.0
559.0,503.0
537.0,500.0
559.0,495.0
573.0,498.0
617.0,494.0
633.0,505.0
617.0,510.0
515.0,501.0
470.0,514.0
452.0,514.0
504.0,524.0
518.0,516.0
513.0,513.0
496.0,512.0
508.0,523.0
497.0,517.0
465.0,516.0
477.0,515.0
488.0,504.0
488.0,507.0
517.0,503.0
490.0,479.0
478.0,476.0
495.0,468.0
521.0,480.0
526.0,493.0
526.0,510.0
524.0,516.0
492.0,522.0
510.0,504.0
519.0,518.0
497.0,507.0
481.0,501.0
474.0,499.0
486.0,511.0
491.0,506.0
555.0,494.0
506.0,495.0
402.0,490.0
400.0,493.0
436.0,496.0
552.0,504.0
636.0,506.0
620.0,501.0
560.0,515.0
524.0,529.0
534.0,528.0
521.0,517.0
504.0,515.0
538.0,510.0
509.0,493.0
541.0,485.0
520.0,495.0
508.0,487.0
423.0,489.0
441.0,483.0
417.0,486.0
427.0,489.0
493.0,485.0
547.0,502.0
573.0,518.0
596.0,523.0
588.0,525.0
569.0,506.0
559.0,506.0
546.0,510.0
534.0,517.0
530.0,513.0
517.0,490.0
481.0,492.0
462.0,496.0
433.0,490.0
462.0,486.0
511.0,481.0
539.0,488.0
558.0,490.0
548.0,511.0
518.0,518.0
532.0,535.0
556.0,520.0
510.0,515.0
443.0,500.0
449.0,514.0
451.0,516.0
470.0,508.0
519.0,502.0
551.0,503.0
543.0,499.0
548.0,500.0
532.0,496.0
481.0,489.0
488.0,506.0
530.0,513.0
542.0,513.0
542.0,519.0
526.0,518.0
483.0,507.0
460.0,514.0
514.0,518.0
511.0,509.0
520.0,516.0
515.0,501.0
449.0,469.0
440.0,478.0
420.0,511.0
446.0,499.0
534.0,485.0
524.0,482.0
520.0,497.0
502.0,496.0
528.0,518.0
562.0,520.0
592.0,519.0
524.0,516.0
478.0,517.0
466.0,506.0
460.0,514.0
482.0,522.0
482.0,511.0
469.0,489.0
465.0,498.0
503.0,507.0
543.0,501.0
535.0,496.0
530.0,495.0
559.0,507.0
585.0,500.0
605.0,498.0
614.0,500.0
604.0,507.0
571.0,516.0
504.0,512.0
454.0,508.0
426.0,512.0
429.0,498.0
426.0,487.0
409.0,492.0
468.0,498.0
496.0,500.0
519.0,496.0
582.0,489.0
574.0,495.0
562.0,505.0
575.0,510.0
546.0,508.0
511.0,524.0
492.0,518.0
500.0,517.0
520.0,525.0
536.0,523.0
526.0,511.0
549.0,519.0
550.0,520.0
541.0,493.0
486.0,477.0
488.0,471.0
438.0,470.0
387.0,486.0
434.0,489.0
497.0,485.0
511.0,492.0
555.0,506.0
516.0,516.0
493.0,526.0
532.0,517.0
542.0,504.0
511.0,483.0
448.0,500.0
439.0,496.0
460.0,493.0
491.0,497.0
558.0,493.0
567.0,486.0
546.0,482.0
570.0,474.0
543.0,497.0
528.0,513.0
541.0,494.0
510.0,507.0
473.0,522.0
491.0,500.0
504.0,518.0
520.0,515.0
536.0,512.0
543.0,503.0
528.0,493.0
490.0,481.0
468.0,497.0
428.0,479.0
430.0,494.0
443.0,492.0
474.0,506.0
492.0,493.0
501.0,501.0
513.0,503.0
522.0,524.0
588.0,512.0
571.0,508.0
531.0,516.0
535.0,523.0
557.0,490.0
551.0,479.0
550.0,497.0
530.0,495.0
552.0,480.0
558.0,471.0
544.0,495.0
524.0,508.0
492.0,505.0
451.0,498.0
479.0,504.0
556.0,506.0
559.0,522.0
570.0,520.0
565.0,530.0
484.0,527.0
461.0,517.0
465.0,505.0
465.0,496.0
449.0,493.0
461.0,492.0
458.0,475.0
464.0,478.0
469.0,475.0
470.0,489.0
461.0,501.0
522.0,518.0
558.0,513.0
541.0,520.0
534.0,515.0
502.0,510.0
475.0,511.0
443.0,518.0
477.0,498.0
500.0,507.0
526.0,502.0
564.0,498.0
578.0,492.0
544.0,477.0
541.0,477.0
544.0,503.0
546.0,501.0
502.0,504.0
536.0,509.0
562.0,526.0
509.0,535.0
496.0,529.0
523.0,540.0
503.0,548.0
511.0,497.0
502.0,475.0
482.0,461.0
464.0,489.0
479.0,486.0
470.0,482.0
467.0,488.0
491.0,488.0
491.0,491.0
537.0,505.0
540.0,509.0
550.0,515.0
573.0,528.0
552.0,524.0
458.0,510.0
465.0,505.0
470.0,504.0
519.0,500.0
559.0,485.0
527.0,495.0
519.0,494.0
513.0,498.0
487.0,498.0
455.0,496.0
462.0,485.0
438.0,490.0
401.0,507.0
408.0,514.0
471.0,523.0
556.0,527.0
605.0,526.0
631.0,513.0
608.0,512.0
551.0,503.0
557.0,494.0
521.0,507.0
473.0,493.0
477.0,477.0
501.0,481.0
527.0,487.0
513.0,498.0
500.0,505.0
506.0,506.0
503.0,500.0
519.0,503.0
529.0,524.0
526.0,508.0
491.0,496.0
479.0,494.0
476.0,509.0
467.0,499.0
462.0,497.0
470.0,510.0
474.0,506.0
528.0,494.0
551.0,493.0
474.0,497.0
446.0,497.0
463.0,491.0
527.0,494.0
552.0,507.0
584.0,513.0
564.0,516.0
556.0,511.0
553.0,513.0
523.0,515.0
520.0,505.0
526.0,506.0
498.0,502.0
500.0,496.0
510.0,487.0
524.0,498.0
472.0,494.0
468.0,486.0
482.0,485.0
454.0,497.0
472.0,499.0
495.0,512.0
498.0,511.0
506.0,520.0
555.0,522.0
578.0,515.0
551.0,498.0
511.0,506.0
509.0,513.0
508.0,515.0
507.0,512.0
507.0,497.0
492.0,487.0
523.0,486.0
535.0,485.0
537.0,497.0
540.0,494.0
519.0,511.0
477.0,521.0
530.0,522.0
547.0,532.0
521.0,524.0
533.0,516.0
509.0,505.0
502.0,502.0
492.0,497.0
489.0,502.0
485.0,511.0
488.0,497.0
464.0,492.0
474.0,492.0
481.0,485.0
524.0,486.0
542.0,496.0
545.0,502.0
513.0,506.0
516.0,505.0
491.0,511.0
469.0,523.0
476.0,515.0
471.0,515.0
487.0,528.0
509.0,516.0
508.0,497.0
504.0,478.0
511.0,479.0
521.0,493.0
526.0,489.0
512.0,494.0
522.0,505.0
503.0,502.0
487.0,495.0
472.0,502.0
502.0,519.0
515.0,513.0
552.0,504.0
559.0,514.0
524.0,515.0
501.0,509.0
543.0,504.0
544.0,502.0
500.0,503.0
465.0,488.0
476.0,479.0
467.0,480.0
508.0,486.0
546.0,504.0
551.0,510.0
530.0,513.0
527.0,512.0
531.0,509.0
498.0,522.0
462.0,519.0
474.0,526.0
481.0,508.0
502.0,501.0
535.0,496.0
519.0,492.0
498.0,489.0
489.0,489.0
468.0,488.0
442.0,482.0
487.0,494.0
536.0,498.0
551.0,501.0
532.0,516.0
521.0,527.0
529.0,514.0
498.0,519.0
495.0,521.0
524.0,500.0
517.0,503.0
542.0,505.0
556.0,492.0
539.0,490.0
534.0,479.0
481.0,486.0
455.0,484.0
462.0,501.0
457.0,505.0
482.0,509.0
532.0,508.0
571.0,514.0
565.0,518.0
524.0,513.0
497.0,520.0
514.0,513.0
513.0,508.0
522.0,500.0
516.0,503.0
512.0,500.0
552.0,493.0
574.0,499.0
507.0,495.0
499.0,495.0
475.0,487.0
464.0,490.0
486.0,500.0
516.0,500.0
531.0,508.0
516.0,508.0
507.0,517.0
490.0,513.0
507.0,508.0
517.0,504.0
514.0,504.0
501.0,511.0
502.0,508.0
526.0,502.0
531.0,491.0
489.0,481.0
479.0,481.0
474.0,496.0
515.0,518.0
524.0,518.0
523.0,507.0
522.0,518.0
504.0,526.0
478.0,518.0
478.0,503.0
494.0,505.0
518.0,488.0
548.0,489.0
538.0,485.0
488.0,494.0
473.0,483.0
472.0,488.0
484.0,485.0
516.0,481.0
544.0,505.0
559.0,506.0
592.0,510.0
581.0,523.0
535.0,523.0
524.0,523.0
482.0,504.0
465.0,502.0
470.0,501.0
502.0,488.0
533.0,483.0
535.0,492.0
509.0,510.0
494.0,508.0
501.0,496.0
496.0,489.0
462.0,489.0
501.0,495.0
511.0,506.0
493.0,515.0
511.0,517.0
544.0,512.0
528.0,515.0
524.0,505.0
512.0,508.0
457.0,509.0
444.0,500.0
432.0,500.0
450.0,501.0
473.0,493.0
532.0,482.0
534.0,477.0
529.0,492.0
550.0,501.0
560.0,504.0
546.0,516.0
556.0,519.0
552.0,516.0
552.0,520.0
536.0,512.0
488.0,508.0
475.0,501.0
491.0,501.0
521.0,493.0
543.0,501.0
566.0,495.0
534.0,496.0
498.0,491.0
488.0,492.0
505.0,485.0
525.0,499.0
539.0,502.0
534.0,499.0
516.0,494.0
473.0,510.0
460.0,510.0
495.0,526.0
503.0,515.0
530.0,504.0
514.0,493.0
524.0,509.0
506.0,501.0
487.0,492.0
519.0,495.0
506.0,491.0
491.0,488.0
499.0,487.0
509.0,498.0
500.0,495.0
525.0,511.0
535.0,517.0
524.0,528.0
528.0,524.0
524.0,503.0
506.0,515.0
508.0,512.0
492.0,504.0
459.0,487.0
445.0,500.0
458.0,491.0
437.0,492.0
503.0,494.0
520.0,498.0
526.0,497.0
535.0,491.0
548.0,487.0
528.0,509.0
505.0,534.0
492.0,531.0
504.0,521.0
510.0,512.0
527.0,508.0
521.0,515.0
523.0,505.0
493.0,505.0
523.0,489.0
547.0,496.0
