CH1,CH2,CH3,CH4,CH5
510,502,521,508,516
515,506,526,513,509
524,511,529,521,510
532,518,534,530,491
536,519,534,534,492
535,520,531,536,496
530,522,528,532,503
523,516,521,527,508
519,511,515,522,503
499,499,500,504,517
492,495,497,498,523
491,494,499,499,515
492,495,502,498,512
496,495,503,497,513
499,496,508,500,515
507,504,515,504,515
509,502,516,507,518
515,503,521,509,514
523,508,524,519,516
524,509,525,521,506
529,515,528,527,506
535,521,534,534,505
532,521,526,538,503
527,518,523,532,507
522,515,519,528,513
510,509,508,517,522
499,499,499,507,526
495,500,500,499,524
498,494,498,497,524
498,496,502,497,526
499,496,505,495,524
507,498,509,497,519
512,500,514,503,516
513,503,517,507,513
517,505,521,514,513
523,509,525,519,508
531,514,528,525,504
533,518,531,532,501
535,520,530,531,505
532,519,525,532,505
526,516,520,529,508
518,512,515,523,515
504,502,502,510,521
497,497,498,503,522
493,499,501,500,522
493,495,499,497,519
496,492,498,500,516
501,497,506,499,514
507,503,513,502,511
508,500,514,504,515
511,503,519,508,515
517,507,523,516,513
522,510,525,519,508
528,515,531,527,508
537,519,533,532,504
534,519,531,533,509
527,517,525,531,510
518,513,516,526,514
510,510,514,523,519
494,501,499,505,539
487,495,496,499,534
490,496,498,498,529
491,500,505,503,525
499,498,508,498,517
504,497,507,501,506
507,500,515,505,505
515,504,519,507,507
517,504,520,510,508
523,509,526,518,509
527,515,527,523,512
533,520,532,533,506
537,520,534,536,500
534,520,528,534,501
531,518,524,531,506
528,513,517,525,508
514,505,507,514,517
502,498,499,502,520
500,495,496,498,507
494,496,498,495,518
496,498,505,499,526
497,495,505,495,515
500,496,510,500,504
506,501,514,505,492
511,502,516,505,500
515,504,520,510,489
520,510,527,522,492
528,514,528,523,504
534,519,531,530,507
538,521,532,533,510
534,519,526,528,520
524,518,522,523,525
518,512,516,518,517
509,502,502,511,526
499,498,497,502,531
495,493,495,495,528
497,494,498,495,529
495,491,501,494,528
497,497,508,498,522
503,503,515,503,523
508,503,517,507,528
511,504,519,507,524
516,504,520,514,519
526,511,527,521,507
525,516,530,526,511
536,520,533,536,490
530,520,529,535,496
527,516,522,531,501
522,515,521,528,508
516,512,515,524,512
501,500,501,508,518
494,496,496,499,524
494,494,496,496,525
497,499,503,496,523
496,495,503,496,522
503,496,508,499,520
504,500,513,502,515
512,501,515,504,512
519,504,516,509,508
532,509,522,518,504
530,511,522,520,502
531,516,527,529,494
533,519,532,533,498
529,518,529,531,501
526,518,526,530,507
521,514,520,526,511
509,505,508,515,519
499,499,503,505,520
495,496,498,500,518
495,495,499,497,517
498,495,500,502,514
498,497,507,497,528
499,497,509,494,529
507,501,515,502,524
511,503,518,506,522
517,504,523,513,513
524,510,525,517,515
532,517,528,523,513
535,520,535,529,508
535,519,530,532,505
529,517,527,531,500
529,517,522,529,509
522,512,516,524,513
503,505,505,508,521
497,496,496,500,523
495,495,495,502,516
500,495,500,497,509
496,495,503,494,510
498,497,506,497,512
501,498,510,503,517
504,502,516,504,520
506,503,518,509,515
516,510,526,516,514
518,510,524,520,510
526,516,530,527,506
532,521,535,534,508
531,520,532,534,507
524,516,525,530,508
526,515,518,526,516
517,508,509,519,518
496,499,498,506,526
492,496,497,502,526
492,494,496,497,521
499,497,505,496,513
504,496,506,496,513
510,498,508,498,519
515,501,514,502,508
515,502,515,509,510
517,504,520,512,517
525,510,525,518,519
530,511,525,523,509
531,515,528,528,496
538,524,532,535,499
533,519,527,534,502
526,516,522,529,507
520,512,516,524,509
509,504,505,513,519
499,498,501,505,527
493,495,497,499,529
493,492,498,501,527
493,495,501,496,518
500,496,505,497,511
506,498,510,498,510
510,502,516,504,511
508,502,516,505,522
517,505,520,511,508
525,510,525,520,501
533,516,531,527,500
538,519,531,532,503
540,520,530,534,501
537,519,524,531,509
530,516,520,530,517
518,512,518,523,516
502,501,498,508,520
494,498,496,499,520
491,494,499,498,525
486,494,498,493,539
489,494,500,495,520
495,496,505,499,507
501,497,512,502,515
507,500,514,504,521
512,508,521,508,524
522,509,523,515,518
534,512,525,522,513
538,518,530,528,502
537,522,532,534,502
531,522,529,535,504
523,517,522,529,507
519,515,518,527,511
513,510,511,525,507
498,505,500,508,521
491,495,495,499,526
497,495,497,495,521
495,495,498,498,523
498,495,501,496,517
503,498,507,500,519
508,502,514,505,514
510,503,515,507,514
513,504,519,512,514
523,510,525,519,509
526,512,526,524,502
534,517,529,530,502
538,520,530,535,497
536,518,525,534,498
526,516,521,529,504
522,516,520,528,502
507,504,505,513,525
495,495,494,500,536
491,495,496,495,534
491,499,499,495,538
495,495,502,495,536
499,495,503,496,527
502,496,506,498,509
505,500,512,503,510
504,506,521,508,506
502,505,522,514,509
516,510,526,520,505
515,515,529,526,503
523,517,530,529,504
536,520,530,533,501
545,518,525,532,501
532,515,519,527,504
522,513,515,526,516
503,498,498,508,523
496,495,496,501,528
500,494,497,497,527
501,491,501,496,524
498,493,499,495,525
500,497,505,493,520
507,500,512,500,519
512,503,520,508,514
514,506,521,510,515
520,508,524,514,513
528,514,530,520,511
533,518,531,527,505
535,522,533,534,499
531,524,529,533,501
523,515,524,530,500
519,515,524,527,504
508,510,514,519,518
488,498,500,506,523
481,496,500,496,518
496,495,497,495,522
501,497,497,492,529
499,496,502,494,532
501,500,509,498,535
514,504,519,503,516
531,502,521,504,508
521,504,525,511,512
522,510,529,518,509
530,514,526,526,508
532,518,528,532,508
537,522,536,539,509
533,520,530,533,503
527,516,526,533,499
522,515,521,530,490
509,504,500,513,510
497,497,497,503,524
495,496,497,498,523
495,496,499,496,527
496,495,502,499,530
497,496,505,497,521
497,496,507,499,517
507,500,515,503,515
512,505,518,506,513
516,504,520,511,513
525,510,526,521,511
531,514,529,526,502
534,518,531,531,498
536,519,530,533,498
531,515,523,533,505
525,515,517,528,508
519,513,513,524,510
504,502,500,511,523
497,501,503,502,528
494,496,500,498,524
493,494,500,496,522
497,496,505,497,521
498,497,507,502,519
502,499,511,501,518
505,500,515,507,520
512,503,520,511,510
519,508,525,517,512
521,510,526,521,510
529,516,529,528,502
531,519,532,534,502
528,520,530,535,501
523,518,524,533,505
517,514,517,526,509
517,513,518,520,517
504,501,501,508,529
495,495,497,501,534
494,499,501,501,531
498,499,505,499,511
501,495,503,498,508
504,498,509,501,510
508,502,516,506,508
514,503,518,509,512
514,505,521,513,505
522,509,525,518,507
525,512,527,521,515
534,516,530,530,502
538,523,534,538,504
537,515,531,538,510
526,514,521,526,504
518,511,516,523,492
502,500,504,514,501
486,496,498,503,516
486,494,497,498,518
478,492,497,494,530
482,496,502,495,533
486,497,505,496,531
497,496,506,495,529
502,501,513,502,525
535,505,518,508,509
534,508,523,514,511
526,512,527,521,513
533,522,534,529,508
538,519,530,532,498
532,520,530,535,501
513,519,526,534,510
496,512,517,527,521
491,513,514,523,521
486,505,501,510,526
481,492,495,500,519
473,492,495,497,523
470,493,499,493,538
514,500,507,494,525
552,505,513,502,505
540,506,518,507,501
527,503,518,506,500
523,504,520,508,498
531,509,526,519,502
531,511,526,522,504
530,515,532,528,505
533,519,530,532,512
536,520,528,534,515
523,516,518,528,514
510,513,514,528,515
504,509,511,520,523
512,503,501,508,522
503,499,497,500,526
497,497,498,497,534
493,498,502,494,540
497,500,507,498,538
488,495,506,495,524
488,498,514,503,511
490,501,520,507,502
485,501,524,512,500
496,507,530,521,496
505,510,526,525,495
509,515,529,532,494
547,524,534,537,496
555,525,526,531,503
539,518,525,531,509
545,517,519,527,506
524,506,506,511,532
509,497,497,500,529
516,497,498,498,527
516,498,501,496,526
509,496,503,496,520
510,497,506,498,515
513,500,514,499,518
517,503,516,505,517
519,504,519,507,516
523,506,522,512,516
528,510,526,519,513
534,516,531,527,511
538,519,531,530,508
539,522,536,535,508
537,520,531,534,504
525,514,520,528,504
519,514,521,526,500
506,502,498,509,522
495,496,491,500,532
495,498,497,499,525
502,497,500,499,511
497,496,500,495,513
501,496,501,500,509
501,497,507,501,514
507,502,515,506,519
509,502,527,512,520
513,507,523,517,524
525,508,523,518,521
527,515,525,524,519
533,520,527,529,509
538,522,526,534,498
529,517,518,530,498
518,513,516,527,500
510,503,508,521,516
499,500,503,506,527
497,497,499,501,532
492,494,497,495,537
492,495,501,495,538
496,497,490,494,531
498,499,479,494,526
505,507,479,507,516
510,507,476,509,508
514,508,473,507,515
523,516,471,518,517
526,518,469,522,512
532,522,471,526,510
529,523,474,522,507
531,518,481,523,500
521,512,488,519,508
521,512,496,516,516
502,502,490,508,515
494,494,494,499,523
493,492,509,500,523
490,491,512,495,521
494,495,519,495,524
495,497,522,496,523
498,499,532,498,530
500,503,539,504,526
510,507,543,509,515
519,509,545,514,504
527,515,550,526,498
528,521,551,531,490
531,527,543,534,498
534,532,533,536,504
530,532,523,535,509
518,527,516,531,504
516,520,502,522,505
503,506,481,505,517
497,504,472,499,524
499,498,468,496,522
507,496,481,497,521
499,489,493,490,528
504,497,513,494,529
508,495,518,495,516
513,503,538,504,504
516,502,545,511,510
519,504,550,518,520
528,504,559,525,510
532,510,569,533,499
540,516,572,541,499
542,516,567,541,497
530,516,563,540,494
520,514,555,534,492
514,507,545,525,501
500,497,531,516,516
491,492,523,501,519
486,488,519,498,522
483,490,517,499,519
478,491,513,500,516
478,491,520,502,504
483,496,525,506,515
483,497,524,506,517
487,502,530,512,517
504,507,530,516,503
527,512,534,525,488
563,522,543,535,480
570,524,543,541,472
553,524,540,542,468
527,515,529,533,495
514,512,523,527,508
506,503,511,513,539
505,497,503,505,542
497,496,503,498,548
502,495,503,495,546
515,497,509,498,530
509,499,512,498,534
513,499,515,502,528
520,502,519,503,519
521,502,521,509,498
530,506,525,517,485
529,508,526,519,498
533,515,536,530,498
533,521,533,537,510
530,519,532,535,519
530,518,525,536,509
518,514,522,530,504
504,509,514,521,523
506,502,509,508,502
500,498,510,501,488
489,493,505,498,506
499,495,503,495,519
495,494,485,488,534
500,500,499,498,523
495,500,509,500,512
491,501,516,513,527
498,506,522,512,519
506,507,521,518,530
512,511,521,522,526
530,521,524,521,524
551,524,524,530,521
540,519,500,526,541
534,518,483,522,549
540,523,483,528,516
528,516,472,517,512
505,506,449,504,524
494,498,428,493,528
485,495,424,488,528
482,498,417,483,528
494,505,426,489,520
496,503,438,491,516
505,505,453,494,516
522,508,464,495,514
520,505,473,494,525
528,508,486,495,533
528,512,500,502,524
521,528,532,508,511
513,531,542,519,513
497,535,514,518,510
491,543,487,522,507
486,547,434,531,499
469,527,366,516,521
480,518,341,501,525
517,517,350,500,523
545,511,354,490,531
542,500,354,482,533
521,479,365,474,534
512,474,417,473,533
516,486,475,488,529
514,505,507,505,519
509,513,525,517,516
509,519,503,523,522
518,548,530,532,515
515,551,554,543,508
514,542,491,538,500
515,531,455,533,509
517,517,477,528,509
524,510,497,516,500
515,498,518,500,506
503,484,545,497,506
507,480,602,502,498
520,479,627,507,492
520,482,662,512,491
524,490,695,524,469
528,490,697,526,472
529,493,699,530,493
531,496,692,534,491
535,501,685,544,504
537,506,684,546,505
541,507,670,547,517
549,512,658,555,491
546,514,637,555,479
537,510,615,548,491
526,504,591,535,506
518,498,573,527,512
508,481,553,515,492
503,465,534,506,494
493,463,525,499,550
489,462,518,498,543
487,462,521,499,542
495,475,522,505,545
506,502,532,505,528
512,533,538,509,513
519,523,514,512,496
524,514,531,521,494
528,514,527,532,492
534,518,515,544,487
540,524,526,549,470
540,524,518,539,462
529,513,500,517,483
517,510,510,517,486
500,503,482,512,511
494,493,473,503,512
492,487,475,491,550
492,494,493,486,600
494,502,507,493,543
501,512,514,491,530
500,503,506,477,536
507,502,502,507,519
510,501,508,519,494
515,513,497,514,512
530,521,510,528,493
538,528,526,538,493
541,527,518,537,461
541,520,503,537,459
523,512,505,523,515
511,512,504,511,537
507,517,507,517,502
484,498,502,513,589
471,485,478,498,608
476,496,481,499,592
491,502,497,491,556
493,497,495,495,547
503,501,497,502,544
502,500,493,492,536
507,512,498,497,536
509,519,517,507,527
509,517,507,510,535
516,521,430,511,532
514,515,343,509,534
528,519,279,512,522
531,524,258,517,507
527,520,293,513,492
525,503,321,492,490
499,476,356,479,506
468,457,415,475,558
451,477,495,489,604
464,502,571,497,524
459,511,610,521,507
444,505,607,515,532
435,502,580,500,545
428,485,578,498,544
491,510,589,510,521
537,522,606,516,508
577,529,581,524,510
568,511,557,533,499
571,526,529,533,492
574,540,517,536,492
548,527,490,534,485
502,525,498,533,485
491,515,501,523,503
472,497,476,500,497
463,506,456,501,499
473,516,474,512,530
467,495,434,491,561
518,486,422,488,556
565,492,438,492,534
530,484,487,494,532
500,491,548,504,534
494,497,591,512,522
500,506,633,529,500
500,512,647,540,493
511,514,655,549,490
536,517,653,549,492
524,517,645,551,513
517,517,626,546,521
518,513,600,540,504
508,514,587,537,485
490,501,558,524,488
495,491,535,516,498
509,497,536,501,488
504,494,533,497,501
481,496,530,505,548
490,500,539,505,573
477,493,532,495,571
462,495,530,502,536
488,497,525,506,518
522,513,537,525,482
539,520,548,533,471
577,523,539,533,459
566,528,539,538,481
571,534,536,541,484
536,521,525,535,507
499,515,518,523,552
483,508,504,513,526
497,500,486,507,492
514,499,489,506,458
520,497,487,504,438
532,498,500,499,466
534,501,502,503,538
561,503,500,495,557
555,507,505,498,546
540,505,497,498,561
538,504,503,507,545
537,506,500,520,557
535,508,496,526,540
531,506,505,515,523
529,513,512,520,524
540,520,515,521,484
530,520,519,523,485
525,523,524,528,484
520,518,503,517,519
528,523,503,514,517
514,508,488,505,543
505,503,505,489,586
513,497,512,485,611
490,490,500,485,541
486,486,492,499,489
500,498,490,501,492
507,510,494,504,489
525,525,491,523,459
531,527,479,525,511
553,530,439,515,548
553,518,400,514,561
543,522,410,520,530
526,509,418,517,493
514,489,428,501,469
515,496,483,513,471
506,487,505,513,472
491,491,545,514,507
492,495,540,502,542
487,500,549,500,584
499,503,545,498,581
517,504,550,500,531
509,501,533,493,536
505,498,476,496,576
514,507,453,506,533
528,503,466,500,475
528,500,489,510,457
539,508,538,541,439
536,509,546,552,454
539,520,550,557,466
530,531,541,549,536
511,524,515,544,575
500,518,476,520,582
496,506,441,496,531
501,515,476,495,499
493,514,477,488,498
482,518,431,496,534
494,534,415,499,535
508,533,445,502,549
503,518,465,484,544
503,503,474,482,549
498,487,489,492,546
514,499,531,503,529
523,504,589,527,515
534,507,630,544,501
537,506,647,542,486
532,506,649,551,478
525,504,648,544,469
524,507,638,539,486
511,497,623,528,485
506,492,594,518,504
497,492,579,513,533
491,489,562,504,545
496,491,551,501,530
498,494,544,504,522
500,495,535,506,519
499,498,521,504,519
507,500,513,509,517
497,500,514,512,526
473,492,508,510,516
466,498,516,521,506
467,509,524,532,499
467,514,531,537,505
481,523,537,537,508
491,521,536,530,510
533,518,533,528,481
530,502,513,520,464
512,493,507,507,465
511,496,525,506,455
498,500,523,508,449
487,496,518,502,472
469,493,505,494,578
504,499,509,494,612
564,510,524,505,566
568,514,528,513,552
563,517,528,518,560
561,518,528,524,519
577,522,530,531,477
561,524,534,541,461
554,525,530,545,446
533,518,526,542,485
494,510,517,522,547
467,502,505,512,530
454,498,492,504,523
456,493,482,495,548
466,496,486,495,539
501,497,496,499,469
538,500,499,503,432
546,500,498,495,473
551,501,501,503,527
538,511,505,507,534
526,505,506,509,513
541,515,520,518,473
546,519,518,528,467
554,524,524,537,461
547,522,518,535,509
516,516,513,531,586
491,505,503,526,574
479,506,502,529,587
494,504,464,514,578
510,511,441,497,586
516,502,407,479,553
515,495,400,482,543
503,489,411,491,552
488,480,436,473,556
490,488,478,481,536
508,509,559,501,519
530,507,580,514,518
525,517,570,521,516
528,526,573,530,517
533,526,552,532,515
544,529,505,535,501
550,527,502,534,497
544,531,476,532,498
532,522,426,508,514
522,502,414,492,523
492,479,422,473,537
488,475,446,477,540
498,485,470,485,525
498,482,493,477,518
499,484,499,494,523
512,508,551,537,510
516,511,548,520,508
518,512,571,519,510
521,508,552,513,502
521,507,524,511,508
522,505,539,514,511
529,521,574,530,504
538,529,611,562,488
536,525,601,563,485
539,520,578,546,490
522,511,566,534,508
504,503,530,524,530
499,504,538,513,526
500,505,557,514,519
498,501,556,509,521
495,500,541,509,520
495,503,537,516,508
508,503,521,513,513
507,501,530,515,516
513,505,542,518,500
515,499,531,527,513
514,499,528,525,521
525,512,542,534,506
543,522,545,534,460
543,522,543,535,448
539,518,538,526,441
520,513,536,523,452
511,511,532,529,472
491,503,514,511,556
479,498,506,492,589
473,494,503,489,530
483,495,500,498,511
504,497,505,494,507
514,497,507,498,501
515,499,511,501,510
505,498,513,510,523
492,503,520,517,519
485,509,525,516,541
483,508,525,517,537
481,508,526,526,553
511,514,528,534,538
510,516,525,534,549
515,517,520,534,547
535,513,515,528,480
559,519,522,531,492
524,503,500,507,515
522,495,492,501,519
535,502,493,488,527
525,504,494,496,529
501,496,498,493,585
487,496,507,487,535
473,495,504,490,537
466,501,505,501,559
473,511,515,518,525
479,507,514,520,499
516,515,518,528,459
550,521,520,532,444
542,523,514,533,457
555,518,502,533,498
585,519,479,521,534
570,513,470,518,555
534,503,451,503,552
513,488,425,489,524
513,482,439,484,546
506,487,469,486,548
502,495,458,491,547
507,504,451,483,530
508,505,463,497,519
516,517,485,496,515
533,525,518,510,506
517,495,512,505,501
527,503,532,518,491
539,526,590,542,486
545,533,596,546,479
540,527,588,543,514
541,538,579,544,502
532,519,565,533,507
524,522,551,526,511
500,514,503,507,524
489,507,484,506,557
495,494,451,473,539
499,489,464,481,531
495,487,491,498,550
508,491,506,495,532
502,494,515,502,538
497,489,506,498,510
506,491,544,504,506
509,502,564,518,507
524,515,562,519,502
536,521,556,523,494
539,523,554,534,477
537,519,542,553,481
534,517,540,547,483
527,509,511,521,479
517,502,501,517,486
497,488,477,500,534
494,489,471,496,533
485,488,477,499,537
493,495,488,499,544
496,490,486,504,510
501,492,488,500,502
502,496,490,503,504
506,503,506,514,512
512,506,514,513,513
517,508,529,520,519
518,506,535,522,508
530,514,553,532,487
535,520,561,543,481
538,523,561,542,467
533,527,573,543,443
524,522,568,540,465
507,513,548,523,534
494,503,530,507,544
482,500,524,501,531
475,494,518,498,572
495,497,519,493,534
503,499,522,496,525
519,502,521,498,525
514,501,523,501,506
516,505,526,509,479
521,508,534,516,488
528,512,530,521,491
534,516,536,530,486
541,522,537,535,506
541,521,538,538,522
536,522,530,534,521
512,514,519,525,583
511,514,515,519,555
492,499,495,508,539
483,499,501,501,522
487,494,494,493,526
487,492,494,491,528
482,492,498,490,536
485,496,503,492,534
501,501,510,508,497
504,502,515,511,467
530,507,522,514,457
523,509,522,516,453
509,514,527,521,477
494,512,520,521,511
500,518,529,532,508
503,520,526,536,529
514,523,527,536,546
548,512,515,530,555
552,514,507,510,533
543,504,496,502,541
524,501,487,494,569
503,499,458,487,553
505,497,447,485,536
517,496,454,491,511
526,509,480,500,509
527,499,490,499,509
512,485,504,488,499
515,490,511,498,490
535,510,523,519,504
544,525,557,542,502
544,527,555,541,506
542,524,534,539,502
535,518,527,536,510
536,519,523,531,488
517,514,527,523,499
514,505,509,507,527
503,498,497,506,548
492,496,507,499,579
495,494,502,501,542
499,492,498,501,541
499,495,507,507,528
505,494,498,509,505
506,498,490,519,513
517,509,502,520,494
514,507,509,516,497
516,506,496,501,514
533,518,502,506,513
539,524,519,507,510
535,523,536,520,518
527,518,547,525,500
517,515,540,513,508
518,515,524,513,519
500,500,504,520,549
490,488,492,507,534
489,488,495,494,527
486,488,485,493,528
486,488,494,500,525
499,490,507,506,519
507,499,532,510,512
512,506,549,517,521
525,509,544,514,507
523,509,550,520,498
527,513,561,530,497
535,519,552,535,496
545,520,548,538,482
535,516,541,541,472
531,516,539,540,484
517,510,529,531,509
516,511,525,524,503
498,498,507,508,536
484,494,503,501,558
490,497,502,493,543
490,496,500,495,538
494,500,503,492,542
501,500,507,498,529
501,498,511,505,511
508,503,517,507,493
514,504,522,510,498
523,510,528,522,510
526,513,532,523,515
532,518,535,530,502
540,522,537,538,494
534,522,532,540,506
525,515,523,542,523
516,511,515,521,522
510,507,504,505,519
498,498,496,501,520
496,499,499,498,526
493,495,497,494,548
498,495,499,496,499
508,500,506,503,456
506,499,508,503,488
507,500,512,498,510
511,508,518,507,514
508,503,518,508,542
521,512,527,521,517
530,518,531,532,498
535,521,534,534,509
540,523,527,533,514
540,524,524,534,507
522,516,512,531,532
523,515,501,515,543
499,500,489,504,551
484,494,496,502,541
487,494,507,499,534
488,496,509,491,518
499,497,507,496,492
509,502,510,500,494
502,500,515,508,492
511,498,512,502,484
519,505,520,512,484
518,507,525,516,515
526,511,527,521,524
529,515,531,528,525
535,520,534,535,504
536,523,533,539,505
533,521,531,534,504
521,515,522,534,518
514,510,518,525,525
496,501,504,508,531
492,493,486,502,514
498,495,493,505,502
501,498,505,493,514
498,498,509,484,542
508,502,518,509,535
505,501,519,506,530
506,503,507,493,528
510,504,511,503,518
522,509,520,517,496
532,518,529,524,494
534,519,539,538,490
537,518,531,536,472
540,517,519,540,511
534,514,518,529,502
531,513,518,525,490
523,503,506,515,494
509,490,490,496,529
509,489,492,496,512
502,487,492,498,494
501,488,507,498,500
506,493,511,495,507
505,498,518,498,495
506,508,520,496,483
510,511,528,505,510
514,510,519,500,540
519,508,521,508,537
529,513,529,530,532
535,520,531,540,515
539,522,533,539,511
537,523,528,537,512
525,508,514,526,515
520,502,518,526,524
504,491,503,508,532
496,488,501,497,537
495,478,491,489,539
490,477,487,484,529
485,479,495,488,543
486,491,495,491,543
493,502,502,508,546
496,495,514,515,543
509,509,532,517,530
522,521,533,524,522
531,522,532,524,507
536,532,536,525,494
544,531,562,532,483
543,533,565,535,466
538,526,559,545,475
526,517,534,534,500
521,513,489,524,509
504,502,484,520,512
497,494,489,505,521
495,495,497,494,524
493,493,498,493,523
496,496,505,500,528
505,505,517,507,522
504,500,512,504,525
507,504,512,490,534
517,511,518,503,526
525,511,521,518,512
535,515,525,518,495
536,517,527,523,482
538,519,527,529,484
528,519,527,529,491
522,518,526,524,497
516,512,520,522,501
511,505,512,512,516
500,499,501,496,528
493,498,501,497,523
493,497,498,507,532
506,498,502,501,515
509,494,505,503,507
515,498,509,501,505
518,500,512,501,502
522,504,520,505,501
522,505,522,510,522
531,517,531,522,529
533,523,538,529,529
532,521,537,534,540
517,524,535,538,533
506,516,534,536,528
499,509,520,525,523
500,509,517,518,517
504,506,502,506,517
500,498,495,502,518
502,499,503,504,523
505,497,500,498,534
500,496,503,502,537
495,499,513,502,538
495,497,513,501,540
503,498,513,498,534
514,502,518,508,495
516,507,524,514,479
522,509,528,524,466
533,514,533,532,458
542,519,536,536,466
544,521,529,539,470
542,516,521,530,475
524,510,512,516,503
515,510,508,519,509
507,499,495,506,511
502,494,497,496,532
497,493,500,491,524
497,496,507,501,519
498,490,508,502,527
511,499,515,504,511
514,497,515,504,515
521,505,519,504,515
523,506,522,512,507
531,511,528,520,501
527,514,526,522,508
537,519,524,518,510
543,522,527,532,504
530,516,520,534,502
524,514,525,526,473
519,509,522,524,481
505,503,513,513,503
499,499,506,504,514
486,494,503,496,527
487,492,494,494,537
488,495,497,493,550
493,498,509,497,541
503,502,517,502,539
501,502,516,500,536
507,506,522,506,498
516,506,523,508,497
529,511,530,517,499
524,512,531,521,533
524,515,531,528,509
537,518,532,545,465
536,518,530,544,473
528,510,518,531,481
522,511,514,526,501
508,501,494,505,516
501,497,490,502,536
493,494,491,500,557
499,495,493,499,548
502,495,494,498,532
508,497,509,489,518
511,500,525,493,512
507,493,516,503,505
515,500,524,514,497
520,504,526,515,486
519,512,535,518,496
530,512,540,542,497
549,520,547,549,486
545,528,544,548,486
535,526,518,522,510
520,512,511,518,511
515,510,509,517,527
494,499,498,498,543
486,497,499,494,553
484,496,498,494,518
486,498,501,492,522
497,497,498,492,542
512,500,506,498,528
517,502,513,498,532
517,501,516,505,526
516,505,520,507,514
515,506,522,518,504
519,513,523,524,506
530,515,529,530,485
540,515,529,534,466
537,516,521,533,445
534,520,521,531,469
527,510,511,521,488
512,499,501,510,503
499,498,498,504,521
487,497,503,496,541
493,499,503,500,555
492,494,505,495,552
492,495,510,496,528
505,498,515,500,504
516,499,512,503,512
513,500,511,505,497
506,504,517,513,495
505,507,524,521,491
519,515,530,530,489
531,521,531,533,494
539,523,532,535,487
534,521,528,536,469
521,515,519,529,474
516,512,515,523,476
497,500,500,508,520
486,496,495,498,586
487,499,502,496,567
495,501,505,500,549
494,494,501,496,546
501,498,507,500,532
513,501,511,504,505
513,501,510,500,496
515,499,513,505,497
518,505,519,517,499
525,509,523,522,491
529,514,528,526,522
532,519,532,533,521
530,518,529,530,515
525,517,522,530,513
516,514,516,525,518
511,508,510,519,515
497,495,499,505,516
491,494,498,497,519
488,496,499,495,518
494,493,499,498,505
500,493,502,497,512
500,496,508,501,505
501,497,509,501,501
512,499,513,504,505
522,504,521,514,512
529,507,522,516,487
537,510,524,521,488
545,517,529,530,489
542,519,530,533,517
539,522,530,534,532
531,516,521,528,539
509,509,510,520,548
503,504,505,512,546
500,498,498,504,525
500,496,496,498,516
498,493,496,493,506
506,496,501,496,479
509,496,504,497,499
513,501,511,505,501
511,499,511,501,506
512,502,517,511,506
514,504,520,512,501
514,509,525,521,492
524,514,530,528,489
538,519,532,535,490
536,521,530,535,495
528,521,527,532,498
523,517,521,528,517
513,511,513,521,526
498,502,503,509,540
487,496,496,504,545
482,495,496,499,539
488,495,500,496,519
495,495,501,496,502
506,499,510,505,486
509,501,515,507,496
509,499,513,501,503
515,502,517,507,499
520,504,519,512,506
527,510,524,520,499
534,516,529,528,498
540,518,530,531,500
535,519,527,532,499
530,517,522,529,509
520,512,515,522,523
514,510,511,517,532
499,499,499,502,537
496,497,497,503,524
493,495,496,502,508
495,493,498,494,504
498,496,504,496,511
506,502,511,501,497
509,500,512,503,482
513,499,512,504,480
520,505,519,510,482
525,508,523,516,506
521,514,527,522,550
534,517,529,529,526
540,522,533,537,510
538,522,529,534,512
526,517,523,529,521
515,511,512,520,516
505,502,505,515,525
497,497,496,499,535
500,498,497,498,518
495,493,496,495,508
495,492,503,496,511
500,499,503,503,509
507,501,512,502,518
500,499,511,501,530
507,504,518,507,525
510,505,521,511,523
518,509,524,517,528
526,515,528,525,521
532,519,530,529,519
534,521,531,533,519
531,521,527,531,501
524,516,519,526,518
516,507,509,519,500
507,499,499,508,486
502,496,495,500,507
498,492,495,496,512
494,494,500,497,514
491,494,500,495,517
499,501,509,502,517
505,506,519,504,515
505,500,512,501,508
520,503,518,508,501
515,506,521,516,500
527,510,525,523,486
538,517,530,530,498
537,520,531,533,502
536,518,527,532,505
525,516,522,530,513
518,513,516,524,515
512,508,509,515,520
500,500,499,504,529
492,496,497,500,526
491,494,496,495,529
494,500,501,499,525
499,498,505,496,515
503,501,514,505,503
505,500,515,505,494
507,497,513,504,486
520,504,521,512,509
523,506,518,514,519
526,512,523,520,513
530,516,527,530,489
537,520,529,534,492
535,519,526,530,512
529,517,521,525,528
520,514,515,522,537
508,501,501,510,543
494,496,497,502,532
491,494,497,502,494
493,496,500,497,513
495,495,502,495,514
499,496,505,496,507
503,497,510,501,502
506,501,514,501,512
512,502,518,509,511
514,505,522,514,506
523,510,525,519,498
535,515,530,527,499
537,519,535,532,505
535,518,530,534,508
531,520,526,531,507
520,512,518,529,508
512,507,511,520,507
501,499,500,508,514
494,500,500,503,523
491,495,498,498,524
497,495,501,497,523
496,495,503,497,517
505,498,507,500,510
511,504,514,502,510
507,500,514,503,514
517,504,522,510,512
520,506,522,515,504
526,510,525,521,503
529,513,527,526,502
534,522,536,538,492
533,521,530,537,497
529,518,524,531,500
520,516,516,523,509
512,510,512,521,518
499,505,501,506,521
494,495,497,501,514
492,498,499,499,508
499,499,503,500,507
500,498,507,501,511
504,497,511,505,510
511,501,514,505,502
512,498,512,502,523
518,503,520,510,513
524,509,524,517,503
533,514,528,522,525
535,519,531,527,532
536,520,531,529,527
531,521,528,531,527
516,513,517,525,531
513,508,512,524,510
505,502,504,513,542
498,497,497,500,543
497,494,495,505,507
493,494,497,495,502
498,496,506,496,515
508,499,509,503,500
508,500,512,504,499
505,498,510,503,508
511,503,518,510,509
517,507,523,516,510
522,514,528,520,521
528,516,529,525,503
534,519,531,532,497
538,518,527,532,485
532,518,526,531,492
525,515,518,526,501
513,510,512,519,503
499,499,498,505,515
495,497,496,502,520
494,495,496,497,517
495,495,500,497,521
498,495,500,496,519
505,497,513,501,507
512,501,512,502,509
510,501,513,504,513
514,504,519,512,511
519,508,522,518,510
523,509,524,521,508
533,516,527,527,498
537,521,532,534,500
537,520,528,533,521
528,518,523,530,523
520,513,516,525,522
513,506,506,515,521
498,500,497,510,519
497,497,497,500,505
498,494,498,502,502
496,494,499,497,503
495,495,503,496,524
498,498,509,501,527
500,500,512,503,520
502,498,513,509,518
515,505,520,512,513
525,510,526,520,509
528,515,529,526,503
535,519,531,532,496
537,521,531,534,492
534,521,528,533,501
523,515,520,527,508
510,509,511,518,525
497,496,497,512,532
493,497,497,505,537
496,495,496,500,526
494,497,501,498,507
497,495,501,502,516
498,498,506,499,517
505,501,512,501,515
507,501,514,507,493
511,505,520,507,505
519,505,519,512,509
525,510,527,518,508
530,514,527,525,493
534,519,531,532,506
534,518,527,532,507
534,519,527,534,489
523,513,519,527,498
518,509,511,520,510
500,500,500,508,519
497,496,496,501,526
501,495,496,498,523
501,497,501,495,520
503,497,507,500,531
509,503,515,502,522
509,501,513,503,518
505,497,511,503,503
509,506,519,509,511
514,508,524,516,508
525,512,526,523,509
530,515,529,528,497
531,518,529,531,488
535,520,527,532,499
532,517,523,529,510
521,512,515,520,530
513,505,505,515,541
496,496,496,501,532
494,494,494,499,525
490,494,497,498,506
493,499,502,497,502
496,494,503,498,505
504,499,509,503,501
508,502,514,505,502
511,500,513,504,507
514,506,524,515,505
522,509,525,519,501
527,513,528,526,500
528,521,533,531,499
533,518,529,534,495
532,521,528,536,493
525,520,524,530,496
516,509,512,522,498
504,501,501,512,506
497,498,497,504,511
496,497,501,498,526
495,493,498,495,519
499,501,505,496,512
504,501,508,499,506
506,503,514,505,504
508,500,513,507,520
511,502,515,505,524
513,507,521,512,532
521,512,525,518,536
526,516,529,526,526
536,518,529,530,505
536,519,527,532,501
536,520,525,534,477
521,516,518,525,493
518,510,512,519,500
502,500,500,507,519
496,497,497,502,526
491,493,496,495,525
494,496,500,496,524
501,495,501,493,527
505,500,509,496,526
511,505,512,503,506
507,502,512,504,511
512,504,519,507,535
521,509,524,517,525
525,510,524,521,512
533,515,531,527,507
538,524,536,537,495
538,521,529,535,491
534,518,523,531,493
525,512,515,524,493
511,504,505,515,522
498,495,498,505,538
495,496,497,501,534
493,493,496,498,523
496,495,501,499,520
495,496,504,499,513
503,499,510,499,517
509,503,518,503,521
511,501,515,505,526
520,504,520,510,517
526,513,531,521,506
530,515,529,525,502
532,522,535,534,508
537,522,533,537,503
532,522,530,537,504
525,517,521,528,510
516,510,514,522,517
504,501,501,508,528
501,497,497,501,529
495,497,498,498,534
493,496,500,495,536
491,495,500,493,537
502,500,510,501,523
504,502,514,505,499
506,501,514,504,505
508,502,517,511,502
516,506,522,516,503
523,510,525,521,500
532,514,530,531,497
541,521,535,534,498
538,522,530,535,515
531,520,526,534,523
523,515,518,528,520
521,509,509,519,507
500,498,497,505,508
493,496,495,500,515
493,495,498,498,521
496,497,499,503,521
497,500,504,499,517
505,502,511,502,517
508,502,514,500,524
503,499,513,503,524
511,501,516,513,521
520,509,524,521,517
523,511,525,523,505
531,515,528,530,491
540,521,532,537,488
534,523,528,537,495
530,519,524,531,504
522,514,517,525,515
510,505,506,513,533
498,500,500,505,541
495,496,497,498,525
493,495,498,497,515
491,494,500,496,515
497,494,498,501,506
505,497,513,502,499
506,500,513,503,511
506,499,513,502,518
511,504,520,512,511
524,509,525,521,505
528,512,526,525,503
533,516,533,531,497
538,519,532,536,501
540,521,528,535,502
525,515,520,529,507
516,511,514,523,517
502,503,507,511,529
494,497,497,503,523
495,494,498,499,515
498,491,501,497,524
501,497,503,499,518
504,499,507,500,510
505,502,512,504,507
506,502,516,504,510
510,505,521,506,510
518,505,520,513,515
524,511,526,522,509
529,517,529,525,516
530,520,530,532,505
533,520,528,531,513
539,520,525,530,521
531,515,517,525,521
516,508,511,518,523
502,499,499,503,533
496,497,497,497,537
498,497,499,498,518
497,497,501,498,531
499,496,504,497,527
505,500,510,504,491
508,502,514,504,493
509,501,513,505,500
515,504,519,511,501
521,508,524,518,502
523,511,525,521,512
535,516,528,528,511
536,520,531,533,502
535,524,524,536,503
535,518,522,529,502
524,514,515,523,511
515,503,504,510,514
502,498,502,502,521
499,497,497,500,524
492,494,497,495,525
493,494,498,498,521
499,497,504,498,514
508,503,513,504,513
508,508,516,506,514
506,503,519,506,515
520,505,521,513,507
526,512,528,521,508
529,514,528,525,503
533,519,531,533,500
538,520,530,536,505
535,521,528,536,512
525,516,521,529,512
517,511,514,520,519
500,501,502,510,527
493,497,496,502,528
494,496,497,502,527
493,494,498,496,516
495,494,501,495,507
501,498,508,500,503
509,500,512,502,498
507,500,513,502,508
508,505,517,507,514
517,507,523,516,504
521,511,521,522,508
527,515,527,527,512
535,518,531,532,510
532,522,531,536,510
530,519,525,531,514
520,515,519,528,506
506,508,510,520,520
497,499,500,508,537
494,496,497,502,530
489,495,498,497,523
498,495,501,499,517
499,497,505,495,522
505,502,508,501,514
508,502,517,500,515
511,500,513,503,513
515,503,518,509,515
522,508,523,514,512
528,510,524,521,508
534,516,528,526,505
538,522,531,535,500
534,521,527,535,504
527,521,527,531,520
516,514,520,528,515
505,504,505,514,526
495,498,498,502,528
493,500,495,500,531
494,494,497,494,523
496,497,501,497,525
499,498,504,494,527
504,502,512,502,514
507,502,515,505,510
508,501,515,506,492
516,505,525,515,502
521,506,522,522,505
526,514,527,523,509
536,518,529,529,509
537,522,531,537,485
533,520,527,534,475
527,521,525,526,499
515,511,513,519,509
497,501,500,506,525
490,495,496,499,560
490,496,498,497,544
495,496,500,495,528
499,496,503,496,514
508,499,509,500,506
514,502,513,502,510
513,502,515,501,516
512,502,517,504,516
515,504,519,516,510
522,510,524,519,505
530,515,528,527,499
533,519,529,533,494
533,519,528,533,492
532,520,527,531,494
526,519,523,526,505
517,508,512,516,512
500,499,500,505,521
496,498,495,502,523
491,494,494,495,525
499,496,498,497,521
498,495,501,497,508
504,500,509,501,505
506,499,511,500,514
508,500,512,502,519
518,501,517,511,513
520,508,523,516,512
523,513,526,523,515
533,519,531,532,498
537,521,532,534,496
538,520,527,533,502
526,516,520,529,506
520,511,514,523,507
510,504,501,516,528
496,497,497,502,539
495,497,497,500,522
493,494,497,497,510
497,499,501,496,520
501,498,503,497,522
507,500,510,500,519
509,502,514,503,516
508,497,516,504,509
518,506,521,514,500
525,510,524,519,500
533,513,526,523,498
535,519,530,530,498
538,521,531,535,503
540,522,527,534,510
530,518,521,528,521
521,512,513,519,526
503,501,500,507,535
496,497,497,504,501
490,498,497,500,507
488,495,499,499,511
489,494,501,497,514
497,498,508,501,522
502,499,511,501,513
507,503,515,505,509
511,506,520,509,517
517,511,526,515,518
523,510,524,520,515
526,517,529,528,503
534,520,531,530,512
532,520,525,532,497
531,523,528,536,497
520,513,515,527,495
515,510,510,519,510
502,501,500,507,523
497,497,496,497,526
496,496,497,495,520
497,496,504,498,515
496,496,503,496,515
504,499,509,504,506
509,501,513,506,506
510,501,514,507,509
515,507,524,517,514
525,510,524,519,504
526,512,529,522,493
530,520,530,531,500
536,521,531,535,495
535,522,526,534,487
532,518,522,531,502
522,513,516,523,514
505,502,501,515,525
495,497,497,503,532
497,497,498,500,533
493,495,499,496,528
496,495,500,496,525
501,499,506,498,515
506,499,511,501,509
507,501,513,504,509
509,505,516,507,513
515,505,521,513,515
523,510,525,518,521
531,514,527,524,514
533,517,530,532,500
537,522,533,536,495
534,521,529,535,507
528,516,521,529,511
517,510,513,521,513
502,501,502,509,523
494,495,496,501,525
493,496,502,498,525
493,495,500,496,522
494,496,503,496,525
500,498,508,501,520
505,500,512,503,512
509,503,519,506,509
511,501,517,512,509
524,508,523,515,507
524,511,526,522,509
532,516,530,526,525
533,520,532,532,533
532,520,528,532,531
530,520,529,531,523
524,514,519,525,524
512,507,510,522,514
502,501,501,508,515
492,494,496,500,513
491,493,496,499,519
496,499,506,500,525
497,494,501,495,524
507,498,509,499,513
511,500,512,502,502
513,500,513,502,506
519,504,521,509,519
520,508,523,516,529
521,511,526,523,516
526,517,530,531,499
532,524,535,539,491
530,518,525,532,489
520,515,520,529,495
521,514,517,526,499
505,503,504,510,516
499,497,497,505,518
492,496,497,500,521
490,497,499,495,523
491,494,498,500,533
496,499,504,496,532
506,500,511,502,523
506,499,512,505,503
508,501,515,511,507
517,505,521,516,505
526,511,526,519,522
532,517,530,526,514
537,519,531,530,511
535,518,526,529,505
533,519,525,533,498
527,515,519,529,496
514,510,512,521,503
497,503,500,509,514
494,498,499,502,515
496,493,495,499,510
493,495,499,496,512
493,495,502,497,518
503,496,510,498,513
504,501,512,503,509
509,502,515,505,510
514,503,519,509,515
517,508,523,515,514
526,511,524,521,512
536,515,528,527,502
541,521,533,535,501
533,521,532,534,505
531,519,524,537,509
523,515,518,525,511
513,508,509,520,519
498,501,499,508,526
496,495,495,500,528
495,495,497,499,525
494,495,500,498,520
500,497,504,499,518
506,499,509,502,514
511,500,512,504,516
510,501,514,503,518
511,504,521,512,515
518,507,524,518,508
525,513,527,524,513
530,518,528,528,506
534,520,530,533,507
536,520,528,535,508
527,517,523,531,512
519,513,517,525,513
507,502,502,509,525
499,498,497,502,532
494,495,495,495,529
495,495,498,496,524
499,496,502,497,518
502,498,506,499,514
508,501,512,504,507
506,502,516,506,509
503,500,516,506,514
511,510,524,513,523
520,509,524,519,518
527,515,532,533,493
535,520,532,534,487
533,520,530,535,498
531,520,526,534,505
525,516,520,527,511
515,510,512,520,514
504,500,500,505,525
495,501,501,501,533
494,496,497,497,531
496,496,500,500,517
496,495,501,497,510
498,498,508,501,505
505,500,513,503,503
510,502,515,507,494
512,503,518,509,500
515,506,522,515,499
520,510,525,521,507
530,516,530,529,519
533,520,532,533,511
533,518,525,532,507
532,518,523,531,507
527,516,518,527,513
514,508,508,517,521
502,499,498,505,533
495,496,496,500,534
493,496,497,497,529
491,495,499,496,523
492,496,507,497,516
500,501,511,502,513
507,501,514,504,518
507,501,514,505,514
514,505,519,512,517
523,510,524,519,510
528,512,525,523,497
534,519,530,533,491
540,522,532,538,484
536,521,527,536,486
530,518,522,531,507
515,511,514,524,511
502,497,502,515,514
496,497,496,503,525
493,496,496,497,537
493,494,497,495,529
492,496,501,497,521
502,497,505,499,517
503,501,511,504,509
514,501,514,506,502
510,501,514,507,516
514,503,518,516,516
525,509,524,518,507
532,514,527,525,506
533,522,531,532,508
533,520,528,532,509
530,520,525,532,509
518,514,518,527,516
517,512,514,521,529
503,500,500,508,535
497,495,495,499,541
497,496,497,499,512
508,497,499,495,518
510,497,503,495,526
507,499,507,499,502
508,501,511,502,500
511,502,515,503,509
511,503,517,511,507
516,507,522,515,498
523,512,527,523,497
530,518,529,530,496
536,520,530,533,502
534,521,528,534,503
527,519,524,531,507
518,514,517,526,511
509,505,507,520,517
498,499,496,509,522
493,495,497,500,523
493,494,496,495,517
497,497,502,496,522
496,495,502,494,522
503,501,514,504,520
510,503,515,505,505
514,503,517,508,505
517,508,524,512,509
521,506,523,517,505
526,512,527,524,503
532,518,530,531,500
539,520,530,534,498
535,521,528,535,501
527,516,520,529,508
521,511,517,523,511
507,501,501,509,513
500,497,497,502,519
489,497,499,500,523
494,496,500,494,518
497,495,501,497,517
501,497,506,500,518
504,502,514,503,520
506,501,514,504,519
503,499,513,505,514
516,505,519,511,506
523,511,526,519,511
528,519,533,530,511
538,519,531,532,504
533,521,530,534,508
532,521,527,534,510
522,516,520,528,514
515,511,515,523,518
499,501,501,508,524
491,496,497,499,531
489,494,497,499,522
492,495,500,497,522
497,500,506,497,513
504,500,512,505,503
511,503,515,503,506
513,501,517,508,503
520,505,520,510,507
518,507,523,515,542
522,511,528,521,535
531,518,528,527,519
540,520,531,533,512
534,523,533,539,493
535,517,523,533,479
521,512,516,526,497
513,507,509,519,505
500,499,500,505,511
496,497,498,499,511
491,494,497,496,508
496,496,500,496,509
497,496,505,497,520
505,502,512,503,518
507,503,515,504,525
511,501,515,503,517
520,504,519,513,507
525,511,526,519,506
525,512,527,525,501
529,518,531,532,494
535,521,531,535,493
538,521,527,533,499
528,517,521,529,504
521,516,520,529,503
507,502,501,516,505
497,495,499,505,514
491,494,495,496,524
495,494,498,499,517
498,495,501,494,527
499,497,504,495,535
508,501,510,505,531
511,500,513,505,529
515,502,515,506,521
516,505,520,513,507
524,509,521,517,500
531,515,528,526,501
535,518,529,530,509
530,519,528,534,502
530,520,525,533,497
521,515,519,527,510
516,510,512,518,517
501,500,499,507,532
490,498,498,498,529
488,495,498,498,525
490,493,497,495,519
496,495,502,497,519
502,499,509,498,522
508,500,512,503,517
508,500,514,505,510
513,502,522,508,502
521,509,523,518,505
528,511,526,523,503
536,517,530,529,501
534,520,531,534,502
529,518,525,530,508
528,517,522,528,515
518,513,516,523,521
509,505,505,516,510
494,501,501,504,521
486,494,496,498,520
493,497,498,501,518
495,496,501,497,520
498,495,503,497,520
504,499,509,502,519
506,504,518,505,515
505,501,515,506,515
514,504,520,512,505
522,510,525,519,508
528,513,525,522,511
538,519,530,530,513
538,523,529,535,514
540,520,526,533,511
527,519,522,526,509
522,513,515,525,491
505,502,502,508,512
497,498,496,501,520
496,496,496,498,524
494,497,497,495,522
495,495,499,494,517
497,494,508,499,509
504,501,512,504,503
506,501,514,504,514
507,502,517,506,528
519,507,523,515,525
521,511,526,520,523
528,517,530,528,511
531,524,535,536,501
531,520,530,536,491
529,520,528,536,487
520,516,518,529,493
518,516,517,524,498
504,502,504,506,520
495,495,496,497,530
491,494,495,498,523
494,496,500,495,512
497,496,502,495,509
503,500,510,501,508
502,502,515,504,508
504,501,516,507,515
511,503,518,512,505
522,508,524,518,502
528,511,524,519,503
536,514,526,523,503
540,519,530,530,497
537,521,529,534,509
535,520,525,530,522
523,514,517,523,527
513,506,507,512,529
494,497,498,502,532
489,497,498,502,530
495,497,500,498,530
497,494,500,494,529
500,496,505,497,508
505,498,510,503,498
507,502,515,506,508
508,502,515,506,515
513,503,518,511,504
521,511,525,521,507
525,517,529,528,512
532,519,531,531,508
531,521,529,532,505
530,521,526,532,502
528,517,520,526,511
524,514,515,525,505
503,500,499,515,526
495,496,495,500,533
492,496,497,499,525
495,495,497,498,502
498,495,501,495,516
500,497,505,500,513
505,501,511,503,507
510,502,514,505,505
509,502,517,508,506
516,504,520,517,503
523,510,524,519,505
527,517,530,527,505
533,520,531,532,503
531,519,527,533,504
528,519,525,532,502
524,519,523,530,507
521,511,514,522,510
502,501,500,507,521
493,495,495,500,521
492,497,500,497,516
494,496,500,496,516
497,496,501,496,518
505,501,510,502,513
509,502,514,505,509
512,504,517,506,514
518,503,519,507,516
519,509,524,517,514
525,510,524,525,507
532,517,528,528,503
540,526,536,534,502
533,520,527,533,499
528,517,522,530,504
521,513,516,526,513
510,505,503,514,520
497,498,498,508,529
491,494,495,498,524
495,496,500,498,523
493,494,500,495,519
497,497,505,497,523
503,500,511,501,516
511,501,515,503,514
510,500,517,507,512
518,503,519,511,509
527,512,527,519,510
533,515,530,526,509
536,519,531,532,505
536,520,530,535,504
535,520,527,534,505
527,520,524,530,510
519,514,517,522,508
505,502,502,510,520
499,498,498,503,531
491,495,497,499,533
494,494,497,494,522
494,497,503,497,519
494,497,507,499,515
500,497,512,503,509
506,502,514,504,508
509,501,516,507,507
512,505,520,513,511
521,509,523,525,506
527,515,530,530,495
537,519,532,535,497
538,519,528,535,502
536,520,525,533,509
529,520,522,529,530
526,515,518,521,525
513,502,501,510,519
501,495,495,501,514
495,492,493,496,513
490,494,499,498,509
487,492,501,498,516
495,500,511,507,519
495,499,513,504,523
503,502,516,505,533
506,504,519,506,531
515,509,524,513,533
526,512,526,523,514
538,518,529,530,497
541,521,530,532,504
536,520,528,534,513
529,518,523,530,512
526,515,518,526,516
513,506,507,516,511
499,496,497,506,510
494,496,495,500,510
497,497,499,499,519
496,496,500,497,517
501,497,503,500,529
509,503,512,504,511
509,508,517,506,518
509,501,514,505,516
510,502,515,512,500
523,510,525,522,505
532,514,528,526,499
535,519,528,533,492
539,519,528,532,487
535,521,526,535,479
531,516,520,528,492
519,513,514,523,515
501,500,500,509,529
493,497,496,501,536
493,497,496,502,521
498,496,495,502,498
499,497,501,496,495
502,497,510,502,489
504,499,510,504,518
509,501,514,507,529
513,503,517,509,521
519,505,520,514,523
523,512,523,523,515
532,514,527,526,505
537,520,531,534,500
534,521,529,536,509
529,521,527,535,515
520,515,519,528,517
516,512,514,523,519
499,499,499,508,525
494,495,495,500,519
494,496,498,498,526
494,495,499,495,524
497,497,504,496,522
502,500,509,500,520
507,501,512,502,518
513,501,515,506,518
515,504,519,510,519
522,509,524,518,518
524,511,524,519,519
536,517,529,530,501
537,521,532,535,504
536,520,528,534,507
528,519,524,532,506
519,514,516,530,507
510,506,507,516,518
497,499,499,506,522
489,495,495,498,524
496,495,498,497,523
496,493,500,496,520
498,497,509,497,520
506,502,510,503,518
506,501,513,504,518
510,502,516,507,515
515,506,520,512,513
520,511,525,521,513
526,514,531,528,513
532,518,529,531,506
534,520,531,533,505
533,520,526,532,505
527,518,521,529,509
519,513,514,523,507
507,503,499,515,519
495,498,497,503,522
492,496,497,493,516
490,496,498,496,514
496,497,502,494,529
500,497,504,502,522
506,502,513,504,521
508,505,515,506,513
512,507,519,509,503
519,506,524,514,505
527,512,525,520,513
529,517,528,527,517
532,521,531,533,518
532,520,528,532,519
530,521,522,532,515
523,514,521,528,513
518,510,511,518,508
500,500,498,505,515
491,495,495,499,526
490,495,501,500,528
491,496,500,495,528
497,496,502,495,522
502,500,510,501,507
506,502,514,503,508
509,502,515,508,508
517,506,520,511,507
530,510,524,516,503
530,512,525,521,505
538,517,528,527,504
540,521,530,533,504
535,519,526,534,505
530,517,521,528,506
522,514,516,524,502
507,505,505,514,513
494,498,498,503,528
491,498,500,497,519
493,495,497,497,520
494,495,501,495,518
498,497,503,501,526
505,500,512,502,515
508,503,515,504,516
509,502,517,505,514
516,508,521,512,494
522,509,525,518,502
527,514,528,525,506
531,518,531,531,502
535,519,529,532,504
533,521,527,533,507
525,517,521,530,507
520,516,520,525,504
511,503,503,512,514
498,496,496,500,518
496,495,496,494,518
500,497,501,497,522
496,496,501,493,534
508,498,507,497,513
510,504,516,501,500
511,501,513,503,499
509,502,517,506,506
515,504,520,512,510
517,508,520,520,512
527,514,529,526,506
531,520,531,532,506
530,519,527,533,505
526,519,525,532,508
526,515,517,528,519
520,510,511,519,522
504,500,499,506,538
495,496,498,499,534
494,495,497,497,530
504,498,501,496,528
497,495,501,495,512
502,499,507,502,520
505,501,512,504,518
512,502,515,507,510
515,503,518,509,505
524,510,525,518,506
526,512,526,521,501
530,515,528,528,494
533,518,533,539,490
530,519,528,535,511
526,519,526,532,516
517,512,515,523,520
505,504,504,510,537
498,500,499,504,529
493,495,495,503,521
495,497,500,498,518
496,496,501,498,515
496,496,508,497,524
504,504,513,502,528
511,500,512,501,526
512,502,515,505,526
517,505,521,512,520
520,509,524,521,502
526,513,527,524,499
536,521,536,534,506
533,520,531,534,503
531,521,528,533,509
524,517,521,529,508
517,512,515,522,509
503,505,502,509,526
494,496,496,502,525
490,500,501,499,517
491,495,500,499,522
494,495,503,498,514
499,497,506,499,506
509,501,513,503,503
510,502,516,505,509
515,503,519,510,514
517,507,519,517,512
525,508,523,519,503
528,515,529,528,499
533,520,531,533,497
533,518,527,534,499
533,519,525,531,500
525,515,519,527,513
518,509,512,519,522
504,500,500,506,536
495,495,496,497,536
492,496,498,495,540
496,495,499,495,523
496,495,503,499,522
504,501,510,502,520
506,502,514,503,514
512,502,515,510,508
517,505,521,512,502
521,508,524,517,494
525,516,526,523,500
531,516,528,527,505
535,520,530,533,496
529,517,525,533,502
527,518,522,530,512
523,517,519,525,512
512,506,509,514,517
500,499,497,508,519
498,497,497,504,519
493,494,496,493,525
495,496,501,495,526
496,495,504,497,523
505,497,514,501,518
510,501,514,505,516
506,504,517,507,514
517,506,521,510,515
519,510,525,518,515
526,513,528,525,498
531,518,530,530,484
534,519,530,533,488
539,519,526,534,482
528,516,520,527,496
518,510,515,521,517
504,501,501,509,538
493,496,495,498,551
491,495,496,498,551
494,495,501,497,509
495,491,504,495,515
499,495,504,497,507
503,500,512,503,507
507,501,516,505,519
512,502,519,509,518
518,506,522,514,518
523,510,525,520,510
531,516,529,527,510
534,520,530,531,506
533,518,526,532,502
530,520,526,534,499
521,515,518,526,505
518,513,512,525,516
500,499,499,506,530
492,495,495,500,530
493,496,498,498,529
493,496,501,497,529
500,496,504,497,508
504,500,510,501,503
509,502,512,510,508
513,504,517,507,515
516,505,520,511,520
522,506,521,514,515
528,512,524,520,509
532,514,527,527,509
535,519,529,534,496
528,520,528,537,502
522,518,523,533,500
516,513,516,526,505
505,503,504,514,518
494,495,501,505,525
492,496,498,501,527
495,495,499,497,524
495,499,507,498,525
497,495,504,497,521
504,501,511,506,511
511,500,515,506,506
510,501,517,508,508
515,505,520,513,509
520,512,529,520,505
525,514,529,526,499
536,519,530,531,499
536,520,530,533,502
531,523,524,536,505
524,517,520,528,510
519,513,515,522,513
504,504,502,507,530
494,497,497,499,529
493,495,496,496,521
496,496,501,497,522
496,496,502,498,519
503,497,505,497,520
505,501,512,500,525
509,503,517,504,526
516,504,520,512,514
515,507,522,517,500
527,514,526,526,499
533,518,530,530,498
537,522,534,539,493
535,520,528,534,500
533,518,523,532,507
521,517,520,526,515
516,510,513,521,514
500,500,500,508,524
492,499,498,499,527
491,494,496,498,506
496,495,499,495,521
494,496,503,498,520
502,500,510,507,509
508,507,515,506,508
511,503,518,507,510
514,508,522,512,508
521,511,527,517,508
529,514,527,523,504
532,518,531,530,501
534,520,529,534,502
527,520,527,533,508
530,517,522,531,506
522,514,517,527,509
507,504,505,517,530
497,499,498,505,531
494,495,496,500,523
491,493,495,496,521
500,496,500,494,526
498,496,504,496,529
504,500,511,501,526
509,502,514,504,521
516,504,518,508,506
518,505,521,511,506
528,510,526,519,504
529,514,534,529,500
534,519,534,534,498
538,517,528,532,496
534,519,526,533,493
526,516,521,530,506
518,512,518,528,519
500,502,502,508,537
495,495,496,499,536
491,495,497,497,527
496,495,503,496,521
500,497,503,499,510
504,498,508,500,516
507,502,514,503,518
506,500,514,504,523
508,502,518,509,521
515,507,523,518,503
523,511,526,523,497
531,516,530,530,501
534,519,531,532,504
533,520,529,535,509
527,519,524,531,513
520,515,519,527,519
517,510,511,518,513
501,498,498,504,514
492,495,494,498,514
494,495,497,497,518
495,496,500,498,517
498,495,503,497,516
505,498,509,502,511
508,502,515,505,507
512,504,517,506,504
515,504,520,511,503
521,509,524,517,521
528,511,526,523,511
534,522,530,532,494
532,519,527,534,521
531,519,526,534,513
534,518,523,532,496
521,514,516,524,506
504,503,504,512,522
491,497,496,502,528
493,497,498,500,525
494,496,499,496,528
499,495,500,497,508
500,494,502,499,514
506,497,508,500,503
510,503,515,505,495
513,501,517,507,512
516,504,520,511,512
522,509,524,519,510
529,512,526,524,500
533,518,530,531,493
534,519,532,533,502
529,518,525,533,516
524,517,520,528,518
521,511,514,522,517
504,500,500,508,528
494,497,495,498,529
493,495,495,498,525
498,495,499,497,517
497,496,501,500,519
500,500,512,500,519
505,500,512,504,518
507,501,517,504,524
514,504,519,510,523
518,506,522,515,519
525,511,525,520,509
531,516,528,526,503
537,519,531,532,502
531,521,528,536,502
527,517,523,532,492
520,514,518,528,499
513,511,510,519,512
495,498,499,505,526
493,497,496,500,532
495,494,496,495,525
496,497,501,497,527
498,494,502,495,522
501,501,510,500,515
508,501,512,505,507
513,506,516,507,513
523,505,520,511,516
526,509,523,517,510
529,512,526,523,509
533,517,530,531,505
535,520,530,535,499
529,519,524,532,502
524,518,523,530,506
515,513,516,526,508
503,503,503,510,518
494,494,500,504,521
497,497,498,500,520
492,495,498,498,518
496,496,501,497,515
499,497,504,499,512
505,500,511,502,513
508,503,515,505,516
510,503,518,507,512
516,502,522,517,513
525,508,523,520,505
528,515,528,527,500
534,523,528,531,500
534,520,528,534,511
531,519,525,533,523
524,515,518,525,522
520,514,515,522,516
508,502,500,509,519
495,498,496,500,520
493,494,497,498,517
493,495,498,496,513
495,493,508,497,511
500,500,509,500,525
504,501,513,505,519
502,501,512,507,526
509,504,519,510,521
518,509,523,516,520
522,510,524,518,516
529,517,528,528,504
533,520,531,533,494
531,519,527,534,496
529,521,524,532,504
524,515,518,527,512
515,511,512,520,512
501,501,499,507,518
495,495,494,499,514
495,492,493,496,516
496,494,499,495,511
498,496,503,497,518
504,501,510,502,522
507,503,515,503,528
508,502,515,505,521
514,504,518,514,525
522,510,524,518,521
526,517,526,521,524
529,518,529,529,509
538,522,532,536,490
533,520,527,534,490
526,517,524,529,501
519,513,517,527,503
507,505,503,511,509
497,498,497,504,510
494,497,498,502,518
494,496,499,498,525
497,499,507,497,529
499,497,506,496,530
504,500,512,501,517
509,501,514,505,502
516,505,519,510,486
516,503,521,514,505
526,512,526,521,522
531,518,531,530,506
541,521,532,534,495
536,520,530,535,493
527,518,525,532,493
523,517,521,529,502
518,513,516,524,510
499,500,500,507,526
493,497,496,499,529
492,495,497,499,527
493,495,500,496,522
494,497,504,498,527
494,497,507,497,530
502,501,514,501,529
510,503,517,506,506
517,506,521,512,494
518,506,522,518,510
522,509,524,522,501
529,515,529,530,491
535,522,532,536,498
533,518,527,532,497
532,516,522,531,498
523,514,517,525,505
513,507,510,518,515
497,500,500,505,528
493,498,500,499,516
496,495,498,497,517
497,494,500,496,516
499,498,505,497,527
501,497,508,498,523
507,501,515,503,517
509,503,521,506,516
516,503,518,509,516
523,509,526,520,508
524,513,528,525,508
535,518,531,533,497
534,521,532,536,490
531,519,526,533,496
523,516,522,529,500
519,513,516,525,505
505,501,502,509,520
497,496,497,502,536
491,494,497,497,532
492,495,499,500,526
493,494,502,496,513
497,495,505,496,508
503,499,511,503,503
506,500,514,505,511
510,503,517,505,518
517,507,523,513,517
523,511,526,520,520
528,517,530,526,519
540,519,531,533,503
540,520,530,534,503
527,517,524,529,506
523,515,519,527,507
524,514,515,522,503
508,502,503,509,512
495,496,500,505,519
493,497,496,494,518
497,497,501,498,518
495,498,502,495,528
501,498,510,499,522
507,501,513,502,517
511,500,515,504,519
517,506,521,511,516
519,507,524,515,516
524,511,526,521,516
533,517,529,527,512
536,519,530,531,505
529,520,528,533,501
528,519,525,532,498
522,512,516,530,508
513,510,511,520,520
496,498,500,506,530
490,496,498,502,534
488,496,495,501,527
492,496,501,498,517
494,496,504,498,513
501,496,506,499,508
507,500,512,503,496
512,507,516,507,500
515,506,520,512,511
520,509,524,519,506
528,514,528,526,505
532,517,529,529,509
535,521,531,535,509
531,519,525,532,516
528,516,521,528,522
517,512,516,522,529
504,503,504,511,543
493,496,496,502,536
494,495,497,500,511
493,500,500,500,516
495,496,502,499,512
498,495,504,504,513
505,500,511,501,510
504,502,515,504,514
507,502,517,510,533
514,505,521,511,512
520,511,525,520,507
530,516,528,528,495
534,519,530,533,497
532,520,528,535,502
533,518,522,532,499
527,516,518,527,494
517,512,514,523,504
499,496,496,512,521
493,496,497,502,520
494,495,497,497,526
494,496,500,496,537
499,496,503,496,517
502,498,507,501,505
508,505,512,504,504
503,500,513,504,509
514,503,517,510,517
518,505,520,519,514
520,510,524,520,523
529,518,529,531,516
535,521,531,535,504
532,519,528,534,505
526,518,522,531,504
519,514,518,526,508
514,507,508,518,514
501,499,500,506,528
493,495,495,499,523
497,496,498,498,524
497,494,499,497,519
496,500,503,498,519
500,498,508,498,521
505,501,514,505,515
509,502,516,506,515
516,504,519,516,520
523,506,521,517,514
530,515,527,524,511
533,519,530,532,503
537,520,530,535,502
529,519,526,533,504
524,517,520,530,506
520,513,515,524,516
506,504,503,514,512
498,497,494,503,515
494,495,494,498,515
495,497,499,498,523
497,498,503,496,519
498,497,505,503,517
504,501,512,503,513
503,501,514,505,514
507,503,518,508,513
514,509,525,517,509
521,511,526,522,506
532,516,530,530,499
534,520,530,533,503
532,519,528,534,501
531,518,522,529,513
520,513,517,525,515
516,513,514,522,519
499,501,500,507,527
495,496,494,499,524
497,497,497,498,524
494,497,501,497,517
502,496,502,495,515
504,499,508,501,511
509,501,512,504,512
509,501,512,503,522
515,504,518,508,527
519,507,521,514,523
525,511,525,522,520
532,522,533,534,496
537,522,531,534,501
534,519,525,531,498
530,517,521,528,498
520,514,516,523,507
508,507,506,515,521
502,499,497,506,528
493,495,496,499,533
494,496,498,497,535
492,496,500,496,525
497,497,504,499,515
502,497,510,502,507
511,501,513,506,496
510,505,518,507,498
510,503,520,513,508
520,509,526,520,516
525,514,527,526,516
531,518,530,530,504
537,521,530,533,500
536,519,525,530,505
528,515,519,526,512
516,514,517,523,511
495,502,502,512,523
491,497,497,503,525
494,497,498,497,534
490,492,495,495,517
492,496,503,498,512
500,497,507,501,514
507,501,513,505,509
511,503,517,509,507
510,504,519,510,513
515,510,523,516,516
518,509,525,522,511
524,515,529,528,504
530,519,531,534,504
529,519,529,534,508
526,517,523,532,506
520,515,518,529,511
517,512,514,523,518
500,500,501,506,526
495,497,496,502,524
500,496,498,497,518
500,496,500,496,513
498,497,503,495,516
499,497,506,502,522
499,499,513,502,517
508,502,515,506,507
514,502,520,515,510
520,511,526,523,511
523,513,527,526,517
531,516,529,529,509
540,521,532,533,501
538,521,529,535,497
532,518,524,531,504
519,513,517,526,514
515,507,509,517,527
497,501,501,504,520
491,498,500,502,533
491,497,499,495,528
490,495,499,495,532
506,499,506,500,521
506,495,511,504,510
513,503,515,506,500
512,502,516,507,503
515,505,520,513,510
521,510,525,522,501
523,512,527,531,489
528,516,528,530,520
530,520,529,532,533
522,519,526,533,529
512,518,520,527,515
508,513,516,522,515
489,499,501,509,531
480,495,497,502,535
470,492,496,498,523
460,490,493,492,517
482,496,499,498,512
506,501,499,499,508
507,501,499,501,508
510,502,502,504,509
511,503,505,508,509
509,505,508,512,517
537,512,516,519,507
557,519,525,528,496
548,522,529,532,498
521,517,523,530,505
496,515,520,527,514
484,515,523,529,515
479,509,516,520,514
461,500,505,508,525
445,493,497,500,523
441,492,499,493,528
502,500,507,501,510
542,502,501,501,496
542,506,490,502,501
533,512,489,503,515
519,514,486,504,526
512,515,485,507,527
524,519,484,514,522
537,520,481,520,517
526,517,472,521,515
537,518,468,523,505
534,515,463,517,507
527,516,476,519,508
511,513,482,517,508
493,511,488,513,527
488,505,494,505,532
488,504,507,506,523
482,497,518,500,522
480,490,515,497,521
477,488,521,498,525
505,494,531,502,524
556,501,535,507,509
541,500,539,512,511
531,502,543,519,511
540,510,542,520,514
557,520,545,527,505
573,526,545,539,492
567,527,547,539,491
553,525,539,537,500
538,518,528,528,520
533,517,512,525,532
528,507,496,514,539
515,499,486,504,535
511,500,490,496,527
509,499,489,499,504
508,504,498,494,515
512,503,500,498,516
515,499,504,499,511
519,498,514,502,501
524,499,522,511,501
526,507,539,520,497
531,510,534,518,503
532,514,536,526,506
539,516,546,532,505
529,514,552,534,494
524,516,563,540,516
517,509,554,534,528
514,504,543,523,521
500,492,531,510,525
497,494,533,498,508
497,494,539,504,503
504,495,543,505,509
505,494,543,504,523
504,495,543,506,517
503,497,541,510,524
501,501,549,516,520
511,502,538,518,515
517,506,538,522,497
528,512,534,523,502
534,515,538,533,500
532,518,533,539,495
529,517,524,534,499
520,515,525,528,502
512,513,521,525,503
501,503,510,520,515
489,498,504,512,525
483,493,500,496,532
486,497,501,496,529
488,494,507,496,516
488,496,515,502,507
478,490,501,498,511
491,501,514,499,505
499,506,528,528,498
508,509,532,532,505
522,523,532,507,495
523,522,524,519,508
547,527,517,526,491
560,528,514,538,488
547,525,512,527,504
529,517,509,519,500
516,510,511,523,506
504,504,509,510,530
488,496,502,499,547
481,493,494,490,553
491,497,462,485,538
489,497,460,488,537
487,502,492,493,536
480,497,483,495,521
461,501,480,496,514
450,506,480,510,524
452,500,478,522,528
441,503,484,518,522
477,517,498,512,505
489,523,494,522,518
514,532,499,528,521
547,525,503,535,500
553,521,499,536,501
542,520,498,526,498
522,509,487,508,516
492,496,485,500,512
478,495,494,504,515
524,503,494,504,504
557,505,499,505,511
560,509,504,508,514
547,503,496,500,504
537,501,486,505,506
544,506,500,514,506
542,508,497,524,473
544,509,475,521,486
539,516,465,531,516
524,520,470,533,523
536,524,464,528,515
511,518,440,517,522
475,508,447,520,528
444,503,443,510,541
423,481,423,490,546
426,473,440,479,546
433,477,472,475,543
443,481,503,483,538
512,503,520,492,518
582,517,537,507,499
599,518,537,510,508
565,505,539,513,510
541,503,561,526,517
536,506,576,537,522
541,511,575,524,501
547,513,581,533,494
549,521,596,543,485
550,531,592,546,485
546,527,565,549,498
541,520,513,540,506
517,505,454,511,520
515,500,421,495,527
508,497,418,489,536
495,498,408,489,531
501,500,414,491,525
495,495,453,488,511
492,493,502,490,510
497,500,550,501,499
502,500,586,510,486
518,503,611,519,508
525,516,650,534,502
542,520,670,543,471
561,523,666,555,465
558,520,652,556,452
538,513,635,549,478
522,512,613,543,512
517,504,604,532,537
502,493,581,532,552
501,495,564,525,518
498,487,544,525,505
515,494,509,496,503
506,499,507,502,528
501,498,513,486,558
504,494,518,484,508
504,501,540,504,509
506,509,544,529,535
514,504,528,519,577
521,504,526,518,552
527,517,535,536,523
536,526,526,539,502
533,530,537,542,498
522,524,534,531,505
523,521,521,527,501
519,511,513,520,504
502,495,493,503,514
490,495,487,493,514
494,498,501,504,483
490,497,505,499,483
490,492,500,492,486
518,509,511,498,484
512,505,512,504,520
510,506,506,504,581
514,508,507,509,560
519,516,510,514,531
524,514,526,527,490
521,516,538,546,500
522,514,518,543,541
523,524,509,525,533
524,520,507,520,519
511,513,504,521,519
492,497,489,508,559
490,498,486,501,578
491,506,490,504,534
486,498,482,504,531
491,490,472,485,508
502,490,478,487,500
497,489,486,496,501
500,494,503,502,514
509,507,516,519,496
516,518,537,543,490
527,522,517,523,481
527,520,481,528,467
525,529,496,537,435
526,526,493,537,429
515,524,490,536,446
496,505,464,515,519
491,504,477,508,569
485,491,486,497,551
521,495,506,496,562
508,498,504,504,526
478,494,492,495,511
454,491,514,498,534
448,493,526,499,552
443,489,524,503,546
442,492,525,509,567
446,496,518,514,559
467,515,516,517,529
503,524,512,520,512
542,533,514,536,497
514,532,509,535,513
511,519,497,529,525
545,517,492,528,504
542,521,512,524,480
497,501,512,520,487
485,492,505,507,484
548,495,521,509,479
563,492,526,510,542
538,495,521,506,571
512,499,510,495,592
524,499,510,497,563
531,502,497,506,570
522,509,484,500,538
520,502,486,511,509
523,506,494,513,507
524,516,509,532,510
514,512,538,546,513
524,512,541,532,492
511,511,545,551,523
486,518,550,523,531
483,518,538,520,515
458,508,485,512,499
438,500,439,499,491
486,506,404,493,505
494,505,391,483,529
521,489,388,474,560
509,477,409,475,556
535,483,455,491,531
569,489,498,495,497
564,503,550,510,467
539,513,601,520,493
535,520,594,533,498
541,525,567,534,486
522,518,568,536,500
512,521,570,536,515
511,520,558,537,532
542,518,521,521,537
574,511,490,511,487
551,502,460,502,532
537,504,476,501,546
529,499,506,500,517
510,493,507,499,516
503,501,512,500,515
510,506,505,496,518
517,508,512,502,527
522,509,535,509,514
523,502,541,516,507
533,502,560,522,501
546,517,566,533,503
550,524,538,531,498
549,529,529,547,495
545,532,501,538,478
532,526,484,538,498
525,521,468,528,523
501,501,455,522,546
490,483,460,508,551
490,485,492,501,523
494,493,529,503,526
499,495,569,509,496
491,493,591,511,484
513,499,591,503,473
519,510,573,499,507
511,505,582,513,492
515,508,590,525,472
527,520,583,532,504
535,523,583,535,501
531,520,558,528,530
536,522,551,533,512
536,517,554,539,477
524,511,545,550,473
529,516,530,524,472
508,506,522,511,468
480,498,514,505,547
466,497,513,496,622
472,499,513,495,546
470,494,506,492,513
479,500,518,498,508
491,498,511,499,497
520,500,519,506,482
527,504,516,516,517
522,511,525,521,510
513,509,525,526,534
519,514,523,525,507
540,529,532,555,475
548,530,523,558,445
535,520,513,528,467
515,514,510,529,513
516,511,502,524,549
476,497,485,505,597
462,492,487,501,517
456,489,497,494,510
458,495,497,489,574
455,493,499,488,578
455,491,503,494,547
501,496,511,500,526
536,511,519,509,501
534,508,515,512,517
527,517,521,521,504
527,513,514,525,492
534,514,513,529,520
558,528,516,540,524
538,526,497,535,517
519,514,472,512,539
503,511,465,513,534
468,493,444,502,539
423,477,453,502,546
450,487,454,495,533
451,481,479,489,537
460,489,511,489,572
463,498,530,486,585
492,509,537,495,524
569,520,523,508,507
593,519,485,522,473
570,515,469,516,459
528,514,478,526,483
515,506,476,519,526
520,504,476,517,553
536,505,507,518,528
527,515,498,525,534
520,530,514,526,526
528,528,486,523,513
554,523,467,515,514
524,502,447,502,533
518,487,405,485,534
522,493,433,486,529
514,475,439,483,534
508,481,482,481,532
510,497,532,494,508
515,512,554,502,511
522,515,573,529,509
523,524,592,533,498
541,518,580,533,494
546,520,581,535,499
558,526,585,545,494
551,522,566,540,491
542,521,533,533,494
538,526,539,539,508
528,517,539,534,518
507,494,530,498,511
500,494,541,496,515
501,492,545,496,497
504,496,554,523,474
509,497,535,524,523
503,501,503,512,498
504,504,484,522,483
508,511,486,525,510
516,505,480,524,497
525,510,502,527,491
520,502,516,521,480
522,505,544,528,494
536,518,564,534,481
537,527,575,534,501
523,520,566,523,556
515,517,570,528,571
495,506,560,517,574
482,498,537,506,561
490,498,526,506,518
498,497,521,508,502
491,495,518,525,531
503,501,524,489,516
501,499,524,495,529
511,504,528,505,509
506,503,528,505,466
512,505,531,521,452
527,511,534,524,455
529,518,535,529,471
540,521,537,536,490
537,520,532,537,503
522,519,526,535,502
506,515,515,519,538
489,512,513,519,542
471,496,494,504,575
469,494,483,497,518
483,499,482,504,538
503,499,483,505,538
491,494,483,495,517
490,496,488,499,532
466,496,490,501,592
467,497,507,503,569
463,499,517,497,549
484,505,517,508,504
565,515,519,516,482
598,523,529,526,482
565,525,531,532,485
544,519,523,533,475
518,513,513,525,528
506,508,502,520,536
498,508,509,516,539
486,501,493,501,549
499,490,462,493,545
537,499,470,494,516
547,507,478,501,479
528,503,474,499,473
514,491,471,498,468
497,493,485,507,482
491,500,518,515,572
507,514,532,498,582
500,525,542,513,529
501,533,536,521,515
522,547,505,531,508
562,541,496,541,488
545,519,489,529,506
517,493,487,515,515
531,498,493,500,509
519,510,495,510,529
525,506,512,518,541
508,489,509,510,547
500,483,496,505,547
506,484,491,507,543
507,497,507,500,533
513,503,532,513,526
523,516,524,494,529
528,517,509,506,510
525,508,485,504,525
536,510,486,510,500
536,514,493,527,496
533,513,515,530,494
533,509,520,528,508
535,509,533,525,498
525,513,553,533,499
521,515,565,532,524
511,504,554,521,484
508,497,543,513,465
497,491,536,510,493
491,494,517,505,497
494,502,505,503,510
504,510,484,496,513
496,502,463,493,535
502,500,454,498,528
516,511,483,512,499
527,505,488,513,531
528,498,509,515,515
525,504,542,519,524
531,514,560,532,521
530,526,582,542,527
527,523,576,534,532
520,519,573,530,514
517,516,559,524,512
501,507,551,510,473
502,502,543,520,465
500,499,531,514,462
489,496,528,521,466
497,498,524,502,470
503,502,530,495,510
486,498,526,498,589
482,500,529,504,594
486,502,527,505,555
493,503,530,518,521
502,509,530,525,526
497,511,533,534,528
519,513,526,530,536
553,521,525,533,535
545,523,529,527,531
550,523,528,532,520
517,506,506,520,509
514,503,498,498,521
502,497,502,512,522
492,498,501,499,514
506,498,499,491,496
500,498,504,499,484
490,500,506,499,486
494,498,511,504,499
498,499,510,507,508
507,501,513,518,532
522,511,517,517,547
535,518,520,518,520
548,522,531,530,504
567,529,534,538,510
548,523,525,536,490
520,512,517,526,479
504,515,522,525,465
472,500,498,511,468
450,487,483,510,486
440,483,479,490,489
459,491,483,494,509
489,495,492,494,530
490,496,503,496,540
510,498,503,497,555
558,504,490,502,550
576,508,486,513,508
562,509,476,518,488
551,516,469,518,546
563,529,471,517,493
553,521,456,525,514
531,513,428,515,526
524,516,443,510,539
519,507,469,521,551
503,502,480,513,574
491,488,489,492,561
483,486,517,489,555
489,498,547,501,542
515,507,577,515,514
515,501,585,515,499
522,504,575,516,490
522,507,568,511,494
515,509,572,514,495
527,507,571,524,513
531,513,560,524,497
534,519,560,528,507
538,518,539,534,490
541,522,531,543,486
539,524,534,534,501
525,514,496,521,526
519,518,485,518,528
505,508,469,508,535
493,493,451,499,535
487,488,478,494,533
485,485,496,490,528
491,486,523,497,522
496,494,547,501,509
501,493,532,486,495
507,498,540,495,503
515,506,548,526,506
519,509,547,533,508
525,518,542,523,501
531,521,546,530,513
534,522,545,535,501
534,522,541,537,502
528,520,533,533,509
519,513,518,522,509
521,516,520,524,508
504,504,510,511,525
489,496,502,504,536
501,500,505,505,531
491,496,503,499,528
494,496,506,496,493
497,498,512,502,511
493,498,514,505,538
500,494,513,512,527
504,501,523,532,536
529,514,523,498,509
528,513,529,517,502
535,519,537,531,472
536,523,541,536,479
533,522,536,531,477
527,517,519,528,497
522,517,506,529,511
509,507,501,518,513
497,502,500,506,535
490,497,494,504,538
494,500,501,496,530
494,495,498,496,516
495,496,501,499,509
509,501,509,504,510
506,500,509,503,520
513,504,514,506,520
517,506,519,512,523
522,509,524,524,505
525,512,526,533,502
535,518,531,525,508
536,521,535,537,508
530,522,532,538,502
519,515,520,528,501
510,510,516,530,482
502,504,501,516,483
490,496,494,509,488
484,495,494,508,498
500,494,491,494,479
503,496,498,498,524
502,499,505,491,568
510,501,511,493,556
503,500,517,498,558
512,502,506,508,543
526,507,517,509,520
531,512,518,519,511
530,517,520,524,526
534,517,523,528,524
534,518,524,536,516
534,520,530,540,516
524,511,519,528,496
525,511,517,521,503
501,497,501,497,523
494,495,497,491,507
493,491,499,491,506
491,492,503,492,507
494,499,507,498,511
490,497,509,522,510
489,496,508,507,540
497,499,513,507,529
506,503,516,518,499
513,508,521,520,498
521,511,525,531,504
536,515,526,533,499
546,518,542,541,494
536,516,541,547,489
527,509,536,548,497
522,504,515,523,512
517,496,496,503,539
502,491,493,516,545
498,494,502,500,529
494,489,497,487,529
491,488,498,494,547
492,495,504,497,555
504,512,519,490,543
503,494,521,498,527
519,492,503,500,510
518,487,526,507,485
525,492,546,525,491
533,512,559,535,475
541,525,554,540,452
539,513,507,535,499
538,518,491,527,505
528,506,488,523,511
520,511,497,520,511
505,511,494,511,516
499,511,504,507,515
497,512,500,500,515
495,501,515,502,516
500,501,519,499,515
500,499,522,501,510
501,498,522,500,513
506,497,499,499,512
516,500,498,509,506
524,509,514,517,507
527,518,532,523,510
534,525,537,531,504
537,534,536,536,505
534,532,533,537,524
530,528,529,537,517
516,514,520,528,522
512,513,526,522,514
503,504,516,505,521
495,496,508,495,523
493,493,496,483,520
494,491,484,486,518
504,501,505,493,518
510,507,509,499,513
508,500,492,492,511
512,507,504,521,512
519,507,519,519,519
519,507,525,518,503
526,511,531,527,497
534,522,536,535,500
535,522,537,543,495
533,518,523,537,499
523,518,518,518,503
514,512,516,522,511
505,510,511,524,528
492,506,508,517,540
487,503,505,502,539
486,498,502,499,553
486,496,506,499,569
485,498,508,497,561
502,501,513,502,560
521,501,514,502,529
536,508,522,510,508
536,505,522,514,522
534,510,523,517,526
534,514,527,523,528
541,519,526,533,499
548,518,523,542,471
541,519,526,544,476
525,515,518,538,480
520,513,510,526,467
504,500,494,493,474
492,491,486,486,489
488,491,490,491,525
496,493,503,493,519
499,490,511,498,501
505,497,511,498,503
505,499,517,500,517
500,497,517,501,519
500,503,524,512,529
503,507,529,520,527
511,512,533,526,504
524,518,539,534,499
527,521,539,538,500
528,518,534,538,483
531,517,530,533,481
514,509,516,524,520
517,512,522,527,546
499,499,518,522,537
495,495,509,515,508
496,493,510,511,509
496,493,497,489,488
499,493,494,490,482
510,497,505,499,483
527,499,505,498,509
529,503,513,507,499
524,500,516,507,514
528,512,527,515,514
533,512,526,521,509
538,518,531,529,497
541,519,530,532,503
533,519,528,533,505
525,515,521,529,504
518,510,514,521,503
508,505,506,511,518
498,497,498,504,519
489,492,494,497,517
496,497,499,497,522
487,495,501,494,517
497,496,505,496,516
515,502,514,503,510
513,501,513,503,517
519,502,515,508,513
522,507,518,512,519
531,510,524,520,513
535,515,527,526,512
536,518,532,533,509
530,520,534,536,506
526,521,532,533,497
519,513,520,525,502
522,511,516,523,503
496,497,500,507,522
489,497,499,503,531
490,496,499,499,527
491,495,501,496,530
490,496,505,498,531
498,501,512,503,534
497,501,517,504,538
496,501,517,506,550
508,504,519,506,539
514,504,525,513,503
526,509,526,520,500
534,517,533,528,509
539,520,537,533,507
542,521,537,531,519
536,520,527,523,529
526,515,517,514,522
521,511,517,523,500
504,500,499,510,511
494,494,494,522,510
493,493,491,514,509
490,494,494,499,489
497,494,500,487,491
507,498,509,495,493
504,494,509,503,511
503,500,515,505,536
505,503,520,510,542
520,510,526,518,531
529,513,527,524,531
541,519,534,537,526
547,522,532,538,500
540,520,528,533,497
528,512,517,527,492
521,510,515,523,494
510,505,504,511,512
500,499,495,509,512
500,497,497,504,516
497,494,501,502,525
499,491,499,496,495
503,494,500,487,488
512,498,497,495,476
507,498,506,505,484
511,503,515,512,484
522,504,523,518,482
528,509,527,521,496
534,514,529,526,496
537,517,530,529,487
538,519,530,532,513
539,521,527,535,501
519,511,515,525,500
510,510,511,520,507
485,502,501,506,545
487,496,497,501,534
487,498,499,501,532
492,496,500,497,524
500,498,504,496,525
502,498,508,501,521
506,500,513,501,509
513,500,512,502,507
514,506,517,514,512
518,507,520,517,502
516,510,523,521,500
525,517,530,528,491
529,520,530,535,493
531,519,528,534,492
531,518,523,532,496
526,511,515,524,504
519,512,513,524,512
499,499,499,505,525
494,495,495,497,521
495,497,498,498,522
496,495,500,496,515
489,495,500,497,508
500,502,513,502,502
507,496,511,501,506
514,500,513,502,510
524,506,519,508,516
523,507,522,514,515
525,511,525,524,512
534,516,528,530,498
542,523,532,537,494
537,522,528,535,502
526,515,522,534,526
507,510,512,522,538
493,502,504,513,539
491,498,498,503,532
488,495,496,500,521
487,494,497,496,504
496,496,502,500,505
498,500,510,500,503
507,500,511,503,502
506,498,511,502,518
511,506,521,511,520
515,506,519,512,526
522,511,526,518,512
530,514,526,524,500
531,515,526,533,499
532,521,530,535,508
533,520,526,533,506
523,514,516,525,514
517,512,513,523,513
500,501,499,509,514
496,497,495,502,523
491,494,494,496,524
490,494,496,495,519
498,499,504,496,515
507,501,508,502,509
515,501,511,503,493
519,502,516,504,495
522,505,518,510,503
528,505,519,514,508
518,510,524,521,504
515,516,528,530,506
527,524,533,537,491
531,520,529,536,485
530,519,524,531,502
520,511,517,522,534
518,511,513,519,534
498,500,498,504,538
492,494,494,497,541
497,496,497,499,516
502,498,502,499,514
498,496,502,496,526
508,501,510,502,528
511,500,511,505,524
509,502,515,506,516
509,503,522,512,507
525,510,525,518,494
530,512,526,523,490
542,518,530,531,484
548,518,529,534,486
549,520,526,535,492
536,517,522,530,511
512,511,515,518,538
503,505,505,512,537
501,500,500,506,539
493,496,497,499,532
484,494,497,496,525
495,495,499,495,513
507,498,505,498,512
512,500,512,502,494
504,497,512,499,513
500,503,525,506,507
508,504,523,516,499
522,511,526,521,485
528,514,524,526,486
532,520,530,534,488
533,520,528,534,487
532,518,524,533,494
519,513,516,525,513
516,511,513,524,518
504,501,501,511,528
492,496,495,501,522
492,497,499,497,515
494,494,498,497,515
496,495,501,496,520
504,500,509,503,509
511,501,513,505,498
506,500,513,504,502
512,503,517,509,504
514,501,519,518,507
525,511,525,521,504
533,517,530,528,503
539,521,532,533,504
535,520,528,534,495
531,519,523,532,497
520,511,514,523,513
515,511,512,518,521
496,499,499,506,529
493,496,497,501,526
492,494,496,496,526
496,496,500,494,512
499,496,504,497,519
506,500,512,501,514
506,499,512,503,512
507,497,514,509,512
515,504,519,509,508
525,509,523,517,504
528,512,525,523,504
531,517,529,530,502
534,519,529,531,500
530,519,526,533,502
525,516,521,529,514
515,510,512,523,518
506,503,502,513,529
497,497,496,502,532
493,496,496,495,539
493,494,496,492,524
499,497,502,497,514
502,498,508,501,507
506,501,513,506,488
506,500,513,506,497
512,504,518,509,489
519,505,520,510,493
523,511,527,522,513
530,517,531,529,514
539,519,531,533,491
540,520,528,534,491
538,521,527,535,491
522,514,514,526,493
513,513,514,520,508
498,503,502,509,543
490,497,496,499,531
492,496,498,499,526
497,495,498,497,516
503,494,501,497,502
504,496,506,499,502
511,499,512,503,502
506,498,512,504,508
514,506,519,511,515
521,507,524,516,512
526,509,524,520,512
530,515,529,527,500
536,523,535,536,498
536,522,531,537,499
529,519,525,533,509
521,511,515,523,529
516,510,516,523,529
503,502,503,510,534
496,496,498,500,534
495,497,500,499,530
495,496,504,498,523
494,495,503,497,514
498,498,509,501,492
504,497,511,504,487
515,500,516,508,496
521,504,520,512,514
530,508,523,517,516
529,513,527,523,510
535,518,530,528,498
538,521,530,532,502
536,518,525,529,505
524,514,519,528,494
518,509,512,525,488
509,503,505,517,508
497,498,497,505,519
493,497,498,499,524
493,497,499,496,521
497,500,501,499,531
501,499,508,501,520
506,501,518,502,518
503,495,511,502,524
510,501,516,507,501
518,506,519,519,495
524,509,525,522,505
528,518,531,531,499
533,517,529,531,505
532,517,527,533,503
533,519,525,533,496
524,514,517,525,509
516,508,511,520,514
504,503,501,510,525
499,497,500,506,520
500,498,498,498,499
502,496,500,497,489
503,495,500,495,482
505,498,507,503,480
500,500,512,504,543
500,498,511,504,546
513,506,518,512,523
523,513,526,516,519
525,511,524,521,509
531,516,528,530,501
537,519,529,536,493
532,519,526,532,502
524,517,521,530,515
517,511,514,523,509
517,509,510,516,521
499,500,499,505,539
491,496,497,500,534
489,494,497,496,525
490,496,501,499,516
491,495,503,497,513
502,499,506,501,507
505,498,511,498,511
508,496,516,507,510
519,504,518,511,510
522,509,523,518,517
527,512,526,524,512
535,518,529,532,499
536,525,533,541,502
533,519,525,535,500
526,516,520,529,505
517,510,512,526,513
509,503,503,513,523
494,497,497,504,523
492,495,496,499,524
491,490,495,499,528
495,500,507,501,524
499,497,506,499,517
505,501,514,504,522
505,497,510,500,520
514,504,517,505,515
515,505,520,511,519
522,510,525,522,517
529,518,528,530,492
534,520,532,535,505
532,522,530,536,525
530,519,526,535,535
523,516,518,526,549
512,510,510,518,535
499,498,497,513,505
499,496,497,502,497
501,492,496,500,494
498,494,498,498,500
500,493,502,494,504
507,498,508,504,496
509,504,516,505,498
505,497,509,506,511
511,504,520,512,514
520,508,524,516,519
526,512,526,521,511
533,516,531,531,496
535,521,532,535,497
535,520,528,535,498
529,519,524,533,506
516,513,517,523,509
511,508,509,516,519
499,501,499,503,535
494,501,496,497,534
487,493,496,499,514
490,494,500,503,515
496,496,504,502,524
508,500,510,506,511
510,499,511,502,525
515,505,514,503,525
520,504,518,509,506
529,508,523,519,485
528,512,525,523,496
534,514,527,527,496
538,522,531,537,492
532,520,525,533,495
527,517,518,527,503
516,507,508,523,516
503,502,501,514,527
497,498,497,505,524
498,495,495,497,527
496,495,497,495,526
500,497,502,496,527
502,496,504,497,524
506,499,508,501,509
505,503,515,503,514
512,504,517,513,517
519,507,521,515,514
527,511,525,522,509
533,516,532,530,509
541,520,531,533,504
537,519,527,534,518
532,519,525,534,519
509,514,518,530,494
509,510,511,521,507
498,502,502,511,528
493,496,499,499,526
496,495,497,498,523
493,496,500,498,510
497,494,501,499,502
503,497,513,507,499
509,501,513,504,498
501,499,514,504,526
511,504,520,512,512
520,507,523,517,495
522,510,524,522,500
533,518,530,530,506
537,521,531,535,503
533,520,528,534,503
530,519,522,532,511
519,515,517,525,527
510,507,507,517,533
504,500,499,506,538
497,495,495,499,532
494,494,497,497,527
495,495,499,496,516
492,494,502,498,512
504,498,509,504,488
512,500,513,506,498
505,500,511,511,513
512,509,520,514,509
514,506,525,515,510
528,514,527,524,508
533,517,529,530,503
535,520,529,534,501
536,523,529,537,506
527,518,521,531,513
520,510,512,522,514
505,501,501,511,520
496,498,497,503,529
491,495,496,498,527
489,495,498,499,519
493,496,501,497,518
502,498,506,502,523
506,500,510,502,520
505,499,512,502,523
509,502,517,506,525
516,507,524,515,514
523,512,528,523,513
529,515,531,530,495
530,515,531,536,480
533,519,525,536,482
532,519,520,531,503
524,517,520,530,508
515,510,509,522,513
502,500,502,507,528
491,495,494,499,539
492,495,496,497,541
493,494,497,493,535
493,493,500,496,524
502,499,508,503,511
506,498,512,503,517
508,501,513,503,522
514,505,519,508,530
519,508,523,519,500
523,511,522,522,475
534,516,528,527,492
538,520,531,535,487
537,522,529,537,497
530,518,523,532,512
512,511,514,523,526
506,506,506,515,528
498,500,500,507,530
491,496,497,500,525
493,498,498,497,515
499,496,502,498,506
505,495,504,498,507
507,499,510,504,506
508,502,513,505,513
505,500,515,508,521
515,504,520,515,515
523,511,527,523,516
529,515,527,525,514
534,521,531,531,504
536,526,530,535,486
533,521,527,535,487
527,517,520,530,498
518,509,511,520,522
504,501,501,510,539
498,495,495,503,530
495,496,496,498,528
495,497,498,498,522
500,495,502,500,525
500,497,506,499,522
506,499,511,500,522
506,500,513,501,535
507,501,517,507,516
519,505,521,513,510
530,509,523,518,519
535,516,529,527,514
542,520,529,531,517
543,521,529,533,512
534,520,525,534,480
519,514,518,528,489
510,508,510,521,506
498,501,500,511,516
490,493,494,501,517
489,494,499,504,519
490,496,501,498,524
496,498,507,500,522
504,499,509,504,510
502,500,513,507,513
506,499,513,506,520
513,505,521,510,518
525,509,523,516,509
533,512,524,524,499
539,516,528,529,505
541,524,533,536,516
539,525,533,534,514
532,519,523,529,501
517,511,512,520,522
505,505,507,514,527
498,498,497,506,529
494,495,495,499,521
493,495,499,499,504
490,496,501,498,509
491,496,505,499,513
500,500,512,505,506
505,502,514,507,506
506,501,514,509,510
512,508,520,514,511
521,510,525,520,509
523,512,525,525,496
528,517,529,532,493
537,523,531,539,497
534,521,526,535,500
527,521,525,531,500
518,512,512,522,501
502,502,500,508,521
496,500,497,502,523
496,498,497,500,521
492,495,498,496,523
495,496,502,500,520
501,499,507,502,517
506,502,514,504,513
508,501,514,504,516
511,502,516,512,516
519,510,525,512,514
531,512,527,520,513
532,520,529,526,510
537,522,533,533,508
535,521,529,533,505
534,519,525,533,504
523,515,518,528,506
520,509,511,520,512
505,500,499,507,523
496,495,496,502,526
491,495,497,499,522
493,495,500,496,515
496,498,503,498,519
501,501,511,503,520
503,502,514,504,526
504,499,513,502,524
512,504,519,512,530
517,508,524,517,515
523,512,526,523,516
532,517,531,530,502
534,521,531,536,497
532,520,528,536,498
530,518,523,533,499
517,511,514,524,506
510,503,503,514,516
498,497,501,503,522
496,497,498,499,518
497,495,497,498,505
500,496,501,497,492
502,494,498,499,499
505,499,510,502,507
507,501,513,505,517
507,500,515,507,516
518,501,523,512,530
526,507,521,516,518
527,514,528,526,514
528,519,532,533,512
530,520,530,536,492
530,520,527,535,492
524,518,523,530,503
514,509,514,521,509
501,502,504,510,521
493,497,497,500,530
491,496,497,495,532
495,496,495,494,526
492,496,501,496,522
495,496,505,499,512
506,501,512,504,505
507,500,516,504,514
511,504,518,511,526
518,506,522,515,514
526,510,525,520,519
530,515,528,526,521
537,519,529,533,492
536,519,525,532,499
533,518,521,532,504
530,517,519,527,512
512,507,506,518,526
498,499,498,505,525
495,495,495,500,526
497,495,497,503,517
505,496,501,494,530
502,496,503,495,539
511,501,510,499,544
506,500,512,502,523
499,499,514,503,507
508,501,517,519,485
521,511,527,522,490
525,512,527,522,514
527,515,529,529,499
539,521,532,538,491
536,521,528,536,497
530,519,522,532,502
523,512,515,524,503
506,503,504,514,516
496,498,496,510,516
496,497,498,502,506
494,496,499,498,520
497,496,502,498,511
497,495,504,497,504
503,499,510,502,503
510,502,515,506,505
507,499,514,502,524
515,508,520,512,517
521,509,525,518,509
526,513,527,524,497
531,518,532,533,496
537,521,530,534,503
535,522,527,536,501
527,518,519,528,506
515,511,513,522,515
501,501,501,509,526
492,498,498,501,531
494,495,495,497,524
499,498,501,498,522
497,496,502,496,519
503,499,508,499,515
514,501,513,503,511
515,500,513,504,511
520,503,517,508,506
527,508,523,517,506
529,510,524,520,509
532,515,527,526,499
538,520,531,533,501
523,518,527,533,508
520,520,529,533,505
516,518,522,528,510
508,509,511,520,515
496,500,501,507,524
491,496,497,500,526
491,496,497,497,526
492,497,502,497,528
496,497,505,499,513
506,500,510,503,510
508,502,514,504,517
510,503,516,503,526
516,505,520,511,532
522,511,529,522,506
524,511,526,524,500
525,515,527,530,498
529,519,530,533,516
531,517,527,530,503
527,518,521,528,500
520,517,516,526,506
508,503,504,513,519
498,499,498,503,521
495,495,497,499,524
494,494,497,494,522
501,495,500,495,518
501,495,506,501,518
507,501,513,503,518
509,505,518,506,516
508,500,514,505,519
514,503,519,514,514
519,511,527,521,503
530,519,528,529,495
535,518,533,534,495
534,517,528,537,504
533,522,529,536,499
526,516,521,529,513
514,510,514,519,518
502,505,502,511,527
494,498,495,504,531
497,496,498,498,535
495,496,499,494,535
500,497,503,497,536
504,503,509,500,536
507,501,513,504,517
509,501,515,504,516
511,503,519,509,513
523,512,528,517,503
527,513,527,522,508
534,517,531,530,495
536,517,529,533,486
531,519,528,537,513
533,520,527,535,508
522,515,520,525,506
513,506,507,519,510
499,498,500,505,519
492,498,501,499,517
492,494,499,498,515
493,494,498,496,512
494,497,501,501,517
503,503,513,504,502
509,502,515,506,503
509,503,513,507,509
519,504,521,514,512
525,510,524,517,506
528,510,527,523,512
530,516,528,528,506
530,518,527,532,500
532,519,527,536,500
530,517,521,532,503
522,513,516,527,513
508,508,507,514,521
499,499,498,505,528
492,495,495,497,527
490,494,496,496,523
492,495,501,497,521
495,498,506,499,512
507,501,510,508,499
506,501,514,506,499
508,501,514,507,503
517,505,520,515,504
521,507,521,518,523
530,515,527,525,518
539,518,532,529,514
537,520,529,533,509
534,524,531,533,510
521,514,515,527,513
513,510,512,522,518
500,502,502,511,519
493,497,496,502,526
493,495,498,498,537
494,494,498,496,538
498,493,500,494,544
503,499,510,503,520
509,504,513,505,501
510,502,514,506,510
514,503,516,510,503
522,506,520,514,497
526,510,524,522,493
527,515,529,530,493
532,519,530,536,494
533,519,526,533,496
528,518,523,533,502
520,515,518,528,516
511,511,512,518,523
499,499,498,506,527
495,497,496,500,530
493,494,494,496,526
500,497,500,498,520
498,496,502,498,515
506,499,508,501,507
508,499,511,505,505
505,499,512,506,503
513,505,520,512,504
519,509,524,519,508
527,512,530,529,510
532,521,532,529,510
538,525,531,539,506
537,522,528,536,503
535,518,522,531,506
524,513,515,524,513
509,504,504,514,522
497,500,497,507,526
491,497,498,497,528
487,494,498,497,525
494,498,503,499,521
496,496,505,498,519
504,498,509,501,516
508,502,513,505,515
511,502,516,507,519
518,505,520,513,517
522,509,524,520,514
528,517,527,529,508
531,519,534,535,505
532,519,528,535,501
532,519,526,536,502
523,516,520,532,505
519,509,513,527,512
504,501,501,510,529
495,496,496,501,518
491,492,494,496,512
495,494,496,495,515
501,496,501,495,513
502,498,507,499,515
504,500,511,502,518
506,502,515,504,533
514,503,518,509,525
520,508,522,516,518
523,511,526,522,519
529,517,530,529,511
533,521,531,535,501
532,520,528,535,494
529,519,523,533,495
523,515,518,527,499
512,507,508,519,503
497,498,498,506,506
492,495,494,498,522
492,495,497,497,517
496,494,499,502,512
495,494,502,496,518
505,499,509,501,513
508,502,517,504,514
513,501,515,506,512
513,504,519,512,506
525,509,525,519,504
526,512,526,524,503
537,517,534,530,506
537,521,531,533,511
536,521,528,533,519
527,514,520,527,525
518,513,513,524,527
501,502,502,516,492
495,500,499,506,497
493,495,496,498,517
495,495,496,494,521
497,494,499,493,515
502,498,506,498,514
507,504,511,503,504
508,501,514,505,508
514,500,514,503,514
517,505,521,511,509
523,508,523,519,510
529,515,529,530,505
532,521,530,536,528
533,519,530,536,509
533,522,531,540,495
523,514,518,528,504
513,508,510,522,503
495,498,497,509,509
489,496,495,502,523
488,494,495,497,525
491,495,498,495,525
498,496,501,497,524
508,498,506,501,518
509,500,512,506,520
510,505,519,505,524
513,502,517,510,518
517,506,521,516,511
516,508,522,521,499
529,514,529,530,501
531,521,528,532,511
533,516,531,536,508
530,519,525,534,507
520,512,515,525,510
515,508,508,519,524
499,498,498,509,517
495,497,497,499,524
495,495,497,499,526
500,495,500,497,519
496,494,503,498,519
501,498,509,505,515
506,501,511,505,513
510,500,514,503,522
512,503,518,514,523
521,509,524,517,517
528,513,527,525,507
533,518,530,535,499
534,521,531,536,490
532,519,526,533,497
523,515,520,530,510
522,514,516,524,522
504,505,501,510,528
499,499,498,503,532
498,494,495,495,529
495,494,496,494,527
501,494,504,500,523
505,497,505,498,523
510,500,510,501,524
509,503,516,506,530
509,502,515,506,531
514,506,521,514,530
527,510,524,520,522
529,515,529,529,492
535,518,531,534,474
535,519,528,535,491
531,519,524,532,496
522,515,518,526,508
512,509,511,519,517
494,500,501,508,517
487,496,496,500,523
490,494,496,495,519
495,496,500,497,519
494,496,502,494,524
501,501,510,501,532
505,500,511,500,528
510,503,517,507,507
513,508,524,515,495
516,511,523,518,498
521,509,524,521,497
530,519,532,532,489
535,520,531,535,486
532,519,526,533,486
532,518,523,532,489
525,514,517,526,499
510,507,509,516,538
498,500,503,507,530
493,495,495,500,521
488,494,500,501,542
495,497,501,497,530
497,497,503,493,525
506,502,511,499,522
507,501,513,502,515
511,500,513,503,517
519,505,520,510,517
526,510,526,518,510
525,511,526,524,500
533,522,536,533,499
536,522,531,536,495
531,521,528,536,500
523,519,526,533,514
512,511,514,522,520
505,503,503,511,542
492,495,494,507,524
489,493,496,506,497
494,495,499,499,508
499,497,502,498,515
502,496,506,497,508
505,498,509,502,510
514,502,513,504,511
513,501,516,507,509
518,507,522,516,511
528,510,523,519,517
531,516,528,524,517
537,521,532,531,519
536,521,529,535,492
532,520,522,531,492
522,515,518,528,507
517,510,512,519,514
500,501,499,508,527
493,496,495,500,526
493,495,498,498,527
495,496,500,497,524
498,499,502,496,529
504,502,513,500,525
508,499,512,504,513
512,503,514,510,502
515,504,518,512,499
522,511,526,517,502
523,507,525,521,505
527,514,531,532,505
531,518,532,538,509
531,520,527,535,511
531,519,523,533,510
522,515,517,528,516
508,505,506,517,513
498,497,497,507,510
494,494,495,505,514
495,499,498,503,520
495,495,500,499,526
498,496,505,498,529
499,499,509,501,513
509,501,512,504,510
505,503,518,506,511
510,505,519,513,511
521,510,523,521,510
527,513,525,525,509
535,518,528,532,503
535,520,529,536,508
530,520,526,532,515
525,520,525,529,517
520,513,514,523,512
507,503,501,509,522
499,498,496,503,527
493,495,495,497,526
499,496,498,499,522
496,496,500,498,519
499,496,504,499,521
504,501,511,504,522
511,505,519,507,503
512,502,514,509,495
518,506,519,514,496
524,509,522,519,495
530,515,527,526,510
534,520,530,532,509
536,519,527,533,504
538,520,525,534,501
523,514,515,528,501
514,514,514,523,515
500,502,500,508,528
490,497,496,502,524
490,495,497,498,523
495,497,501,498,520
497,496,502,498,513
509,500,507,501,508
511,501,513,506,506
512,502,515,505,507
515,508,522,511,506
521,509,522,517,503
524,511,523,522,503
526,516,528,528,503
530,523,532,536,528
532,521,529,535,515
528,518,522,532,512
519,512,514,522,526
513,508,507,517,530
507,501,500,508,523
494,497,496,500,511
491,495,496,494,520
492,494,497,496,517
492,493,500,499,516
502,499,509,504,516
507,507,517,506,527
504,502,514,505,538
511,504,522,513,512
521,510,523,520,496
525,513,525,525,485
530,517,528,532,495
536,520,529,536,493
533,520,524,533,497
528,514,516,527,506
523,513,515,523,510
505,507,504,509,518
497,497,496,501,520
495,499,495,499,521
495,495,499,498,521
496,495,503,496,523
503,500,509,501,516
507,501,513,503,511
509,500,512,505,509
512,500,511,507,512
520,507,520,520,513
527,510,523,521,512
529,514,526,527,506
533,518,529,534,506
532,519,527,534,512
531,519,524,533,512
521,513,516,526,508
519,512,514,524,506
506,501,501,511,519
492,494,495,501,516
494,493,495,497,512
497,499,502,498,510
498,496,503,499,515
502,500,509,502,521
507,500,512,503,525
508,502,515,503,532
511,500,517,505,537
521,509,524,516,526
526,513,526,522,510
532,517,529,529,505
536,521,531,535,501
533,519,527,537,482
526,515,521,529,493
521,514,518,528,504
507,504,505,514,521
497,496,496,504,524
495,496,498,500,525
491,492,495,496,520
497,496,502,498,522
499,495,502,496,519
511,499,510,502,512
508,501,513,506,512
512,503,516,510,512
511,505,520,513,511
522,511,525,519,516
525,514,528,526,504
533,520,531,532,499
539,522,531,536,503
534,521,527,534,508
524,517,519,528,511
520,514,516,521,517
503,501,501,509,523
498,496,495,502,519
493,497,495,503,522
493,496,500,498,524
495,497,502,494,521
501,497,510,499,518
511,500,511,502,513
508,501,513,504,508
509,504,519,508,499
517,506,522,517,495
526,510,524,521,496
533,515,528,527,505
536,519,529,530,509
532,521,526,535,514
529,519,524,532,513
518,516,519,528,519
510,509,511,520,526
500,499,499,508,530
496,497,497,503,526
495,496,498,500,525
496,495,500,499,531
497,494,501,496,512
504,498,504,499,487
509,499,510,502,490
509,501,514,506,498
511,504,522,510,520
517,508,524,518,520
526,513,526,523,515
528,519,530,531,501
533,520,530,538,498
531,517,525,535,497
531,518,523,531,507
521,514,517,524,517
505,505,505,513,524
497,499,499,504,519
490,495,495,501,514
492,494,496,500,516
494,491,504,500,508
496,496,503,497,518
503,499,509,500,525
509,500,512,504,506
513,503,515,507,501
518,506,520,514,510
522,508,522,518,508
527,513,526,523,510
533,518,529,531,499
534,518,528,535,503
527,516,525,534,500
525,516,520,528,507
518,512,515,527,495
504,501,501,511,512
494,497,495,502,517
495,496,495,499,516
500,497,499,498,520
496,492,501,496,521
500,502,506,498,522
506,503,513,503,520
508,502,513,505,519
514,502,513,506,511
517,506,520,512,501
524,512,526,522,507
536,518,530,531,490
536,520,530,536,490
536,523,531,540,484
531,520,524,534,489
524,515,517,525,514
519,512,510,524,522
502,502,500,507,528
495,496,494,499,532
493,495,496,496,534
494,495,497,496,527
494,494,500,496,523
504,502,509,502,509
510,500,511,505,509
509,502,514,507,507
514,508,522,511,514
520,508,523,518,512
527,513,526,525,514
534,518,529,530,508
538,525,533,537,504
535,521,528,535,503
530,519,523,529,510
523,513,515,522,511
506,504,504,512,531
489,493,493,502,535
488,494,495,500,540
491,492,495,500,510
496,497,505,498,511
499,496,503,498,510
507,499,508,503,502
506,497,515,505,502
511,503,515,509,511
514,505,518,519,515
521,507,526,521,518
526,514,527,525,511
530,518,529,533,501
532,519,529,535,505
530,520,524,534,499
525,518,523,530,499
519,513,517,526,509
500,502,502,509,524
495,496,496,501,525
494,495,496,499,526
496,495,494,495,524
498,495,498,497,520
503,498,504,502,515
511,501,510,505,515
512,503,514,507,517
508,503,517,509,521
511,505,519,514,517
520,512,524,523,509
528,520,526,534,503
532,520,529,533,502
534,520,526,534,500
531,519,523,532,505
518,515,516,527,512
513,507,510,526,521
497,500,498,509,528
491,496,493,502,528
491,495,495,498,521
494,494,498,497,515
495,494,500,497,522
503,500,509,502,518
504,502,514,505,514
509,506,518,508,516
514,504,518,511,517
523,510,526,518,506
526,512,524,523,503
533,518,527,530,501
535,519,528,533,499
533,518,525,531,507
530,517,520,528,519
519,515,515,525,524
509,504,502,512,539
497,498,496,503,544
493,494,494,499,533
490,492,494,494,519
490,496,503,497,505
496,497,503,502,507
505,505,510,505,502
508,502,513,507,500
511,502,518,510,503
514,502,522,515,505
520,508,520,518,497
526,515,527,526,508
531,518,528,529,509
534,520,528,533,501
531,523,527,535,500
525,515,518,528,508
519,512,514,526,504
504,501,500,512,526
493,496,494,500,543
494,494,494,497,532
496,498,500,498,525
497,495,501,499,500
499,496,506,500,497
507,499,510,505,508
509,501,513,504,517
513,505,519,511,522
519,507,522,517,505
525,512,524,524,500
533,515,528,529,502
537,520,530,533,515
531,519,526,533,507
528,520,525,532,508
521,516,518,526,521
510,510,511,519,520
501,498,497,505,522
492,495,494,499,526
493,498,498,498,522
493,496,498,497,516
493,495,502,497,519
504,500,510,503,519
507,504,514,505,516
509,502,515,507,512
512,503,518,511,505
520,509,522,518,499
525,512,526,524,508
532,518,530,531,503
534,520,530,535,498
531,519,526,535,498
526,517,521,532,508
519,512,516,526,507
505,506,504,512,520
496,498,496,501,536
492,495,496,496,534
493,496,499,500,530
492,495,500,500,523
497,495,502,495,517
505,502,508,501,513
511,500,512,502,518
510,502,512,505,511
515,504,519,511,500
524,511,524,521,509
527,513,526,527,511
532,518,528,530,515
537,520,528,534,526
531,519,525,533,506
524,516,519,524,512
517,512,513,521,510
503,501,500,508,517
493,495,493,501,519
489,494,496,500,514
494,498,504,499,515
495,496,504,499,505
502,499,510,503,509
506,499,511,504,518
511,502,507,503,518
512,503,516,509,515
513,504,517,514,508
522,510,523,520,497
529,520,530,533,496
535,521,531,534,498
530,520,527,533,506
530,519,522,530,500
521,515,517,527,505
515,509,511,521,512
499,499,499,506,521
494,495,497,500,521
492,494,497,497,528
496,499,496,497,520
498,498,502,496,516
506,500,506,502,509
509,502,511,509,510
511,502,513,504,518
513,500,517,511,513
519,510,521,517,511
523,514,522,525,504
530,518,528,530,505
534,520,528,532,505
530,520,525,533,509
526,517,520,529,511
517,513,514,521,516
506,503,502,510,534
495,499,496,500,533
491,497,496,499,534
492,495,496,496,527
502,497,501,498,515
498,493,504,501,511
503,499,509,500,514
504,501,512,502,522
506,502,513,506,519
516,508,524,513,516
523,510,524,519,515
528,516,529,527,509
534,520,530,533,505
536,521,529,535,501
532,521,525,536,494
524,517,516,527,502
518,514,513,522,513
500,503,500,508,522
491,496,494,500,516
490,495,494,498,524
495,496,499,496,536
497,497,502,496,538
500,500,508,499,521
507,502,513,503,509
507,500,513,506,503
512,503,516,512,508
521,506,520,516,504
522,508,520,519,521
531,515,526,529,511
532,523,532,530,519
534,520,527,535,503
530,519,523,531,499
521,512,515,520,501
512,507,506,517,503
495,498,497,505,509
493,496,495,500,516
490,494,496,496,524
495,496,500,498,514
497,499,506,496,509
503,501,509,501,507
509,502,513,504,510
510,506,513,506,518
514,503,518,510,516
518,509,522,517,516
522,513,525,523,512
530,516,528,529,508
532,519,529,532,505
531,519,525,533,505
526,516,517,533,511
517,512,513,521,513
504,503,502,509,527
496,498,496,500,533
493,495,494,496,528
493,496,497,497,526
493,494,498,494,520
498,496,504,501,520
506,501,511,504,516
508,503,514,506,517
511,504,516,508,519
518,506,519,513,519
523,510,523,520,520
530,517,530,531,518
534,520,531,534,507
534,520,527,533,498
532,520,524,531,500
526,518,521,528,505
515,512,513,522,510
501,500,497,506,525
489,494,493,498,534
486,495,495,499,533
489,495,498,498,526
494,495,500,497,524
500,498,506,500,522
508,504,514,503,516
508,502,513,505,516
514,506,518,510,514
523,507,521,517,500
532,511,523,520,501
535,515,528,528,502
539,520,529,535,506
534,519,525,533,512
530,517,520,530,521
519,512,514,525,527
507,507,506,518,514
494,497,496,506,509
495,496,495,503,506
493,496,497,500,510
494,497,501,499,511
497,494,501,498,519
502,498,507,502,501
508,501,511,505,486
512,503,515,508,493
517,505,519,513,506
520,507,522,518,493
527,513,525,525,511
531,521,532,533,537
532,520,529,534,529
525,518,524,533,517
526,518,520,528,513
519,515,515,521,521
503,502,502,509,538
493,497,494,500,540
492,496,495,498,544
492,495,496,495,545
494,495,500,499,511
495,495,501,498,511
504,501,510,503,515
508,502,514,504,510
513,503,517,505,511
513,506,522,513,517
521,512,526,521,514
533,516,528,528,493
537,519,526,537,496
535,520,526,537,498
533,520,523,534,497
519,515,516,529,500
515,511,511,521,508
499,500,497,504,530
492,498,495,499,531
489,495,494,497,523
498,495,497,496,522
498,499,505,497,525
503,499,506,499,519
513,503,512,503,516
514,503,514,506,515
517,505,519,511,513
519,509,521,518,514
524,514,524,527,525
531,519,529,533,520
533,522,531,536,514
530,520,526,537,511
529,519,522,533,491
527,512,513,524,490
515,507,506,516,514
502,499,496,503,537
491,497,497,496,543
491,495,494,499,538
493,497,502,501,537
495,494,501,494,531
498,498,507,502,523
501,500,515,507,517
507,508,516,509,512
512,505,519,512,522
520,510,523,519,515
526,514,525,526,502
537,519,528,530,492
539,521,532,539,484
530,519,524,535,482
527,519,517,529,493
519,511,512,526,512
504,503,501,512,524
493,497,494,501,532
495,495,495,497,524
494,496,497,496,521
496,496,498,494,518
496,496,502,498,509
500,498,508,506,497
507,497,515,508,507
510,503,514,509,505
518,507,520,514,509
524,510,523,517,511
533,521,528,534,508
541,521,531,534,507
537,522,528,534,509
533,521,525,533,509
521,513,514,529,511
509,510,511,521,512
499,500,499,509,525
490,494,493,500,524
493,497,498,498,513
497,495,497,498,509
501,496,500,498,506
502,497,506,500,506
504,500,510,504,509
510,503,514,506,524
516,505,519,512,515
519,508,521,517,516
524,512,524,523,517
531,516,526,528,511
533,519,529,533,511
533,519,526,535,514
527,517,521,532,509
522,516,517,528,514
509,507,505,517,510
498,498,496,506,517
496,498,496,499,515
501,496,496,498,523
495,496,498,497,525
498,500,502,497,525
505,500,507,501,522
506,501,511,508,517
507,503,515,509,512
514,504,518,513,513
520,510,523,521,512
527,514,526,525,514
533,519,529,530,511
535,521,528,535,504
534,518,522,532,496
528,517,518,529,510
520,514,515,523,525
501,502,498,510,545
494,497,495,500,549
493,498,498,498,550
493,494,496,495,525
496,495,499,498,492
497,495,501,499,498
504,499,508,503,493
509,501,511,509,494
511,502,514,508,506
513,505,518,513,511
522,513,525,521,509
528,518,532,533,509
535,520,532,533,507
535,520,529,536,504
530,521,527,536,505
522,518,520,533,518
517,511,508,523,522
500,499,492,507,530
492,494,490,497,527
491,494,490,498,508
496,494,496,494,516
496,497,501,498,522
504,497,504,498,525
504,502,511,505,522
510,500,511,503,524
518,503,517,512,498
520,507,521,521,489
525,509,523,526,499
533,517,527,533,488
533,519,528,536,508
531,520,525,535,509
527,517,520,532,496
522,514,515,526,504
511,506,504,516,517
497,500,497,509,522
491,493,494,498,529
491,494,495,495,540
491,495,498,496,532
492,495,500,497,520
499,497,505,502,502
506,501,512,506,512
510,501,513,509,486
518,504,519,515,493
522,508,521,518,509
528,514,526,525,518
535,519,529,532,508
533,519,529,535,508
533,519,524,533,518
522,517,518,533,510
518,513,513,523,514
504,505,500,511,532
495,498,495,502,538
494,500,496,498,535
492,495,497,499,515
497,494,499,496,507
502,497,504,499,516
507,500,509,500,524
509,501,512,507,508
514,509,518,511,507
519,512,521,516,513
521,512,525,522,510
526,515,526,528,501
531,519,530,535,492
534,520,526,535,493
535,520,523,533,498
525,514,516,527,514
516,514,513,525,530
500,501,499,508,537
492,495,494,499,535
492,495,496,498,526
496,495,498,496,518
500,496,502,499,509
502,499,508,503,513
506,502,514,507,518
507,501,515,504,516
512,505,521,515,514
519,509,523,519,517
524,511,523,522,505
531,515,526,528,493
534,520,530,534,500
533,519,526,534,502
528,516,520,531,503
522,512,515,526,506
515,506,505,516,519
494,498,496,505,525
491,497,499,502,523
493,494,498,499,522
501,496,499,497,520
503,497,503,499,523
503,497,507,501,520
507,500,511,504,517
509,505,521,508,516
516,506,519,515,519
525,510,524,520,514
533,514,526,526,502
536,519,527,531,500
537,523,530,537,504
529,517,522,531,507
522,516,518,528,508
517,516,513,524,511
501,503,500,512,521
490,494,493,501,527
491,499,496,501,517
495,497,499,502,519
494,496,500,501,520
499,496,503,498,515
501,498,507,502,516
505,501,511,504,515
512,504,516,508,510
519,507,520,516,509
524,515,527,525,512
531,515,528,529,509
532,519,529,531,504
531,520,526,533,510
528,518,520,532,516
520,515,512,526,514
515,512,514,521,512
501,501,498,508,527
499,496,493,500,520
496,500,499,502,526
492,495,497,495,521
495,496,504,497,515
503,499,506,501,509
507,504,517,505,510
512,505,514,509,508
516,505,517,512,504
522,513,526,518,507
526,514,525,525,499
538,518,527,531,498
534,520,529,534,499
529,520,526,533,508
526,518,520,530,514
520,514,515,520,534
507,505,502,514,520
496,497,494,506,527
492,496,494,497,530
491,495,496,495,525
493,496,503,499,523
492,493,499,496,524
502,499,507,502,522
517,503,514,509,511
514,502,515,511,503
519,508,523,515,497
525,508,521,520,500
527,514,525,527,496
537,517,527,531,486
537,520,527,535,483
526,517,522,532,489
520,513,515,528,490
516,512,512,524,534
500,502,498,510,554
496,497,495,501,547
494,496,496,499,540
493,495,497,496,534
493,495,500,496,527
497,497,503,501,507
507,501,512,506,498
508,502,513,508,496
510,502,515,509,510
515,507,521,517,520
523,512,522,524,511
530,517,530,532,510
534,520,529,532,507
533,521,527,535,497
528,522,525,534,500
521,517,518,524,508
514,511,510,521,510
504,500,496,504,523
499,498,495,501,532
499,495,495,497,532
497,494,496,494,535
498,495,499,496,521
502,492,504,497,504
509,501,511,505,507
509,503,515,508,518
513,507,520,511,518
524,510,523,520,517
525,513,528,527,511
530,518,528,533,498
539,522,530,534,490
529,520,524,533,500
524,516,518,529,503
523,515,515,526,509
508,504,502,513,518
500,496,494,504,521
498,495,494,500,521
492,494,494,497,521
493,494,496,495,516
495,496,501,498,521
499,499,508,503,517
508,503,513,507,517
513,505,517,510,521
515,505,519,516,497
526,509,522,518,505
528,515,526,526,501
534,519,528,532,490
535,521,528,536,497
530,518,522,531,506
524,516,518,528,514
515,510,511,522,515
502,501,498,512,527
493,498,497,501,530
492,495,495,500,524
494,496,499,498,524
493,496,500,496,524
499,497,504,499,519
506,499,508,500,512
510,501,511,503,510
513,504,517,509,517
517,506,520,517,517
521,510,523,520,523
530,516,527,528,516
533,519,528,530,511
537,520,529,533,509
526,515,517,533,515
523,512,516,522,515
516,509,509,520,514
500,500,497,506,526
496,496,495,501,527
490,494,496,497,526
495,496,500,499,524
494,494,500,499,520
502,499,510,501,520
506,502,517,505,519
512,501,514,508,514
519,504,519,516,515
526,511,522,519,510
529,514,525,525,505
532,517,528,530,499
532,520,528,533,496
529,520,527,531,502
521,516,519,535,508
514,514,515,524,506
503,505,504,517,518
492,500,500,507,529
490,499,499,502,533
487,495,494,499,525
491,495,497,501,516
491,497,500,501,507
498,498,509,502,501
512,501,511,505,493
514,502,515,511,491
518,506,518,513,511
526,511,523,520,520
532,518,529,528,515
539,520,530,533,522
533,522,525,532,524
529,517,521,533,501
521,515,517,531,498
518,512,513,526,513
501,501,499,508,538
494,501,494,503,547
498,498,497,498,540
492,496,498,495,535
497,494,498,494,530
498,496,502,493,538
509,500,510,505,513
510,503,515,509,512
511,503,515,514,499
520,508,522,520,498
524,509,522,522,504
532,516,527,530,491
537,522,528,533,481
534,521,525,537,486
528,514,518,531,491
522,514,515,528,502
518,510,510,522,512
500,501,499,510,515
497,496,494,501,513
499,497,497,499,517
493,495,496,496,517
493,494,500,496,501
497,494,504,500,526
505,502,512,505,526
509,502,514,507,523
513,503,517,509,536
521,508,523,518,526
525,512,523,522,524
531,515,525,528,502
536,520,529,536,495
532,519,524,534,500
522,517,519,531,506
519,514,514,526,508
503,502,501,510,526
495,498,498,505,528
492,492,495,500,525
498,496,497,497,525
498,496,500,497,518
498,502,505,499,518
502,496,506,503,522
508,502,512,505,520
513,504,517,512,509
517,505,519,516,502
523,510,523,522,506
530,515,527,527,503
534,518,530,532,501
534,520,528,534,504
532,519,523,532,508
522,514,517,527,509
517,512,513,524,515
503,501,499,510,523
493,496,494,501,524
492,495,496,500,523
491,496,497,497,519
493,497,500,498,523
499,502,510,501,518
500,501,511,504,517
507,502,514,505,517
514,507,522,511,517
527,507,520,516,516
528,510,522,521,513
531,514,526,528,509
536,518,527,533,499
534,520,526,535,500
529,516,520,531,504
519,514,516,525,513
513,509,508,519,523
494,496,497,506,527
490,497,496,501,525
484,495,496,499,520
491,496,500,498,523
496,497,503,499,524
501,500,507,502,526
502,501,510,503,527
508,503,514,508,512
520,507,520,517,496
528,511,523,520,503
525,517,528,526,508
530,517,529,529,503
538,522,530,535,499
533,521,525,534,496
528,518,520,531,498
521,513,513,524,502
507,505,503,512,522
495,497,495,504,524
499,497,496,499,524
493,497,496,497,524
498,496,500,497,521
505,498,505,499,518
509,500,508,504,521
509,502,513,509,518
512,503,515,509,517
517,510,519,514,527
521,510,523,517,526
530,516,530,528,508
532,521,531,535,490
532,520,528,536,494
526,517,521,532,504
522,515,516,527,518
517,512,513,523,521
499,500,498,510,522
491,492,491,504,515
495,497,497,502,513
494,495,497,497,519
492,497,503,499,536
501,498,510,501,532
507,505,516,503,525
510,502,514,506,516
512,506,518,510,505
521,508,522,519,495
526,511,522,523,495
531,518,526,527,498
534,520,530,536,498
531,523,529,535,505
524,516,518,530,517
521,513,515,526,516
515,509,509,519,526
499,499,496,504,531
495,496,495,501,535
492,494,495,498,530
492,497,502,499,515
502,498,505,502,498
503,498,506,501,497
508,502,511,503,517
508,503,514,507,514
514,503,516,511,520
522,510,524,525,492
528,518,531,527,506
532,518,527,529,508
534,521,531,539,507
538,519,523,533,506
533,515,516,528,502
530,515,515,526,509
506,498,502,512,522
496,501,496,507,524
491,494,493,499,515
491,496,497,499,511
488,496,500,499,516
492,499,502,505,514
499,497,506,502,520
506,501,513,506,521
509,504,517,512,523
511,506,519,516,508
520,509,522,523,495
528,514,529,530,497
535,522,531,534,503
537,523,528,534,510
531,522,527,532,515
522,515,516,527,509
513,510,510,522,502
500,501,499,509,516
495,497,495,502,526
494,496,496,500,525
495,496,497,497,526
496,496,500,497,525
505,498,505,499,521
503,504,512,504,520
505,501,514,507,515
512,508,520,511,512
520,508,521,517,507
526,512,524,524,504
534,519,529,530,501
536,521,530,535,502
534,523,529,539,507
530,515,518,530,509
523,514,515,529,508
511,509,509,519,523
498,497,495,504,535
489,495,493,499,539
489,494,494,493,537
493,495,498,495,522
499,498,503,499,521
500,498,507,501,515
504,501,512,507,503
509,502,514,508,503
515,506,520,515,511
525,509,523,521,507
525,514,527,524,512
530,517,527,529,515
533,523,532,537,508
533,519,525,534,501
527,515,519,529,507
523,514,515,526,516
507,505,506,512,531
496,497,495,502,535
497,496,496,500,530
495,493,497,497,526
499,494,500,496,520
496,496,505,499,521
503,498,508,502,520
509,506,517,508,519
512,501,516,514,515
514,505,518,516,501
524,511,523,524,480
531,516,528,530,483
533,518,529,531,498
528,518,526,533,509
526,517,522,531,515
522,516,513,530,518
516,510,511,521,506
499,501,499,510,525
498,496,495,503,527
493,496,495,497,525
495,496,498,498,528
494,497,502,499,520
501,499,506,500,511
505,499,509,502,506
513,503,514,505,511
513,504,518,508,517
521,510,524,517,518
523,514,526,525,522
527,519,528,532,512
528,521,530,539,489
528,519,525,537,496
522,514,515,525,516
522,514,514,527,518
512,507,508,517,517
497,499,499,508,514
497,498,499,504,505
496,495,497,499,510
495,494,496,498,518
498,496,498,499,522
502,497,503,502,511
508,503,511,504,517
509,499,517,509,512
518,506,517,513,508
522,509,521,519,511
531,514,525,526,508
532,516,526,530,510
537,521,528,535,490
533,519,522,533,492
524,515,517,529,517
518,512,512,525,512
503,502,499,509,530
489,495,492,499,519
494,497,494,503,516
492,495,496,497,514
495,496,500,497,519
500,499,505,500,522
504,499,506,500,527
508,504,517,506,538
505,502,514,508,532
519,507,521,516,517
522,514,522,522,502
533,517,527,529,498
534,520,530,536,502
536,521,528,537,513
530,518,519,534,512
526,517,517,529,508
521,513,513,520,519
504,500,498,510,505
496,496,494,503,504
490,493,493,499,512
492,498,502,503,520
495,493,498,497,518
505,499,506,500,514
504,499,509,505,513
507,503,515,509,499
513,505,518,513,495
526,509,524,520,499
528,513,526,526,504
534,521,529,536,506
538,520,530,536,502
535,522,528,536,515
524,515,519,529,522
517,513,514,526,511
509,506,506,517,519
487,496,496,504,521
490,496,494,504,526
493,495,497,499,520
494,495,500,499,520
499,497,506,501,520
500,498,507,501,520
508,501,512,503,520
509,507,519,509,523
515,509,522,514,521
520,509,526,519,517
525,515,527,530,493
530,518,528,532,493
530,520,530,536,500
531,521,527,536,504
519,514,517,528,509
518,513,512,525,510
504,501,500,515,527
493,498,497,502,528
489,494,495,499,526
493,496,499,498,521
496,492,499,496,521
504,499,508,503,515
503,497,507,502,514
509,501,512,506,510
514,505,517,512,511
517,505,519,515,510
521,509,523,522,507
528,512,526,530,501
536,519,529,534,499
536,525,528,540,507
531,519,525,531,511
523,514,515,523,515
523,512,511,522,515
499,500,498,507,525
495,496,496,501,530
492,494,495,498,523
494,496,500,499,520
493,494,500,496,517
504,498,508,500,513
502,497,510,507,519
508,502,515,507,522
515,505,521,513,522
520,508,523,519,524
524,513,527,525,521
532,519,531,533,514
535,520,531,536,503
533,518,525,533,503
519,513,519,531,495
518,513,517,527,504
503,504,505,512,523
498,497,497,504,520
494,499,500,501,518
493,494,497,498,515
497,497,503,500,519
496,495,504,495,521
507,497,508,498,513
508,502,514,504,507
515,506,519,509,509
522,506,520,512,509
530,511,525,520,509
534,515,529,527,508
541,519,531,533,505
539,519,528,533,506
531,518,523,531,508
518,512,515,525,512
515,514,517,525,516
499,502,502,510,525
491,499,500,506,538
490,496,498,501,531
494,495,498,497,518
494,495,501,499,503
504,498,505,499,518
505,497,508,502,492
510,501,512,504,501
518,504,518,509,517
525,510,524,517,514
520,510,523,525,507
524,516,528,530,501
532,521,532,537,496
531,521,534,542,498
524,518,523,533,499
519,515,518,528,508
512,509,508,524,510
499,504,501,508,519
491,496,496,502,521
492,496,497,498,523
494,494,497,500,526
498,501,508,499,524
506,499,507,502,514
504,499,513,503,517
510,503,516,509,511
513,505,520,513,508
522,510,524,521,508
526,512,526,525,508
531,517,530,533,505
532,518,530,535,501
533,523,530,538,506
524,515,518,527,521
517,516,520,524,521
504,504,504,513,526
496,497,498,504,529
496,496,497,501,524
490,495,497,499,522
497,497,501,497,523
501,497,504,498,521
507,500,508,499,523
506,501,514,506,510
513,504,517,510,505
518,506,519,517,510
523,509,523,521,505
528,515,527,528,507
535,522,531,535,502
535,521,530,536,500
535,520,525,534,499
522,514,516,526,509
519,514,515,525,518
505,505,501,507,526
496,497,496,503,528
493,495,495,498,524
493,496,498,503,522
494,497,501,499,519
500,499,507,507,520
502,499,507,500,525
509,503,514,507,525
513,504,514,507,530
519,509,521,516,518
522,513,524,524,507
531,517,529,532,498
537,524,531,536,502
535,522,529,537,506
528,517,521,531,507
520,515,513,531,510
513,512,511,523,508
500,499,499,513,503
492,493,497,499,514
493,496,496,498,524
491,496,498,499,515
495,498,504,499,519
502,505,509,503,516
503,500,509,503,515
510,502,513,508,510
517,506,519,514,512
519,509,522,519,509
527,513,525,525,511
531,518,529,531,505
535,522,532,536,504
533,522,527,534,499
522,514,517,528,503
519,513,515,526,504
507,502,502,514,512
498,498,497,506,525
494,496,496,501,529
494,495,497,500,544
496,496,500,495,547
499,498,504,496,532
502,498,508,501,518
506,500,511,503,524
514,507,520,511,498
517,505,520,515,500
523,509,524,522,496
528,516,532,529,498
530,518,529,534,494
533,519,529,537,497
536,520,525,536,499
520,512,513,526,506
516,512,513,525,506
500,500,499,512,518
493,494,493,506,520
491,495,496,500,525
492,497,500,500,516
490,494,500,499,518
497,497,506,500,523
497,498,508,500,513
504,501,512,506,512
514,504,518,512,514
520,508,523,518,520
528,511,523,521,509
533,516,527,526,512
541,521,529,532,500
539,521,527,535,487
531,516,520,530,486
517,512,514,525,502
514,509,509,521,510
493,498,497,506,530
484,495,495,501,538
487,494,494,495,551
484,495,499,496,548
487,495,502,499,519
499,498,506,502,507
501,498,509,504,514
507,499,514,513,519
510,502,517,514,506
520,508,523,521,513
523,512,523,520,516
533,522,529,534,508
542,524,531,537,502
535,522,524,534,503
523,513,515,526,509
518,517,518,524,506
511,505,505,515,509
503,504,501,507,510
499,499,496,504,511
500,496,496,498,518
498,497,500,501,522
496,498,503,502,511
503,499,505,500,508
508,501,507,507,505
501,503,511,508,506
492,507,515,515,518
507,509,516,517,521
512,515,521,524,519
512,519,526,532,518
506,519,527,534,512
503,517,525,532,507
511,512,516,524,518
541,520,520,527,522
521,505,506,507,541
500,501,502,499,551
495,494,498,495,552
492,496,504,497,528
502,499,501,497,507
527,504,508,505,491
533,505,506,506,495
525,503,508,508,503
522,502,506,517,506
524,506,503,517,502
527,517,488,522,504
540,529,483,527,500
549,529,492,535,504
543,531,481,536,504
541,527,472,529,508
524,524,472,524,517
514,511,465,512,517
497,493,462,501,525
491,485,471,495,525
498,489,490,496,523
505,493,509,495,517
504,496,524,499,521
512,501,536,504,517
513,499,539,502,511
518,504,546,510,509
520,505,549,514,515
530,508,554,524,517
529,512,557,527,509
537,517,558,535,509
539,519,556,539,489
535,519,549,537,517
523,513,541,534,528
522,513,535,529,537
509,503,521,516,538
490,494,511,506,515
492,494,511,504,509
485,493,509,499,499
490,492,517,506,503
493,497,517,502,515
497,502,523,503,517
496,499,522,507,509
512,503,524,510,504
522,503,528,521,507
526,509,529,524,497
529,514,530,527,498
529,517,532,533,502
530,519,533,535,502
529,520,528,534,484
516,513,513,526,497
506,511,514,524,508
488,498,500,508,513
483,495,497,500,506
486,494,495,499,511
491,500,496,501,522
495,501,505,496,535
496,500,505,500,538
512,502,509,501,532
513,503,514,504,520
512,507,523,513,514
518,508,524,518,505
519,509,529,525,499
524,514,530,530,496
535,517,532,534,498
550,521,531,535,498
538,515,525,529,510
523,512,518,524,528
516,507,513,521,534
504,497,501,505,528
491,496,501,505,501
481,492,498,501,505
475,493,502,501,501
485,495,506,503,497
482,496,511,505,498
486,498,510,501,523
497,503,518,506,530
522,511,520,516,532
512,512,522,521,524
523,515,522,524,509
526,521,527,536,509
532,523,526,537,515
525,523,522,533,514
514,514,512,523,518
519,514,511,523,529
513,504,501,513,519
507,503,497,506,518
499,498,492,501,515
504,495,494,496,510
502,497,497,497,517
511,501,502,500,528
529,505,508,502,532
526,501,509,502,534
520,505,512,505,519
522,506,519,515,517
525,509,519,518,504
524,515,521,525,499
519,522,522,532,501
514,521,517,536,494
494,518,512,535,495
467,508,495,522,510
447,507,492,520,519
428,496,471,502,536
421,495,460,494,542
422,497,459,497,535
417,498,461,498,528
448,500,454,487,515
507,506,447,490,524
518,505,453,491,543
580,513,456,493,547
567,513,465,496,567
542,517,476,502,541
550,526,483,511,507
561,530,492,521,485
573,526,506,537,447
563,525,517,535,463
548,513,517,525,484
552,513,536,531,495
567,516,553,529,505
543,510,541,524,519
526,503,534,517,533
519,493,511,506,511
515,490,478,498,517
513,498,468,498,509
521,509,475,507,514
519,511,470,502,522
522,507,459,505,517
530,515,454,514,517
534,522,455,518,511
530,519,441,517,513
536,520,406,519,516
531,526,402,531,518
524,529,426,533,524
509,520,415,517,531
500,510,424,511,535
485,484,424,498,540
472,470,443,482,558
469,475,475,480,546
475,489,527,487,535
488,501,582,491,518
510,512,604,504,516
505,507,614,513,512
493,499,618,514,515
498,497,624,525,517
495,502,637,527,523
513,512,639,536,493
531,524,645,540,480
543,532,655,554,478
546,525,619,552,496
568,525,617,543,480
548,509,581,537,496
535,504,571,539,500
517,498,554,524,504
511,497,535,516,492
505,497,536,513,498
498,494,527,509,501
492,491,534,504,508
492,490,534,508,476
491,486,536,507,474
510,491,543,502,464
538,496,556,514,460
539,503,573,527,475
