CH1,CH2,CH3,CH4,CH5
538,523,531,540,505
535,520,525,535,506
528,513,519,527,510
521,510,513,522,517
504,502,500,512,527
496,498,501,505,532
491,497,499,502,535
492,497,501,499,527
492,493,499,500,529
500,504,508,504,512
505,501,512,505,513
510,506,513,506,512
514,502,515,508,513
520,506,521,513,522
525,510,525,520,513
530,514,530,530,503
537,521,533,535,489
533,520,528,535,497
528,517,524,532,498
521,514,518,527,507
507,505,506,516,519
496,499,500,507,527
492,496,495,502,524
492,494,493,498,519
495,495,499,496,521
501,497,502,497,517
504,500,508,500,507
507,502,513,506,510
506,499,512,504,509
509,500,519,510,517
525,508,523,517,512
530,514,529,525,510
534,518,536,535,516
534,521,529,535,513
540,521,529,535,509
529,516,521,529,512
521,512,516,524,508
507,503,503,513,525
499,499,497,504,533
495,496,495,498,530
495,497,497,497,524
497,496,500,498,520
501,499,506,501,519
510,501,511,503,506
508,501,513,504,497
509,506,518,512,495
515,504,520,513,492
524,510,525,521,495
526,514,529,528,515
529,519,536,538,519
532,519,530,535,507
528,515,524,531,509
523,514,518,527,512
524,510,513,522,519
506,501,500,508,536
496,495,497,501,540
497,496,497,502,538
496,496,499,498,535
496,495,500,497,528
501,501,509,502,514
500,499,510,503,511
502,501,513,503,511
508,505,517,508,511
516,508,524,518,508
519,513,525,521,513
530,516,530,529,507
534,521,533,534,506
540,525,536,538,508
533,514,524,533,504
522,514,519,527,510
506,506,508,518,521
490,500,501,510,522
490,494,494,502,524
489,495,496,498,521
488,496,499,498,509
488,496,503,498,510
497,501,510,502,515
505,505,513,504,519
519,500,513,508,525
522,506,521,515,522
529,509,524,517,521
540,514,529,525,511
537,517,535,534,503
541,520,532,535,495
537,520,528,536,495
529,518,523,532,505
521,513,517,526,508
507,502,503,513,523
498,498,497,506,532
495,500,498,500,528
494,500,500,501,529
499,496,500,496,524
502,502,508,499,516
506,500,510,502,514
510,502,515,507,515
510,501,513,506,519
519,504,520,512,512
524,509,523,518,515
532,517,531,527,518
535,521,533,532,514
536,523,533,537,514
534,517,526,534,491
527,514,521,531,499
514,511,517,524,509
498,499,500,511,526
489,498,494,499,532
495,495,497,499,521
490,495,497,499,514
489,496,506,499,513
499,504,514,505,507
501,502,517,506,508
502,501,513,506,511
508,507,517,506,518
516,511,527,514,520
518,511,526,519,512
529,519,532,527,506
538,519,532,534,497
536,517,528,533,497
532,518,525,533,500
524,513,517,526,510
514,505,507,515,513
502,499,499,506,520
496,496,496,500,524
491,494,496,498,524
494,495,498,497,524
495,495,500,498,523
500,499,508,503,509
504,500,511,505,505
507,502,518,507,504
516,503,518,509,503
521,508,524,517,507
533,514,528,526,496
536,517,532,533,492
538,520,531,535,506
534,519,526,532,515
526,517,522,529,528
515,513,516,522,533
508,504,504,512,539
503,501,500,507,523
494,497,500,502,522
494,500,501,499,514
495,497,500,497,512
501,497,504,499,496
505,500,510,503,486
507,502,514,504,505
511,501,514,505,513
519,505,521,511,513
524,511,527,517,515
530,514,528,524,513
534,518,531,532,504
536,519,530,534,496
537,521,529,534,500
522,515,520,527,508
515,509,513,520,518
497,500,500,510,512
496,498,497,504,517
497,499,501,503,538
499,493,500,496,535
501,495,499,497,533
505,500,507,499,520
509,502,514,502,519
509,505,518,503,522
510,503,518,507,521
519,509,523,514,513
525,511,526,521,504
534,516,530,527,501
538,520,531,533,496
535,519,529,533,498
531,518,524,531,506
518,513,518,526,515
509,506,509,518,523
503,501,501,508,530
496,497,498,500,532
493,496,497,498,530
494,497,500,498,524
496,497,505,498,529
503,501,509,502,522
503,501,512,503,516
501,499,512,503,512
510,503,519,509,509
518,509,526,517,504
531,514,530,525,499
538,517,536,534,498
538,520,532,535,492
534,520,530,536,496
531,517,526,535,506
521,515,520,528,516
504,503,504,511,528
495,498,498,503,524
490,497,498,498,521
492,495,497,495,517
497,496,501,496,522
500,498,505,499,521
506,500,511,500,515
505,501,514,503,513
518,503,515,508,515
523,507,521,512,507
529,510,526,519,506
534,516,530,526,507
537,519,533,532,504
538,522,529,531,503
534,521,530,536,504
525,514,520,528,508
517,511,515,522,515
500,503,503,509,527
493,499,500,503,529
487,495,496,498,525
487,496,498,498,520
482,494,503,498,523
494,499,506,498,515
497,502,512,499,517
503,501,513,505,519
514,504,518,508,517
536,509,523,516,514
533,511,525,520,515
536,517,531,529,505
536,518,532,534,494
533,518,528,533,492
528,517,526,534,484
520,514,517,531,498
509,508,510,518,505
497,501,502,510,514
487,497,497,503,513
491,494,494,498,505
494,496,498,497,519
494,495,500,493,545
495,502,513,500,529
512,502,512,504,515
518,502,514,505,513
513,501,515,507,511
518,507,522,516,518
525,512,526,523,510
535,517,530,531,505
532,520,538,540,504
521,518,527,534,501
515,513,522,530,512
506,513,517,525,520
489,501,503,511,535
483,497,498,504,537
476,496,496,499,536
495,497,496,497,517
523,501,502,500,499
519,500,504,503,493
510,502,510,505,498
510,501,512,505,496
509,503,515,507,496
517,509,523,512,496
535,512,525,520,499
539,516,530,527,504
547,520,532,533,504
544,521,531,536,505
539,521,528,537,487
532,519,520,529,475
527,513,517,525,499
503,502,502,511,524
496,498,498,504,554
494,496,496,497,558
498,497,498,497,525
495,498,496,499,518
495,499,505,500,516
506,500,509,501,520
511,500,512,503,519
512,502,516,507,519
517,505,520,511,527
525,512,526,520,525
529,516,528,526,512
535,519,530,533,492
534,518,527,533,491
530,518,524,532,498
517,512,521,531,504
516,507,510,523,507
501,501,500,510,522
493,496,496,503,534
496,494,496,501,546
497,500,499,493,537
496,495,502,497,520
505,500,508,502,511
501,498,509,501,508
505,501,514,504,501
512,505,522,509,516
518,509,526,517,518
528,513,531,527,495
535,516,530,531,491
535,520,536,535,495
534,522,532,536,496
532,519,524,533,502
521,514,508,526,513
504,506,499,516,530
491,499,498,505,539
484,496,495,500,538
486,495,493,496,528
486,494,494,500,525
490,496,492,497,523
500,503,505,500,523
507,502,506,501,519
517,499,505,502,525
521,503,499,509,521
517,511,493,517,526
521,520,497,527,515
524,518,493,528,509
525,523,483,527,500
523,529,485,531,492
523,522,477,529,486
511,513,476,522,498
504,501,468,504,520
504,489,467,494,529
495,490,481,492,538
504,490,495,492,526
505,493,505,496,508
506,495,520,500,511
504,496,533,502,511
505,500,537,509,515
509,501,542,510,508
516,505,548,516,502
522,515,552,522,500
537,518,557,530,495
541,521,561,538,496
536,520,555,537,495
532,519,549,535,497
529,514,540,530,505
517,506,530,523,519
498,498,517,511,524
487,493,511,501,523
487,493,510,499,521
487,498,515,498,526
485,494,517,493,532
495,499,523,502,533
506,504,522,505,521
511,504,515,506,514
514,505,526,516,500
514,507,527,520,502
518,513,530,523,521
520,517,534,533,523
528,516,532,532,513
532,515,532,534,486
536,517,529,532,489
531,516,526,529,502
520,507,514,519,519
503,500,504,509,519
506,497,500,502,518
507,496,500,497,523
503,496,501,497,493
501,493,507,501,502
501,500,511,497,528
508,501,518,508,538
505,502,519,507,527
509,503,515,512,519
511,506,519,518,507
515,512,530,527,494
519,516,534,533,497
540,520,533,534,500
537,525,534,535,505
528,517,525,531,511
531,516,523,528,520
516,504,508,516,533
501,498,499,506,534
492,495,495,495,543
495,498,502,499,519
494,498,500,503,488
497,500,511,500,494
497,501,513,498,510
500,500,515,500,515
492,497,514,501,522
509,502,518,512,516
511,506,519,519,494
535,514,526,530,473
535,521,536,538,480
526,524,536,538,490
534,523,535,535,497
546,519,529,529,517
528,512,521,521,537
499,499,492,504,538
493,499,484,502,530
484,497,493,499,522
462,495,495,496,526
447,490,493,494,525
446,497,497,498,517
443,497,497,501,532
445,501,510,499,525
485,504,509,504,510
518,505,515,509,505
542,511,517,517,493
549,520,528,533,484
559,528,532,540,493
558,525,524,535,519
568,526,521,531,525
562,522,518,525,533
551,508,512,516,538
528,504,507,506,509
507,499,504,497,520
504,503,496,494,505
514,505,496,497,494
517,506,478,499,472
520,509,476,504,466
509,505,472,492,521
514,498,470,500,519
545,509,473,512,501
534,508,456,517,516
527,511,460,515,525
533,517,463,522,526
536,521,472,529,516
536,520,481,534,512
526,511,482,531,519
525,509,475,518,527
510,497,464,500,538
499,493,474,497,540
498,508,493,500,546
495,509,488,496,528
495,509,488,498,526
503,515,501,505,520
496,517,494,509,521
484,515,445,501,534
478,506,394,496,527
487,514,408,504,518
496,518,374,507,527
505,529,399,514,517
528,527,401,518,502
556,530,410,520,503
554,518,427,520,513
536,505,443,512,516
513,493,477,502,524
493,481,537,493,536
487,475,576,489,536
504,482,620,506,521
508,486,628,510,511
504,482,622,511,509
513,491,648,520,500
517,499,648,530,497
518,500,596,524,492
524,512,547,521,496
528,524,496,530,493
532,536,489,543,488
542,544,485,552,491
546,546,488,555,494
537,538,480,546,509
528,526,484,532,526
517,514,498,494,529
499,503,512,479,521
483,484,514,476,526
472,475,544,482,549
477,482,575,493,525
474,492,600,504,497
485,495,625,516,485
488,492,633,523,475
502,489,639,522,491
495,490,639,525,500
500,495,634,534,511
527,503,631,538,509
546,507,619,546,500
561,512,604,550,484
560,516,601,552,471
561,517,574,547,467
547,512,569,539,475
538,507,557,534,483
511,496,540,516,532
500,495,535,500,561
496,495,520,492,529
499,497,520,503,524
501,492,503,495,538
508,488,491,503,482
504,486,490,506,478
507,497,500,505,495
519,508,520,513,485
523,518,524,519,471
528,519,539,526,491
539,528,548,535,488
539,524,528,533,492
534,520,502,537,489
532,517,498,539,464
523,512,512,534,482
527,517,518,532,510
503,501,486,506,589
475,490,478,488,623
475,484,482,490,592
489,489,482,492,546
490,486,466,488,512
491,490,480,498,478
513,505,508,515,455
507,498,506,510,442
520,506,511,512,459
516,501,497,513,529
516,501,499,516,553
533,513,505,526,517
535,517,522,523,516
525,529,517,528,489
519,532,488,522,532
497,530,493,525,567
482,519,494,524,561
479,508,464,508,529
472,498,483,501,548
480,493,488,497,585
521,495,485,489,572
516,495,493,496,555
513,490,509,502,534
503,483,494,490,511
502,485,479,498,510
505,490,471,506,512
511,507,496,522,502
514,514,479,524,505
522,529,450,526,523
544,532,442,523,531
529,525,430,518,548
522,514,387,512,526
518,516,339,510,515
531,514,337,503,519
516,513,363,496,523
503,509,380,498,515
510,498,390,493,530
494,473,415,470,545
483,470,460,467,559
490,479,526,483,538
498,497,584,498,535
505,498,606,513,532
521,508,656,534,505
533,523,688,546,494
543,535,717,562,486
547,538,707,565,473
551,529,678,572,460
548,526,656,556,453
535,516,629,546,471
521,512,605,530,477
509,505,569,518,476
495,500,534,507,539
491,491,477,505,548
490,496,437,499,531
489,502,397,490,547
481,505,362,493,538
480,512,326,495,551
480,526,340,491,556
474,513,367,482,547
476,512,425,493,514
489,519,505,513,500
518,512,556,525,483
532,506,620,540,471
545,520,674,564,451
554,530,672,559,468
534,519,644,549,498
516,508,625,535,491
508,501,605,531,465
507,495,590,524,473
509,494,588,513,531
507,492,571,505,530
500,491,558,504,505
513,497,552,506,459
516,499,551,514,445
506,496,537,511,476
495,498,541,514,519
487,503,536,518,569
492,509,538,524,597
525,518,535,530,560
489,512,528,530,539
467,513,530,527,521
458,508,521,527,540
473,509,512,525,553
454,497,497,509,533
452,495,501,509,516
474,492,487,499,497
516,494,494,502,477
544,502,499,496,541
533,504,504,491,633
545,508,513,502,580
544,501,498,496,486
549,499,501,500,497
527,501,516,517,475
493,518,530,521,438
490,520,545,535,412
490,517,533,540,459
496,522,517,542,423
484,519,503,538,481
480,512,493,522,545
528,513,501,519,562
587,514,490,510,552
536,499,492,493,602
503,496,486,488,549
491,502,471,500,531
494,500,451,498,533
495,507,477,492,547
497,506,490,486,548
515,509,513,496,549
532,510,493,496,556
551,519,498,506,539
591,520,506,511,493
587,509,504,520,507
576,511,512,532,496
565,516,510,529,504
554,514,509,527,505
538,509,501,520,520
531,510,501,529,500
514,507,507,515,501
513,506,518,515,477
505,499,501,508,510
496,497,489,492,546
495,496,489,488,517
535,507,527,502,472
535,506,511,503,469
527,510,494,501,495
524,509,469,508,524
520,510,448,503,581
532,518,441,512,568
538,512,414,523,534
537,507,409,530,507
531,507,429,520,504
525,508,472,514,517
522,515,482,506,536
509,510,457,478,546
497,503,422,468,541
496,507,412,482,532
493,511,447,502,529
483,487,497,503,532
487,473,521,497,530
493,483,544,497,529
497,492,605,517,515
505,511,636,530,503
516,513,648,535,501
531,519,654,546,499
536,524,630,546,496
538,528,632,554,498
535,528,611,549,499
532,526,603,550,494
526,520,573,544,480
520,520,568,534,486
503,513,532,520,498
494,508,519,512,499
490,502,506,507,500
488,498,512,500,523
486,489,513,491,555
495,494,524,498,535
504,500,530,505,509
504,502,540,519,503
512,500,548,521,483
521,505,545,518,475
525,511,557,530,506
532,517,556,541,516
538,520,555,552,481
540,522,545,542,466
536,523,538,531,464
525,517,529,530,455
509,508,518,521,475
485,499,506,507,557
467,492,495,494,586
464,492,488,490,589
467,490,492,490,559
501,499,499,495,542
522,504,491,501,510
522,505,493,506,522
519,506,488,508,524
517,507,489,500,527
515,507,502,511,504
509,505,501,516,515
520,514,518,528,526
520,524,544,540,495
502,521,551,548,505
492,514,534,535,479
503,513,525,528,479
488,504,514,518,518
477,502,509,510,534
492,496,509,502,557
505,498,494,495,603
518,497,489,490,532
523,495,490,492,522
524,502,490,494,525
519,502,506,499,531
518,498,498,499,521
517,501,493,508,523
513,505,509,517,524
509,514,518,525,523
506,519,529,529,540
509,519,511,533,512
530,520,498,533,499
549,518,494,525,502
555,519,518,520,489
530,504,502,507,502
518,499,502,503,528
512,498,495,498,529
511,498,490,499,525
512,499,474,499,533
515,504,456,497,542
515,505,450,501,525
514,500,476,502,501
524,497,473,500,478
526,495,502,510,468
520,502,550,524,479
523,518,546,531,500
523,537,519,532,499
528,536,513,537,523
533,539,524,539,544
519,526,467,529,550
522,506,453,511,523
506,486,446,489,531
501,501,489,497,530
502,493,520,500,517
499,488,529,499,522
505,494,543,498,513
514,500,553,508,503
513,499,549,509,487
525,499,559,511,492
523,497,530,512,503
521,508,509,523,528
530,513,522,531,511
537,516,524,536,508
535,508,518,534,512
533,510,522,535,493
525,511,544,529,504
511,501,534,520,545
490,498,532,505,536
488,505,511,507,530
488,504,505,501,533
486,509,507,496,529
488,504,504,490,534
493,496,487,499,530
501,492,450,506,514
502,493,451,500,495
515,508,516,522,478
524,512,553,523,483
524,505,558,520,480
528,514,573,531,496
536,524,590,542,508
545,531,606,544,448
550,532,597,544,408
533,521,571,537,455
517,519,554,534,486
521,505,531,526,448
511,500,525,518,465
497,500,524,507,523
491,499,523,499,538
480,495,514,493,539
470,497,521,500,580
473,500,521,500,620
474,497,521,500,620
486,504,526,506,596
501,504,526,516,554
526,510,530,530,512
528,517,534,530,489
526,521,535,534,497
523,523,532,541,497
518,519,526,540,500
517,521,522,532,512
501,510,513,519,562
480,495,496,505,559
516,496,491,502,498
510,499,487,496,477
488,493,484,487,521
496,493,493,487,562
501,497,506,489,570
526,503,512,495,541
523,501,511,497,517
514,506,518,511,510
516,508,510,518,508
514,511,501,522,511
509,517,495,531,495
519,526,507,550,482
517,519,489,534,502
506,503,472,524,508
478,486,458,510,512
453,487,475,497,529
488,507,490,500,504
544,514,493,504,498
561,514,505,508,473
557,507,497,500,459
555,502,500,502,493
531,500,513,500,587
522,501,505,499,571
521,498,488,501,540
526,506,483,503,522
532,508,484,510,502
540,515,486,514,499
545,516,504,530,493
541,509,496,526,486
537,511,523,530,489
540,522,542,539,512
535,520,559,543,528
506,505,523,522,518
502,511,527,511,527
502,518,520,507,531
502,507,505,490,511
506,497,509,486,504
499,485,460,488,495
502,494,499,501,503
508,497,518,505,511
505,500,523,495,544
512,509,535,507,569
521,505,518,514,523
529,513,526,524,495
533,521,563,535,504
529,523,562,536,517
526,523,565,540,513
518,513,543,534,516
513,511,506,526,519
502,506,500,512,523
497,504,496,507,525
501,494,496,502,521
496,484,502,495,520
491,488,515,497,517
502,505,541,500,499
518,515,554,499,485
516,506,552,505,482
515,497,533,511,497
516,500,528,514,538
523,506,552,522,519
528,513,547,540,486
534,519,548,545,497
536,519,545,545,484
531,518,531,534,482
530,518,517,526,495
513,511,501,514,529
497,497,491,502,537
487,492,485,493,510
489,491,493,493,499
491,497,517,502,511
490,502,517,506,539
493,500,511,502,528
500,502,515,510,521
502,502,515,511,527
510,505,519,516,517
529,508,524,521,509
527,513,528,526,512
537,519,530,533,486
537,520,532,534,506
534,517,534,534,506
530,516,526,530,466
523,514,522,527,460
499,501,504,510,546
485,498,498,503,577
487,497,498,502,529
491,497,499,499,522
493,495,497,502,537
503,502,507,503,522
508,500,502,504,489
502,495,496,500,517
495,496,488,499,529
511,506,494,511,501
520,516,493,518,494
518,514,499,521,514
513,518,516,529,538
519,524,477,525,525
543,522,441,522,532
515,521,427,512,528
498,501,422,503,551
489,497,433,500,550
477,491,472,489,534
489,489,497,492,532
519,501,539,501,532
538,508,563,508,526
534,510,574,512,523
516,504,564,504,545
517,505,552,509,524
525,508,549,522,480
529,513,541,521,480
535,519,544,525,502
542,521,541,530,515
539,516,544,537,516
540,519,549,539,493
529,516,553,536,506
523,518,551,531,520
509,510,537,515,527
496,505,519,510,522
484,500,507,500,516
478,499,506,497,509
481,495,492,500,504
482,477,496,496,525
495,494,538,508,532
512,500,498,492,524
521,508,502,488,514
529,513,507,501,515
539,519,504,516,513
531,513,517,515,511
535,502,505,516,519
540,516,516,542,469
544,532,550,560,474
537,527,548,545,498
523,515,514,529,502
504,499,504,513,510
501,498,502,504,526
497,497,511,506,519
489,494,508,499,538
489,495,514,503,536
496,498,535,502,507
508,499,532,507,497
508,498,522,512,492
513,501,529,512,489
519,506,533,512,496
532,511,534,523,491
536,517,542,532,487
534,520,541,535,533
528,519,535,537,498
527,519,531,537,493
525,516,526,529,516
513,510,517,523,522
493,498,499,504,541
489,495,496,497,567
501,495,495,497,530
505,497,497,495,514
502,495,500,498,503
511,498,503,501,479
511,500,509,504,489
514,501,509,503,510
516,501,516,511,499
519,504,524,515,514
517,509,526,520,535
533,518,534,532,503
536,520,533,537,521
536,520,530,537,501
529,519,524,534,527
517,513,515,529,525
496,504,506,517,505
472,500,503,510,485
458,492,495,500,485
450,487,492,493,498
443,485,492,497,490
441,490,501,494,515
469,502,504,491,577
526,501,503,492,604
546,511,510,500,566
550,509,516,509,527
554,511,517,518,508
548,513,519,522,476
563,520,522,532,462
572,523,528,535,532
551,519,524,538,533
537,517,510,527,506
531,516,508,527,493
511,502,488,510,526
500,498,491,504,530
497,498,505,501,509
486,498,511,491,563
505,498,503,493,567
510,503,489,494,549
513,507,497,503,532
515,506,503,500,532
514,507,506,505,496
518,504,499,511,495
520,499,477,511,504
533,513,497,524,504
536,516,485,531,487
527,514,504,533,491
527,511,505,531,499
530,514,512,528,501
521,511,515,519,508
499,502,504,510,545
500,499,501,494,554
489,492,500,494,559
491,493,502,502,534
498,495,490,499,509
498,493,473,504,498
511,497,475,518,499
510,500,495,499,511
508,498,506,500,508
521,511,536,516,503
535,524,548,519,506
540,526,551,510,504
542,527,550,516,489
536,521,559,538,479
531,512,547,540,486
527,514,555,546,498
514,508,550,533,514
498,499,526,518,530
492,498,521,508,532
495,497,503,494,528
495,498,503,494,529
494,494,504,493,526
503,495,504,497,524
505,499,530,500,510
511,506,542,511,504
515,507,541,519,500
524,512,536,527,496
531,517,543,528,495
539,519,548,529,499
534,519,544,537,514
531,521,539,536,518
525,517,530,527,524
516,517,520,527,514
503,507,509,521,496
498,499,501,514,496
496,498,500,505,503
494,494,500,500,515
492,495,503,498,522
498,496,507,500,516
499,500,512,504,552
502,499,514,501,543
505,496,521,511,518
512,504,523,515,514
518,508,528,526,518
528,516,531,524,511
537,520,533,534,491
535,519,530,545,509
536,523,528,529,498
522,516,520,524,525
521,514,516,523,531
502,502,501,508,525
495,497,497,500,522
494,495,496,499,515
493,495,498,499,501
495,496,501,498,495
499,502,507,502,504
496,499,510,500,522
493,501,513,503,542
507,503,518,506,547
523,507,523,515,516
526,515,531,528,498
543,521,533,533,483
550,521,534,538,443
544,519,529,544,426
534,518,524,535,472
519,519,521,520,540
504,506,507,512,571
494,500,499,507,556
494,497,496,501,556
490,494,494,497,537
496,497,499,497,532
502,497,503,497,524
507,500,511,508,521
505,499,509,498,530
510,501,515,502,507
512,503,519,512,512
525,509,528,523,516
530,512,532,523,505
537,521,530,531,497
541,525,534,538,494
534,521,534,538,500
522,515,525,527,527
516,516,521,531,522
500,502,505,511,525
495,496,498,506,526
486,494,494,499,521
502,497,495,498,517
509,499,500,499,521
502,497,504,499,528
503,500,514,504,518
506,500,517,501,528
505,498,517,500,535
511,501,520,510,513
521,507,519,523,508
532,516,528,533,505
539,523,535,535,506
541,523,538,535,505
537,522,533,537,508
527,518,523,531,517
517,513,511,522,525
500,499,493,506,526
493,496,489,498,512
499,496,492,490,505
497,496,495,495,510
496,493,499,503,513
502,494,505,508,499
503,496,511,513,511
504,497,514,518,513
514,500,519,511,517
519,508,526,496,514
530,515,522,503,525
532,522,532,519,518
536,524,536,527,503
535,519,532,526,498
528,518,523,540,507
519,514,520,542,495
517,509,513,527,481
500,499,500,509,469
490,496,496,503,516
489,493,496,503,534
497,496,499,503,517
499,498,496,501,535
504,500,493,496,530
507,500,505,497,530
509,505,524,510,526
512,503,531,519,525
521,510,540,531,520
529,515,543,535,513
533,517,518,523,522
539,521,527,533,520
535,519,521,529,511
524,515,521,530,504
514,511,520,525,512
504,500,506,513,524
492,494,497,502,527
493,494,496,498,524
489,492,498,495,528
499,494,503,492,516
504,495,506,497,514
506,498,514,503,524
508,501,521,504,524
512,505,526,505,518
518,505,531,509,516
521,507,521,513,521
541,516,519,522,506
548,520,532,528,491
545,520,530,535,479
539,519,532,539,496
529,515,521,531,503
518,511,517,526,508
494,499,501,507,521
485,498,494,498,523
479,497,499,492,517
481,494,504,497,505
486,492,507,496,511
490,493,508,495,511
505,497,510,502,504
518,501,508,505,511
527,502,514,514,508
532,507,522,520,492
535,509,525,526,508
545,516,529,536,520
549,521,536,539,502
529,523,537,540,537
512,521,534,539,555
511,518,526,532,567
497,509,512,512,598
484,498,496,503,556
486,491,493,499,523
497,491,500,500,479
504,493,503,500,477
506,491,502,500,487
511,496,506,504,495
519,503,509,502,481
525,502,518,511,485
524,504,524,518,502
526,505,519,509,507
537,510,516,505,510
537,517,523,516,520
534,521,525,518,526
532,521,529,525,533
526,513,521,524,497
518,511,515,517,486
510,502,505,510,497
498,496,497,519,517
493,495,499,512,518
498,496,501,507,517
494,495,506,506,529
498,497,508,502,520
506,497,511,504,502
511,498,514,508,491
506,497,512,505,491
516,502,521,510,497
528,511,520,516,508
536,517,525,521,506
541,525,527,528,498
537,520,517,528,495
528,516,518,527,491
527,517,532,531,488
522,514,528,534,500
504,500,506,516,529
498,497,499,504,529
498,496,499,500,525
489,499,505,496,546
486,500,508,496,548
489,498,511,502,539
500,500,515,505,527
499,501,517,508,525
502,501,523,507,522
508,503,524,514,501
524,507,523,519,480
533,516,528,528,472
540,517,534,541,473
540,518,530,543,485
528,515,523,530,497
532,517,516,524,508
525,508,510,517,515
501,499,499,507,520
495,497,500,501,516
498,496,498,499,518
501,498,501,499,511
499,500,507,501,516
510,500,510,500,518
503,499,511,497,532
508,502,514,500,526
507,505,517,501,539
517,506,526,515,529
529,512,543,534,504
532,518,552,552,502
534,524,552,559,506
534,519,524,533,509
524,513,507,525,516
522,511,498,516,527
518,500,486,502,504
503,493,481,492,503
500,494,487,471,505
488,492,513,481,530
486,492,523,504,523
481,498,530,520,524
497,505,526,520,519
496,497,482,510,505
501,500,505,518,474
519,502,513,510,453
529,512,525,511,465
536,513,527,519,484
538,518,529,529,498
535,519,529,537,515
525,517,525,532,522
518,515,519,527,525
511,511,513,520,524
497,500,504,508,531
499,497,496,503,522
492,491,492,500,522
496,495,494,498,527
497,495,498,497,511
506,499,506,501,497
509,502,510,501,497
510,501,513,500,512
513,501,515,506,513
515,505,521,513,516
525,508,523,520,509
537,515,532,529,500
541,519,532,537,482
538,519,530,535,487
533,517,524,530,495
522,514,516,524,500
519,510,511,518,500
508,504,500,504,497
500,497,495,500,512
495,495,496,496,519
499,496,499,497,521
497,498,502,497,554
499,497,505,497,554
502,500,509,499,526
513,500,511,504,510
514,502,517,511,527
522,508,529,518,517
522,512,524,519,500
527,516,530,528,496
527,522,536,532,510
527,519,527,535,503
525,514,520,530,495
521,513,519,531,514
504,504,504,513,540
491,497,495,502,548
486,496,495,499,551
487,497,498,498,543
491,496,500,492,525
498,496,501,497,502
508,500,508,502,497
508,499,510,500,503
517,503,515,507,510
525,506,520,512,501
531,508,521,517,494
531,513,526,524,503
531,517,530,531,510
540,520,531,537,501
539,522,528,535,502
534,517,521,526,500
520,515,512,523,502
495,502,502,509,530
492,497,496,502,537
496,500,500,500,522
487,493,495,497,503
480,488,495,494,525
503,498,505,499,536
509,500,510,501,530
505,500,512,500,536
505,502,516,506,520
513,505,520,514,487
519,508,522,519,475
537,516,529,529,476
539,520,533,535,484
535,519,528,535,489
536,517,524,533,486
525,514,516,528,502
515,508,509,517,512
496,499,497,506,530
491,497,494,498,542
490,498,497,496,543
494,496,498,494,530
501,496,498,495,522
511,501,508,501,510
523,501,512,503,498
525,502,513,504,482
522,508,522,512,499
517,508,524,516,520
517,511,525,521,525
523,517,531,531,522
531,523,534,533,504
536,520,532,537,484
527,515,523,528,505
516,511,517,521,512
508,503,504,512,519
497,498,495,503,522
494,495,492,499,520
494,493,496,496,516
497,499,498,499,515
502,498,503,500,519
506,500,508,501,510
513,500,511,501,517
520,508,516,506,518
526,505,520,511,513
525,510,525,520,509
533,514,530,527,506
542,519,532,532,518
540,518,528,532,498
537,519,528,537,496
517,516,521,530,508
509,512,516,525,520
497,501,501,510,524
485,497,497,502,521
488,496,497,500,504
491,496,499,498,495
496,494,498,499,501
501,496,504,498,505
504,498,509,502,493
505,500,512,505,517
506,502,516,506,521
514,503,518,517,518
526,511,525,520,512
530,515,528,527,504
536,519,531,535,498
536,519,528,535,492
536,520,526,534,489
524,516,521,527,493
518,515,516,521,506
502,501,500,507,528
497,497,499,504,530
497,497,497,499,530
495,498,501,499,517
493,494,499,495,519
506,500,508,502,511
508,499,511,501,511
511,501,514,505,516
513,501,517,507,515
525,508,522,516,501
530,510,524,523,493
535,514,528,528,483
534,520,528,531,495
533,520,529,536,498
530,519,525,531,509
518,510,517,524,518
501,505,505,514,525
488,499,498,505,521
491,497,496,500,531
496,496,497,499,493
501,496,500,499,487
502,496,503,497,506
507,499,508,501,506
503,500,512,506,516
508,502,515,505,514
510,502,518,510,515
519,509,524,519,507
527,513,528,525,500
540,519,532,532,499
543,520,530,534,498
544,522,529,535,501
531,516,520,527,509
525,514,518,525,521
506,504,504,512,534
492,497,497,502,542
481,496,496,498,536
486,496,497,499,521
493,494,498,495,510
500,496,504,499,517
509,502,512,504,517
509,501,513,504,513
515,501,515,506,510
521,505,520,513,505
526,510,526,521,501
533,515,532,531,498
535,518,534,537,488
534,519,529,535,494
531,524,526,532,487
526,515,518,525,498
518,513,509,524,505
499,500,499,507,525
494,496,494,500,533
493,495,496,499,532
495,499,497,502,519
496,495,501,497,514
503,500,510,502,512
505,499,515,503,511
507,501,514,505,514
512,506,523,512,510
521,507,527,517,507
525,515,525,522,503
532,516,531,534,497
541,520,536,537,491
538,520,529,537,496
533,517,521,529,500
527,516,519,529,510
513,507,507,517,527
497,500,499,506,542
491,499,500,504,544
487,495,498,498,520
494,502,507,501,513
494,494,500,495,506
505,502,512,501,523
514,501,513,507,499
509,501,516,510,489
515,502,521,518,504
517,508,523,519,516
526,514,529,525,510
532,518,531,534,497
532,520,531,534,490
532,520,530,535,495
532,515,519,529,494
523,511,513,523,510
505,505,503,513,543
494,502,502,504,544
492,496,496,501,528
493,495,498,497,525
495,498,503,500,526
499,499,507,501,524
501,503,512,506,524
503,499,512,504,503
507,502,516,508,486
518,502,520,513,484
526,510,525,522,484
534,515,529,528,488
544,518,532,533,493
545,519,528,532,500
533,520,527,532,528
524,512,516,527,529
519,510,512,520,529
498,500,499,506,540
491,495,495,499,538
490,495,496,499,526
494,497,500,499,525
499,496,502,498,523
505,499,507,501,513
511,499,511,504,500
512,501,514,506,500
516,502,518,510,505
523,506,525,516,502
523,510,525,524,500
529,515,529,530,493
535,518,530,534,491
535,522,525,534,488
530,516,522,531,496
521,511,516,526,498
510,502,506,519,514
500,500,499,507,522
489,495,496,500,530
495,495,496,497,530
494,497,499,498,525
498,497,504,498,524
504,499,506,504,518
507,499,511,502,512
510,501,515,506,515
515,504,520,510,519
520,507,522,521,519
525,512,526,523,517
530,517,531,530,519
534,520,530,534,507
538,523,528,533,511
527,515,520,531,494
517,510,513,524,502
503,501,500,512,509
496,498,497,503,520
497,496,498,498,508
499,495,496,496,498
498,495,498,496,505
500,498,505,499,514
502,499,510,500,520
507,501,511,502,518
515,505,518,505,511
518,504,521,512,509
525,509,523,519,505
533,518,526,526,488
537,520,532,534,482
530,518,528,535,487
527,517,525,535,489
522,516,520,530,501
517,513,515,524,517
501,503,501,509,537
489,496,497,499,542
492,497,500,501,542
490,494,498,497,524
492,495,499,495,528
501,498,507,503,525
507,504,514,508,523
514,501,512,505,512
520,503,516,508,510
526,507,522,516,508
528,510,524,521,505
537,517,529,529,502
540,521,531,534,494
532,520,531,539,491
520,517,522,533,485
515,518,521,530,498
503,509,512,521,509
489,498,498,508,529
491,497,496,499,537
494,498,503,501,513
499,498,500,502,493
505,497,501,497,508
511,500,507,499,528
514,502,512,503,529
515,501,514,503,528
516,504,519,510,532
514,507,523,518,511
520,511,528,529,471
527,517,530,531,484
533,524,532,538,485
534,523,530,538,491
531,517,522,532,505
518,515,520,531,528
497,499,498,509,537
494,495,498,509,529
493,495,495,502,518
496,495,497,499,512
496,495,504,503,519
500,495,502,501,518
505,498,507,501,517
506,500,510,504,527
506,501,514,503,525
515,504,519,514,513
522,508,522,517,503
536,516,530,526,497
537,520,532,533,494
536,518,528,534,496
534,520,526,536,496
524,514,518,528,502
521,512,515,525,503
502,502,502,511,525
495,495,496,503,535
495,501,502,502,529
495,492,499,500,520
498,500,501,504,508
504,500,507,503,506
506,504,515,503,515
508,501,513,506,512
514,505,519,512,512
519,507,522,516,515
522,509,524,521,515
532,518,534,533,509
540,521,535,538,502
535,521,528,535,498
531,519,524,532,506
519,514,517,525,513
509,506,506,515,522
498,499,497,506,527
496,497,497,502,531
494,497,498,499,530
492,496,500,498,526
497,496,502,497,524
503,499,508,500,517
508,499,511,501,512
507,501,515,503,514
517,505,520,509,514
528,511,526,518,512
527,510,527,522,506
532,518,531,531,498
535,520,530,533,498
531,520,527,533,491
527,517,522,531,499
517,514,517,525,505
506,503,503,513,524
496,497,503,508,531
497,498,498,501,535
495,496,498,498,531
494,495,500,497,527
500,497,504,500,510
506,501,512,504,505
504,499,512,504,507
508,503,516,508,514
513,508,518,515,529
523,509,523,518,514
535,516,530,527,507
539,519,531,531,499
542,520,529,534,495
534,518,525,532,491
525,514,518,528,501
513,510,513,523,503
498,500,500,510,517
495,500,499,505,532
492,495,494,497,529
495,495,498,496,523
495,497,502,498,528
500,503,508,502,512
504,500,511,500,501
504,501,513,503,508
511,504,520,510,513
516,509,525,519,513
524,508,524,520,501
534,516,527,527,511
542,518,529,532,504
539,518,526,533,508
533,517,523,531,501
524,512,514,522,509
514,503,507,517,510
498,496,494,511,525
493,496,496,498,520
495,495,500,498,516
496,494,499,499,503
498,497,503,500,500
506,501,510,505,504
503,502,515,505,518
506,501,514,506,535
506,507,519,513,531
521,509,525,519,511
523,512,525,523,505
531,518,529,530,511
541,522,532,534,497
542,522,530,535,498
533,521,521,529,509
525,513,515,523,512
503,503,504,509,514
487,496,495,501,516
490,495,495,500,514
489,495,497,500,511
489,496,502,500,512
497,495,502,497,522
504,499,509,501,519
507,500,512,504,517
514,506,515,510,518
520,509,523,517,520
524,510,526,520,512
526,514,528,524,504
529,522,529,530,493
533,518,529,534,493
532,519,530,538,498
528,517,520,529,511
515,513,515,524,519
498,498,498,509,538
493,496,496,500,538
496,497,499,500,529
498,499,502,501,526
502,498,504,502,507
507,499,508,502,506
509,497,507,499,508
505,499,514,503,519
507,504,519,509,531
518,506,523,514,529
522,509,525,522,499
533,515,530,531,477
537,519,533,534,478
531,519,533,534,493
529,518,527,533,507
521,517,524,532,518
513,508,512,520,522
498,499,501,508,527
491,495,497,501,525
493,499,497,499,520
495,501,504,501,519
498,497,504,496,527
502,500,509,501,521
506,502,515,507,525
507,501,515,512,512
513,502,518,512,499
524,507,523,518,502
528,513,531,530,508
533,516,530,530,499
536,523,535,534,499
537,521,529,536,500
525,517,521,531,507
518,511,515,525,509
504,503,502,513,517
497,496,497,505,522
494,496,497,500,526
493,495,496,496,529
497,497,501,498,532
494,494,501,496,530
503,499,514,502,516
507,497,511,508,509
511,503,519,505,508
514,504,520,512,504
523,508,523,517,498
531,514,528,526,494
540,519,532,537,494
539,520,530,535,497
533,519,530,537,499
525,515,519,529,504
518,511,514,524,510
507,502,502,511,523
494,496,496,504,524
495,496,496,501,528
494,496,497,498,528
494,497,497,493,524
500,497,503,502,519
502,500,510,503,515
506,501,514,505,513
514,504,518,510,509
520,507,522,516,509
524,510,524,522,502
531,515,532,533,501
537,520,532,535,498
532,518,525,533,510
529,519,524,534,518
525,514,518,528,519
518,510,511,523,520
500,499,498,507,520
495,497,497,503,508
495,490,495,498,512
494,493,497,494,521
495,496,502,499,538
497,500,510,501,536
509,500,512,502,513
506,500,511,503,509
513,498,518,510,517
519,509,521,518,498
525,513,525,522,500
533,516,529,529,501
534,519,530,532,510
532,520,528,533,500
528,518,523,530,516
517,513,515,524,521
505,503,502,514,522
496,497,496,504,525
494,499,496,498,526
493,496,495,495,527
492,497,502,495,522
500,499,505,501,519
506,502,512,504,514
509,500,512,503,514
513,502,515,505,515
516,505,519,509,516
524,508,524,518,511
533,515,529,526,505
536,520,530,531,503
541,523,531,534,500
538,520,528,534,500
527,516,519,527,505
519,512,512,521,504
501,500,500,509,521
487,495,493,501,518
485,495,495,500,517
498,496,498,499,514
498,493,497,501,519
501,498,505,497,513
506,503,514,504,511
506,503,513,505,514
510,503,518,510,506
516,506,522,516,500
523,510,523,521,499
531,515,529,527,500
534,517,529,530,498
534,520,529,533,503
532,521,526,532,509
522,515,517,525,515
514,513,515,524,523
501,500,500,508,531
494,497,501,507,532
495,496,497,499,526
495,496,498,495,515
497,497,502,495,521
504,499,508,499,516
507,501,512,501,513
510,501,513,503,520
513,504,519,507,518
520,510,524,515,512
525,511,527,521,509
536,518,535,533,498
536,524,532,537,491
536,526,529,536,492
527,516,521,530,493
524,513,517,526,502
505,499,503,514,521
498,500,498,505,525
493,496,496,501,524
491,494,496,498,525
495,495,500,497,530
498,498,501,504,533
503,499,513,506,529
504,500,517,511,527
506,503,519,513,519
513,508,523,520,498
519,508,522,513,494
528,513,522,513,488
534,519,529,527,492
536,521,529,533,500
529,520,526,532,514
522,517,523,531,523
517,511,516,522,525
499,500,501,508,535
490,496,497,501,528
491,495,496,497,532
494,496,498,496,533
499,496,500,499,525
502,496,504,502,497
506,498,509,506,490
512,502,516,507,507
516,503,519,510,512
519,506,521,514,508
522,507,521,518,495
532,515,531,531,484
535,521,532,535,479
533,521,529,535,486
527,517,523,532,512
523,515,518,527,526
514,512,509,524,523
500,501,500,509,533
493,499,498,504,529
495,496,498,499,515
497,497,499,502,529
499,498,502,499,523
506,502,509,504,516
502,499,511,502,516
512,502,514,506,514
517,503,517,509,515
522,508,523,517,504
527,512,525,522,506
534,518,531,529,512
536,519,531,532,512
529,520,530,536,524
526,518,524,530,529
518,516,519,525,531
507,508,507,513,531
498,498,497,502,536
493,500,498,503,539
495,497,499,500,528
492,498,500,499,517
498,496,502,498,493
506,501,513,502,500
506,499,510,503,503
506,503,516,508,501
514,503,519,514,491
521,509,524,522,492
529,513,528,526,493
530,518,534,532,489
535,521,531,535,492
531,518,525,533,492
525,518,524,529,506
519,512,516,526,520
502,503,503,510,539
490,498,496,502,547
491,497,496,498,542
496,496,498,497,543
496,496,500,499,513
500,498,505,500,512
507,502,512,505,507
510,501,512,504,506
511,503,517,508,513
514,506,520,514,511
519,510,524,520,508
534,517,530,532,507
536,521,536,538,497
538,524,529,533,494
536,520,526,533,496
524,516,519,527,504
519,511,511,522,514
503,501,500,508,533
495,501,499,502,531
496,497,497,500,524
496,496,499,498,521
493,492,502,501,520
499,500,508,503,512
503,504,515,508,512
506,501,510,505,512
519,504,519,512,508
523,509,525,517,504
525,512,526,522,502
533,518,531,531,502
537,521,532,536,504
532,520,527,534,508
528,521,520,530,514
527,516,518,526,529
510,506,505,513,533
497,499,496,504,524
496,497,496,499,522
496,497,497,499,513
497,493,499,498,515
497,496,502,498,511
505,503,509,504,508
507,498,509,508,508
511,506,521,509,506
518,505,520,515,498
522,509,523,520,491
530,515,529,526,496
534,518,530,530,500
536,520,529,532,507
532,520,527,530,510
525,517,522,529,515
515,514,516,528,510
505,504,503,515,520
496,499,497,506,526
493,497,497,501,519
495,497,497,497,517
497,495,499,496,516
502,499,506,504,515
509,502,513,505,513
512,497,513,505,512
520,504,516,508,508
522,506,521,515,493
523,508,522,518,493
535,516,529,527,488
541,518,533,534,500
535,518,529,533,511
524,518,524,532,530
517,514,519,529,529
513,508,512,521,522
497,500,500,508,528
489,499,497,506,530
492,499,502,503,525
496,497,505,501,521
495,499,503,500,520
499,498,509,506,514
503,499,510,503,534
503,504,513,510,531
512,500,520,515,508
522,512,528,523,505
524,511,525,523,506
529,516,528,527,502
534,518,531,532,500
531,520,528,535,507
533,518,524,534,509
523,514,518,527,514
508,505,506,516,520
502,499,498,509,524
497,497,498,502,524
498,497,498,499,529
495,493,502,496,530
494,495,502,498,525
501,500,510,504,515
504,499,512,508,512
514,504,518,510,513
516,505,521,513,509
521,510,524,520,500
526,511,526,524,496
530,516,529,530,493
534,519,528,532,497
535,520,528,534,497
528,517,521,528,502
523,514,516,525,511
509,505,501,511,531
499,497,497,502,544
494,496,496,497,551
494,499,499,499,549
498,497,501,499,524
500,498,505,501,522
506,499,509,502,513
512,502,513,505,509
509,506,521,509,502
518,509,523,515,497
529,511,525,521,497
533,515,528,528,493
536,518,531,535,493
535,520,529,535,497
531,519,525,532,497
523,514,518,525,510
518,512,513,521,511
500,499,498,509,526
495,497,494,502,529
496,496,496,500,527
496,498,499,500,528
497,497,501,498,527
505,500,507,502,520
511,500,511,503,516
509,501,514,508,495
516,503,518,508,517
520,506,523,515,528
526,515,526,522,530
532,518,531,529,532
533,523,535,537,519
533,518,530,532,494
530,522,526,535,492
521,514,517,528,495
508,506,505,517,504
500,500,498,508,513
495,498,496,502,520
493,497,498,499,522
495,498,502,500,512
497,499,507,502,508
499,500,508,502,513
507,501,510,501,509
509,503,515,506,512
514,504,519,511,511
523,509,525,519,512
529,513,527,524,509
535,517,529,534,504
538,520,531,534,501
534,520,527,534,500
529,515,519,528,496
526,514,516,525,506
503,499,501,509,524
490,498,498,504,533
488,497,499,501,527
490,496,501,500,521
495,494,500,503,518
497,496,500,496,516
508,500,507,500,513
509,500,512,503,513
512,502,516,508,512
515,506,521,515,514
527,510,525,522,509
529,514,528,526,499
533,519,531,533,500
529,521,530,539,508
530,523,527,532,505
521,514,518,528,513
516,516,519,528,521
500,501,500,510,527
497,498,496,501,527
493,497,497,499,524
497,496,500,499,517
498,497,501,496,516
505,498,506,498,527
507,500,510,500,523
510,502,514,504,523
515,506,520,511,519
521,509,524,517,519
524,513,524,522,518
529,515,530,531,515
532,519,531,535,498
531,519,527,532,494
535,519,525,533,488
526,514,516,527,491
516,509,509,519,511
500,499,497,506,517
492,496,495,502,512
489,494,495,499,542
494,496,499,496,533
493,494,504,499,525
500,498,508,499,508
503,505,516,510,502
508,504,517,506,525
513,505,520,510,524
518,509,523,517,512
523,513,526,526,503
531,518,529,533,488
536,521,530,537,483
532,520,526,534,499
525,516,520,528,507
521,512,516,525,515
502,505,501,509,545
493,498,495,502,547
493,495,496,505,540
493,494,499,506,533
494,499,503,505,512
499,497,504,505,520
511,502,510,506,516
514,502,511,499,505
516,502,513,496,504
519,505,519,509,493
521,507,523,516,496
528,511,526,523,508
532,517,528,529,507
535,520,529,533,502
533,522,527,534,507
522,518,514,529,510
518,512,514,525,507
501,501,503,509,523
498,496,495,501,531
492,498,497,498,533
492,496,499,497,531
495,494,499,494,529
503,498,506,500,524
507,501,512,506,500
511,502,515,506,504
513,501,517,507,512
519,508,523,515,504
527,511,529,524,504
530,517,529,527,500
537,520,532,534,505
536,521,529,535,515
530,519,524,530,515
522,514,518,527,505
512,507,509,521,515
498,500,499,513,531
497,498,498,503,524
491,494,495,499,518
495,495,499,500,513
500,497,502,499,510
507,504,511,501,512
507,500,515,505,521
510,503,519,506,527
514,504,523,510,528
519,507,526,518,516
524,508,521,522,507
534,518,527,530,501
541,522,531,538,489
540,523,528,537,492
529,517,522,531,503
518,516,517,530,514
505,504,503,513,529
494,500,501,504,535
492,497,497,502,534
493,496,495,503,524
499,497,501,500,516
503,497,505,501,512
510,499,510,502,510
508,497,512,504,506
510,501,516,508,508
516,505,521,514,514
522,510,525,521,514
525,513,529,528,501
535,518,532,534,494
538,520,530,535,491
535,521,528,536,489
525,515,520,529,504
518,511,514,522,522
501,501,501,510,534
494,497,497,503,538
487,495,496,499,534
493,500,503,502,527
495,496,502,497,522
500,499,508,501,515
504,502,512,502,512
509,502,515,506,515
510,502,517,508,512
516,506,522,516,507
526,510,526,522,507
530,515,530,528,520
535,520,532,534,511
538,519,528,532,494
535,520,526,533,494
524,518,518,524,503
518,509,511,517,522
497,504,504,510,548
492,497,498,500,535
492,495,497,498,527
497,496,499,498,515
499,496,502,498,512
502,500,510,503,510
503,500,513,505,509
505,500,514,507,512
511,503,519,511,511
521,508,525,517,500
532,513,527,524,494
534,519,530,532,489
536,524,531,535,498
532,521,530,539,506
525,516,521,529,511
518,515,517,524,523
504,503,502,513,507
493,497,496,503,522
489,498,498,504,521
493,496,497,500,515
493,496,502,499,517
496,496,504,500,514
504,501,511,503,511
507,503,515,504,506
515,503,516,506,507
519,504,519,512,511
525,509,524,517,515
531,514,532,521,518
533,518,530,529,499
534,520,527,532,498
530,519,527,534,502
521,514,518,526,514
519,514,517,524,522
504,502,505,510,524
499,497,499,503,524
495,497,498,499,525
495,495,500,498,526
497,495,501,497,523
505,498,506,499,518
506,501,512,503,524
507,501,514,505,518
512,504,519,509,504
517,507,522,515,508
523,512,526,520,514
529,516,529,527,504
534,519,531,532,493
533,519,527,530,499
529,517,523,530,511
523,517,520,530,522
517,513,515,519,531
500,500,498,506,547
496,496,493,505,533
492,494,494,495,528
497,497,499,497,517
496,498,503,500,497
502,501,507,499,498
507,501,514,506,504
510,507,519,506,510
515,506,521,509,520
521,507,523,515,517
527,511,526,521,511
532,518,531,529,509
538,523,532,534,500
535,521,529,534,500
528,517,522,530,500
520,514,517,525,498
504,502,502,511,514
497,498,498,506,527
492,496,497,500,530
491,495,496,497,529
491,495,499,496,527
496,497,505,498,533
502,501,510,501,532
507,504,510,506,525
511,504,516,508,497
521,507,522,514,497
522,510,526,521,487
532,518,531,528,491
538,520,533,536,494
536,519,529,537,508
530,521,528,534,518
525,516,522,529,515
518,514,515,524,516
502,500,500,507,520
495,496,495,502,512
500,497,497,502,513
499,493,497,502,518
499,495,499,496,514
499,497,505,500,509
506,501,513,506,507
508,501,514,505,513
513,503,516,509,518
520,506,520,514,512
527,511,524,520,508
536,517,530,529,502
541,520,534,538,505
536,520,528,534,501
534,518,524,532,500
526,515,519,529,509
512,514,516,522,518
495,499,499,508,523
495,498,497,504,524
490,496,497,498,516
493,495,500,498,514
495,496,504,497,528
501,499,510,501,535
504,499,517,505,529
503,499,514,504,521
509,501,511,511,518
517,509,522,521,504
525,510,524,524,498
530,516,528,530,494
539,521,531,534,502
538,520,527,534,505
527,517,520,530,506
519,514,515,529,522
506,503,504,512,527
500,497,495,505,532
500,498,497,500,533
494,495,496,497,528
497,498,502,501,515
500,496,503,500,509
503,496,509,503,512
510,500,513,504,514
508,500,518,505,529
515,506,520,512,530
523,509,525,520,509
530,515,528,526,505
533,518,531,532,508
531,521,530,535,515
531,521,529,536,514
518,515,519,526,517
515,512,515,524,500
502,502,501,510,496
497,498,496,502,510
497,496,500,504,505
497,496,498,497,522
499,495,500,498,521
506,497,505,500,511
510,499,509,503,504
510,502,515,506,508
516,503,518,508,507
520,505,520,514,505
524,509,523,518,505
531,516,529,527,502
535,524,531,533,501
535,520,530,535,508
531,519,525,533,508
522,516,519,526,520
512,507,509,517,531
500,502,500,508,532
491,495,495,500,531
492,495,497,499,532
495,497,501,499,525
495,496,502,497,521
503,504,513,505,519
509,502,513,503,515
511,501,514,505,512
514,503,518,510,503
522,508,523,518,496
529,512,527,524,500
535,516,531,533,496
539,521,532,537,498
534,519,526,534,503
529,518,523,530,510
524,513,515,524,515
506,504,503,512,524
495,497,495,503,533
492,496,493,500,528
491,494,494,496,524
497,494,498,498,517
500,496,501,497,521
504,499,508,502,521
506,502,513,506,510
515,505,518,512,498
519,505,519,514,505
525,510,524,520,511
527,514,524,525,506
534,520,531,535,500
537,521,531,536,504
530,521,524,532,509
527,518,521,530,513
516,515,515,526,515
503,501,500,511,524
491,497,495,502,519
488,496,496,501,512
497,499,502,500,509
495,494,500,499,507
501,495,504,500,503
507,502,512,504,524
509,503,514,504,527
510,506,518,507,517
518,506,521,514,506
527,511,526,521,506
533,517,531,528,507
538,520,533,533,514
536,522,530,535,526
532,519,525,533,501
521,514,520,530,511
517,515,511,522,511
504,501,499,507,527
494,496,495,500,524
495,496,496,498,507
495,498,500,499,510
497,497,502,498,516
501,501,508,499,520
505,501,512,502,516
506,499,515,506,515
510,504,518,510,524
522,507,522,516,513
523,511,524,521,508
530,520,527,529,497
538,521,532,535,495
533,521,530,534,499
527,517,522,531,501
521,514,512,526,507
506,503,503,512,526
500,498,496,503,533
495,497,496,498,535
494,496,495,498,533
495,495,498,494,522
499,495,500,499,503
506,500,509,506,489
509,500,512,508,486
513,507,519,508,504
514,505,520,512,523
520,508,524,517,519
527,513,528,524,514
534,518,530,530,501
536,521,531,536,504
533,520,527,535,506
526,515,519,528,508
520,512,515,523,521
502,502,501,508,540
492,497,496,501,545
489,497,497,500,538
493,496,500,498,530
497,497,503,499,523
499,497,505,499,514
507,499,511,506,515
509,500,514,505,511
513,501,517,507,513
519,505,521,514,509
525,510,526,521,498
534,517,533,530,493
538,518,534,533,493
537,521,533,536,502
531,519,526,532,507
523,516,517,528,512
514,511,511,520,518
500,501,500,510,522
493,497,496,501,528
493,494,496,500,520
502,498,500,502,511
498,495,498,502,518
505,500,507,501,520
509,501,509,502,512
511,500,514,505,510
509,503,518,511,507
520,509,524,519,510
523,512,525,523,513
530,518,530,530,509
531,521,532,536,508
534,523,530,538,518
526,518,523,532,515
519,514,517,526,509
505,504,506,515,522
494,499,499,508,523
491,498,498,502,527
491,496,498,498,526
498,497,501,500,524
496,497,504,500,511
504,502,511,504,512
505,498,509,503,508
513,503,514,508,509
518,503,518,513,510
523,509,524,519,505
533,512,527,526,498
535,519,532,534,501
536,519,529,534,502
539,520,531,538,508
526,517,522,530,509
525,514,517,526,514
506,501,500,510,526
495,496,496,506,535
494,498,497,500,531
492,497,502,499,528
489,496,501,498,526
497,498,505,500,523
507,506,511,503,507
510,501,513,504,508
514,502,516,508,509
519,507,522,516,505
522,510,525,521,508
528,515,528,527,509
535,522,533,536,504
535,521,531,536,502
527,519,524,531,499
520,514,518,527,504
513,512,513,522,504
500,500,499,507,518
491,500,495,501,524
495,496,496,497,526
494,497,499,495,532
499,498,501,495,533
505,499,506,499,517
508,501,510,500,526
513,502,514,505,521
520,503,518,510,512
522,509,526,521,501
526,511,524,520,505
533,517,529,526,515
535,519,534,535,507
538,521,529,532,510
530,517,521,529,512
525,513,517,527,506
512,506,507,518,520
502,498,497,505,525
498,494,496,505,515
497,497,498,500,517
495,497,501,499,516
496,497,503,498,524
501,499,506,500,523
502,501,513,504,520
508,504,517,508,514
513,503,518,509,507
520,507,523,518,494
530,514,529,527,497
534,520,533,532,498
542,521,532,539,500
532,520,524,534,506
524,518,519,530,518
522,514,517,527,528
504,506,506,516,526
496,497,496,506,507
494,497,496,502,519
495,497,498,498,529
497,497,500,495,539
499,497,504,497,541
504,502,511,502,528
505,501,512,504,510
509,503,518,510,513
517,505,520,513,507
525,510,524,520,500
532,516,531,530,498
534,519,531,534,493
535,521,530,537,496
530,520,527,535,499
521,514,519,529,506
513,512,515,525,518
502,501,501,510,526
491,495,494,502,529
495,496,496,500,533
491,497,499,499,524
494,495,500,495,515
499,499,506,499,517
505,502,512,502,515
509,499,511,504,510
513,504,521,512,517
520,509,524,518,516
523,510,526,520,510
532,518,531,531,504
538,519,534,537,499
536,519,528,535,494
532,519,523,532,499
523,513,518,527,507
511,506,509,516,526
499,501,504,506,534
494,498,501,502,534
494,497,499,499,531
497,497,498,498,527
499,497,501,498,522
506,501,507,501,507
506,503,514,505,510
511,503,515,509,508
515,505,520,513,510
524,508,524,520,518
526,518,528,526,508
532,519,532,533,497
536,517,530,534,492
533,518,527,532,488
532,518,521,530,495
526,514,518,524,497
508,501,500,508,521
497,496,494,503,548
492,496,495,501,537
492,498,497,496,533
492,495,499,495,530
495,498,506,500,529
507,502,512,504,519
506,501,512,503,520
510,504,518,509,514
514,506,521,514,509
524,509,524,520,503
528,516,529,530,505
531,520,532,534,509
531,520,530,536,514
532,520,526,534,524
525,516,520,530,514
517,511,512,522,515
498,497,496,511,528
493,497,495,499,529
494,497,497,498,522
496,498,500,498,519
496,495,501,495,525
499,497,507,498,523
504,501,512,502,519
506,506,517,508,518
510,501,516,504,514
516,507,522,515,504
524,508,521,523,496
535,518,529,530,506
539,520,531,534,507
537,520,528,532,510
532,515,522,530,515
523,515,517,525,505
510,506,507,518,500
501,499,497,507,506
499,497,496,502,521
499,496,496,503,528
499,497,499,497,518
499,497,503,497,525
504,500,508,500,520
509,501,513,504,515
509,501,514,505,512
515,505,521,512,511
522,508,524,518,506
528,514,528,526,502
538,519,531,533,490
537,519,530,534,479
532,518,525,533,496
524,513,520,528,509
517,514,516,523,522
500,505,503,509,545
496,499,496,502,542
492,497,495,499,533
494,496,496,498,529
499,499,497,493,532
504,502,504,498,537
511,500,508,501,509
512,501,513,504,513
514,503,516,507,510
519,505,519,510,512
526,513,528,523,499
529,515,528,526,490
531,519,531,534,495
527,518,528,534,495
527,521,530,534,499
519,516,519,526,505
514,514,515,523,510
496,501,499,511,523
489,495,493,501,524
491,496,495,499,523
495,497,500,498,519
497,500,503,497,517
501,499,505,500,515
512,503,512,503,512
509,503,514,506,510
516,505,518,510,510
520,507,521,513,506
525,511,524,521,507
534,518,531,530,509
536,520,531,533,507
533,523,528,536,516
527,517,523,532,509
524,516,519,527,505
513,508,509,518,513
499,500,498,505,525
495,496,497,501,523
495,495,497,499,521
495,501,500,498,518
496,496,502,498,510
505,498,506,503,512
504,500,511,504,509
509,503,519,507,506
513,503,519,510,515
521,508,524,517,517
528,512,526,524,505
535,518,532,531,509
535,523,529,534,505
530,518,525,532,510
524,516,520,529,513
520,512,515,524,519
503,502,502,510,530
494,498,496,501,533
493,496,496,501,522
497,497,498,498,520
500,498,500,496,520
502,498,507,498,524
509,499,508,500,527
508,499,512,500,531
511,502,515,504,534
518,507,521,514,522
524,510,524,521,502
530,516,529,529,491
533,519,531,533,490
534,520,530,534,497
534,521,527,534,496
521,515,518,528,500
519,513,514,524,512
504,505,504,511,524
497,497,494,501,528
496,497,496,498,532
498,495,499,502,525
501,499,503,498,523
501,498,505,502,523
500,499,510,501,524
502,505,513,505,523
509,501,516,507,514
520,507,523,516,488
529,511,527,522,486
537,517,532,529,492
538,518,533,534,490
535,519,527,529,495
532,519,523,531,503
525,514,515,525,507
508,507,508,518,506
499,502,497,508,515
495,495,497,504,521
501,498,499,500,522
498,498,500,498,526
494,499,504,500,531
499,500,507,499,530
503,501,511,502,526
515,503,516,507,528
511,505,519,511,520
519,508,525,520,509
525,512,529,527,499
529,516,529,530,501
538,521,532,535,503
529,519,526,533,500
524,516,522,530,503
517,511,515,525,505
504,503,503,514,524
495,498,496,505,524
493,496,494,500,525
498,497,497,498,511
498,497,500,497,514
498,496,502,496,515
505,505,514,503,513
506,504,516,503,516
509,501,516,505,523
518,504,520,511,519
523,512,528,523,516
535,515,529,527,505
534,520,534,531,504
535,519,531,536,501
529,522,524,532,500
527,517,522,530,503
518,512,516,520,512
502,501,501,510,528
493,501,497,505,535
490,497,497,498,536
489,495,498,496,523
491,497,502,497,517
500,493,507,499,505
506,502,514,509,502
506,500,513,508,491
518,503,518,511,491
528,508,523,517,502
527,515,525,523,505
535,516,530,529,512
539,519,531,533,505
537,521,529,535,508
531,517,523,531,504
523,516,519,529,515
514,508,510,519,524
500,501,501,506,530
492,501,499,506,517
493,500,499,500,526
495,502,502,499,532
496,497,505,497,521
502,499,508,500,516
509,501,512,502,522
511,504,517,507,517
516,503,518,509,515
522,508,524,519,508
534,513,527,524,501
538,520,533,533,496
538,520,533,536,493
531,519,526,532,500
522,516,520,528,503
519,517,518,527,509
507,505,506,519,530
496,498,497,505,535
493,497,498,505,524
495,496,495,496,523
494,496,499,499,517
497,497,503,499,517
504,503,515,504,520
506,502,511,502,521
508,503,515,505,526
515,505,519,512,522
523,511,525,520,518
530,520,528,526,514
534,519,531,533,500
535,517,527,533,480
533,519,527,534,489
524,517,520,533,508
516,511,514,522,511
504,503,503,511,520
497,498,497,502,527
494,497,497,499,526
494,496,498,501,509
498,498,500,502,507
503,499,505,506,506
507,503,511,507,507
512,502,513,508,509
518,503,517,509,509
520,508,522,514,520
525,510,524,518,531
533,517,529,527,518
535,520,531,531,504
534,520,527,532,508
527,518,523,530,519
519,515,517,526,519
518,511,512,521,525
495,499,497,504,527
492,496,495,500,528
489,495,495,497,526
494,499,503,501,519
493,496,507,499,518
496,498,511,501,528
509,502,515,503,522
510,503,513,507,513
514,503,512,510,516
521,509,524,517,508
528,514,534,525,505
532,517,529,530,501
536,521,539,540,503
534,520,534,535,504
527,518,526,532,508
520,514,505,524,510
505,505,501,511,526
496,500,502,509,530
494,497,497,497,528
495,496,497,497,526
500,498,495,498,524
502,497,500,497,523
512,501,507,502,518
509,500,508,509,516
511,499,512,509,524
516,509,524,512,519
522,510,525,525,509
531,516,530,529,500
534,519,534,534,496
537,520,531,537,492
531,519,526,531,509
523,518,522,527,522
516,513,517,523,522
502,503,503,510,523
493,497,498,503,525
494,498,501,502,533
490,496,498,501,517
492,496,496,497,519
498,502,507,500,525
503,501,510,503,525
507,503,514,507,516
510,503,517,504,518
518,506,519,515,522
527,510,524,520,500
533,515,531,529,502
537,520,531,533,502
534,516,524,536,503
528,518,524,534,509
522,516,519,528,516
520,511,513,523,523
498,501,501,510,519
491,497,497,502,523
496,495,497,498,525
493,495,499,494,521
498,500,507,501,518
500,497,505,499,511
509,502,512,505,489
510,500,513,505,493
514,503,522,511,499
526,509,525,520,494
529,513,526,525,496
535,518,531,532,499
534,520,532,535,492
534,519,527,533,501
527,516,522,530,503
519,515,518,529,507
503,503,504,514,527
495,499,499,506,537
498,496,495,501,529
496,496,496,498,531
502,497,500,495,526
503,497,503,495,523
506,500,508,502,529
507,501,511,502,526
514,503,517,508,511
520,505,520,517,502
525,508,523,517,509
532,514,528,526,506
539,520,533,534,507
543,521,531,535,510
534,519,525,532,515
523,512,517,525,520
515,511,513,520,523
502,501,502,512,528
492,496,493,506,523
493,497,497,500,521
496,497,498,498,523
493,495,499,495,520
496,497,504,500,509
503,500,509,504,507
508,503,515,507,510
515,504,518,511,514
516,506,521,515,508
525,514,525,526,506
535,517,530,529,503
541,519,531,533,492
537,519,528,534,499
533,519,525,533,505
527,514,519,527,508
515,510,511,520,519
498,500,500,507,534
489,498,497,505,525
487,496,499,500,529
489,498,500,499,516
491,493,499,494,527
498,497,505,498,524
503,504,514,505,516
504,502,513,505,512
510,504,518,511,512
526,508,523,517,498
536,513,527,525,499
537,516,530,530,498
542,521,532,536,501
537,520,528,534,510
530,517,523,530,510
521,511,518,525,513
509,504,504,519,517
499,500,497,510,519
497,498,498,503,525
496,496,499,499,523
496,499,505,502,524
497,498,505,497,528
503,500,509,498,520
509,502,513,503,522
512,501,517,508,517
517,505,520,514,501
525,512,525,519,503
533,513,528,524,503
535,519,532,531,500
536,521,531,534,491
532,519,526,533,493
525,516,521,529,500
521,511,514,523,505
506,502,505,512,517
498,498,501,503,525
495,495,500,498,527
498,495,500,497,526
496,498,498,494,527
500,498,499,499,518
503,499,507,502,504
505,505,517,506,508
506,503,518,509,510
517,506,523,519,513
529,510,525,522,518
529,517,530,529,510
535,518,529,531,505
535,523,531,535,511
531,518,524,532,512
522,515,518,528,511
516,510,511,522,527
501,501,500,508,537
494,501,500,504,545
494,496,496,498,538
496,497,499,499,508
495,496,500,496,509
503,500,506,503,515
502,500,510,504,515
509,501,514,505,505
515,503,519,514,507
521,508,524,519,503
522,513,527,525,505
530,516,532,531,493
536,521,539,542,491
533,519,530,535,505
528,518,521,532,503
519,514,516,527,516
511,506,507,518,528
498,499,499,506,539
493,496,496,501,536
490,494,495,495,538
494,495,497,496,522
497,495,502,498,512
501,499,508,498,511
502,500,513,502,513
506,502,518,510,512
519,504,520,512,508
529,509,520,519,504
538,513,529,525,501
540,518,529,531,495
541,520,528,534,498
537,517,522,530,503
528,522,523,530,502
520,515,522,526,511
503,501,504,510,518
492,494,494,502,502
493,496,501,501,500
491,495,498,498,508
496,496,501,501,511
498,494,510,500,517
503,501,513,502,520
503,500,513,503,532
507,502,517,505,541
520,506,522,513,529
525,511,527,522,506
531,516,531,529,504
535,520,533,533,508
534,520,528,531,506
533,518,523,532,511
520,515,518,528,514
513,510,513,522,513
503,504,505,509,527
496,497,497,502,526
494,495,497,499,521
496,499,500,500,517
495,495,500,501,515
500,499,507,502,511
497,500,512,505,512
504,501,514,508,519
503,502,517,508,514
518,507,522,516,511
516,510,524,520,513
517,516,531,526,504
531,520,535,535,507
535,523,528,535,508
540,519,522,530,508
529,516,516,526,526
518,507,505,514,532
511,501,498,506,534
506,498,495,497,536
502,497,498,499,522
499,496,497,497,505
498,497,503,499,514
505,499,506,503,517
505,503,515,505,516
510,504,515,507,520
512,503,516,510,510
522,509,524,520,498
533,515,528,527,495
535,517,531,531,490
544,521,530,535,491
541,520,527,535,496
529,516,520,530,501
521,512,513,525,515
502,501,498,508,525
494,498,489,502,528
494,497,492,500,527
495,496,493,499,520
498,496,491,498,513
500,498,498,501,514
504,501,504,503,514
508,502,502,504,506
508,502,504,505,519
516,507,513,513,518
527,513,519,518,506
530,516,519,526,503
531,519,519,533,517
525,518,519,532,517
522,521,518,534,519
515,514,511,525,519
532,513,508,521,521
514,502,499,508,539
496,498,498,501,534
501,497,498,491,528
500,495,503,497,517
496,496,509,497,517
499,499,520,500,520
505,502,525,506,518
506,504,526,505,524
509,502,524,508,516
529,510,533,519,512
536,512,533,525,504
536,516,536,534,503
540,520,539,546,492
529,520,535,532,481
525,516,528,534,494
518,518,526,530,506
504,506,510,511,512
493,500,504,510,516
484,496,498,500,519
480,496,498,497,527
491,499,500,498,516
494,499,503,502,517
505,506,511,507,510
503,500,513,504,500
492,502,517,508,525
499,502,517,511,514
515,508,524,519,498
521,514,531,531,517
529,521,530,532,528
548,524,534,532,521
549,520,525,531,513
530,516,519,529,520
525,513,516,525,526
506,500,502,513,526
495,491,493,507,512
490,492,496,500,498
493,495,497,500,503
501,499,490,498,505
520,508,494,501,499
512,509,503,507,531
503,510,502,504,534
509,511,494,505,535
511,516,482,512,534
514,512,475,516,508
530,515,482,526,498
542,518,491,529,501
546,514,493,531,505
547,514,497,529,510
538,512,493,522,509
527,510,496,519,517
506,498,490,504,537
494,492,495,500,548
496,495,505,492,540
496,494,517,497,533
498,494,524,495,529
506,496,526,498,505
514,502,535,506,504
508,500,536,508,505
513,501,543,512,502
523,508,551,519,509
526,515,554,523,512
537,520,555,532,508
540,523,556,537,507
526,519,552,537,508
517,515,546,533,503
516,514,538,530,508
509,507,523,519,516
491,498,511,505,524
487,495,502,500,526
486,495,501,497,522
488,498,504,497,521
490,498,504,498,516
494,499,508,500,509
511,501,508,503,506
516,503,511,509,501
522,507,523,514,510
527,513,533,518,504
526,513,533,526,510
525,518,536,538,516
532,522,537,537,505
527,521,536,532,498
513,519,533,533,509
499,511,526,529,516
497,502,511,512,506
500,500,506,504,508
495,499,504,502,513
496,497,502,500,506
501,494,506,502,504
505,500,511,500,521
507,501,514,503,528
505,502,507,499,525
503,505,513,509,525
508,507,518,516,507
511,511,512,514,505
524,518,515,527,496
525,522,521,533,492
521,525,521,535,495
522,526,518,534,500
532,522,507,529,514
526,513,492,520,536
516,501,481,506,530
510,491,480,498,525
514,490,486,498,519
511,494,498,499,517
507,494,513,499,516
505,499,509,498,523
507,502,512,499,527
509,500,503,501,526
516,504,496,508,528
528,508,491,517,530
526,511,494,522,521
539,518,503,527,499
540,524,503,535,501
537,522,497,537,509
532,520,506,531,512
533,517,513,528,519
520,508,517,518,524
499,498,511,500,529
491,493,504,493,535
490,493,510,491,531
493,495,523,499,529
499,499,540,502,519
509,504,555,502,509
511,505,555,511,508
510,506,554,513,507
518,505,556,517,506
525,514,555,526,494
524,511,553,536,502
527,514,547,540,507
532,520,552,538,497
533,520,544,537,500
527,517,527,525,500
518,511,521,525,494
506,498,508,519,509
493,502,487,499,528
491,503,474,497,538
492,503,475,505,527
488,503,478,505,534
502,506,471,490,510
510,506,467,497,510
500,501,463,502,513
501,499,468,505,521
512,499,477,512,526
523,512,480,515,511
533,526,478,518,486
541,527,469,533,486
535,521,454,524,511
521,516,467,527,508
511,515,488,521,530
511,520,526,520,519
503,510,536,511,520
493,501,529,505,520
477,489,534,504,511
480,486,536,502,543
500,488,549,487,545
500,497,563,505,522
509,499,563,518,502
507,503,558,506,532
520,506,550,511,484
525,510,549,521,491
525,512,546,521,501
526,519,545,528,501
528,525,538,541,506
525,533,531,535,523
518,531,520,534,517
512,526,511,524,520
508,518,491,516,513
503,507,490,500,519
502,494,494,495,521
498,483,502,492,523
496,491,513,490,532
488,492,525,494,533
491,498,533,500,510
500,504,537,511,502
510,506,525,511,507
507,505,512,517,518
513,509,516,526,506
512,515,534,533,476
531,518,530,536,474
537,517,523,540,466
533,513,525,540,487
543,511,525,536,478
551,518,522,527,499
531,510,508,518,614
529,506,500,498,525
520,503,503,502,499
512,501,500,502,501
508,499,504,506,494
506,484,507,507,514
504,486,503,502,529
512,494,516,507,528
520,497,518,508,521
525,504,526,515,497
526,501,504,526,507
533,512,494,532,504
539,514,489,537,512
529,512,494,538,527
530,511,488,531,532
527,509,494,534,515
521,505,503,524,524
497,494,502,504,546
490,494,517,494,546
494,499,533,490,514
503,505,550,499,499
499,508,560,515,523
500,503,552,504,508
504,505,556,516,466
508,505,548,515,498
518,507,543,509,516
520,513,547,519,517
527,517,543,525,517
531,522,539,536,528
525,521,536,551,540
535,523,517,525,518
529,526,496,526,524
524,537,486,524,529
512,523,464,522,538
490,512,448,500,557
489,508,438,490,559
476,490,448,492,568
484,487,475,478,535
492,493,495,481,494
487,492,528,497,501
497,494,536,502,504
507,499,535,520,513
532,513,538,511,511
530,514,538,524,501
527,517,544,527,511
528,515,531,532,508
529,509,524,535,510
528,514,526,525,478
522,517,536,526,473
512,513,549,526,497
504,505,518,518,529
499,498,498,514,576
489,490,478,491,556
500,493,427,490,531
506,499,435,491,527
513,502,423,491,530
519,505,406,501,528
520,501,399,503,513
505,483,396,503,519
514,493,434,511,505
531,499,446,502,461
533,499,476,516,459
537,512,519,529,474
532,517,545,542,482
535,522,572,549,443
524,513,558,530,481
517,519,558,526,522
505,520,560,520,513
492,522,562,513,514
484,519,560,501,549
490,520,557,493,563
485,494,516,495,556
465,479,510,505,564
490,494,531,490,526
504,512,531,501,509
504,503,518,512,520
500,513,547,521,552
506,509,554,525,531
514,508,562,529,502
528,519,582,547,439
566,527,599,552,419
563,531,605,557,403
545,523,587,549,431
515,510,580,535,507
502,499,559,514,584
512,499,534,503,563
511,497,513,503,533
510,502,515,507,520
508,500,528,510,498
508,505,531,511,499
507,502,529,511,553
487,499,523,505,583
476,499,522,507,540
461,500,519,509,564
487,506,520,520,576
506,518,525,528,540
492,516,523,534,537
479,511,516,527,550
489,511,513,524,522
530,517,517,526,500
517,505,500,518,478
481,496,495,511,394
485,497,494,506,380
507,504,497,505,401
521,500,505,506,436
531,499,503,498,483
528,502,513,502,536
529,501,508,501,550
541,508,522,516,551
529,509,524,513,577
510,511,525,514,614
512,518,530,525,560
505,519,528,532,521
487,519,528,540,544
473,522,529,536,539
467,518,520,533,514
485,515,502,524,545
489,505,484,490,534
441,492,455,487,530
448,495,438,484,512
462,498,429,483,531
482,502,445,492,527
495,486,442,490,524
462,469,433,480,575
490,489,444,481,590
562,512,486,502,499
590,516,516,513,493
589,518,529,522,492
580,524,556,537,458
585,527,570,544,456
589,533,567,545,485
580,531,553,533,490
564,527,543,533,497
540,515,548,527,522
528,500,522,512,554
517,502,513,508,563
527,512,525,503,499
523,503,496,501,493
522,509,486,504,548
511,505,481,500,586
502,502,451,490,552
503,508,410,502,510
516,508,405,480,527
526,493,374,491,529
533,487,390,502,524
529,491,448,523,525
531,503,478,518,495
528,513,493,532,504
521,515,504,537,518
513,517,517,526,531
522,526,529,519,499
512,518,495,499,506
502,505,484,488,502
503,509,465,495,488
511,513,473,515,472
503,492,497,505,483
504,488,505,489,471
518,497,526,497,491
511,495,550,500,546
520,510,580,518,530
523,515,611,533,524
525,512,601,535,536
528,513,584,543,523
532,513,565,545,500
529,522,606,551,488
527,523,627,541,522
517,512,586,527,535
500,502,551,511,546
497,503,539,503,528
489,500,538,503,532
488,495,525,498,493
494,491,528,495,499
499,498,544,506,495
507,511,566,512,488
514,508,566,519,480
519,512,575,526,514
515,511,575,521,545
516,510,559,523,520
524,515,552,530,472
532,515,548,539,475
534,518,545,536,487
530,524,537,535,507
522,520,533,529,534
515,511,520,520,520
501,502,508,508,547
494,500,503,503,554
484,495,499,498,562
488,496,499,497,531
487,494,497,494,536
486,494,499,501,483
479,498,509,503,492
462,497,511,498,536
463,498,510,504,525
481,506,520,515,521
477,509,521,519,499
521,520,524,529,524
590,527,529,536,491
584,522,520,537,482
550,518,512,534,515
533,511,506,524,504
529,505,497,519,442
519,499,487,511,433
502,494,488,505,430
495,497,486,497,463
489,501,503,500,490
464,494,492,492,617
427,499,497,494,636
394,492,502,495,610
408,495,507,498,584
462,501,510,505,556
497,511,523,515,534
490,508,525,522,541
552,519,520,528,526
630,527,509,536,501
619,536,523,540,507
576,532,517,534,534
538,516,501,518,528
521,506,498,508,519
520,503,499,497,532
518,496,489,492,524
533,500,494,493,514
527,498,501,493,527
529,504,488,493,509
527,506,491,506,521
525,511,490,513,503
521,512,449,514,529
535,511,440,491,506
539,510,454,513,489
539,506,464,523,463
541,494,479,527,453
541,508,490,529,465
537,512,494,528,481
536,522,484,529,496
521,522,480,524,558
497,514,454,500,592
490,504,441,491,589
491,487,447,478,545
489,487,471,476,525
491,493,512,491,526
497,494,551,498,505
508,501,556,499,509
513,510,560,514,516
514,504,537,520,529
514,495,519,518,541
525,508,536,526,518
523,508,533,530,520
536,515,528,514,493
540,517,535,537,447
530,519,532,549,449
519,519,543,538,500
512,508,545,527,537
494,501,532,516,550
494,501,537,514,527
490,504,539,505,521
490,502,541,501,530
490,502,541,500,518
500,508,553,505,512
511,512,564,515,502
511,506,551,512,507
513,505,549,517,512
519,511,549,523,502
523,521,548,531,501
534,528,567,545,505
538,530,573,551,495
537,526,554,536,473
531,520,536,535,466
528,518,532,535,470
512,504,507,509,488
491,494,498,495,554
482,492,499,502,567
481,489,495,501,544
491,493,503,483,522
489,495,507,495,510
490,502,512,507,501
503,504,523,510,530
507,504,521,510,551
502,507,519,510,550
508,512,513,517,531
510,510,505,520,517
521,513,507,528,485
524,513,512,535,521
517,509,516,534,566
509,506,511,521,525
508,511,518,527,516
522,509,515,514,504
521,504,510,500,502
505,499,506,500,489
503,503,511,503,477
497,501,509,499,494
495,500,514,504,514
518,503,506,503,460
513,503,507,503,471
497,499,511,510,509
501,511,530,523,499
494,511,528,530,488
497,513,526,531,490
489,520,524,532,551
480,517,513,528,565
488,508,495,525,566
531,507,492,521,552
546,502,473,508,554
555,505,465,502,538
534,500,460,493,542
517,491,457,490,536
526,495,484,497,539
522,501,504,492,536
517,506,524,499,547
519,512,516,498,536
526,513,516,507,522
530,516,508,521,500
531,512,515,519,494
524,507,526,524,485
528,509,507,528,481
534,521,521,530,507
529,515,533,536,547
526,512,516,527,547
532,518,492,528,528
518,513,483,519,542
501,507,481,506,515
503,516,498,504,537
501,506,487,497,530
492,496,498,489,535
503,516,535,501,521
518,511,546,509,518
505,488,519,514,527
518,499,538,494,509
518,502,568,517,506
519,506,567,520,494
532,516,586,543,490
537,515,553,544,492
542,524,547,543,477
534,520,528,540,487
530,520,507,527,490
522,517,498,525,486
509,505,480,512,511
497,496,463,499,536
481,487,460,500,545
490,489,467,476,518
499,493,495,489,502
504,501,532,496,503
508,502,559,506,533
508,500,540,507,521
515,510,537,516,520
522,514,530,528,510
525,512,518,531,509
532,518,522,536,500
543,520,534,534,463
538,515,528,534,462
532,516,534,532,457
530,516,535,532,444
514,509,522,519,482
492,501,513,501,546
489,502,513,499,552
481,493,512,497,562
479,491,518,506,561
487,493,519,500,560
496,497,507,498,533
507,504,498,496,517
503,503,490,503,504
515,505,493,509,500
524,519,512,512,529
519,510,517,520,545
528,512,527,526,525
538,522,554,540,513
529,521,547,538,529
522,517,537,535,521
513,513,529,531,489
499,503,509,518,515
488,502,502,504,509
479,497,497,499,515
475,487,491,494,535
496,496,501,492,549
506,506,512,495,546
508,504,516,498,503
506,500,516,503,505
515,501,516,504,525
534,510,525,516,527
541,511,526,520,477
535,515,527,527,491
547,525,532,539,478
547,523,531,543,464
531,517,527,542,465
521,510,511,527,510
518,511,506,529,519
489,500,494,511,541
482,496,486,500,508
482,496,489,499,481
486,499,490,498,478
483,494,492,488,541
482,494,495,484,556
504,509,516,504,544
517,510,504,510,539
523,515,501,502,566
516,518,498,512,538
513,517,503,524,521
522,512,493,524,510
526,518,497,525,522
558,512,493,529,501
558,517,513,532,489
541,516,516,529,496
524,504,498,513,507
506,497,487,502,546
484,489,477,496,582
485,492,473,496,566
495,491,469,488,537
497,493,492,497,532
497,495,511,502,532
518,504,532,501,499
515,503,538,513,499
519,504,535,515,498
537,520,543,524,493
540,520,548,526,498
546,521,537,531,494
540,516,520,531,498
533,518,519,536,507
524,517,519,534,523
518,505,505,523,523
500,490,486,503,532
492,494,512,503,529
488,498,543,530,525
496,502,542,503,505
501,505,540,511,503
506,509,537,515,500
506,506,527,510,515
511,506,513,486,521
508,503,518,497,507
515,506,525,509,493
521,512,535,524,488
528,517,541,534,481
535,521,540,527,477
529,513,530,533,504
527,518,535,535,517
530,519,537,530,490
525,516,528,529,504
515,504,500,512,514
499,496,488,497,517
492,493,488,492,542
489,490,488,487,564
487,494,509,498,548
497,497,523,504,514
502,500,525,510,497
513,504,525,512,506
516,510,530,517,532
524,513,538,521,539
526,514,539,513,524
526,517,537,518,496
540,521,540,534,477
536,520,534,536,479
531,517,529,535,467
523,514,523,532,481
508,508,509,514,526
493,500,501,503,574
488,497,500,499,567
484,495,497,490,584
493,497,500,494,523
500,495,502,495,496
510,496,506,501,485
508,500,511,504,485
510,505,521,518,513
515,505,523,514,525
521,511,526,514,517
532,516,526,524,523
523,516,532,532,536
524,516,531,534,505
528,519,528,535,491
514,516,520,531,486
496,513,512,526,497
474,504,501,513,522
475,500,497,506,527
480,500,498,503,513
473,497,499,495,531
483,491,494,484,527
529,498,503,499,524
540,501,509,504,508
527,503,515,505,488
527,503,517,515,509
536,507,517,513,482
531,508,518,521,490
537,515,531,531,526
558,521,540,533,527
553,522,540,533,513
541,520,533,532,532
531,515,519,519,534
528,514,518,526,516
504,501,500,507,525
494,497,499,506,535
486,490,493,502,568
494,493,491,491,541
501,493,496,489,514
512,496,505,494,523
516,500,514,502,520
507,500,509,504,514
520,508,522,510,509
524,515,529,516,499
526,515,525,519,504
533,518,529,523,504
533,520,520,524,513
531,519,508,522,513
530,521,511,516,506
520,517,505,519,512
510,508,502,519,528
497,500,511,526,542
487,493,518,493,529
492,494,516,501,524
500,498,510,513,525
502,493,488,510,513
503,495,505,515,513
509,506,518,515,515
510,500,516,504,515
515,498,519,497,515
517,505,529,495,510
533,517,537,515,510
538,517,525,539,504
538,518,521,538,501
533,516,523,540,499
527,516,524,547,509
517,512,523,542,522
506,500,509,515,505
495,493,500,504,515
492,492,503,506,517
495,494,514,507,512
497,495,515,505,510
496,494,513,498,513
496,498,496,480,518
499,494,505,492,530
512,501,504,498,510
522,510,522,520,500
526,514,534,528,504
526,514,529,529,503
536,520,534,530,493
537,523,536,534,505
525,517,530,533,513
529,516,521,529,516
518,514,513,525,531
500,502,504,515,525
492,495,497,509,529
494,495,495,499,536
494,495,496,487,532
493,495,502,502,532
498,497,505,492,504
506,499,516,504,503
510,502,516,499,509
519,505,522,505,513
519,508,525,511,509
526,515,533,518,510
532,519,535,525,506
537,521,536,549,505
535,520,532,540,511
526,517,525,537,509
519,519,521,533,517
513,508,509,520,521
496,500,499,511,524
497,499,498,505,519
494,495,496,499,517
494,496,500,498,517
496,495,502,497,511
497,493,505,496,506
504,499,516,503,513
510,502,516,504,523
513,503,522,514,513
519,512,531,528,533
526,511,530,531,522
537,518,532,524,525
538,520,532,531,505
536,519,529,535,509
534,518,527,535,523
521,516,524,531,529
503,504,504,512,548
492,502,497,501,558
481,496,498,496,562
476,496,499,494,563
481,496,502,494,529
491,497,504,497,519
503,500,513,510,503
518,507,519,512,491
527,506,520,507,470
538,514,524,517,453
543,512,528,523,450
549,516,533,529,445
548,520,534,532,478
539,515,522,522,516
533,514,522,529,501
516,509,516,528,483
515,509,511,529,494
505,501,495,518,513
496,495,490,514,514
487,495,495,512,534
490,497,492,508,533
492,499,481,488,533
497,494,494,482,523
502,500,525,492,533
501,501,518,495,539
512,504,527,510,533
520,510,532,518,533
522,511,531,522,532
529,517,533,534,514
537,521,536,539,498
544,522,535,539,493
539,517,524,529,488
536,514,518,522,498
518,503,505,512,507
502,499,497,501,516
494,496,489,490,512
493,490,496,499,500
494,492,504,500,502
495,491,509,507,506
491,494,519,516,505
497,501,503,492,502
506,503,510,498,507
513,506,514,508,503
523,508,512,520,498
532,513,526,527,494
541,516,537,529,491
548,520,536,531,491
546,519,526,530,490
536,512,507,523,504
521,514,516,524,507
505,499,500,521,521
499,495,493,513,535
494,492,491,516,542
491,496,501,515,538
484,498,506,516,545
483,498,507,511,549
495,495,509,493,524
508,502,523,500,498
509,506,533,517,506
515,506,523,511,512
526,508,522,515,507
534,515,530,526,498
542,521,532,533,490
535,520,531,532,491
528,519,527,533,502
528,516,522,531,500
523,516,520,527,504
508,502,502,509,518
501,501,502,505,530
498,499,500,500,538
497,500,505,500,559
488,498,509,502,565
499,502,510,501,553
496,501,513,502,555
493,502,516,505,521
503,504,518,509,499
514,504,521,519,474
527,510,529,530,474
534,516,532,538,486
539,521,543,553,506
541,521,537,547,519
539,519,530,530,536
540,517,523,514,553
526,510,500,496,543
511,503,492,489,539
502,498,494,493,542
490,498,496,497,531
494,493,495,492,499
501,495,493,493,474
504,499,499,498,461
519,503,502,504,474
522,503,500,503,527
516,499,504,503,580
520,501,518,510,566
525,505,530,520,490
528,515,534,530,450
535,518,538,540,439
542,518,535,538,447
523,515,527,530,499
504,509,518,524,541
488,505,508,521,541
482,497,507,513,523
484,499,506,504,526
484,496,504,498,517
490,493,490,494,532
503,497,502,499,513
511,497,508,501,499
510,500,515,510,508
509,501,518,511,518
509,500,520,512,502
522,508,526,521,501
531,514,530,529,489
538,518,534,536,501
536,519,529,532,508
533,518,525,528,513
532,515,522,523,518
526,512,517,516,530
502,505,507,500,551
494,494,497,492,540
503,499,498,508,523
506,495,493,509,509
495,494,497,497,514
494,496,501,495,519
505,496,505,500,486
514,498,511,510,456
525,506,517,508,481
527,510,523,516,508
530,512,527,525,506
536,518,533,533,507
529,516,531,536,506
527,519,532,539,493
526,517,525,535,493
524,514,517,526,493
515,507,505,515,513
501,499,497,507,525
490,497,495,505,533
487,497,498,501,530
494,498,501,500,525
495,496,501,498,520
496,499,507,500,518
499,503,513,502,518
505,503,515,503,520
506,503,518,505,519
514,507,521,511,521
526,512,524,521,504
540,516,531,537,473
548,520,531,539,472
540,519,526,537,476
531,516,521,534,485
521,511,514,525,513
506,499,502,512,529
500,496,500,504,535
498,496,502,502,538
498,492,494,495,541
507,494,495,493,543
508,495,496,491,534
511,498,499,496,529
512,506,510,508,525
506,503,516,518,501
505,505,519,520,512
516,512,524,528,500
523,514,524,530,476
529,520,528,530,474
537,525,527,530,483
527,517,527,526,502
507,515,518,527,548
510,514,514,522,538
494,500,499,509,524
489,497,492,502,510
492,496,492,498,516
493,497,496,499,527
502,496,500,497,529
507,498,506,502,523
507,504,517,511,533
508,502,516,511,514
509,503,518,514,498
513,505,516,501,517
520,506,525,510,507
531,517,528,520,490
541,521,532,532,494
536,518,527,532,498
534,517,523,531,512
533,517,520,527,506
520,508,509,522,505
509,501,500,508,512
502,497,496,501,507
501,497,496,497,513
500,497,497,496,514
497,494,497,492,517
498,494,507,500,511
506,499,511,503,508
508,503,516,506,512
513,502,518,505,516
516,507,524,516,505
521,513,527,524,506
532,516,531,530,507
533,520,531,534,500
529,520,528,535,498
525,519,525,530,513
516,514,516,524,517
505,504,505,512,517
499,500,498,506,531
498,499,499,503,534
496,502,503,499,538
496,497,500,499,539
496,498,504,499,540
494,494,502,502,538
510,501,512,505,519
513,502,517,511,518
520,502,516,509,510
529,508,522,515,506
535,516,528,526,483
540,517,530,532,472
542,520,530,535,481
529,516,523,532,488
524,514,519,528,496
508,511,514,524,505
497,500,500,515,524
493,497,495,502,520
495,497,496,501,518
494,497,500,496,534
495,497,501,498,534
496,499,506,499,536
501,501,512,502,531
501,500,512,504,514
513,502,516,509,486
522,502,515,518,477
534,508,521,521,474
534,513,525,525,488
541,519,529,533,484
540,520,528,535,485
534,517,527,531,489
525,514,519,527,499
513,508,510,521,506
500,501,500,507,529
495,498,492,501,533
497,500,498,499,523
504,496,496,498,514
511,496,499,497,514
514,499,506,499,520
515,501,511,501,519
517,502,512,501,532
509,501,514,503,531
514,507,522,516,515
517,512,526,525,499
527,517,530,534,495
533,520,532,537,500
534,520,528,535,503
526,515,521,531,509
516,513,517,528,494
500,508,510,517,513
493,499,497,506,521
490,499,499,504,531
491,501,498,498,523
495,498,500,499,511
498,497,503,500,505
503,498,505,504,511
508,502,512,507,516
513,503,516,506,529
521,505,521,511,527
524,511,523,516,517
530,515,528,525,515
535,517,532,531,516
531,517,534,536,504
525,520,528,535,481
520,517,523,528,504
516,514,517,525,517
504,503,502,511,527
494,495,493,501,515
490,493,492,499,497
496,495,497,500,511
501,498,500,503,520
503,497,505,501,521
503,499,510,504,505
512,500,512,505,491
515,502,516,509,498
517,505,520,514,494
527,509,523,521,494
531,516,530,529,533
537,520,533,535,518
539,519,527,534,497
531,517,523,533,494
519,514,518,528,501
511,511,512,521,513
503,502,501,509,526
496,497,495,502,524
492,495,494,497,520
496,497,499,499,517
503,497,500,496,517
511,495,506,497,522
509,499,509,500,520
511,502,513,506,516
519,506,520,512,512
525,510,526,520,502
526,511,527,523,502
529,514,527,528,491
526,519,533,537,486
527,521,531,536,489
524,517,523,533,496
518,515,519,528,496
504,504,505,516,512
497,500,499,506,526
492,498,496,501,528
491,496,496,497,531
494,495,498,496,530
499,497,503,499,514
502,499,508,501,512
507,504,514,509,516
508,503,517,506,521
514,505,520,511,521
523,510,525,519,517
526,512,526,522,499
535,516,529,530,489
539,519,530,535,489
536,518,526,533,498
527,515,520,530,504
521,516,520,528,508
501,501,502,510,517
496,496,496,503,524
490,495,496,499,529
498,494,496,494,535
499,495,500,494,536
499,497,506,495,535
501,496,509,502,505
512,502,515,508,488
514,504,519,507,499
520,505,521,514,502
524,508,524,521,503
530,513,528,529,494
535,520,532,535,513
537,522,533,536,528
530,520,527,532,528
518,515,519,522,525
513,510,512,517,521
507,497,496,506,491
497,494,490,502,512
500,495,497,496,526
493,496,499,497,514
493,495,501,499,510
492,496,506,501,509
502,501,512,505,507
513,502,517,507,511
512,503,518,510,512
521,506,524,517,509
528,510,525,522,500
533,519,533,533,498
536,519,531,535,490
535,519,527,534,491
527,516,520,529,502
522,512,516,529,500
513,504,504,514,519
499,499,497,504,529
501,499,497,500,525
498,500,499,498,520
498,496,498,497,510
500,499,504,501,512
501,496,505,498,517
506,499,511,502,517
509,502,515,507,504
515,504,519,514,496
522,508,524,518,497
530,515,529,527,492
534,517,530,531,499
536,520,531,535,510
533,520,526,533,511
527,517,521,530,513
520,513,516,525,516
502,504,502,511,530
493,497,496,502,535
492,496,495,498,533
491,496,499,497,530
493,496,500,496,527
498,494,504,498,517
503,500,509,501,511
509,502,514,506,512
516,502,516,509,498
517,507,523,516,504
528,510,525,520,511
529,513,528,524,512
533,518,531,531,504
537,519,529,535,505
537,520,525,533,509
531,519,523,531,512
524,512,511,526,517
506,501,500,507,532
497,498,498,503,527
494,500,503,500,524
486,499,499,498,516
495,496,502,497,507
498,497,505,501,514
495,501,513,501,513
495,502,515,507,513
506,501,518,512,515
516,507,523,516,517
523,510,526,521,516
529,517,531,531,507
538,518,535,533,492
535,525,532,539,496
522,514,521,529,510
519,513,517,525,515
509,510,511,518,522
498,498,498,506,522
495,496,497,500,532
498,495,500,497,535
498,498,502,498,531
499,495,502,497,506
498,498,509,498,508
503,498,510,504,502
511,499,519,513,500
516,504,518,511,501
521,507,523,516,500
529,512,528,524,492
537,522,531,533,489
538,519,530,535,495
535,520,527,534,505
528,518,519,528,516
522,513,516,524,517
510,505,506,511,526
500,497,496,503,529
500,498,498,501,522
498,497,500,498,527
495,497,503,498,527
492,498,506,500,518
491,496,507,500,507
499,501,515,505,511
507,505,518,508,503
514,504,519,515,498
526,511,526,520,508
534,516,531,529,512
537,521,533,535,496
532,518,528,532,500
531,519,526,531,512
528,515,519,526,511
523,512,514,523,506
505,506,505,514,497
497,496,496,502,508
496,496,495,499,513
497,495,501,502,512
499,495,501,495,515
504,499,506,500,516
503,499,510,499,517
506,502,515,506,507
512,503,517,515,491
520,506,522,515,498
528,510,526,521,497
539,518,532,531,485
542,521,534,536,492
533,523,529,538,523
523,516,522,529,525
521,514,518,526,520
512,507,509,517,522
500,502,501,508,529
494,497,497,502,533
496,496,498,497,531
496,497,500,496,535
501,497,503,497,534
501,497,507,498,527
506,500,513,502,523
509,501,515,504,524
516,503,518,508,520
523,507,524,518,493
527,508,526,526,491
530,518,531,533,502
535,521,533,537,500
533,517,526,531,502
526,518,518,528,512
523,515,517,522,517
508,502,502,507,540
501,498,497,500,545
492,497,493,500,533
492,495,498,498,525
495,495,500,497,512
504,498,506,502,500
503,498,508,501,500
512,501,513,507,504
517,502,517,506,499
520,504,520,510,495
529,509,524,521,496
538,516,531,529,497
536,515,531,531,506
534,521,526,532,512
534,517,526,537,498
522,515,519,529,510
510,511,514,524,509
502,502,503,512,528
494,500,498,503,532
493,499,501,503,525
494,496,499,498,518
497,496,501,498,511
503,502,510,502,516
504,500,510,503,522
502,502,516,507,512
510,503,519,508,500
520,507,523,521,507
523,512,525,520,510
533,518,531,531,498
534,520,532,536,497
537,522,531,538,503
527,516,522,530,511
521,516,518,528,516
510,506,507,516,514
498,498,497,506,520
492,498,495,500,529
493,497,495,497,527
496,495,497,496,524
498,496,501,497,528
505,497,505,499,519
508,501,512,504,505
509,502,514,506,506
517,504,518,511,511
522,508,523,518,510
528,513,526,524,504
538,520,533,533,503
537,519,529,533,500
533,520,528,533,505
523,516,520,529,506
519,513,516,524,505
506,503,502,511,516
496,501,498,503,527
491,500,500,499,529
494,497,498,498,525
494,496,501,495,522
500,500,507,502,525
500,497,506,499,517
504,500,511,503,512
509,502,516,508,510
518,504,520,511,502
526,507,523,517,487
532,513,529,528,489
541,519,532,537,499
542,522,532,536,505
531,519,524,530,522
531,517,520,527,512
522,511,513,523,511
502,501,503,509,523
494,496,494,500,524
492,496,496,498,526
495,500,505,498,526
496,497,505,497,520
501,498,505,500,515
505,499,509,502,511
508,502,514,505,512
512,503,518,510,506
520,511,525,516,516
526,512,526,519,529
532,519,528,524,524
539,520,531,531,522
533,520,530,533,504
522,518,523,529,514
519,514,518,527,504
515,508,508,518,507
503,500,499,510,523
497,498,497,503,524
498,498,498,500,525
498,496,499,497,517
505,498,503,497,516
500,498,507,501,510
503,499,511,503,512
510,503,517,508,524
510,501,519,511,519
520,508,525,520,504
526,513,528,526,496
533,517,530,531,491
536,521,532,536,493
534,517,524,535,493
526,516,521,530,508
520,512,516,522,523
506,501,502,511,530
498,498,497,503,540
496,497,500,502,526
496,497,498,498,518
496,501,501,498,507
501,498,504,499,499
502,496,504,503,502
504,501,513,502,506
511,502,517,506,501
523,506,526,514,506
523,510,526,520,526
530,517,532,529,510
536,522,534,535,500
537,524,531,535,503
531,519,526,532,518
523,515,520,527,522
511,510,512,521,511
497,501,501,516,522
493,498,496,503,521
494,497,497,499,530
493,496,499,496,524
498,496,500,497,524
504,499,506,500,517
507,500,509,500,524
511,501,513,503,525
518,506,519,511,518
524,509,524,518,499
529,512,523,528,498
531,515,527,525,511
538,522,533,534,504
532,519,528,531,514
522,516,522,530,505
512,514,519,525,501
510,509,512,523,511
497,501,500,508,520
495,496,495,501,520
496,494,496,499,517
498,497,501,499,523
498,500,502,495,525
501,498,506,498,525
504,500,511,502,518
513,501,513,505,507
516,503,518,509,506
525,510,526,519,501
530,514,528,526,498
534,517,530,530,494
536,521,532,535,492
535,521,528,535,494
525,517,521,531,507
520,516,519,527,527
505,509,505,513,534
495,497,496,502,535
490,495,495,497,535
492,500,498,501,522
494,496,498,495,518
496,498,504,497,523
502,494,510,502,516
504,500,511,503,525
510,507,518,504,527
522,506,521,512,519
524,510,524,519,515
530,513,530,532,511
530,519,529,533,505
537,522,532,538,499
532,519,526,535,499
524,516,520,529,511
522,513,515,525,511
502,502,501,510,518
494,498,497,502,523
497,497,497,500,521
498,497,499,498,520
497,495,500,496,518
501,495,506,500,516
510,500,511,503,520
510,501,513,504,517
513,503,517,509,513
522,507,523,516,508
525,511,526,522,501
532,516,530,529,493
537,519,531,534,485
535,520,529,536,489
531,516,522,532,500
524,514,519,527,509
514,511,513,521,528
497,500,499,506,531
494,501,500,504,531
494,496,498,499,527
495,500,499,495,540
496,496,501,496,533
500,498,506,498,527
505,501,512,502,523
509,500,514,510,521
513,504,520,512,496
522,509,525,518,500
526,513,528,525,506
533,519,533,532,505
537,524,532,537,501
535,520,528,535,508
526,517,522,530,514
523,516,519,526,518
509,502,504,516,537
496,497,497,502,525
494,496,497,502,521
496,496,498,499,525
499,501,505,500,523
502,498,505,500,512
499,494,504,501,514
511,502,513,505,513
511,500,514,510,510
519,510,522,514,508
525,510,524,520,506
533,516,530,529,500
537,520,531,533,499
540,521,530,535,506
538,519,526,531,515
528,516,519,526,516
520,512,514,523,516
503,503,499,514,533
490,495,494,498,533
489,497,497,501,517
492,499,500,500,511
498,496,500,499,511
501,502,511,505,509
501,496,506,499,514
507,502,514,504,516
513,504,519,510,506
520,508,522,519,511
524,511,526,522,505
531,517,530,529,498
533,519,531,533,511
532,522,530,538,507
530,519,525,533,502
526,517,519,528,504
513,511,511,520,508
495,499,499,508,508
492,497,495,506,512
490,499,500,504,517
495,497,500,498,527
500,496,501,496,533
501,495,504,503,526
503,501,512,503,522
507,503,516,507,519
513,504,519,510,516
523,509,524,518,502
527,513,528,525,501
534,517,531,530,500
536,519,531,535,495
535,519,528,535,488
527,512,519,527,506
524,513,522,526,513
506,503,508,513,521
496,498,502,505,527
497,498,499,502,519
501,495,492,498,511
498,494,495,497,509
499,497,502,500,509
503,500,509,500,508
505,500,512,504,517
514,502,516,508,515
515,504,519,513,510
523,508,524,520,505
530,514,528,528,500
533,518,531,534,502
533,520,531,537,512
530,520,528,536,519
526,512,518,529,504
527,513,515,525,498
511,503,502,512,495
498,493,499,503,508
491,497,497,500,542
484,499,496,494,561
496,497,502,498,537
508,498,506,500,519
503,500,510,499,515
506,501,513,506,516
514,504,516,508,516
521,506,522,515,507
529,513,528,524,512
535,514,529,527,503
541,520,532,533,497
539,521,529,536,496
530,517,522,531,503
522,516,519,529,507
510,510,515,523,506
498,498,497,508,527
491,496,495,500,531
488,499,495,497,533
492,499,503,502,526
494,496,502,498,522
498,499,505,499,517
504,500,511,504,516
512,502,514,505,514
511,503,519,512,512
519,509,524,520,506
521,512,525,523,508
528,518,530,530,502
536,521,532,538,488
538,522,529,538,487
527,516,521,530,501
522,518,522,527,503
508,505,502,514,522
499,501,497,508,541
496,498,494,502,535
497,499,488,497,531
503,497,502,497,530
507,501,505,503,524
507,498,506,499,525
504,500,511,501,525
506,503,516,506,524
510,506,521,513,519
518,508,524,519,514
520,517,531,529,513
533,517,530,531,489
538,519,533,536,503
530,519,525,531,514
519,516,518,526,521
511,510,513,523,508
503,497,497,516,508
497,497,495,502,520
495,497,496,500,527
494,497,499,500,527
497,498,502,500,528
507,501,509,503,531
504,499,508,502,527
506,503,513,512,519
511,503,519,510,513
516,507,522,516,509
524,510,524,521,499
533,516,528,528,488
536,519,529,532,497
536,520,528,535,495
531,519,525,531,518
523,515,518,526,511
517,512,513,521,512
501,503,503,508,529
495,496,495,499,526
493,498,496,499,523
493,497,500,501,506
495,496,502,501,500
503,498,507,504,516
506,501,512,505,513
509,506,516,511,510
518,505,519,510,499
524,509,523,518,497
529,511,525,522,498
536,518,528,528,503
540,522,534,535,506
534,521,529,533,516
530,517,522,528,518
522,517,521,530,510
506,504,504,513,513
496,499,498,506,521
491,497,496,501,528
489,496,496,496,531
496,494,498,495,529
495,496,503,498,523
499,498,506,499,510
505,498,510,503,501
511,504,518,506,506
527,505,519,511,503
532,512,527,522,509
530,515,529,526,506
529,518,532,538,503
531,518,529,533,501
530,519,527,533,502
526,515,521,528,498
526,514,517,528,501
518,504,502,509,516
504,499,496,500,525
497,497,496,499,527
496,501,501,498,530
495,496,501,497,526
500,499,507,500,514
501,497,508,500,513
507,504,518,505,510
511,500,518,508,510
516,507,522,515,510
527,509,525,519,510
532,517,533,532,514
539,521,534,534,507
539,520,530,533,509
532,518,524,529,516
520,514,518,524,520
512,510,512,521,507
500,500,500,507,522
493,495,495,502,521
497,495,496,498,520
493,497,499,498,517
499,497,502,497,517
504,498,507,500,519
507,500,511,503,513
514,505,516,506,510
520,503,519,510,507
523,508,523,516,505
527,512,527,523,506
527,514,529,527,503
531,521,534,536,497
532,522,532,536,501
522,515,522,526,507
516,513,517,526,508
506,504,506,515,525
498,500,500,506,527
498,498,499,502,529
495,496,498,496,529
494,496,500,496,528
498,496,503,497,526
501,497,505,500,527
508,502,514,503,522
511,504,518,507,514
516,501,518,513,508
525,510,528,521,498
530,513,529,526,485
533,517,530,531,488
533,517,529,534,489
530,518,526,534,499
516,516,520,527,520
510,513,516,525,521
501,506,506,509,526
498,497,496,502,526
497,498,497,501,523
494,497,499,498,529
493,497,502,498,527
506,501,507,500,516
504,498,508,497,526
507,502,513,500,523
516,504,517,507,521
520,506,521,511,522
526,509,523,518,520
531,515,529,526,502
538,521,533,536,466
535,521,530,534,486
530,520,526,533,498
520,516,520,529,505
511,511,514,524,503
499,504,503,514,515
493,497,496,503,515
499,499,498,499,518
494,497,499,498,520
498,497,502,498,518
502,499,506,498,519
505,499,509,504,515
509,503,518,508,510
517,504,519,512,498
521,510,518,518,507
528,512,532,527,504
533,515,530,529,492
537,520,533,534,494
536,521,531,536,495
524,515,521,528,504
520,514,519,526,517
512,505,506,514,530
501,499,497,507,528
496,495,495,498,524
496,499,499,499,524
498,496,500,496,529
499,496,503,495,534
498,496,505,500,513
502,496,512,508,517
508,503,516,506,526
512,505,520,510,523
516,509,527,520,508
527,513,528,526,500
533,518,532,532,487
537,520,531,536,485
536,519,527,535,472
526,513,518,529,479
515,512,515,523,507
498,502,502,510,532
493,501,496,505,530
497,497,498,500,530
490,495,498,496,532
494,495,501,496,521
504,499,507,500,516
505,495,506,503,524
508,500,513,503,521
510,502,518,508,526
520,506,521,514,515
527,510,525,520,512
535,516,531,527,505
541,519,530,532,475
536,520,529,533,492
533,516,524,530,504
525,514,518,525,514
518,510,512,521,518
497,501,500,508,533
490,496,495,501,530
492,497,497,500,520
494,499,500,500,513
497,497,503,500,507
501,501,505,506,510
504,500,511,503,516
509,501,513,502,519
513,502,518,507,520
518,507,523,516,512
524,511,526,521,503
535,517,535,535,497
538,521,534,535,496
540,520,529,534,498
531,515,521,529,507
523,514,518,526,514
510,505,505,515,522
498,499,498,505,529
496,497,497,501,536
495,495,497,496,536
492,495,501,497,529
496,498,504,497,520
508,498,507,504,523
507,499,512,502,516
512,503,517,507,499
515,503,518,510,500
524,509,525,518,503
528,516,530,531,497
535,519,536,535,501
532,518,530,533,507
536,521,528,535,509
524,513,519,527,513
520,512,516,525,519
504,503,503,511,533
496,498,498,502,537
491,492,493,497,535
492,497,499,501,524
494,496,501,499,513
502,500,508,502,515
504,502,512,506,519
509,504,516,509,518
514,507,522,508,513
518,505,521,514,516
529,510,526,520,511
537,515,530,528,500
535,519,531,533,499
536,521,532,537,504
527,517,524,530,508
521,513,518,524,516
511,513,518,524,522
496,500,501,509,524
492,495,496,502,522
494,496,497,500,520
497,497,500,498,526
499,499,500,497,526
506,500,506,505,517
506,498,510,501,504
510,502,515,507,496
515,503,519,510,501
524,508,523,517,501
526,511,526,522,505
535,516,533,535,507
535,523,535,536,501
534,520,528,534,503
529,516,523,529,520
522,515,518,525,526
509,508,508,517,541
495,498,498,507,541
492,495,494,502,515
496,494,496,496,525
498,497,500,500,513
503,498,503,501,511
500,497,505,500,509
509,500,512,504,506
506,503,515,505,517
518,505,520,510,526
522,510,524,520,511
528,511,526,525,503
536,517,530,533,499
536,520,531,535,498
537,524,529,535,498
526,511,519,526,503
524,513,515,524,505
508,501,501,511,517
492,495,494,502,514
490,495,499,500,525
492,495,497,498,526
495,492,498,497,523
499,498,505,501,513
501,502,512,504,501
503,500,512,504,503
509,502,517,509,501
515,505,520,514,506
519,509,524,520,523
530,520,529,527,505
533,520,536,535,505
536,520,529,534,504
529,523,526,535,515
518,514,518,526,518
516,516,518,526,520
501,501,500,509,521
497,497,496,503,520
497,499,499,501,521
498,497,500,500,522
496,498,503,500,523
503,501,509,505,524
508,497,506,498,513
510,502,515,507,509
512,503,519,510,510
520,508,524,518,511
526,512,526,522,515
527,515,527,527,510
533,517,531,535,502
531,521,532,538,502
518,517,523,532,509
518,514,516,527,513
512,507,507,518,519
500,501,501,509,524
495,498,498,502,528
492,496,497,497,533
494,494,501,495,537
499,496,503,497,525
499,499,507,499,519
506,502,513,503,523
509,501,514,505,511
515,504,518,511,508
521,509,525,519,502
527,514,528,528,487
534,517,531,534,483
539,520,532,538,485
536,520,532,540,495
529,516,521,532,498
524,516,519,525,514
506,503,503,509,541
497,497,495,498,547
493,497,499,498,542
491,499,499,499,519
499,496,501,498,521
501,495,505,500,523
502,499,508,501,520
505,501,513,503,521
512,504,517,509,510
526,507,521,516,499
527,509,525,522,482
534,519,530,531,496
536,520,530,531,496
536,520,529,535,499
532,522,528,536,507
524,517,520,528,520
517,513,519,524,522
500,503,502,510,534
494,499,497,503,533
493,499,498,500,531
494,497,498,498,527
494,496,500,498,528
505,501,508,503,526
508,499,508,500,521
514,504,516,510,511
518,507,521,514,512
519,507,521,516,514
523,511,525,521,508
532,518,529,528,502
538,524,535,534,499
536,520,530,536,502
524,515,519,530,501
516,509,509,524,499
508,507,507,517,516
497,501,499,507,530
492,498,496,502,532
492,496,497,499,532
493,497,499,497,532
499,498,503,498,523
503,499,507,502,510
508,500,514,505,519
508,501,513,506,513
512,504,518,513,506
520,509,524,522,501
527,512,526,522,503
533,518,530,528,509
538,524,533,533,511
536,522,530,535,509
523,510,516,528,498
517,512,515,523,504
508,504,504,512,514
501,497,496,504,517
498,498,496,499,522
495,496,497,497,520
496,497,500,497,519
498,498,504,501,514
500,498,508,501,518
509,502,513,507,519
510,505,513,506,514
517,506,521,514,505
522,509,525,521,502
529,515,530,530,499
534,519,531,535,494
534,519,530,533,497
536,519,527,536,495
526,513,519,530,501
520,513,515,526,504
503,501,501,512,514
493,495,495,501,533
492,497,497,500,539
496,496,500,499,530
500,496,501,498,523
503,498,507,501,513
504,501,512,505,510
508,500,512,505,505
514,504,519,511,514
520,507,524,517,515
524,511,526,523,509
531,517,531,534,507
537,519,531,534,499
537,521,530,536,503
530,520,523,531,510
526,514,519,528,508
516,508,509,518,518
499,501,497,507,527
494,495,496,500,525
496,495,496,498,524
498,496,499,497,525
497,495,501,496,527
503,500,510,498,527
504,498,510,500,525
506,502,515,506,516
511,503,519,512,515
522,512,521,517,510
528,512,527,523,503
532,516,530,529,500
534,522,533,533,506
534,520,529,535,511
525,515,521,527,525
520,514,518,525,513
507,504,505,513,522
497,498,499,506,529
496,497,497,501,528
489,495,498,500,518
493,499,500,504,514
501,500,507,501,516
503,500,507,500,514
507,503,514,504,504
510,502,516,511,514
518,506,522,514,511
527,509,524,518,504
531,513,527,525,492
534,519,532,533,500
535,521,533,536,507
531,518,526,533,510
526,514,519,527,513
519,512,517,523,518
499,501,501,507,527
493,498,497,503,523
497,495,496,499,523
499,497,500,497,523
496,495,501,496,515
498,498,508,498,513
500,498,509,500,518
510,502,515,505,517
511,503,520,509,519
521,508,525,517,520
522,513,525,520,514
530,516,531,529,504
536,521,534,537,476
537,519,529,535,481
532,516,523,530,490
521,514,517,524,516
522,508,511,517,509
506,503,502,508,507
494,497,496,499,513
495,496,497,498,538
492,492,499,497,526
493,495,501,496,527
503,498,506,498,517
509,501,511,501,512
511,501,514,506,520
512,506,516,512,527
519,509,525,517,508
527,514,528,522,508
533,517,535,532,502
533,516,530,535,492
531,520,528,537,489
525,514,520,531,505
520,513,520,527,507
506,503,504,513,520
497,497,496,500,529
497,498,498,502,526
494,498,501,497,518
496,497,505,499,515
498,498,508,500,511
502,499,508,501,511
510,501,513,504,512
513,502,516,507,511
515,505,521,511,515
524,509,526,519,511
530,514,530,525,502
537,518,531,533,498
537,523,531,533,502
532,517,525,531,507
522,517,518,525,521
518,511,513,523,510
507,503,503,511,523
495,497,496,502,524
492,496,496,498,525
493,499,502,497,518
490,495,500,497,520
497,501,511,500,517
500,498,509,500,515
506,505,517,504,518
513,505,519,510,504
526,510,526,519,502
526,512,525,522,510
537,520,529,527,508
541,520,531,531,508
540,525,535,541,491
529,517,523,529,498
519,513,516,523,507
513,506,510,519,518
498,497,498,508,530
495,498,497,499,530
494,496,497,497,526
497,496,499,496,523
501,497,502,495,528
504,500,507,498,527
506,504,512,500,528
511,503,515,505,524
513,504,518,509,512
526,509,525,519,489
531,514,527,525,482
535,519,531,530,491
539,521,533,536,492
533,521,529,535,499
524,517,522,529,512
519,514,518,524,520
501,502,503,511,523
490,496,496,502,536
492,497,498,503,539
491,496,498,497,540
495,496,499,495,532
503,497,503,497,521
510,497,506,494,523
505,499,511,500,515
511,506,519,507,507
515,508,521,514,493
521,511,528,523,493
528,515,530,527,493
531,520,533,533,495
533,522,531,536,501
530,523,532,533,505
523,514,519,526,514
516,513,516,523,520
502,503,502,509,520
496,497,496,501,517
493,497,498,499,516
497,498,500,498,514
497,497,501,495,511
502,498,506,498,508
504,499,509,499,513
508,504,519,504,515
511,503,517,506,514
519,506,522,514,504
526,511,526,520,503
531,517,531,528,493
534,520,533,533,487
536,521,533,537,499
525,516,524,531,501
519,513,519,527,510
511,510,513,519,531
498,501,501,507,535
494,498,497,500,528
495,500,498,497,523
498,498,501,499,516
499,493,501,503,508
505,499,508,501,506
506,500,512,502,519
511,502,513,510,530
514,505,519,508,539
517,507,522,513,541
528,514,529,523,517
531,517,530,525,528
532,520,532,533,516
533,520,529,537,488
526,514,520,530,483
522,515,520,529,492
504,507,507,516,517
492,498,497,506,523
491,496,497,501,520
491,495,497,498,515
495,497,500,497,518
500,498,505,498,512
510,499,508,499,510
505,500,512,502,524
513,503,516,507,521
516,509,523,516,514
527,513,524,524,511
533,515,530,528,496
535,519,532,534,489
537,520,531,536,490
534,519,529,535,498
523,515,519,530,509
518,513,516,523,519
507,504,503,511,528
498,499,498,502,531
493,497,497,497,533
495,496,498,495,526
499,495,500,497,518
501,496,510,504,516
503,495,507,503,514
509,501,514,504,509
516,505,518,509,514
519,504,521,513,507
526,509,524,520,503
530,516,530,529,503
536,523,532,535,492
536,520,529,535,493
528,516,524,532,500
523,514,518,527,494
517,514,512,519,509
496,499,499,505,538
493,497,497,501,541
494,498,498,500,537
495,495,498,502,527
498,496,502,498,527
501,498,507,501,520
502,499,510,500,522
512,502,514,505,516
515,507,521,509,512
524,507,521,514,511
530,512,528,523,504
531,516,534,528,510
534,520,534,535,513
535,522,531,536,511
524,510,519,527,516
519,513,517,526,497
505,504,504,512,520
494,498,497,503,527
493,496,497,500,528
491,494,496,494,528
492,494,500,494,520
497,500,503,497,511
501,498,508,500,518
506,500,512,502,508
512,503,517,508,519
518,503,518,508,517
522,508,523,518,500
530,514,528,525,500
535,522,537,533,499
535,519,530,533,498
534,520,527,533,501
523,513,518,527,510
519,516,521,525,513
498,502,502,511,523
494,497,496,503,528
497,498,498,500,527
494,500,503,502,523
495,494,500,495,522
500,499,507,501,511
503,499,510,504,514
512,500,513,502,508
514,504,519,510,507
513,507,522,514,518
521,510,525,520,520
531,516,530,528,508
538,521,534,536,507
538,519,530,536,505
529,518,524,531,507
522,513,517,526,511
516,509,511,521,516
501,500,499,507,522
497,498,496,501,524
494,496,497,499,527
496,496,499,498,525
498,497,501,497,523
504,500,507,503,522
502,499,509,501,521
508,500,512,506,517
514,505,518,510,510
521,510,524,520,503
525,511,524,523,499
535,518,531,531,494
534,520,532,536,499
535,521,529,535,502
526,515,519,529,514
522,515,519,529,520
507,505,507,517,527
494,499,495,507,515
490,498,497,504,510
495,495,496,499,519
496,496,502,501,532
496,499,503,501,522
504,499,508,502,516
511,507,513,504,513
516,504,515,507,516
519,504,517,511,510
524,509,522,520,507
529,515,529,530,502
534,518,530,532,487
533,519,529,536,497
526,520,526,532,522
515,512,515,524,527
511,512,514,522,522
502,504,502,513,520
501,496,494,505,513
499,496,495,499,521
504,498,498,498,524
501,496,499,496,529
500,497,505,499,538
502,498,506,499,540
506,504,513,505,498
511,502,515,509,507
519,509,524,520,500
523,509,523,523,493
529,516,529,531,491
528,521,529,532,494
532,521,529,536,497
532,520,525,534,500
523,515,518,529,505
517,512,512,522,510
500,500,499,508,521
495,498,497,502,525
496,497,497,499,521
496,498,499,498,521
499,497,500,498,522
506,499,506,500,520
505,501,510,503,527
505,501,513,505,521
509,504,519,512,512
523,511,527,523,493
528,514,528,526,496
532,517,530,533,496
534,519,530,536,492
535,519,528,537,491
528,520,526,531,510
520,515,517,527,514
511,507,506,517,530
497,500,498,508,529
495,499,499,506,531
494,497,497,500,530
497,496,499,499,521
501,495,502,496,505
506,498,506,507,502
508,503,513,506,506
511,501,515,507,506
512,505,519,511,512
522,511,526,520,510
529,515,529,526,506
540,519,535,536,507
535,520,530,534,502
537,523,531,536,508
523,515,518,526,517
516,512,515,524,518
499,502,502,514,530
491,497,497,505,532
492,495,495,500,526
493,495,496,498,522
499,496,499,498,515
505,500,506,499,521
504,499,507,500,521
509,502,513,505,512
517,504,518,506,514
519,507,521,513,509
523,513,527,523,513
528,516,529,528,512
534,521,532,534,517
534,519,528,534,513
528,522,525,531,521
518,519,518,530,512
515,511,515,525,505
503,499,497,506,517
497,497,496,501,519
499,499,498,503,523
499,497,499,498,517
498,495,500,495,525
501,499,506,501,526
507,499,509,502,519
508,502,514,506,520
508,506,520,510,537
515,507,522,514,521
519,510,525,521,496
526,515,528,528,481
533,524,536,538,513
528,520,529,535,519
515,515,522,530,548
525,514,516,523,540
520,505,505,518,504
495,498,497,507,500
492,496,497,501,501
494,497,499,499,499
494,496,498,503,507
500,497,505,498,520
509,500,510,501,522
505,497,509,502,501
514,503,517,509,496
525,504,519,511,501
526,510,525,519,509
537,517,531,527,509
540,521,535,534,504
543,519,530,535,496
540,520,528,536,495
528,512,517,527,498
526,513,515,527,493
506,506,507,515,510
493,498,496,505,525
491,497,496,498,525
496,497,498,496,535
498,497,505,501,539
498,499,505,499,525
499,498,508,500,524
498,500,512,504,515
508,503,517,509,514
511,508,523,513,514
516,510,523,520,512
521,516,528,527,507
536,521,536,538,502
538,521,530,536,497
550,519,525,533,493
533,514,517,527,500
523,512,513,524,503
507,502,501,511,519
502,499,497,502,520
497,497,496,498,529
500,499,500,498,529
500,498,501,497,531
508,499,507,502,518
510,499,509,502,523
513,502,514,506,516
519,505,519,511,520
524,509,524,517,515
532,513,525,522,504
538,518,530,530,499
542,521,533,536,472
540,521,530,536,486
523,515,521,529,527
518,512,515,525,531
501,507,507,518,534
493,501,499,508,531
490,496,495,501,525
489,495,495,496,528
491,494,497,496,520
495,496,501,498,518
502,498,505,500,511
505,499,509,502,512
510,503,515,506,508
514,503,517,512,508
521,508,523,520,504
527,513,527,526,505
533,519,530,531,503
537,522,531,536,502
538,521,531,539,494
524,515,519,528,510
519,514,515,523,513
503,501,500,511,525
492,497,495,502,530
493,496,496,500,524
493,497,497,497,526
494,498,501,499,524
503,499,505,503,519
502,498,507,500,512
508,501,511,502,511
511,503,516,508,504
516,507,522,515,509
524,511,525,522,506
530,516,529,528,502
537,521,532,535,498
536,520,529,536,495
534,517,524,533,506
520,512,517,526,515
520,513,516,523,516
506,502,500,508,522
494,496,495,500,519
494,497,496,497,520
501,498,500,498,524
498,497,502,499,521
501,497,504,499,520
497,496,507,499,517
503,502,518,506,513
508,504,519,511,515
514,509,524,516,522
521,512,526,523,504
531,517,531,531,484
535,520,533,539,491
535,520,528,534,486
528,516,523,530,499
523,515,517,523,500
513,506,504,513,515
501,500,499,506,530
498,497,497,501,530
494,497,498,498,529
497,497,501,500,535
502,498,504,502,527
503,496,506,501,519
500,497,509,503,518
504,503,517,507,517
516,504,519,511,520
526,508,523,519,507
535,514,529,528,499
536,517,535,535,510
535,520,533,533,520
532,525,532,532,525
522,513,519,526,513
520,513,517,527,489
502,502,502,511,516
489,496,497,500,529
488,496,498,500,507
492,497,499,498,513
492,497,498,502,506
499,498,505,504,512
504,498,509,502,510
518,500,513,505,503
520,502,517,509,501
523,508,523,516,499
522,510,526,520,517
527,514,529,528,507
536,519,533,534,504
535,519,531,535,526
531,520,524,531,507
520,512,517,526,494
514,510,515,523,507
500,502,502,509,521
493,496,496,500,522
493,494,495,497,529
502,495,498,497,526
498,496,501,497,523
509,501,508,500,517
504,498,508,500,516
510,502,515,507,504
516,505,521,511,512
520,507,523,517,511
525,513,529,525,512
534,517,531,529,513
538,521,533,534,502
534,520,528,533,492
532,518,524,532,494
520,517,521,526,496
509,506,507,516,509
499,502,501,507,537
490,497,496,500,535
489,494,495,498,524
496,494,499,500,532
507,498,504,500,521
509,501,506,505,518
507,499,509,503,517
517,504,517,507,520
518,506,521,514,518
526,511,527,521,510
529,513,528,525,507
535,522,536,532,506
536,523,530,536,507
535,521,528,534,507
525,514,517,526,519
519,517,516,525,518
504,502,502,511,531
494,498,497,508,521
494,497,496,502,519
493,497,497,504,524
498,496,500,501,514
506,496,504,497,514
506,500,509,500,525
508,501,512,502,523
513,503,517,505,513
517,508,523,514,504
522,510,525,520,497
527,515,529,527,494
533,519,533,533,494
534,520,531,535,495
530,518,525,533,496
520,513,516,525,507
516,512,515,524,510
505,502,501,511,525
494,497,496,502,532
496,497,495,499,527
497,500,500,500,521
496,495,500,497,517
505,501,507,502,503
505,497,508,500,501
512,502,514,507,506
509,503,516,508,515
516,507,522,515,515
525,510,524,521,503
532,517,530,530,495
537,520,533,537,495
533,523,525,535,512
525,517,523,532,523
515,514,517,525,527
509,503,509,521,522
494,498,497,505,531
495,496,495,499,526
491,497,499,498,525
493,495,498,496,527
502,502,506,501,519
511,500,507,497,511
509,499,509,499,511
515,504,516,507,511
515,505,519,510,518
524,508,523,517,516
527,512,526,526,509
538,520,532,533,509
536,520,537,540,499
536,520,528,536,494
525,516,522,532,510
521,514,518,526,510
504,502,502,511,523
494,498,496,504,536
489,495,495,500,530
491,496,496,497,522
496,499,498,496,516
498,496,503,498,517
502,498,506,498,523
505,502,514,502,521
508,503,516,507,518
518,505,520,513,512
525,507,524,520,507
531,518,531,533,509
538,519,532,536,506
537,523,530,538,497
535,521,529,536,493
522,509,517,526,511
522,515,513,527,511
506,501,500,508,518
496,501,501,504,525
493,498,498,499,521
494,496,498,497,509
496,495,499,497,516
502,503,506,497,533
503,499,510,502,529
506,500,513,504,519
509,503,518,508,521
516,507,521,516,511
529,509,524,522,501
533,516,529,531,488
537,524,532,535,495
535,522,531,538,510
526,517,523,531,512
521,514,518,528,507
512,508,510,521,505
497,499,499,511,511
497,498,499,508,512
495,497,498,500,521
497,497,500,499,518
499,495,502,495,520
505,499,507,503,524
500,497,509,498,544
507,502,516,506,521
515,505,520,513,507
520,511,525,524,511
527,513,527,523,505
534,518,530,531,500
538,521,537,536,490
536,523,529,536,496
525,515,522,530,506
521,514,518,526,511
504,504,505,513,533
495,497,497,504,534
494,495,496,499,528
496,496,498,498,523
498,494,499,496,513
502,498,505,500,517
505,499,509,501,515
505,498,511,502,515
509,502,516,507,522
512,505,521,514,517
520,508,525,521,513
529,515,534,530,515
534,519,535,536,515
535,519,529,534,510
532,520,527,535,509
524,513,517,526,517
520,512,514,523,522
502,503,501,509,528
497,497,496,501,526
493,495,495,497,530
497,497,499,498,531
498,496,501,498,526
501,499,506,502,524
501,499,510,502,515
506,505,517,504,515
512,504,518,509,502
520,508,523,516,510
524,511,526,521,505
534,516,529,531,484
536,520,533,537,487
532,524,532,537,501
517,517,523,532,505
509,511,515,525,520
499,506,512,520,525
487,498,498,505,522
486,496,495,498,522
504,500,499,501,518
508,495,497,496,518
503,496,500,496,520
509,499,506,501,513
513,500,510,504,515
515,503,514,505,510
513,504,519,513,507
521,510,524,521,500
526,514,527,527,499
531,517,533,534,501
534,520,531,534,503
543,523,530,537,504
530,515,519,528,512
523,514,514,524,520
506,503,503,511,527
495,497,496,502,533
494,496,496,499,534
499,496,497,497,530
498,497,500,498,530
501,498,505,499,528
501,500,509,502,525
506,499,512,502,522
510,502,514,505,513
517,505,523,511,513
525,509,523,515,518
533,516,530,528,507
544,520,533,536,494
539,519,531,537,495
536,521,529,540,487
523,513,519,531,499
519,512,516,526,507
505,503,502,509,522
497,496,495,499,533
494,497,497,498,530
495,502,504,503,530
498,497,502,499,520
505,499,506,500,516
503,498,507,499,528
505,501,512,503,532
508,502,516,506,535
517,506,520,512,520
522,510,524,523,501
530,515,529,527,489
534,520,530,535,483
533,520,530,535,481
525,518,524,532,499
516,514,518,530,493
515,508,510,522,488
505,500,499,510,502
496,494,493,502,514
497,496,497,498,522
496,496,499,495,524
494,495,502,497,537
503,497,506,501,537
503,498,509,500,525
507,500,513,504,508
514,504,518,510,509
522,509,524,516,509
528,511,524,521,508
533,516,530,528,513
533,519,532,534,515
531,520,531,539,493
527,517,522,531,500
520,515,518,528,507
506,508,507,514,521
496,499,498,503,527
492,496,497,500,540
489,496,498,496,537
495,495,498,495,523
495,500,506,498,512
504,499,509,502,518
505,500,511,502,520
513,504,518,508,517
518,506,522,514,509
524,510,525,521,503
531,515,530,528,501
531,517,532,532,501
532,520,533,537,502
527,518,527,532,500
522,516,522,525,512
520,512,516,523,513
501,501,503,510,525
496,502,502,505,528
498,498,498,499,522
502,497,500,498,517
499,498,502,499,523
500,498,507,500,521
500,503,512,502,522
508,500,513,501,524
508,502,517,508,519
516,506,523,516,508
520,510,530,524,502
532,515,530,529,501
534,519,533,535,505
532,521,531,537,508
526,513,524,532,501
515,511,516,525,501
520,511,512,522,511
505,501,500,509,519
495,496,496,501,520
496,494,495,498,526
496,496,499,499,519
500,497,503,499,519
506,498,506,506,523
500,493,510,503,526
506,500,512,506,522
511,503,518,509,521
527,508,523,515,509
532,512,527,524,508
533,517,530,531,501
536,520,533,537,504
528,519,528,535,508
520,514,521,529,523
515,512,517,527,511
503,502,503,512,505
495,498,497,504,528
492,497,496,499,532
491,495,496,495,531
496,495,503,494,532
496,498,508,500,513
502,498,508,502,512
506,498,510,503,524
509,502,514,507,517
516,503,518,511,506
526,509,525,521,497
534,516,530,527,499
540,521,533,535,492
538,523,532,537,491
533,518,528,535,500
524,515,519,529,512
520,513,518,526,517
502,503,502,512,533
495,497,496,504,536
495,496,496,501,528
493,500,498,500,510
492,494,500,498,507
504,499,506,505,500
504,497,506,501,498
514,502,513,505,502
523,503,516,507,502
526,506,521,517,502
526,510,525,522,518
530,515,529,528,522
533,519,530,533,508
534,521,530,534,510
531,520,526,532,513
520,514,517,525,517
517,509,511,519,519
497,495,499,508,521
495,498,497,504,519
493,497,498,499,526
492,497,500,498,523
495,495,500,495,520
502,499,507,501,512
504,498,507,502,498
512,505,519,509,500
521,504,518,511,497
527,508,523,518,501
532,516,528,525,510
534,517,530,529,512
537,521,533,536,495
537,521,530,536,488
528,514,520,528,508
519,513,516,521,515
505,504,505,512,521
487,497,499,505,551
486,496,496,499,535
491,499,499,500,529
494,494,501,500,525
497,496,502,496,519
501,499,508,500,522
499,498,509,501,530
509,503,517,506,529
520,507,521,511,523
526,510,526,520,509
531,515,528,525,485
533,518,530,531,490
539,520,531,536,494
536,522,533,540,495
523,513,517,526,504
523,514,517,527,509
501,503,504,511,520
495,498,497,503,522
494,499,498,500,523
492,500,502,501,529
494,496,500,497,521
498,498,505,499,512
500,499,508,500,515
505,501,513,504,513
509,502,517,508,508
517,507,522,516,511
528,510,525,520,510
538,516,530,528,502
537,519,532,533,498
536,520,530,535,505
530,521,530,538,496
520,515,520,527,504
516,510,513,522,504
499,500,499,506,526
493,495,496,500,522
495,494,496,499,522
495,496,500,499,525
498,497,502,498,518
507,502,508,500,511
506,498,511,503,515
508,501,513,503,506
512,504,519,511,512
518,509,526,521,511
524,515,527,526,510
533,515,530,532,498
535,520,533,536,504
534,520,530,536,504
526,519,526,536,511
519,516,523,529,517
507,505,507,516,524
498,499,499,506,527
493,497,498,503,524
496,497,498,500,515
502,498,502,500,512
503,501,503,499,510
507,500,509,501,510
505,496,510,500,528
511,504,517,507,529
519,506,522,512,528
520,510,526,519,517
526,512,529,526,504
531,517,532,533,496
534,521,532,537,495
532,520,528,536,508
524,514,520,529,522
517,513,516,526,515
502,500,500,516,522
493,495,494,501,528
494,496,496,500,528
492,499,498,500,530
497,498,502,499,526
501,500,508,501,522
502,498,510,502,516
505,500,512,504,513
512,501,516,507,510
519,505,518,512,512
528,512,526,523,511
532,514,527,527,503
537,522,534,533,501
538,522,532,538,495
532,520,526,535,494
518,512,518,529,510
516,509,508,526,511
504,501,501,508,528
494,497,495,500,525
488,495,496,498,525
488,497,498,497,522
494,496,501,497,515
507,500,507,502,511
503,498,508,500,513
510,504,516,507,513
513,503,519,510,510
517,507,522,517,511
523,513,526,523,505
534,515,532,532,500
536,520,532,535,502
534,522,535,540,511
522,514,519,528,516
514,512,515,525,512
505,509,510,520,525
496,499,499,506,527
493,496,495,502,523
500,496,497,500,523
503,497,500,499,525
508,496,503,502,516
509,501,510,503,503
506,499,509,502,513
510,503,516,508,511
516,503,516,506,503
523,509,521,516,515
530,515,530,527,499
538,519,533,533,485
536,520,531,536,491
534,521,527,536,494
525,514,520,529,506
524,514,518,525,519
504,502,503,509,530
496,496,497,500,534
492,496,496,496,532
492,493,497,497,530
495,497,501,496,532
501,500,507,500,523
503,499,510,503,507
502,499,511,503,506
514,502,516,508,498
517,505,521,515,495
527,510,525,522,513
531,516,531,528,509
535,520,537,537,502
540,521,532,536,502
534,521,525,535,510
525,514,518,526,521
520,516,515,522,522
499,499,501,510,532
490,496,500,503,539
485,493,499,500,527
493,496,499,498,520
495,495,501,498,524
499,498,506,502,505
507,500,510,502,507
515,501,512,504,511
515,502,517,509,510
522,508,523,518,505
527,511,525,521,503
538,514,530,529,507
537,519,532,533,511
531,519,528,535,502
525,518,523,532,507
516,514,517,527,514
509,510,511,517,525
501,499,499,507,527
495,497,496,501,528
495,495,496,497,521
497,497,500,499,517
502,498,503,499,515
506,501,509,501,508
505,497,509,499,514
512,503,515,506,511
518,505,521,512,511
524,510,524,520,509
529,514,528,526,501
534,518,532,536,501
536,519,528,533,499
536,521,529,535,507
523,512,517,526,516
519,512,515,524,518
506,504,506,510,529
499,497,496,502,527
497,496,495,499,521
496,496,496,497,521
495,494,498,495,520
492,497,504,499,514
501,500,509,504,508
506,499,511,504,502
508,504,518,510,501
515,507,522,515,506
526,509,524,519,505
531,513,528,526,510
534,519,533,534,508
533,519,531,537,504
532,521,528,536,504
522,518,521,530,527
520,512,514,522,523
504,504,499,506,529
494,496,495,499,528
491,498,498,497,524
494,500,504,503,518
495,499,504,501,518
503,498,507,506,510
499,497,508,500,521
504,499,510,504,524
515,504,519,511,525
522,509,523,517,519
530,513,527,525,500
531,515,532,535,500
538,521,534,537,499
534,525,533,540,504
527,516,524,530,515
521,511,515,523,523
512,508,509,518,531
503,499,498,505,539
494,497,499,504,536
491,497,498,497,525
496,495,497,497,513
507,498,504,501,509
507,498,507,502,515
506,497,508,504,506
510,501,515,507,513
517,504,520,510,524
525,509,524,518,516
525,512,528,526,507
533,516,531,531,479
533,521,536,541,487
534,520,531,536,494
524,515,521,529,505
520,511,515,524,502
506,503,504,513,518
498,497,497,505,533
498,496,496,497,523
496,495,497,495,521
497,496,500,495,529
501,498,505,498,527
503,500,509,502,516
502,501,512,504,518
512,504,518,509,511
518,506,521,513,504
522,508,524,518,501
531,516,531,528,494
533,518,532,532,499
532,519,532,536,497
534,519,529,536,496
520,513,518,528,510
517,511,515,527,510
506,501,501,508,528
496,497,495,497,534
495,496,497,496,528
496,497,499,498,518
498,497,503,498,515
503,503,510,501,516
504,502,513,505,521
508,501,513,504,515
515,504,518,509,513
527,509,525,517,512
527,511,527,523,505
537,517,535,533,499
536,519,532,536,492
536,520,529,534,503
530,519,524,531,524
519,512,516,524,521
507,507,508,516,531
495,504,503,507,538
494,497,498,500,531
496,496,498,498,521
495,497,499,497,521
500,498,500,498,521
510,502,510,503,520
507,502,512,501,515
513,506,521,509,501
516,503,518,511,498
525,511,526,517,492
530,515,529,525,495
536,517,531,531,502
536,520,531,536,498
535,521,530,535,512
524,515,520,527,517
519,512,515,524,514
505,501,502,516,526
497,497,496,503,528
496,496,495,497,537
496,496,497,497,538
496,495,499,494,537
499,497,504,499,509
497,498,508,500,519
501,500,511,502,520
509,501,515,507,513
517,506,521,513,517
523,509,524,518,509
529,514,529,525,502
533,520,533,533,496
537,521,532,536,500
534,520,527,534,508
520,512,517,526,504
518,512,514,528,512
507,501,500,508,525
495,496,491,497,531
498,495,495,497,525
496,497,499,497,520
496,495,501,495,527
500,495,506,500,527
503,498,510,501,513
506,503,512,509,507
