CH1,CH2,CH3,CH4,CH5
513.0,505.0,524.0,506.0,499.0
517.0,503.0,528.0,512.0,503.0
516.0,501.0,525.0,505.0,502.0
516.0,505.0,526.0,506.0,506.0
521.0,504.0,524.0,515.0,509.0
522.0,506.0,520.0,515.0,511.0
528.0,511.0,520.0,522.0,502.0
533.0,514.0,516.0,526.0,506.0
527.0,513.0,506.0,526.0,520.0
525.0,515.0,507.0,529.0,516.0
521.0,513.0,508.0,525.0,520.0
514.0,510.0,499.0,520.0,523.0
502.0,501.0,496.0,510.0,521.0
498.0,496.0,498.0,506.0,513.0
499.0,501.0,506.0,505.0,513.0
503.0,503.0,515.0,506.0,512.0
503.0,500.0,520.0,504.0,514.0
505.0,501.0,527.0,506.0,508.0
512.0,500.0,526.0,505.0,499.0
515.0,501.0,526.0,506.0,492.0
514.0,502.0,525.0,509.0,503.0
516.0,502.0,523.0,512.0,502.0
518.0,510.0,523.0,516.0,514.0
526.0,511.0,517.0,522.0,517.0
525.0,514.0,514.0,527.0,518.0
525.0,516.0,510.0,530.0,519.0
518.0,517.0,504.0,526.0,523.0
515.0,513.0,501.0,524.0,515.0
506.0,506.0,494.0,515.0,515.0
500.0,506.0,496.0,510.0,512.0
496.0,502.0,503.0,507.0,513.0
498.0,502.0,511.0,507.0,503.0
500.0,500.0,518.0,506.0,517.0
503.0,503.0,524.0,502.0,518.0
512.0,502.0,527.0,507.0,499.0
512.0,501.0,527.0,507.0,503.0
509.0,501.0,526.0,505.0,513.0
513.0,502.0,524.0,508.0,512.0
522.0,506.0,522.0,513.0,514.0
524.0,510.0,520.0,520.0,516.0
524.0,517.0,518.0,524.0,515.0
526.0,517.0,510.0,525.0,508.0
532.0,518.0,509.0,530.0,521.0
524.0,514.0,505.0,527.0,529.0
519.0,512.0,502.0,523.0,524.0
509.0,503.0,493.0,514.0,531.0
501.0,501.0,497.0,507.0,520.0
503.0,502.0,505.0,508.0,516.0
505.0,503.0,514.0,505.0,507.0
504.0,501.0,519.0,505.0,498.0
509.0,502.0,520.0,505.0,498.0
514.0,503.0,527.0,504.0,497.0
514.0,500.0,526.0,504.0,496.0
524.0,504.0,528.0,510.0,489.0
524.0,506.0,525.0,517.0,489.0
522.0,504.0,522.0,516.0,501.0
524.0,510.0,520.0,523.0,500.0
527.0,516.0,519.0,525.0,512.0
529.0,516.0,510.0,527.0,503.0
521.0,515.0,506.0,527.0,511.0
510.0,512.0,503.0,525.0,526.0
506.0,510.0,506.0,522.0,528.0
499.0,504.0,498.0,511.0,547.0
495.0,502.0,504.0,506.0,533.0
495.0,501.0,508.0,507.0,526.0
499.0,502.0,517.0,504.0,517.0
498.0,500.0,521.0,501.0,513.0
500.0,502.0,526.0,504.0,524.0
509.0,505.0,527.0,507.0,525.0
517.0,502.0,526.0,504.0,508.0
524.0,503.0,526.0,508.0,504.0
527.0,507.0,524.0,511.0,512.0
531.0,508.0,520.0,516.0,516.0
529.0,512.0,517.0,520.0,510.0
527.0,515.0,514.0,525.0,508.0
521.0,516.0,510.0,528.0,501.0
518.0,515.0,505.0,522.0,522.0
508.0,514.0,505.0,523.0,523.0
496.0,507.0,494.0,513.0,531.0
491.0,503.0,498.0,508.0,529.0
492.0,502.0,505.0,506.0,520.0
500.0,502.0,511.0,508.0,511.0
510.0,501.0,516.0,503.0,503.0
513.0,505.0,521.0,505.0,508.0
522.0,504.0,527.0,512.0,502.0
520.0,502.0,526.0,504.0,505.0
524.0,504.0,527.0,512.0,504.0
521.0,504.0,525.0,510.0,510.0
522.0,506.0,521.0,514.0,508.0
527.0,511.0,522.0,520.0,509.0
534.0,517.0,522.0,522.0,525.0
532.0,516.0,512.0,523.0,531.0
530.0,517.0,508.0,526.0,537.0
523.0,515.0,503.0,524.0,528.0
516.0,511.0,501.0,522.0,511.0
504.0,504.0,494.0,511.0,526.0
497.0,503.0,499.0,506.0,527.0
496.0,503.0,508.0,506.0,515.0
499.0,502.0,514.0,506.0,513.0
499.0,501.0,523.0,504.0,510.0
501.0,502.0,524.0,505.0,503.0
504.0,505.0,528.0,506.0,500.0
513.0,502.0,528.0,507.0,507.0
515.0,502.0,525.0,506.0,507.0
520.0,504.0,523.0,515.0,504.0
520.0,506.0,520.0,516.0,506.0
534.0,512.0,520.0,522.0,507.0
537.0,514.0,514.0,528.0,516.0
533.0,518.0,509.0,526.0,517.0
534.0,514.0,506.0,526.0,515.0
523.0,514.0,503.0,526.0,524.0
514.0,510.0,497.0,520.0,529.0
500.0,501.0,499.0,509.0,530.0
498.0,502.0,503.0,508.0,519.0
494.0,500.0,507.0,505.0,508.0
499.0,500.0,511.0,504.0,510.0
501.0,500.0,519.0,503.0,508.0
508.0,503.0,525.0,506.0,505.0
510.0,502.0,526.0,505.0,504.0
514.0,501.0,525.0,508.0,502.0
516.0,502.0,524.0,511.0,501.0
521.0,505.0,526.0,511.0,504.0
522.0,508.0,521.0,515.0,512.0
530.0,512.0,519.0,524.0,512.0
527.0,513.0,513.0,524.0,517.0
524.0,515.0,509.0,527.0,523.0
515.0,516.0,506.0,525.0,524.0
514.0,513.0,504.0,522.0,534.0
505.0,508.0,496.0,518.0,542.0
497.0,501.0,496.0,508.0,535.0
496.0,500.0,502.0,507.0,510.0
499.0,502.0,511.0,508.0,505.0
503.0,502.0,519.0,508.0,499.0
504.0,503.0,523.0,505.0,510.0
509.0,502.0,527.0,507.0,503.0
512.0,502.0,526.0,509.0,487.0
516.0,505.0,531.0,510.0,485.0
515.0,502.0,525.0,513.0,499.0
512.0,503.0,521.0,515.0,512.0
521.0,510.0,520.0,521.0,525.0
524.0,514.0,517.0,527.0,524.0
525.0,509.0,511.0,526.0,514.0
524.0,516.0,507.0,527.0,524.0
520.0,513.0,501.0,523.0,536.0
515.0,516.0,502.0,524.0,532.0
506.0,504.0,499.0,514.0,531.0
501.0,501.0,498.0,508.0,533.0
502.0,500.0,504.0,510.0,514.0
505.0,502.0,512.0,504.0,487.0
508.0,502.0,521.0,505.0,497.0
506.0,502.0,524.0,503.0,533.0
507.0,502.0,527.0,504.0,529.0
503.0,500.0,526.0,505.0,521.0
509.0,502.0,531.0,510.0,514.0
514.0,505.0,525.0,512.0,511.0
520.0,504.0,519.0,513.0,505.0
528.0,512.0,520.0,521.0,507.0
533.0,514.0,514.0,525.0,504.0
526.0,515.0,510.0,529.0,510.0
521.0,514.0,504.0,532.0,509.0
514.0,517.0,506.0,525.0,518.0
508.0,510.0,500.0,520.0,527.0
492.0,502.0,494.0,510.0,524.0
497.0,501.0,499.0,504.0,515.0
499.0,501.0,507.0,504.0,514.0
504.0,502.0,515.0,509.0,506.0
508.0,500.0,519.0,503.0,503.0
511.0,502.0,523.0,505.0,497.0
515.0,502.0,525.0,508.0,508.0
516.0,503.0,527.0,505.0,507.0
517.0,504.0,527.0,511.0,498.0
520.0,505.0,523.0,513.0,516.0
517.0,508.0,520.0,519.0,521.0
522.0,510.0,518.0,525.0,513.0
520.0,514.0,513.0,526.0,514.0
523.0,517.0,510.0,529.0,525.0
519.0,514.0,504.0,526.0,524.0
515.0,514.0,503.0,526.0,524.0
501.0,505.0,494.0,515.0,527.0
498.0,502.0,496.0,508.0,530.0
498.0,503.0,503.0,507.0,526.0
499.0,502.0,511.0,505.0,521.0
502.0,501.0,521.0,504.0,506.0
505.0,501.0,521.0,507.0,496.0
509.0,503.0,526.0,506.0,492.0
511.0,502.0,530.0,505.0,494.0
514.0,505.0,528.0,505.0,511.0
515.0,505.0,523.0,509.0,512.0
522.0,506.0,522.0,516.0,503.0
524.0,509.0,519.0,520.0,502.0
530.0,514.0,517.0,529.0,510.0
533.0,515.0,511.0,528.0,516.0
525.0,516.0,507.0,527.0,523.0
514.0,514.0,503.0,526.0,526.0
510.0,511.0,503.0,523.0,524.0
496.0,501.0,499.0,514.0,529.0
491.0,501.0,499.0,509.0,519.0
495.0,502.0,506.0,507.0,516.0
513.0,504.0,513.0,506.0,509.0
514.0,502.0,521.0,504.0,500.0
518.0,503.0,526.0,506.0,499.0
512.0,502.0,527.0,505.0,500.0
516.0,501.0,525.0,505.0,502.0
515.0,499.0,527.0,504.0,514.0
521.0,504.0,524.0,510.0,521.0
526.0,506.0,520.0,516.0,524.0
530.0,511.0,519.0,518.0,522.0
531.0,514.0,513.0,528.0,520.0
525.0,514.0,509.0,527.0,524.0
519.0,517.0,504.0,528.0,528.0
511.0,513.0,501.0,521.0,524.0
511.0,509.0,499.0,522.0,517.0
504.0,504.0,495.0,509.0,525.0
505.0,501.0,501.0,506.0,529.0
508.0,500.0,507.0,506.0,513.0
514.0,502.0,516.0,505.0,511.0
516.0,499.0,518.0,502.0,514.0
519.0,502.0,528.0,506.0,499.0
516.0,501.0,527.0,505.0,516.0
510.0,504.0,526.0,504.0,513.0
509.0,500.0,524.0,512.0,507.0
513.0,507.0,523.0,514.0,505.0
526.0,509.0,521.0,520.0,508.0
524.0,511.0,517.0,524.0,511.0
523.0,514.0,513.0,528.0,513.0
528.0,516.0,509.0,530.0,513.0
516.0,513.0,503.0,532.0,510.0
516.0,515.0,502.0,524.0,521.0
505.0,505.0,493.0,512.0,531.0
499.0,504.0,498.0,509.0,527.0
497.0,502.0,506.0,509.0,523.0
499.0,505.0,510.0,508.0,514.0
503.0,502.0,515.0,505.0,507.0
503.0,502.0,523.0,504.0,501.0
510.0,502.0,528.0,506.0,493.0
511.0,502.0,525.0,509.0,498.0
514.0,502.0,524.0,507.0,498.0
515.0,502.0,526.0,508.0,511.0
521.0,508.0,521.0,518.0,511.0
522.0,510.0,518.0,519.0,512.0
528.0,514.0,513.0,525.0,503.0
523.0,514.0,509.0,526.0,505.0
526.0,518.0,508.0,530.0,512.0
520.0,516.0,505.0,528.0,527.0
512.0,512.0,500.0,522.0,530.0
503.0,505.0,495.0,514.0,529.0
495.0,501.0,498.0,508.0,525.0
498.0,498.0,506.0,503.0,521.0
499.0,502.0,512.0,502.0,514.0
503.0,500.0,519.0,505.0,505.0
503.0,500.0,523.0,506.0,500.0
510.0,502.0,526.0,509.0,501.0
512.0,501.0,526.0,506.0,504.0
514.0,504.0,529.0,508.0,507.0
518.0,504.0,523.0,512.0,511.0
519.0,506.0,520.0,517.0,509.0
527.0,512.0,519.0,523.0,508.0
530.0,514.0,514.0,530.0,506.0
528.0,517.0,508.0,526.0,511.0
523.0,517.0,506.0,524.0,521.0
516.0,515.0,504.0,531.0,521.0
508.0,514.0,498.0,520.0,529.0
499.0,505.0,495.0,510.0,532.0
496.0,502.0,501.0,507.0,534.0
499.0,501.0,510.0,506.0,518.0
502.0,502.0,516.0,505.0,509.0
503.0,500.0,519.0,503.0,506.0
509.0,503.0,526.0,507.0,494.0
515.0,501.0,527.0,506.0,493.0
512.0,498.0,529.0,508.0,497.0
519.0,504.0,525.0,510.0,505.0
519.0,505.0,522.0,513.0,497.0
523.0,509.0,520.0,520.0,494.0
524.0,512.0,517.0,527.0,511.0
527.0,514.0,512.0,528.0,512.0
523.0,514.0,505.0,528.0,530.0
519.0,516.0,506.0,527.0,534.0
518.0,513.0,500.0,522.0,528.0
504.0,506.0,494.0,511.0,533.0
500.0,502.0,496.0,511.0,526.0
502.0,502.0,504.0,510.0,513.0
503.0,503.0,511.0,505.0,528.0
501.0,500.0,516.0,504.0,519.0
505.0,502.0,521.0,504.0,511.0
510.0,501.0,526.0,505.0,505.0
512.0,500.0,524.0,505.0,510.0
508.0,501.0,524.0,507.0,517.0
512.0,503.0,522.0,512.0,515.0
520.0,506.0,521.0,516.0,518.0
523.0,510.0,520.0,520.0,514.0
531.0,515.0,518.0,527.0,519.0
528.0,515.0,511.0,527.0,517.0
526.0,516.0,507.0,527.0,525.0
519.0,516.0,507.0,525.0,529.0
513.0,513.0,502.0,521.0,527.0
501.0,504.0,497.0,508.0,539.0
496.0,501.0,499.0,506.0,525.0
497.0,501.0,507.0,511.0,512.0
501.0,501.0,514.0,508.0,521.0
503.0,501.0,519.0,502.0,509.0
508.0,501.0,523.0,504.0,491.0
513.0,507.0,532.0,506.0,490.0
514.0,502.0,521.0,505.0,491.0
515.0,503.0,527.0,508.0,496.0
514.0,504.0,524.0,513.0,510.0
516.0,504.0,516.0,515.0,515.0
510.0,510.0,517.0,521.0,503.0
516.0,515.0,521.0,527.0,513.0
514.0,515.0,512.0,526.0,523.0
511.0,515.0,506.0,527.0,523.0
513.0,515.0,507.0,525.0,522.0
514.0,510.0,499.0,522.0,531.0
512.0,505.0,498.0,512.0,528.0
509.0,504.0,504.0,508.0,523.0
513.0,501.0,510.0,511.0,521.0
509.0,501.0,516.0,506.0,515.0
507.0,499.0,520.0,506.0,510.0
510.0,502.0,525.0,506.0,503.0
513.0,503.0,527.0,510.0,503.0
510.0,502.0,527.0,509.0,501.0
510.0,501.0,523.0,506.0,508.0
522.0,505.0,525.0,510.0,508.0
533.0,508.0,520.0,517.0,522.0
535.0,512.0,522.0,523.0,527.0
532.0,515.0,514.0,527.0,520.0
526.0,515.0,508.0,529.0,522.0
521.0,515.0,504.0,528.0,525.0
514.0,512.0,496.0,522.0,526.0
511.0,511.0,497.0,515.0,535.0
505.0,502.0,497.0,509.0,525.0
507.0,502.0,501.0,507.0,517.0
503.0,502.0,503.0,504.0,507.0
504.0,502.0,511.0,505.0,508.0
506.0,501.0,515.0,505.0,501.0
511.0,501.0,518.0,508.0,493.0
514.0,503.0,520.0,507.0,489.0
511.0,504.0,525.0,506.0,510.0
506.0,501.0,518.0,506.0,522.0
521.0,503.0,517.0,511.0,504.0
525.0,507.0,522.0,518.0,502.0
523.0,512.0,520.0,525.0,511.0
522.0,514.0,515.0,528.0,532.0
516.0,514.0,510.0,524.0,543.0
519.0,513.0,507.0,524.0,549.0
514.0,513.0,507.0,527.0,545.0
500.0,503.0,505.0,508.0,527.0
500.0,504.0,508.0,510.0,508.0
505.0,504.0,510.0,510.0,491.0
494.0,502.0,517.0,508.0,492.0
486.0,500.0,520.0,508.0,499.0
486.0,502.0,526.0,506.0,496.0
490.0,502.0,529.0,510.0,494.0
494.0,503.0,531.0,508.0,503.0
493.0,500.0,525.0,507.0,507.0
494.0,501.0,521.0,509.0,495.0
505.0,505.0,517.0,513.0,505.0
532.0,510.0,515.0,519.0,512.0
530.0,517.0,514.0,531.0,499.0
514.0,512.0,505.0,529.0,511.0
505.0,515.0,504.0,529.0,528.0
510.0,508.0,498.0,526.0,526.0
502.0,506.0,493.0,511.0,523.0
484.0,501.0,495.0,512.0,533.0
489.0,502.0,498.0,506.0,522.0
487.0,499.0,505.0,508.0,517.0
494.0,500.0,516.0,504.0,519.0
488.0,500.0,520.0,500.0,523.0
523.0,507.0,529.0,506.0,513.0
548.0,509.0,532.0,509.0,501.0
540.0,510.0,535.0,513.0,489.0
520.0,502.0,526.0,519.0,476.0
530.0,504.0,505.0,519.0,468.0
536.0,512.0,498.0,523.0,496.0
559.0,519.0,494.0,524.0,529.0
560.0,522.0,482.0,520.0,533.0
553.0,523.0,475.0,522.0,544.0
539.0,523.0,470.0,524.0,542.0
531.0,520.0,464.0,520.0,538.0
517.0,513.0,447.0,507.0,555.0
513.0,512.0,446.0,505.0,527.0
513.0,512.0,464.0,501.0,500.0
510.0,507.0,477.0,497.0,501.0
503.0,504.0,487.0,501.0,504.0
511.0,505.0,501.0,497.0,509.0
513.0,503.0,511.0,503.0,504.0
514.0,500.0,519.0,500.0,507.0
508.0,501.0,528.0,500.0,508.0
498.0,500.0,522.0,507.0,514.0
494.0,502.0,523.0,509.0,510.0
493.0,511.0,529.0,518.0,509.0
499.0,513.0,530.0,527.0,520.0
492.0,520.0,529.0,526.0,531.0
490.0,519.0,520.0,526.0,520.0
501.0,520.0,506.0,526.0,513.0
539.0,523.0,507.0,526.0,512.0
543.0,515.0,498.0,514.0,532.0
514.0,508.0,497.0,512.0,528.0
505.0,509.0,515.0,508.0,506.0
526.0,511.0,529.0,506.0,496.0
528.0,508.0,534.0,508.0,499.0
521.0,501.0,545.0,505.0,489.0
523.0,496.0,546.0,505.0,481.0
521.0,498.0,546.0,504.0,485.0
525.0,499.0,546.0,507.0,501.0
529.0,503.0,554.0,518.0,512.0
527.0,501.0,546.0,515.0,535.0
528.0,503.0,544.0,519.0,537.0
533.0,508.0,545.0,529.0,499.0
527.0,508.0,536.0,529.0,513.0
526.0,510.0,537.0,534.0,510.0
520.0,510.0,535.0,532.0,513.0
509.0,505.0,526.0,525.0,523.0
500.0,498.0,516.0,515.0,532.0
495.0,498.0,518.0,512.0,528.0
494.0,497.0,520.0,509.0,516.0
503.0,496.0,523.0,506.0,513.0
501.0,494.0,527.0,505.0,512.0
502.0,496.0,526.0,506.0,498.0
523.0,503.0,531.0,510.0,499.0
524.0,508.0,536.0,514.0,492.0
527.0,510.0,532.0,511.0,492.0
527.0,509.0,528.0,514.0,494.0
530.0,511.0,525.0,520.0,496.0
530.0,510.0,517.0,527.0,509.0
536.0,515.0,514.0,529.0,509.0
530.0,514.0,510.0,527.0,519.0
520.0,513.0,509.0,526.0,529.0
513.0,509.0,510.0,526.0,529.0
500.0,505.0,506.0,520.0,534.0
496.0,499.0,508.0,513.0,545.0
495.0,500.0,520.0,512.0,530.0
490.0,496.0,520.0,508.0,518.0
495.0,498.0,523.0,507.0,508.0
499.0,498.0,527.0,505.0,512.0
512.0,500.0,531.0,509.0,500.0
506.0,499.0,528.0,509.0,505.0
505.0,502.0,532.0,512.0,519.0
511.0,502.0,530.0,511.0,517.0
522.0,505.0,524.0,513.0,513.0
525.0,511.0,521.0,521.0,511.0
527.0,517.0,518.0,524.0,505.0
518.0,516.0,508.0,529.0,515.0
510.0,519.0,509.0,531.0,520.0
499.0,512.0,499.0,526.0,533.0
502.0,510.0,497.0,523.0,538.0
485.0,502.0,492.0,514.0,532.0
480.0,500.0,495.0,512.0,525.0
483.0,496.0,497.0,512.0,514.0
516.0,503.0,502.0,505.0,500.0
522.0,501.0,512.0,505.0,491.0
522.0,501.0,513.0,502.0,504.0
525.0,504.0,519.0,508.0,501.0
517.0,505.0,520.0,511.0,511.0
514.0,502.0,519.0,505.0,513.0
511.0,501.0,520.0,511.0,516.0
508.0,504.0,520.0,513.0,510.0
532.0,510.0,519.0,519.0,516.0
541.0,516.0,522.0,527.0,523.0
537.0,515.0,505.0,529.0,510.0
529.0,515.0,498.0,530.0,499.0
521.0,515.0,503.0,528.0,502.0
510.0,508.0,489.0,516.0,507.0
496.0,505.0,484.0,510.0,505.0
483.0,502.0,492.0,509.0,499.0
484.0,501.0,489.0,512.0,492.0
482.0,505.0,482.0,492.0,495.0
482.0,504.0,469.0,499.0,515.0
493.0,504.0,475.0,502.0,532.0
504.0,503.0,470.0,499.0,551.0
518.0,515.0,477.0,512.0,571.0
514.0,521.0,476.0,524.0,569.0
495.0,514.0,465.0,503.0,552.0
507.0,512.0,451.0,502.0,507.0
524.0,520.0,448.0,500.0,498.0
515.0,518.0,469.0,517.0,521.0
512.0,510.0,504.0,525.0,537.0
506.0,512.0,511.0,518.0,538.0
518.0,511.0,520.0,519.0,528.0
531.0,508.0,523.0,519.0,520.0
533.0,516.0,542.0,516.0,512.0
524.0,516.0,547.0,513.0,506.0
516.0,506.0,533.0,507.0,505.0
516.0,503.0,503.0,497.0,515.0
520.0,499.0,493.0,497.0,508.0
520.0,499.0,488.0,496.0,507.0
522.0,509.0,472.0,500.0,502.0
526.0,511.0,453.0,501.0,509.0
523.0,514.0,452.0,507.0,505.0
527.0,529.0,442.0,516.0,520.0
537.0,527.0,435.0,520.0,519.0
533.0,520.0,391.0,517.0,521.0
525.0,518.0,321.0,516.0,516.0
517.0,524.0,359.0,518.0,511.0
510.0,519.0,386.0,519.0,512.0
515.0,520.0,422.0,515.0,518.0
497.0,506.0,449.0,511.0,545.0
492.0,491.0,475.0,500.0,554.0
483.0,474.0,508.0,493.0,531.0
503.0,478.0,570.0,503.0,493.0
513.0,486.0,620.0,510.0,475.0
521.0,492.0,639.0,517.0,475.0
513.0,499.0,647.0,518.0,479.0
504.0,501.0,660.0,524.0,478.0
511.0,506.0,662.0,525.0,505.0
524.0,520.0,649.0,525.0,528.0
526.0,514.0,615.0,540.0,515.0
535.0,514.0,564.0,541.0,494.0
538.0,510.0,533.0,540.0,503.0
539.0,508.0,516.0,537.0,506.0
534.0,506.0,498.0,532.0,524.0
524.0,508.0,490.0,533.0,537.0
508.0,501.0,493.0,521.0,525.0
496.0,493.0,517.0,504.0,527.0
490.0,489.0,551.0,501.0,536.0
495.0,493.0,582.0,509.0,532.0
508.0,495.0,599.0,512.0,529.0
512.0,499.0,615.0,520.0,511.0
504.0,492.0,612.0,527.0,518.0
513.0,491.0,606.0,527.0,490.0
524.0,489.0,613.0,530.0,471.0
514.0,493.0,599.0,532.0,490.0
519.0,505.0,582.0,515.0,483.0
541.0,511.0,571.0,504.0,461.0
538.0,520.0,548.0,514.0,467.0
540.0,525.0,542.0,513.0,491.0
522.0,525.0,536.0,514.0,541.0
518.0,524.0,536.0,540.0,543.0
515.0,520.0,530.0,537.0,529.0
503.0,510.0,513.0,530.0,524.0
489.0,501.0,524.0,532.0,548.0
479.0,500.0,536.0,533.0,544.0
503.0,505.0,533.0,510.0,525.0
517.0,504.0,525.0,513.0,510.0
507.0,504.0,510.0,505.0,498.0
498.0,509.0,516.0,501.0,491.0
493.0,511.0,525.0,506.0,502.0
485.0,501.0,520.0,500.0,512.0
479.0,495.0,513.0,505.0,545.0
476.0,502.0,512.0,515.0,553.0
496.0,515.0,523.0,525.0,540.0
531.0,522.0,516.0,540.0,532.0
551.0,522.0,505.0,529.0,492.0
539.0,517.0,503.0,540.0,449.0
531.0,513.0,495.0,531.0,494.0
536.0,514.0,487.0,520.0,487.0
530.0,502.0,482.0,519.0,468.0
526.0,504.0,497.0,521.0,478.0
525.0,508.0,508.0,507.0,486.0
513.0,504.0,508.0,506.0,522.0
509.0,500.0,504.0,501.0,535.0
506.0,496.0,497.0,497.0,511.0
517.0,503.0,477.0,498.0,513.0
500.0,504.0,473.0,496.0,570.0
492.0,497.0,482.0,494.0,592.0
495.0,501.0,479.0,488.0,579.0
495.0,505.0,485.0,508.0,558.0
490.0,513.0,472.0,529.0,534.0
470.0,517.0,384.0,490.0,520.0
448.0,514.0,358.0,489.0,511.0
425.0,510.0,347.0,488.0,531.0
402.0,506.0,347.0,487.0,556.0
390.0,490.0,305.0,490.0,592.0
481.0,492.0,317.0,497.0,574.0
554.0,501.0,365.0,498.0,518.0
590.0,517.0,408.0,511.0,491.0
577.0,515.0,428.0,507.0,480.0
544.0,502.0,463.0,503.0,482.0
525.0,491.0,498.0,507.0,511.0
522.0,510.0,557.0,514.0,538.0
526.0,515.0,558.0,517.0,564.0
508.0,513.0,560.0,505.0,560.0
485.0,509.0,562.0,517.0,522.0
488.0,508.0,558.0,521.0,497.0
501.0,510.0,541.0,525.0,503.0
512.0,511.0,576.0,541.0,483.0
483.0,495.0,629.0,543.0,462.0
475.0,493.0,614.0,540.0,461.0
505.0,519.0,629.0,538.0,485.0
491.0,507.0,612.0,527.0,506.0
462.0,504.0,612.0,538.0,483.0
461.0,511.0,601.0,515.0,522.0
476.0,506.0,582.0,512.0,516.0
480.0,521.0,592.0,519.0,544.0
542.0,536.0,596.0,532.0,504.0
573.0,530.0,578.0,524.0,455.0
545.0,510.0,549.0,515.0,506.0
535.0,509.0,540.0,509.0,538.0
556.0,504.0,506.0,515.0,529.0
550.0,505.0,489.0,518.0,518.0
544.0,512.0,486.0,521.0,501.0
528.0,518.0,486.0,531.0,479.0
518.0,508.0,476.0,524.0,479.0
502.0,512.0,491.0,530.0,467.0
485.0,507.0,526.0,531.0,462.0
470.0,507.0,542.0,530.0,456.0
480.0,511.0,562.0,531.0,442.0
510.0,508.0,574.0,529.0,464.0
524.0,503.0,570.0,518.0,468.0
518.0,499.0,564.0,515.0,490.0
528.0,499.0,557.0,510.0,573.0
549.0,497.0,552.0,508.0,615.0
537.0,500.0,552.0,504.0,607.0
539.0,501.0,544.0,508.0,583.0
537.0,499.0,538.0,513.0,544.0
529.0,502.0,528.0,519.0,535.0
528.0,499.0,520.0,509.0,512.0
528.0,509.0,526.0,529.0,521.0
549.0,518.0,520.0,529.0,534.0
553.0,522.0,505.0,520.0,547.0
549.0,528.0,502.0,519.0,524.0
535.0,528.0,490.0,526.0,515.0
519.0,515.0,473.0,522.0,490.0
516.0,509.0,481.0,516.0,507.0
515.0,507.0,483.0,514.0,503.0
517.0,497.0,489.0,520.0,495.0
511.0,492.0,495.0,528.0,477.0
519.0,499.0,491.0,495.0,492.0
518.0,501.0,508.0,504.0,443.0
528.0,502.0,500.0,504.0,453.0
517.0,499.0,498.0,503.0,525.0
506.0,490.0,489.0,498.0,580.0
515.0,495.0,493.0,503.0,573.0
521.0,506.0,501.0,511.0,546.0
531.0,513.0,505.0,519.0,507.0
533.0,515.0,512.0,523.0,480.0
527.0,515.0,513.0,528.0,486.0
524.0,518.0,513.0,538.0,509.0
521.0,519.0,506.0,519.0,558.0
511.0,515.0,480.0,501.0,583.0
502.0,517.0,450.0,491.0,587.0
498.0,513.0,437.0,503.0,548.0
492.0,502.0,456.0,506.0,511.0
489.0,487.0,472.0,508.0,546.0
493.0,485.0,505.0,525.0,523.0
498.0,486.0,502.0,507.0,533.0
499.0,486.0,515.0,498.0,516.0
502.0,493.0,539.0,497.0,487.0
515.0,498.0,555.0,499.0,503.0
521.0,509.0,553.0,515.0,514.0
524.0,512.0,514.0,516.0,520.0
523.0,510.0,503.0,523.0,526.0
520.0,507.0,494.0,546.0,517.0
535.0,539.0,506.0,551.0,480.0
533.0,531.0,502.0,532.0,477.0
526.0,514.0,498.0,526.0,480.0
507.0,506.0,502.0,519.0,506.0
493.0,507.0,512.0,507.0,505.0
508.0,507.0,500.0,491.0,532.0
510.0,506.0,509.0,495.0,505.0
514.0,508.0,524.0,499.0,501.0
507.0,498.0,521.0,503.0,522.0
505.0,502.0,534.0,508.0,509.0
503.0,498.0,534.0,498.0,506.0
507.0,503.0,538.0,522.0,506.0
505.0,504.0,545.0,537.0,554.0
518.0,512.0,529.0,515.0,568.0
531.0,516.0,502.0,512.0,556.0
527.0,511.0,462.0,517.0,522.0
526.0,512.0,432.0,522.0,490.0
521.0,519.0,442.0,520.0,475.0
538.0,533.0,454.0,531.0,445.0
514.0,516.0,463.0,521.0,470.0
490.0,501.0,474.0,503.0,527.0
486.0,506.0,510.0,508.0,574.0
492.0,505.0,523.0,506.0,547.0
490.0,494.0,539.0,504.0,534.0
495.0,506.0,563.0,515.0,485.0
493.0,511.0,570.0,514.0,498.0
502.0,514.0,590.0,517.0,487.0
504.0,513.0,570.0,519.0,500.0
511.0,507.0,533.0,523.0,494.0
505.0,515.0,508.0,519.0,516.0
513.0,517.0,501.0,517.0,514.0
517.0,518.0,490.0,516.0,501.0
501.0,508.0,463.0,521.0,563.0
485.0,499.0,470.0,515.0,571.0
482.0,500.0,470.0,514.0,551.0
494.0,505.0,475.0,518.0,529.0
510.0,509.0,463.0,510.0,526.0
486.0,499.0,481.0,502.0,549.0
458.0,483.0,500.0,511.0,560.0
467.0,496.0,529.0,490.0,529.0
494.0,497.0,545.0,501.0,457.0
514.0,499.0,560.0,507.0,466.0
554.0,501.0,584.0,510.0,480.0
555.0,513.0,624.0,519.0,474.0
549.0,509.0,621.0,526.0,467.0
531.0,504.0,605.0,526.0,491.0
507.0,506.0,590.0,532.0,477.0
484.0,514.0,566.0,539.0,456.0
468.0,510.0,550.0,537.0,466.0
475.0,507.0,537.0,534.0,519.0
457.0,505.0,533.0,529.0,517.0
471.0,505.0,520.0,527.0,541.0
496.0,498.0,509.0,525.0,574.0
512.0,500.0,502.0,510.0,549.0
558.0,514.0,511.0,509.0,488.0
541.0,512.0,519.0,521.0,475.0
498.0,503.0,519.0,515.0,533.0
499.0,501.0,517.0,488.0,556.0
503.0,505.0,519.0,495.0,544.0
519.0,504.0,521.0,499.0,518.0
546.0,504.0,518.0,500.0,469.0
549.0,504.0,515.0,508.0,474.0
553.0,512.0,527.0,518.0,485.0
569.0,516.0,530.0,518.0,491.0
557.0,514.0,518.0,519.0,518.0
536.0,507.0,509.0,523.0,550.0
513.0,507.0,504.0,525.0,549.0
502.0,517.0,515.0,535.0,505.0
489.0,511.0,494.0,524.0,526.0
488.0,506.0,481.0,503.0,546.0
474.0,507.0,476.0,502.0,537.0
478.0,510.0,475.0,504.0,535.0
503.0,508.0,470.0,503.0,548.0
565.0,514.0,469.0,497.0,505.0
552.0,503.0,476.0,503.0,492.0
531.0,485.0,464.0,493.0,491.0
527.0,489.0,499.0,499.0,474.0
531.0,499.0,532.0,508.0,472.0
532.0,502.0,539.0,512.0,460.0
538.0,509.0,540.0,519.0,496.0
532.0,514.0,541.0,527.0,511.0
524.0,510.0,534.0,528.0,507.0
517.0,521.0,539.0,535.0,524.0
517.0,520.0,525.0,532.0,539.0
529.0,516.0,505.0,527.0,508.0
524.0,522.0,509.0,529.0,498.0
509.0,512.0,502.0,518.0,527.0
517.0,506.0,469.0,504.0,536.0
524.0,505.0,490.0,498.0,547.0
528.0,507.0,490.0,495.0,501.0
522.0,506.0,474.0,494.0,492.0
509.0,498.0,479.0,489.0,547.0
498.0,494.0,482.0,490.0,552.0
512.0,495.0,497.0,499.0,519.0
509.0,489.0,489.0,497.0,540.0
505.0,492.0,502.0,501.0,548.0
522.0,503.0,508.0,523.0,530.0
534.0,512.0,531.0,537.0,518.0
532.0,511.0,529.0,538.0,525.0
531.0,517.0,549.0,542.0,536.0
528.0,523.0,558.0,547.0,508.0
526.0,528.0,561.0,547.0,504.0
521.0,522.0,529.0,540.0,540.0
503.0,511.0,510.0,521.0,557.0
496.0,504.0,482.0,526.0,549.0
492.0,496.0,469.0,494.0,543.0
494.0,489.0,468.0,473.0,524.0
490.0,489.0,498.0,484.0,525.0
503.0,502.0,518.0,484.0,498.0
517.0,507.0,536.0,490.0,481.0
516.0,505.0,555.0,496.0,498.0
514.0,498.0,546.0,511.0,501.0
517.0,497.0,552.0,524.0,506.0
518.0,515.0,554.0,531.0,497.0
526.0,522.0,554.0,542.0,494.0
528.0,527.0,557.0,539.0,505.0
526.0,522.0,531.0,531.0,524.0
521.0,517.0,516.0,529.0,512.0
520.0,520.0,512.0,527.0,512.0
506.0,517.0,511.0,516.0,523.0
503.0,516.0,520.0,517.0,495.0
502.0,511.0,501.0,506.0,481.0
495.0,503.0,486.0,499.0,485.0
493.0,493.0,475.0,500.0,511.0
489.0,497.0,475.0,502.0,498.0
492.0,497.0,489.0,507.0,525.0
499.0,497.0,492.0,516.0,516.0
497.0,501.0,502.0,510.0,517.0
527.0,498.0,496.0,503.0,522.0
538.0,500.0,522.0,506.0,523.0
529.0,512.0,569.0,523.0,508.0
528.0,514.0,583.0,537.0,509.0
532.0,519.0,564.0,537.0,507.0
523.0,520.0,554.0,526.0,521.0
499.0,515.0,534.0,524.0,510.0
490.0,512.0,528.0,528.0,519.0
468.0,510.0,523.0,521.0,499.0
460.0,503.0,523.0,516.0,517.0
467.0,499.0,521.0,512.0,525.0
477.0,499.0,517.0,510.0,501.0
487.0,499.0,516.0,512.0,500.0
486.0,501.0,515.0,498.0,486.0
516.0,506.0,519.0,508.0,470.0
508.0,499.0,518.0,501.0,505.0
510.0,507.0,531.0,508.0,509.0
522.0,516.0,531.0,518.0,487.0
543.0,514.0,519.0,521.0,480.0
550.0,512.0,516.0,522.0,508.0
562.0,516.0,523.0,528.0,522.0
554.0,517.0,519.0,526.0,526.0
553.0,518.0,513.0,532.0,518.0
545.0,512.0,507.0,527.0,528.0
523.0,505.0,502.0,518.0,544.0
505.0,505.0,496.0,511.0,549.0
516.0,507.0,506.0,507.0,541.0
531.0,503.0,510.0,509.0,545.0
521.0,507.0,515.0,497.0,554.0
511.0,504.0,520.0,502.0,541.0
516.0,503.0,514.0,499.0,518.0
507.0,501.0,510.0,506.0,517.0
493.0,499.0,504.0,502.0,515.0
495.0,501.0,506.0,506.0,483.0
497.0,504.0,501.0,511.0,465.0
497.0,509.0,491.0,512.0,467.0
492.0,512.0,487.0,526.0,493.0
512.0,515.0,479.0,536.0,526.0
534.0,514.0,488.0,524.0,493.0
537.0,512.0,489.0,513.0,497.0
547.0,512.0,497.0,522.0,509.0
535.0,509.0,487.0,510.0,532.0
529.0,517.0,496.0,510.0,551.0
518.0,516.0,505.0,507.0,560.0
505.0,505.0,482.0,498.0,574.0
500.0,496.0,472.0,494.0,548.0
515.0,501.0,473.0,502.0,520.0
522.0,499.0,459.0,500.0,519.0
519.0,491.0,470.0,490.0,521.0
519.0,491.0,490.0,493.0,508.0
522.0,494.0,528.0,507.0,510.0
522.0,501.0,544.0,519.0,498.0
530.0,508.0,565.0,526.0,486.0
536.0,526.0,591.0,542.0,483.0
536.0,522.0,573.0,539.0,474.0
526.0,520.0,551.0,540.0,493.0
522.0,516.0,530.0,535.0,503.0
515.0,512.0,535.0,546.0,508.0
518.0,511.0,523.0,500.0,511.0
498.0,505.0,518.0,501.0,571.0
501.0,506.0,515.0,505.0,538.0
499.0,501.0,537.0,498.0,499.0
498.0,497.0,531.0,495.0,509.0
510.0,500.0,527.0,499.0,502.0
509.0,500.0,510.0,493.0,519.0
504.0,498.0,502.0,502.0,545.0
508.0,507.0,527.0,518.0,527.0
519.0,514.0,522.0,537.0,514.0
526.0,522.0,509.0,524.0,526.0
530.0,519.0,497.0,523.0,526.0
528.0,502.0,477.0,521.0,501.0
523.0,502.0,490.0,531.0,483.0
525.0,508.0,497.0,528.0,520.0
515.0,503.0,488.0,529.0,536.0
517.0,509.0,506.0,524.0,515.0
506.0,508.0,504.0,515.0,540.0
500.0,508.0,517.0,507.0,557.0
501.0,511.0,541.0,500.0,516.0
500.0,503.0,549.0,498.0,502.0
495.0,501.0,549.0,508.0,497.0
491.0,502.0,549.0,515.0,504.0
496.0,508.0,547.0,517.0,515.0
501.0,514.0,523.0,511.0,532.0
508.0,515.0,482.0,500.0,509.0
514.0,511.0,461.0,508.0,514.0
538.0,508.0,451.0,520.0,503.0
540.0,505.0,448.0,529.0,497.0
537.0,500.0,455.0,533.0,508.0
532.0,507.0,482.0,530.0,532.0
524.0,503.0,499.0,518.0,521.0
523.0,508.0,556.0,521.0,525.0
505.0,506.0,563.0,508.0,555.0
496.0,504.0,561.0,514.0,519.0
496.0,507.0,565.0,511.0,468.0
505.0,508.0,563.0,506.0,491.0
500.0,509.0,561.0,513.0,489.0
500.0,504.0,558.0,510.0,479.0
493.0,501.0,553.0,507.0,470.0
483.0,499.0,549.0,509.0,445.0
475.0,498.0,546.0,513.0,453.0
500.0,501.0,541.0,515.0,458.0
503.0,504.0,537.0,520.0,477.0
493.0,508.0,535.0,523.0,513.0
514.0,512.0,526.0,521.0,595.0
569.0,518.0,522.0,525.0,570.0
548.0,519.0,519.0,527.0,533.0
535.0,517.0,507.0,531.0,506.0
534.0,519.0,508.0,527.0,509.0
524.0,509.0,500.0,511.0,530.0
506.0,504.0,498.0,511.0,531.0
485.0,496.0,504.0,501.0,526.0
484.0,499.0,516.0,507.0,520.0
493.0,502.0,518.0,503.0,522.0
495.0,500.0,520.0,506.0,508.0
500.0,503.0,527.0,511.0,525.0
502.0,500.0,520.0,498.0,538.0
531.0,505.0,505.0,496.0,533.0
558.0,511.0,505.0,510.0,489.0
541.0,514.0,511.0,515.0,511.0
545.0,517.0,518.0,521.0,517.0
548.0,507.0,505.0,529.0,520.0
532.0,509.0,504.0,536.0,523.0
515.0,510.0,500.0,517.0,540.0
506.0,514.0,505.0,515.0,572.0
495.0,505.0,505.0,513.0,544.0
473.0,504.0,496.0,518.0,518.0
483.0,500.0,495.0,515.0,534.0
492.0,502.0,496.0,500.0,512.0
517.0,501.0,505.0,503.0,489.0
512.0,493.0,500.0,504.0,466.0
512.0,497.0,510.0,510.0,460.0
514.0,498.0,510.0,503.0,487.0
514.0,499.0,517.0,500.0,514.0
520.0,514.0,524.0,508.0,501.0
522.0,507.0,508.0,515.0,523.0
524.0,510.0,516.0,524.0,544.0
540.0,521.0,533.0,523.0,554.0
536.0,515.0,521.0,528.0,531.0
535.0,517.0,502.0,525.0,522.0
533.0,515.0,486.0,522.0,528.0
526.0,515.0,478.0,526.0,523.0
518.0,508.0,474.0,511.0,533.0
506.0,501.0,486.0,503.0,531.0
507.0,502.0,513.0,500.0,534.0
507.0,505.0,525.0,521.0,524.0
518.0,510.0,517.0,521.0,506.0
516.0,513.0,522.0,496.0,505.0
511.0,511.0,531.0,505.0,504.0
520.0,512.0,527.0,503.0,502.0
518.0,501.0,523.0,504.0,485.0
516.0,507.0,519.0,503.0,489.0
523.0,506.0,524.0,510.0,497.0
528.0,508.0,523.0,514.0,500.0
527.0,512.0,529.0,524.0,505.0
529.0,512.0,525.0,529.0,512.0
532.0,514.0,525.0,532.0,514.0
516.0,505.0,505.0,515.0,541.0
508.0,509.0,501.0,517.0,540.0
498.0,503.0,476.0,502.0,542.0
492.0,500.0,474.0,498.0,535.0
502.0,502.0,453.0,490.0,529.0
503.0,502.0,466.0,503.0,513.0
501.0,504.0,473.0,524.0,514.0
502.0,497.0,472.0,506.0,514.0
502.0,481.0,479.0,495.0,513.0
504.0,491.0,526.0,506.0,520.0
507.0,503.0,541.0,517.0,529.0
517.0,511.0,568.0,527.0,519.0
534.0,522.0,597.0,532.0,512.0
528.0,518.0,574.0,531.0,518.0
528.0,521.0,545.0,538.0,520.0
526.0,521.0,530.0,526.0,495.0
514.0,514.0,525.0,528.0,483.0
511.0,520.0,534.0,529.0,475.0
507.0,512.0,526.0,524.0,503.0
518.0,505.0,515.0,530.0,509.0
514.0,510.0,513.0,508.0,513.0
507.0,497.0,517.0,513.0,515.0
500.0,491.0,526.0,513.0,525.0
506.0,500.0,534.0,509.0,519.0
510.0,505.0,539.0,515.0,477.0
514.0,504.0,543.0,518.0,465.0
515.0,506.0,544.0,511.0,469.0
515.0,504.0,538.0,503.0,485.0
521.0,506.0,533.0,512.0,489.0
525.0,511.0,532.0,522.0,514.0
523.0,514.0,530.0,528.0,536.0
519.0,513.0,522.0,529.0,580.0
519.0,519.0,513.0,522.0,548.0
515.0,513.0,509.0,524.0,539.0
509.0,514.0,505.0,522.0,538.0
484.0,502.0,498.0,514.0,536.0
490.0,502.0,500.0,510.0,524.0
491.0,501.0,501.0,508.0,516.0
495.0,501.0,508.0,512.0,492.0
508.0,501.0,514.0,513.0,495.0
514.0,502.0,522.0,519.0,480.0
503.0,497.0,520.0,515.0,478.0
533.0,507.0,522.0,497.0,459.0
524.0,502.0,521.0,503.0,522.0
517.0,500.0,516.0,505.0,553.0
517.0,509.0,519.0,517.0,545.0
538.0,515.0,521.0,519.0,510.0
541.0,519.0,521.0,527.0,523.0
530.0,517.0,515.0,525.0,524.0
521.0,516.0,509.0,525.0,500.0
523.0,518.0,507.0,524.0,541.0
519.0,514.0,502.0,515.0,600.0
512.0,505.0,495.0,510.0,560.0
501.0,501.0,497.0,504.0,507.0
504.0,501.0,503.0,502.0,511.0
511.0,502.0,505.0,503.0,511.0
512.0,500.0,515.0,501.0,509.0
512.0,502.0,519.0,502.0,497.0
512.0,494.0,520.0,506.0,486.0
514.0,500.0,521.0,504.0,479.0
520.0,503.0,524.0,510.0,485.0
517.0,505.0,525.0,518.0,503.0
528.0,512.0,522.0,513.0,514.0
525.0,513.0,516.0,522.0,534.0
528.0,515.0,519.0,526.0,508.0
531.0,515.0,512.0,528.0,520.0
519.0,508.0,504.0,527.0,543.0
517.0,513.0,504.0,520.0,540.0
510.0,506.0,496.0,516.0,529.0
505.0,502.0,497.0,515.0,534.0
491.0,500.0,500.0,522.0,498.0
503.0,501.0,505.0,516.0,494.0
511.0,502.0,513.0,515.0,500.0
507.0,501.0,521.0,509.0,501.0
513.0,501.0,527.0,504.0,503.0
510.0,497.0,524.0,491.0,510.0
510.0,499.0,526.0,493.0,524.0
516.0,496.0,506.0,498.0,521.0
516.0,500.0,505.0,504.0,515.0
518.0,512.0,537.0,519.0,523.0
524.0,516.0,534.0,531.0,502.0
534.0,523.0,527.0,507.0,519.0
529.0,519.0,506.0,513.0,523.0
513.0,511.0,504.0,511.0,534.0
514.0,513.0,498.0,531.0,527.0
507.0,513.0,501.0,517.0,519.0
500.0,504.0,499.0,501.0,519.0
501.0,502.0,490.0,504.0,512.0
502.0,501.0,500.0,497.0,504.0
502.0,496.0,491.0,489.0,505.0
509.0,501.0,501.0,490.0,505.0
507.0,502.0,508.0,499.0,510.0
505.0,498.0,509.0,506.0,509.0
508.0,495.0,509.0,514.0,512.0
517.0,503.0,522.0,528.0,512.0
523.0,504.0,525.0,533.0,509.0
525.0,509.0,526.0,524.0,509.0
534.0,507.0,517.0,517.0,516.0
534.0,506.0,513.0,526.0,521.0
530.0,505.0,510.0,531.0,516.0
515.0,501.0,516.0,541.0,528.0
505.0,506.0,523.0,535.0,538.0
503.0,512.0,524.0,526.0,526.0
498.0,514.0,527.0,521.0,525.0
490.0,502.0,507.0,504.0,518.0
493.0,505.0,506.0,497.0,517.0
499.0,501.0,519.0,501.0,512.0
514.0,507.0,519.0,498.0,502.0
510.0,503.0,527.0,498.0,499.0
512.0,502.0,527.0,503.0,496.0
508.0,500.0,525.0,522.0,497.0
518.0,502.0,526.0,525.0,497.0
527.0,507.0,523.0,523.0,509.0
530.0,512.0,524.0,523.0,490.0
536.0,514.0,522.0,522.0,499.0
533.0,516.0,518.0,523.0,500.0
528.0,515.0,514.0,525.0,499.0
519.0,521.0,511.0,524.0,535.0
505.0,511.0,495.0,515.0,568.0
496.0,505.0,496.0,509.0,569.0
500.0,504.0,504.0,506.0,527.0
500.0,501.0,511.0,509.0,522.0
500.0,506.0,517.0,507.0,527.0
503.0,501.0,521.0,503.0,509.0
506.0,501.0,526.0,504.0,502.0
508.0,501.0,528.0,506.0,491.0
513.0,504.0,531.0,510.0,515.0
516.0,501.0,526.0,510.0,514.0
523.0,509.0,522.0,515.0,513.0
529.0,510.0,522.0,521.0,492.0
540.0,515.0,523.0,527.0,446.0
540.0,515.0,516.0,530.0,442.0
536.0,516.0,514.0,533.0,446.0
528.0,511.0,506.0,535.0,445.0
520.0,515.0,504.0,531.0,494.0
490.0,502.0,496.0,512.0,621.0
478.0,499.0,499.0,501.0,627.0
485.0,498.0,505.0,500.0,573.0
499.0,501.0,516.0,507.0,507.0
508.0,501.0,517.0,508.0,508.0
512.0,503.0,522.0,507.0,515.0
508.0,500.0,521.0,499.0,507.0
504.0,499.0,523.0,507.0,522.0
509.0,502.0,526.0,511.0,524.0
514.0,506.0,525.0,511.0,536.0
522.0,507.0,524.0,517.0,526.0
527.0,510.0,523.0,522.0,505.0
528.0,518.0,523.0,525.0,515.0
528.0,516.0,515.0,525.0,526.0
520.0,515.0,509.0,522.0,547.0
521.0,513.0,505.0,517.0,561.0
518.0,517.0,505.0,521.0,560.0
503.0,504.0,497.0,515.0,570.0
496.0,499.0,494.0,503.0,546.0
500.0,501.0,503.0,505.0,525.0
507.0,500.0,505.0,499.0,491.0
511.0,498.0,510.0,480.0,461.0
523.0,495.0,518.0,495.0,450.0
519.0,495.0,521.0,506.0,465.0
521.0,499.0,525.0,503.0,482.0
520.0,502.0,529.0,517.0,507.0
515.0,503.0,524.0,517.0,536.0
520.0,508.0,525.0,523.0,548.0
525.0,520.0,531.0,528.0,537.0
527.0,521.0,540.0,535.0,531.0
536.0,518.0,546.0,537.0,511.0
530.0,511.0,539.0,530.0,500.0
533.0,507.0,536.0,529.0,477.0
523.0,499.0,517.0,520.0,481.0
505.0,489.0,465.0,499.0,504.0
485.0,486.0,468.0,493.0,528.0
492.0,491.0,473.0,492.0,519.0
501.0,489.0,495.0,503.0,511.0
505.0,489.0,500.0,506.0,509.0
511.0,499.0,513.0,504.0,502.0
511.0,496.0,527.0,504.0,510.0
519.0,504.0,524.0,507.0,501.0
523.0,518.0,528.0,509.0,493.0
534.0,518.0,527.0,515.0,508.0
534.0,506.0,522.0,526.0,513.0
534.0,515.0,527.0,533.0,507.0
532.0,512.0,518.0,530.0,509.0
526.0,510.0,514.0,530.0,506.0
515.0,502.0,504.0,525.0,519.0
509.0,501.0,500.0,521.0,527.0
505.0,494.0,499.0,513.0,524.0
505.0,487.0,500.0,512.0,520.0
505.0,484.0,496.0,501.0,519.0
505.0,490.0,504.0,508.0,518.0
513.0,490.0,519.0,513.0,520.0
516.0,503.0,534.0,523.0,515.0
506.0,506.0,537.0,520.0,507.0
499.0,520.0,537.0,519.0,505.0
508.0,528.0,523.0,494.0,481.0
524.0,519.0,521.0,507.0,465.0
526.0,511.0,515.0,515.0,482.0
534.0,519.0,516.0,526.0,496.0
532.0,522.0,526.0,531.0,500.0
518.0,524.0,525.0,531.0,543.0
518.0,523.0,522.0,531.0,529.0
508.0,513.0,512.0,524.0,534.0
500.0,506.0,504.0,517.0,548.0
493.0,500.0,496.0,507.0,534.0
502.0,499.0,501.0,508.0,518.0
503.0,496.0,506.0,508.0,511.0
505.0,499.0,505.0,502.0,521.0
505.0,506.0,517.0,500.0,517.0
513.0,507.0,526.0,505.0,492.0
513.0,501.0,522.0,505.0,491.0
520.0,506.0,529.0,508.0,495.0
509.0,506.0,527.0,510.0,510.0
513.0,506.0,528.0,516.0,517.0
513.0,511.0,525.0,516.0,535.0
527.0,512.0,525.0,520.0,527.0
544.0,512.0,516.0,525.0,513.0
557.0,519.0,512.0,526.0,497.0
547.0,512.0,504.0,522.0,503.0
544.0,513.0,505.0,524.0,508.0
522.0,506.0,499.0,514.0,529.0
506.0,500.0,497.0,501.0,550.0
488.0,500.0,503.0,500.0,552.0
480.0,502.0,512.0,506.0,527.0
479.0,500.0,517.0,501.0,509.0
489.0,499.0,520.0,499.0,507.0
496.0,501.0,525.0,498.0,504.0
506.0,498.0,526.0,499.0,494.0
508.0,501.0,527.0,503.0,487.0
513.0,501.0,522.0,526.0,498.0
518.0,505.0,519.0,529.0,507.0
524.0,509.0,523.0,524.0,516.0
525.0,513.0,521.0,530.0,523.0
523.0,513.0,516.0,525.0,536.0
524.0,515.0,513.0,526.0,537.0
512.0,511.0,505.0,521.0,543.0
521.0,513.0,506.0,518.0,517.0
513.0,503.0,496.0,510.0,519.0
507.0,502.0,501.0,517.0,515.0
503.0,499.0,503.0,509.0,504.0
502.0,500.0,510.0,507.0,486.0
502.0,501.0,514.0,507.0,483.0
516.0,503.0,523.0,511.0,479.0
509.0,501.0,523.0,511.0,504.0
513.0,502.0,525.0,506.0,508.0
516.0,502.0,525.0,508.0,508.0
515.0,503.0,523.0,509.0,496.0
517.0,506.0,522.0,519.0,504.0
524.0,509.0,525.0,529.0,515.0
529.0,513.0,521.0,534.0,515.0
530.0,515.0,518.0,535.0,499.0
528.0,516.0,509.0,527.0,491.0
522.0,510.0,503.0,509.0,501.0
519.0,509.0,499.0,505.0,510.0
505.0,504.0,498.0,504.0,513.0
495.0,501.0,500.0,504.0,517.0
490.0,497.0,503.0,502.0,532.0
494.0,505.0,509.0,501.0,524.0
502.0,500.0,515.0,506.0,510.0
519.0,504.0,523.0,506.0,493.0
524.0,501.0,522.0,506.0,499.0
522.0,503.0,524.0,506.0,527.0
512.0,504.0,520.0,502.0,561.0
525.0,503.0,516.0,505.0,546.0
529.0,509.0,513.0,518.0,532.0
529.0,511.0,512.0,528.0,491.0
522.0,512.0,503.0,530.0,496.0
524.0,510.0,501.0,523.0,505.0
523.0,512.0,511.0,518.0,532.0
521.0,511.0,506.0,507.0,529.0
518.0,507.0,502.0,509.0,533.0
499.0,505.0,502.0,506.0,541.0
495.0,504.0,505.0,508.0,533.0
497.0,505.0,510.0,509.0,529.0
508.0,501.0,513.0,504.0,526.0
506.0,499.0,517.0,505.0,509.0
505.0,502.0,524.0,510.0,481.0
516.0,501.0,523.0,508.0,484.0
524.0,504.0,525.0,510.0,483.0
529.0,500.0,523.0,508.0,476.0
523.0,501.0,516.0,509.0,494.0
520.0,506.0,522.0,512.0,501.0
522.0,517.0,521.0,519.0,505.0
527.0,514.0,512.0,527.0,519.0
522.0,515.0,511.0,531.0,527.0
516.0,510.0,505.0,523.0,534.0
515.0,510.0,503.0,523.0,519.0
499.0,502.0,500.0,516.0,518.0
493.0,502.0,500.0,510.0,512.0
495.0,504.0,506.0,510.0,505.0
501.0,503.0,511.0,510.0,511.0
505.0,502.0,514.0,508.0,509.0
510.0,504.0,523.0,507.0,511.0
507.0,501.0,526.0,505.0,506.0
509.0,504.0,526.0,506.0,513.0
517.0,504.0,525.0,511.0,512.0
515.0,504.0,519.0,511.0,513.0
522.0,507.0,520.0,515.0,516.0
529.0,513.0,520.0,520.0,516.0
530.0,512.0,516.0,524.0,522.0
529.0,514.0,514.0,529.0,521.0
515.0,512.0,507.0,524.0,525.0
515.0,511.0,502.0,521.0,511.0
519.0,513.0,503.0,521.0,508.0
508.0,508.0,495.0,510.0,520.0
502.0,503.0,500.0,507.0,524.0
503.0,503.0,504.0,507.0,509.0
504.0,502.0,511.0,507.0,500.0
506.0,500.0,515.0,503.0,517.0
511.0,504.0,521.0,505.0,505.0
510.0,500.0,523.0,504.0,504.0
515.0,504.0,522.0,506.0,502.0
517.0,503.0,521.0,512.0,512.0
521.0,506.0,522.0,513.0,510.0
524.0,508.0,518.0,515.0,506.0
528.0,509.0,515.0,519.0,503.0
535.0,514.0,515.0,525.0,514.0
524.0,514.0,510.0,526.0,507.0
521.0,513.0,504.0,525.0,503.0
520.0,512.0,503.0,520.0,515.0
509.0,508.0,499.0,511.0,523.0
502.0,504.0,499.0,506.0,544.0
495.0,502.0,501.0,503.0,533.0
498.0,506.0,506.0,502.0,515.0
499.0,502.0,513.0,506.0,499.0
512.0,503.0,520.0,508.0,490.0
509.0,505.0,526.0,514.0,505.0
497.0,498.0,520.0,501.0,512.0
508.0,503.0,523.0,506.0,510.0
512.0,500.0,519.0,507.0,523.0
516.0,505.0,518.0,512.0,501.0
525.0,511.0,519.0,519.0,493.0
536.0,513.0,517.0,525.0,489.0
538.0,514.0,513.0,526.0,498.0
527.0,517.0,511.0,526.0,532.0
518.0,514.0,503.0,522.0,529.0
512.0,513.0,504.0,522.0,524.0
497.0,507.0,500.0,513.0,541.0
495.0,504.0,501.0,505.0,539.0
496.0,508.0,507.0,510.0,522.0
501.0,503.0,512.0,510.0,521.0
511.0,504.0,516.0,506.0,517.0
522.0,504.0,520.0,501.0,500.0
524.0,503.0,523.0,501.0,499.0
526.0,503.0,520.0,504.0,494.0
516.0,502.0,521.0,505.0,498.0
510.0,502.0,519.0,509.0,511.0
528.0,507.0,519.0,516.0,494.0
533.0,512.0,523.0,522.0,483.0
527.0,515.0,518.0,527.0,487.0
530.0,519.0,515.0,530.0,489.0
525.0,515.0,510.0,526.0,532.0
525.0,512.0,506.0,524.0,533.0
513.0,510.0,502.0,522.0,534.0
497.0,501.0,496.0,509.0,542.0
505.0,501.0,500.0,506.0,520.0
503.0,501.0,506.0,507.0,520.0
507.0,500.0,507.0,504.0,502.0
505.0,500.0,515.0,504.0,506.0
508.0,504.0,522.0,507.0,505.0
509.0,502.0,523.0,505.0,511.0
505.0,503.0,523.0,506.0,506.0
514.0,501.0,521.0,504.0,501.0
523.0,505.0,521.0,513.0,502.0
524.0,508.0,521.0,520.0,511.0
528.0,512.0,521.0,525.0,513.0
532.0,513.0,516.0,525.0,514.0
528.0,515.0,512.0,526.0,513.0
521.0,512.0,504.0,523.0,524.0
519.0,516.0,507.0,523.0,525.0
507.0,504.0,503.0,512.0,527.0
500.0,499.0,506.0,507.0,529.0
493.0,502.0,504.0,510.0,527.0
495.0,500.0,504.0,503.0,521.0
503.0,502.0,513.0,503.0,517.0
507.0,504.0,520.0,506.0,524.0
511.0,504.0,523.0,508.0,506.0
519.0,503.0,521.0,510.0,499.0
517.0,504.0,524.0,507.0,505.0
524.0,503.0,521.0,509.0,502.0
527.0,505.0,522.0,514.0,500.0
527.0,507.0,519.0,522.0,500.0
523.0,509.0,516.0,527.0,502.0
527.0,513.0,515.0,531.0,500.0
520.0,510.0,512.0,528.0,525.0
512.0,510.0,505.0,523.0,535.0
510.0,514.0,504.0,522.0,525.0
492.0,502.0,497.0,512.0,536.0
492.0,498.0,502.0,509.0,537.0
498.0,501.0,503.0,503.0,522.0
501.0,502.0,513.0,509.0,481.0
502.0,501.0,516.0,503.0,494.0
509.0,499.0,525.0,506.0,497.0
508.0,502.0,522.0,503.0,504.0
522.0,503.0,524.0,504.0,504.0
522.0,502.0,524.0,506.0,510.0
525.0,502.0,520.0,511.0,510.0
521.0,508.0,524.0,516.0,513.0
521.0,511.0,522.0,522.0,510.0
533.0,514.0,519.0,526.0,504.0
521.0,513.0,513.0,527.0,501.0
519.0,513.0,509.0,527.0,508.0
513.0,512.0,503.0,523.0,517.0
509.0,512.0,504.0,521.0,526.0
496.0,501.0,497.0,512.0,526.0
498.0,497.0,505.0,507.0,519.0
501.0,501.0,510.0,504.0,518.0
504.0,503.0,517.0,504.0,511.0
506.0,503.0,519.0,502.0,507.0
513.0,499.0,528.0,503.0,510.0
511.0,500.0,523.0,504.0,506.0
512.0,503.0,527.0,505.0,514.0
512.0,502.0,524.0,506.0,519.0
516.0,505.0,523.0,517.0,502.0
520.0,503.0,524.0,521.0,494.0
528.0,510.0,519.0,523.0,497.0
530.0,514.0,519.0,526.0,504.0
529.0,514.0,508.0,529.0,507.0
521.0,516.0,507.0,526.0,521.0
516.0,507.0,507.0,522.0,510.0
508.0,507.0,502.0,515.0,517.0
501.0,503.0,499.0,513.0,538.0
503.0,502.0,502.0,504.0,536.0
501.0,508.0,511.0,507.0,526.0
504.0,507.0,517.0,509.0,504.0
506.0,505.0,520.0,510.0,508.0
504.0,503.0,524.0,504.0,507.0
504.0,500.0,521.0,505.0,513.0
509.0,502.0,524.0,509.0,521.0
509.0,503.0,527.0,509.0,520.0
518.0,503.0,519.0,512.0,512.0
528.0,510.0,522.0,522.0,494.0
530.0,513.0,519.0,526.0,503.0
527.0,514.0,514.0,527.0,504.0
521.0,513.0,509.0,525.0,506.0
514.0,512.0,506.0,527.0,508.0
509.0,506.0,503.0,521.0,521.0
504.0,503.0,497.0,511.0,529.0
501.0,501.0,499.0,507.0,536.0
504.0,497.0,508.0,503.0,521.0
512.0,501.0,509.0,502.0,516.0
514.0,502.0,516.0,504.0,494.0
517.0,503.0,519.0,508.0,490.0
513.0,501.0,526.0,504.0,494.0
516.0,503.0,526.0,508.0,497.0
517.0,501.0,527.0,510.0,497.0
523.0,503.0,526.0,516.0,504.0
518.0,506.0,522.0,517.0,530.0
526.0,508.0,525.0,522.0,532.0
537.0,516.0,520.0,529.0,493.0
529.0,514.0,511.0,526.0,521.0
518.0,512.0,509.0,522.0,543.0
511.0,509.0,506.0,520.0,541.0
511.0,510.0,502.0,521.0,509.0
498.0,505.0,499.0,511.0,518.0
499.0,502.0,501.0,507.0,522.0
505.0,503.0,506.0,507.0,515.0
510.0,502.0,514.0,506.0,503.0
508.0,504.0,515.0,509.0,515.0
518.0,503.0,523.0,503.0,499.0
518.0,502.0,523.0,506.0,502.0
523.0,503.0,524.0,504.0,497.0
523.0,502.0,526.0,508.0,505.0
516.0,504.0,520.0,509.0,528.0
510.0,507.0,523.0,516.0,531.0
518.0,512.0,520.0,524.0,506.0
525.0,515.0,515.0,531.0,502.0
525.0,515.0,510.0,527.0,503.0
522.0,514.0,506.0,525.0,516.0
517.0,509.0,501.0,522.0,518.0
505.0,504.0,494.0,513.0,517.0
498.0,502.0,497.0,509.0,519.0
499.0,502.0,504.0,505.0,520.0
499.0,501.0,509.0,505.0,515.0
504.0,502.0,514.0,506.0,506.0
505.0,507.0,520.0,506.0,504.0
510.0,503.0,522.0,506.0,493.0
509.0,501.0,521.0,505.0,495.0
517.0,504.0,525.0,509.0,498.0
513.0,503.0,526.0,511.0,503.0
509.0,505.0,520.0,514.0,508.0
522.0,514.0,520.0,520.0,515.0
534.0,514.0,517.0,530.0,512.0
535.0,511.0,516.0,529.0,504.0
531.0,514.0,508.0,528.0,505.0
518.0,510.0,503.0,524.0,516.0
515.0,513.0,504.0,522.0,522.0
495.0,502.0,495.0,509.0,532.0
496.0,501.0,503.0,505.0,538.0
498.0,501.0,505.0,504.0,523.0
500.0,499.0,511.0,504.0,512.0
506.0,503.0,516.0,503.0,515.0
513.0,504.0,525.0,505.0,504.0
516.0,506.0,523.0,504.0,504.0
512.0,500.0,522.0,507.0,505.0
513.0,502.0,522.0,509.0,505.0
517.0,504.0,522.0,511.0,500.0
520.0,507.0,520.0,514.0,513.0
524.0,510.0,519.0,521.0,508.0
526.0,513.0,516.0,526.0,513.0
525.0,516.0,513.0,527.0,516.0
520.0,515.0,508.0,527.0,526.0
515.0,509.0,500.0,521.0,528.0
514.0,509.0,499.0,519.0,530.0
502.0,505.0,495.0,509.0,538.0
506.0,504.0,501.0,503.0,535.0
499.0,501.0,506.0,504.0,533.0
495.0,500.0,516.0,504.0,529.0
501.0,501.0,518.0,508.0,506.0
500.0,503.0,522.0,511.0,492.0
503.0,504.0,523.0,510.0,471.0
506.0,505.0,526.0,511.0,486.0
514.0,502.0,524.0,508.0,507.0
526.0,507.0,524.0,512.0,518.0
533.0,510.0,521.0,516.0,519.0
531.0,515.0,520.0,520.0,522.0
532.0,515.0,514.0,524.0,520.0
534.0,517.0,513.0,528.0,519.0
519.0,512.0,504.0,523.0,526.0
517.0,511.0,503.0,522.0,530.0
501.0,500.0,496.0,514.0,525.0
496.0,500.0,497.0,510.0,512.0
496.0,500.0,503.0,508.0,507.0
497.0,500.0,509.0,506.0,499.0
497.0,500.0,514.0,505.0,500.0
500.0,500.0,519.0,505.0,495.0
509.0,503.0,525.0,506.0,495.0
514.0,501.0,524.0,506.0,502.0
513.0,501.0,524.0,508.0,504.0
516.0,501.0,522.0,512.0,498.0
515.0,506.0,522.0,514.0,516.0
525.0,510.0,521.0,520.0,508.0
532.0,515.0,520.0,525.0,509.0
536.0,517.0,515.0,527.0,519.0
535.0,517.0,512.0,529.0,517.0
518.0,512.0,503.0,521.0,536.0
512.0,511.0,505.0,520.0,538.0
500.0,502.0,495.0,510.0,535.0
502.0,500.0,498.0,506.0,519.0
507.0,502.0,506.0,506.0,512.0
504.0,504.0,514.0,505.0,522.0
498.0,503.0,517.0,506.0,490.0
503.0,507.0,525.0,512.0,488.0
505.0,504.0,526.0,507.0,504.0
503.0,503.0,523.0,508.0,502.0
499.0,499.0,521.0,505.0,499.0
506.0,502.0,520.0,510.0,512.0
518.0,504.0,519.0,515.0,509.0
542.0,511.0,517.0,524.0,511.0
545.0,514.0,518.0,527.0,493.0
539.0,515.0,512.0,527.0,495.0
532.0,513.0,506.0,521.0,508.0
520.0,508.0,501.0,526.0,519.0
517.0,507.0,498.0,518.0,509.0
508.0,502.0,495.0,511.0,519.0
503.0,501.0,500.0,508.0,517.0
510.0,502.0,504.0,506.0,512.0
510.0,504.0,516.0,505.0,517.0
514.0,505.0,521.0,507.0,517.0
519.0,506.0,526.0,509.0,520.0
515.0,498.0,520.0,504.0,518.0
516.0,504.0,527.0,511.0,521.0
514.0,502.0,523.0,507.0,520.0
514.0,503.0,521.0,510.0,521.0
516.0,508.0,521.0,518.0,530.0
522.0,513.0,519.0,523.0,534.0
529.0,516.0,516.0,527.0,525.0
528.0,517.0,511.0,527.0,528.0
517.0,513.0,504.0,525.0,508.0
509.0,510.0,503.0,521.0,517.0
511.0,505.0,498.0,514.0,528.0
504.0,503.0,499.0,510.0,519.0
500.0,502.0,504.0,509.0,497.0
495.0,502.0,514.0,507.0,497.0
495.0,502.0,519.0,507.0,504.0
505.0,506.0,518.0,510.0,485.0
510.0,503.0,525.0,507.0,487.0
507.0,500.0,522.0,504.0,505.0
518.0,505.0,526.0,509.0,504.0
520.0,503.0,522.0,509.0,527.0
527.0,511.0,522.0,515.0,520.0
530.0,510.0,521.0,525.0,523.0
526.0,512.0,517.0,523.0,532.0
522.0,512.0,512.0,526.0,530.0
519.0,515.0,507.0,528.0,522.0
515.0,509.0,502.0,522.0,520.0
517.0,512.0,499.0,524.0,522.0
505.0,503.0,496.0,512.0,529.0
503.0,502.0,499.0,505.0,531.0
498.0,499.0,508.0,506.0,519.0
498.0,502.0,514.0,509.0,505.0
505.0,503.0,517.0,510.0,495.0
507.0,509.0,525.0,509.0,494.0
509.0,502.0,525.0,507.0,495.0
502.0,499.0,522.0,505.0,501.0
509.0,501.0,524.0,509.0,504.0
514.0,504.0,517.0,511.0,511.0
518.0,505.0,522.0,515.0,515.0
520.0,511.0,519.0,521.0,515.0
533.0,516.0,517.0,527.0,516.0
533.0,518.0,513.0,529.0,521.0
526.0,516.0,508.0,526.0,526.0
519.0,511.0,501.0,524.0,531.0
508.0,507.0,498.0,517.0,527.0
499.0,503.0,493.0,511.0,524.0
499.0,503.0,501.0,508.0,516.0
502.0,503.0,510.0,508.0,510.0
504.0,501.0,514.0,506.0,504.0
506.0,501.0,522.0,505.0,499.0
512.0,505.0,526.0,507.0,502.0
510.0,502.0,524.0,506.0,508.0
510.0,508.0,526.0,509.0,508.0
513.0,504.0,523.0,509.0,514.0
517.0,505.0,524.0,513.0,516.0
518.0,510.0,522.0,520.0,525.0
519.0,514.0,518.0,522.0,521.0
520.0,515.0,511.0,526.0,519.0
519.0,515.0,511.0,530.0,515.0
509.0,513.0,507.0,525.0,517.0
508.0,509.0,500.0,520.0,514.0
505.0,503.0,492.0,514.0,520.0
509.0,501.0,496.0,508.0,522.0
506.0,502.0,503.0,507.0,513.0
504.0,502.0,510.0,511.0,504.0
506.0,506.0,516.0,506.0,511.0
509.0,506.0,520.0,508.0,502.0
513.0,506.0,524.0,508.0,495.0
511.0,499.0,523.0,506.0,504.0
515.0,507.0,525.0,509.0,503.0
516.0,502.0,521.0,507.0,508.0
520.0,507.0,520.0,512.0,514.0
527.0,513.0,521.0,519.0,512.0
531.0,512.0,518.0,523.0,513.0
527.0,512.0,511.0,526.0,515.0
527.0,516.0,510.0,527.0,510.0
517.0,510.0,502.0,521.0,509.0
512.0,509.0,501.0,521.0,513.0
501.0,504.0,497.0,511.0,539.0
496.0,502.0,501.0,508.0,537.0
498.0,501.0,506.0,506.0,530.0
500.0,506.0,515.0,506.0,521.0
502.0,502.0,519.0,506.0,511.0
506.0,504.0,525.0,509.0,502.0
507.0,503.0,526.0,511.0,499.0
509.0,500.0,523.0,505.0,507.0
515.0,502.0,523.0,507.0,520.0
517.0,503.0,524.0,510.0,520.0
517.0,506.0,522.0,521.0,502.0
526.0,512.0,523.0,523.0,507.0
530.0,513.0,517.0,529.0,504.0
526.0,513.0,510.0,526.0,515.0
521.0,515.0,509.0,529.0,511.0
514.0,509.0,502.0,525.0,518.0
507.0,504.0,496.0,515.0,520.0
497.0,501.0,502.0,509.0,525.0
498.0,502.0,503.0,506.0,536.0
501.0,500.0,508.0,501.0,528.0
508.0,503.0,516.0,503.0,528.0
512.0,502.0,520.0,503.0,514.0
521.0,503.0,525.0,507.0,502.0
512.0,499.0,522.0,503.0,495.0
514.0,501.0,523.0,502.0,502.0
523.0,502.0,524.0,513.0,504.0
518.0,508.0,527.0,516.0,503.0
520.0,508.0,518.0,519.0,519.0
524.0,510.0,515.0,522.0,526.0
528.0,512.0,517.0,524.0,521.0
528.0,515.0,510.0,527.0,503.0
519.0,515.0,503.0,523.0,509.0
512.0,504.0,503.0,519.0,516.0
506.0,503.0,496.0,517.0,520.0
501.0,502.0,499.0,509.0,529.0
500.0,503.0,507.0,509.0,520.0
501.0,503.0,511.0,506.0,519.0
499.0,502.0,516.0,504.0,515.0
501.0,507.0,523.0,508.0,511.0
507.0,505.0,527.0,510.0,505.0
509.0,503.0,526.0,508.0,508.0
514.0,503.0,526.0,512.0,503.0
523.0,501.0,522.0,512.0,497.0
516.0,503.0,519.0,514.0,499.0
520.0,509.0,521.0,522.0,520.0
516.0,511.0,517.0,524.0,521.0
517.0,511.0,511.0,526.0,526.0
515.0,513.0,507.0,528.0,521.0
518.0,512.0,505.0,525.0,524.0
511.0,511.0,504.0,524.0,519.0
515.0,505.0,498.0,513.0,527.0
514.0,505.0,501.0,509.0,520.0
506.0,502.0,504.0,507.0,513.0
506.0,501.0,512.0,508.0,505.0
504.0,501.0,518.0,506.0,488.0
512.0,505.0,524.0,509.0,483.0
518.0,505.0,528.0,509.0,494.0
510.0,501.0,525.0,506.0,495.0
517.0,503.0,525.0,508.0,495.0
518.0,506.0,523.0,512.0,505.0
523.0,506.0,519.0,517.0,514.0
526.0,509.0,517.0,520.0,534.0
528.0,513.0,516.0,528.0,531.0
530.0,516.0,515.0,529.0,504.0
527.0,515.0,508.0,528.0,513.0
514.0,510.0,502.0,523.0,513.0
507.0,506.0,499.0,519.0,520.0
499.0,505.0,497.0,512.0,529.0
499.0,505.0,502.0,510.0,523.0
504.0,502.0,504.0,508.0,517.0
501.0,501.0,514.0,507.0,503.0
507.0,503.0,519.0,505.0,503.0
511.0,504.0,524.0,508.0,503.0
510.0,501.0,524.0,508.0,495.0
512.0,504.0,529.0,508.0,498.0
519.0,504.0,524.0,512.0,504.0
517.0,505.0,521.0,514.0,509.0
523.0,509.0,520.0,518.0,513.0
524.0,511.0,518.0,524.0,521.0
527.0,515.0,513.0,523.0,522.0
528.0,515.0,513.0,527.0,517.0
520.0,512.0,502.0,526.0,520.0
515.0,509.0,502.0,520.0,521.0
508.0,506.0,497.0,514.0,526.0
497.0,505.0,501.0,510.0,529.0
495.0,502.0,503.0,507.0,526.0
499.0,505.0,512.0,508.0,511.0
504.0,506.0,518.0,507.0,503.0
503.0,503.0,521.0,505.0,521.0
507.0,503.0,523.0,502.0,514.0
508.0,501.0,522.0,505.0,506.0
511.0,508.0,524.0,509.0,501.0
521.0,504.0,523.0,511.0,510.0
523.0,506.0,520.0,516.0,510.0
531.0,511.0,520.0,523.0,515.0
534.0,515.0,517.0,525.0,526.0
528.0,515.0,511.0,526.0,538.0
527.0,517.0,509.0,529.0,522.0
516.0,512.0,501.0,521.0,522.0
509.0,513.0,499.0,520.0,517.0
499.0,504.0,496.0,511.0,527.0
495.0,501.0,499.0,506.0,518.0
495.0,500.0,505.0,505.0,512.0
498.0,502.0,513.0,507.0,514.0
501.0,502.0,519.0,503.0,517.0
504.0,504.0,524.0,508.0,508.0
503.0,504.0,525.0,507.0,508.0
499.0,501.0,526.0,503.0,513.0
507.0,503.0,523.0,507.0,510.0
511.0,503.0,521.0,514.0,507.0
514.0,507.0,518.0,515.0,502.0
525.0,511.0,517.0,521.0,512.0
534.0,517.0,516.0,527.0,512.0
532.0,515.0,512.0,530.0,515.0
524.0,515.0,511.0,527.0,526.0
521.0,511.0,501.0,522.0,532.0
508.0,507.0,495.0,513.0,536.0
501.0,504.0,500.0,508.0,536.0
506.0,503.0,501.0,507.0,506.0
506.0,501.0,506.0,507.0,502.0
503.0,503.0,514.0,506.0,500.0
506.0,501.0,518.0,508.0,503.0
510.0,499.0,523.0,507.0,499.0
511.0,500.0,522.0,504.0,501.0
512.0,501.0,524.0,506.0,505.0
514.0,501.0,521.0,507.0,508.0
519.0,505.0,522.0,512.0,507.0
523.0,510.0,520.0,519.0,504.0
526.0,512.0,518.0,525.0,505.0
529.0,515.0,518.0,527.0,510.0
525.0,515.0,509.0,528.0,516.0
517.0,515.0,503.0,525.0,523.0
514.0,509.0,497.0,520.0,534.0
507.0,506.0,495.0,514.0,523.0
500.0,502.0,499.0,509.0,521.0
496.0,502.0,511.0,507.0,514.0
492.0,501.0,517.0,501.0,521.0
497.0,501.0,516.0,502.0,507.0
495.0,503.0,515.0,505.0,505.0
496.0,501.0,524.0,506.0,503.0
493.0,499.0,522.0,506.0,491.0
499.0,498.0,521.0,506.0,497.0
518.0,503.0,521.0,508.0,526.0
511.0,505.0,520.0,513.0,538.0
517.0,511.0,520.0,522.0,521.0
532.0,514.0,517.0,529.0,499.0
524.0,515.0,512.0,527.0,510.0
526.0,515.0,506.0,525.0,496.0
520.0,512.0,500.0,524.0,512.0
521.0,513.0,501.0,520.0,520.0
525.0,508.0,498.0,514.0,525.0
522.0,504.0,500.0,509.0,528.0
518.0,503.0,506.0,505.0,521.0
516.0,503.0,514.0,505.0,509.0
513.0,502.0,521.0,503.0,512.0
520.0,507.0,526.0,513.0,496.0
521.0,503.0,525.0,507.0,492.0
522.0,502.0,521.0,509.0,499.0
528.0,504.0,524.0,512.0,490.0
528.0,508.0,523.0,521.0,491.0
525.0,509.0,527.0,514.0,526.0
531.0,515.0,523.0,519.0,520.0
529.0,514.0,519.0,520.0,530.0
525.0,516.0,517.0,529.0,518.0
522.0,516.0,513.0,529.0,514.0
515.0,511.0,496.0,527.0,515.0
503.0,505.0,488.0,515.0,527.0
498.0,502.0,497.0,507.0,520.0
498.0,502.0,498.0,504.0,508.0
503.0,501.0,505.0,502.0,506.0
507.0,504.0,514.0,504.0,506.0
503.0,500.0,517.0,504.0,506.0
505.0,502.0,523.0,507.0,534.0
496.0,498.0,525.0,505.0,538.0
500.0,506.0,523.0,502.0,506.0
509.0,504.0,522.0,511.0,488.0
520.0,506.0,515.0,512.0,498.0
526.0,511.0,521.0,518.0,510.0
531.0,515.0,519.0,527.0,504.0
528.0,514.0,512.0,528.0,512.0
530.0,517.0,507.0,533.0,495.0
524.0,516.0,504.0,527.0,499.0
517.0,512.0,501.0,526.0,516.0
503.0,510.0,495.0,514.0,531.0
499.0,504.0,500.0,511.0,524.0
501.0,505.0,504.0,512.0,516.0
503.0,506.0,513.0,508.0,521.0
502.0,504.0,517.0,505.0,525.0
508.0,507.0,523.0,507.0,507.0
515.0,508.0,527.0,508.0,489.0
505.0,503.0,521.0,504.0,504.0
508.0,503.0,522.0,507.0,512.0
516.0,505.0,520.0,505.0,506.0
526.0,510.0,521.0,517.0,501.0
529.0,509.0,523.0,522.0,504.0
533.0,517.0,518.0,527.0,498.0
528.0,515.0,511.0,525.0,507.0
525.0,517.0,505.0,531.0,516.0
514.0,513.0,503.0,523.0,532.0
505.0,510.0,498.0,523.0,535.0
496.0,505.0,498.0,511.0,545.0
493.0,504.0,503.0,507.0,530.0
499.0,502.0,511.0,505.0,519.0
501.0,503.0,514.0,507.0,512.0
504.0,502.0,519.0,509.0,509.0
505.0,505.0,525.0,507.0,510.0
508.0,506.0,528.0,508.0,509.0
502.0,501.0,523.0,505.0,512.0
511.0,502.0,527.0,508.0,515.0
515.0,506.0,523.0,517.0,517.0
520.0,509.0,522.0,524.0,515.0
529.0,513.0,520.0,519.0,514.0
527.0,516.0,516.0,526.0,509.0
530.0,515.0,513.0,528.0,508.0
521.0,515.0,509.0,527.0,512.0
509.0,509.0,503.0,523.0,528.0
502.0,506.0,501.0,515.0,534.0
497.0,502.0,501.0,513.0,525.0
500.0,502.0,508.0,507.0,523.0
497.0,504.0,516.0,505.0,521.0
501.0,502.0,514.0,505.0,514.0
505.0,504.0,515.0,506.0,508.0
509.0,506.0,525.0,508.0,504.0
509.0,503.0,525.0,507.0,506.0
515.0,502.0,524.0,508.0,507.0
515.0,508.0,524.0,512.0,507.0
519.0,506.0,522.0,516.0,506.0
526.0,512.0,522.0,521.0,507.0
529.0,516.0,519.0,526.0,503.0
529.0,515.0,517.0,527.0,508.0
525.0,517.0,510.0,529.0,520.0
519.0,514.0,505.0,526.0,528.0
510.0,508.0,500.0,521.0,527.0
504.0,503.0,494.0,513.0,527.0
501.0,503.0,498.0,509.0,525.0
502.0,505.0,503.0,506.0,522.0
505.0,502.0,510.0,505.0,517.0
510.0,501.0,515.0,500.0,515.0
511.0,507.0,522.0,505.0,512.0
513.0,504.0,526.0,505.0,519.0
508.0,503.0,524.0,506.0,513.0
510.0,503.0,524.0,508.0,510.0
514.0,505.0,527.0,513.0,512.0
510.0,505.0,520.0,516.0,515.0
516.0,508.0,519.0,522.0,505.0
515.0,512.0,517.0,525.0,520.0
519.0,513.0,513.0,530.0,512.0
516.0,516.0,509.0,532.0,518.0
506.0,510.0,502.0,523.0,524.0
501.0,509.0,499.0,519.0,523.0
508.0,506.0,498.0,514.0,527.0
513.0,503.0,501.0,514.0,519.0
508.0,504.0,507.0,508.0,512.0
507.0,502.0,513.0,509.0,505.0
508.0,501.0,519.0,503.0,502.0
512.0,505.0,525.0,508.0,504.0
512.0,503.0,526.0,512.0,501.0
508.0,500.0,523.0,505.0,506.0
513.0,501.0,524.0,508.0,507.0
514.0,506.0,518.0,513.0,512.0
522.0,507.0,521.0,517.0,510.0
532.0,512.0,519.0,524.0,503.0
527.0,517.0,515.0,527.0,508.0
523.0,514.0,509.0,528.0,512.0
518.0,514.0,504.0,529.0,519.0
504.0,509.0,500.0,521.0,526.0
518.0,510.0,496.0,516.0,526.0
514.0,507.0,500.0,513.0,516.0
507.0,504.0,503.0,509.0,501.0
506.0,504.0,508.0,505.0,485.0
509.0,503.0,515.0,506.0,491.0
505.0,502.0,521.0,509.0,505.0
508.0,506.0,527.0,507.0,516.0
501.0,502.0,524.0,505.0,524.0
504.0,502.0,523.0,502.0,533.0
513.0,504.0,523.0,511.0,510.0
515.0,505.0,521.0,517.0,517.0
524.0,510.0,521.0,522.0,531.0
520.0,512.0,516.0,528.0,525.0
518.0,512.0,512.0,526.0,526.0
525.0,516.0,509.0,534.0,515.0
521.0,513.0,502.0,526.0,515.0
520.0,508.0,499.0,517.0,536.0
515.0,507.0,497.0,512.0,543.0
502.0,501.0,497.0,505.0,538.0
500.0,501.0,506.0,504.0,516.0
506.0,502.0,511.0,506.0,502.0
510.0,502.0,516.0,506.0,501.0
509.0,503.0,524.0,508.0,501.0
513.0,503.0,526.0,506.0,515.0
511.0,505.0,524.0,504.0,528.0
512.0,501.0,522.0,507.0,522.0
524.0,505.0,523.0,511.0,520.0
523.0,506.0,519.0,516.0,493.0
526.0,510.0,518.0,523.0,484.0
531.0,514.0,517.0,528.0,502.0
529.0,515.0,510.0,529.0,501.0
525.0,514.0,503.0,527.0,521.0
518.0,513.0,501.0,527.0,519.0
507.0,511.0,499.0,520.0,517.0
499.0,502.0,497.0,513.0,519.0
496.0,504.0,504.0,507.0,519.0
496.0,501.0,506.0,506.0,512.0
498.0,502.0,514.0,504.0,507.0
504.0,502.0,519.0,505.0,504.0
510.0,503.0,523.0,507.0,502.0
510.0,502.0,524.0,506.0,502.0
511.0,501.0,526.0,506.0,498.0
518.0,503.0,524.0,509.0,507.0
519.0,504.0,522.0,512.0,509.0
524.0,510.0,523.0,521.0,518.0
530.0,513.0,520.0,523.0,521.0
529.0,514.0,515.0,527.0,523.0
525.0,515.0,510.0,529.0,521.0
517.0,515.0,506.0,531.0,517.0
511.0,512.0,502.0,522.0,523.0
504.0,505.0,496.0,519.0,529.0
503.0,503.0,498.0,510.0,519.0
500.0,500.0,502.0,507.0,506.0
499.0,500.0,506.0,506.0,493.0
503.0,501.0,514.0,506.0,489.0
505.0,501.0,520.0,505.0,493.0
513.0,504.0,524.0,505.0,503.0
514.0,502.0,524.0,504.0,505.0
509.0,499.0,522.0,510.0,514.0
514.0,504.0,525.0,512.0,507.0
517.0,507.0,523.0,520.0,512.0
517.0,511.0,520.0,519.0,518.0
522.0,511.0,517.0,523.0,519.0
526.0,515.0,514.0,528.0,520.0
525.0,517.0,511.0,529.0,523.0
516.0,514.0,504.0,521.0,532.0
512.0,508.0,498.0,518.0,533.0
511.0,505.0,495.0,516.0,529.0
501.0,504.0,497.0,513.0,527.0
496.0,501.0,505.0,504.0,520.0
496.0,502.0,513.0,506.0,512.0
501.0,502.0,517.0,505.0,506.0
507.0,502.0,522.0,505.0,503.0
509.0,507.0,526.0,506.0,504.0
511.0,501.0,525.0,504.0,516.0
511.0,501.0,524.0,504.0,518.0
515.0,502.0,522.0,509.0,516.0
520.0,506.0,522.0,514.0,511.0
528.0,509.0,519.0,521.0,498.0
525.0,512.0,517.0,525.0,499.0
527.0,515.0,513.0,528.0,511.0
523.0,515.0,509.0,527.0,524.0
517.0,512.0,504.0,524.0,530.0
509.0,508.0,500.0,518.0,536.0
501.0,503.0,499.0,514.0,508.0
497.0,501.0,500.0,505.0,516.0
497.0,501.0,507.0,506.0,513.0
502.0,501.0,516.0,505.0,507.0
500.0,501.0,519.0,508.0,513.0
507.0,504.0,526.0,507.0,501.0
507.0,502.0,524.0,512.0,496.0
508.0,501.0,527.0,507.0,505.0
511.0,502.0,520.0,512.0,507.0
514.0,504.0,523.0,515.0,508.0
520.0,506.0,525.0,520.0,512.0
528.0,513.0,518.0,529.0,509.0
526.0,513.0,515.0,528.0,513.0
523.0,516.0,511.0,528.0,522.0
517.0,515.0,509.0,527.0,527.0
513.0,509.0,504.0,521.0,512.0
504.0,507.0,499.0,515.0,519.0
505.0,501.0,497.0,510.0,526.0
511.0,502.0,504.0,506.0,524.0
509.0,502.0,510.0,506.0,515.0
507.0,504.0,515.0,507.0,496.0
508.0,502.0,521.0,505.0,500.0
513.0,505.0,524.0,510.0,498.0
516.0,501.0,525.0,507.0,490.0
515.0,503.0,523.0,507.0,486.0
516.0,505.0,525.0,511.0,500.0
515.0,505.0,519.0,512.0,524.0
522.0,510.0,521.0,519.0,525.0
526.0,513.0,517.0,525.0,515.0
526.0,515.0,511.0,530.0,520.0
525.0,518.0,509.0,530.0,519.0
517.0,513.0,503.0,525.0,524.0
510.0,507.0,498.0,520.0,520.0
503.0,503.0,493.0,515.0,522.0
500.0,501.0,497.0,506.0,523.0
498.0,503.0,503.0,506.0,520.0
500.0,501.0,512.0,504.0,511.0
506.0,501.0,516.0,503.0,506.0
521.0,503.0,523.0,505.0,497.0
519.0,503.0,526.0,511.0,488.0
514.0,503.0,526.0,508.0,492.0
512.0,503.0,525.0,510.0,493.0
517.0,504.0,523.0,512.0,498.0
522.0,509.0,522.0,519.0,512.0
528.0,511.0,515.0,523.0,513.0
527.0,513.0,515.0,522.0,541.0
525.0,515.0,508.0,529.0,539.0
520.0,512.0,504.0,521.0,524.0
518.0,507.0,503.0,522.0,534.0
506.0,506.0,491.0,515.0,528.0
497.0,504.0,498.0,513.0,523.0
497.0,504.0,501.0,513.0,523.0
498.0,502.0,508.0,506.0,518.0
501.0,503.0,514.0,507.0,513.0
503.0,502.0,522.0,504.0,508.0
508.0,504.0,525.0,505.0,503.0
505.0,502.0,524.0,505.0,503.0
511.0,500.0,524.0,504.0,511.0
516.0,502.0,524.0,508.0,508.0
518.0,505.0,524.0,513.0,518.0
521.0,507.0,520.0,515.0,526.0
521.0,515.0,521.0,521.0,538.0
529.0,515.0,515.0,526.0,528.0
537.0,515.0,510.0,529.0,514.0
529.0,515.0,508.0,532.0,496.0
521.0,511.0,502.0,524.0,508.0
508.0,506.0,496.0,519.0,529.0
497.0,501.0,497.0,512.0,525.0
496.0,502.0,504.0,507.0,512.0
503.0,503.0,511.0,508.0,505.0
505.0,502.0,520.0,506.0,502.0
511.0,503.0,523.0,507.0,498.0
508.0,504.0,525.0,507.0,496.0
509.0,502.0,528.0,505.0,501.0
511.0,501.0,524.0,505.0,503.0
514.0,503.0,523.0,508.0,506.0
513.0,506.0,521.0,515.0,511.0
525.0,511.0,515.0,523.0,503.0
532.0,511.0,517.0,526.0,506.0
529.0,514.0,511.0,527.0,518.0
527.0,516.0,508.0,529.0,521.0
518.0,513.0,503.0,525.0,520.0
511.0,510.0,500.0,518.0,526.0
501.0,504.0,496.0,513.0,532.0
497.0,503.0,500.0,506.0,530.0
498.0,501.0,508.0,506.0,524.0
500.0,503.0,512.0,505.0,518.0
504.0,503.0,522.0,504.0,515.0
510.0,506.0,525.0,508.0,497.0
511.0,506.0,525.0,505.0,490.0
510.0,503.0,523.0,504.0,506.0
514.0,503.0,525.0,506.0,517.0
520.0,503.0,523.0,511.0,518.0
520.0,509.0,519.0,517.0,515.0
525.0,505.0,519.0,524.0,494.0
528.0,513.0,515.0,528.0,501.0
526.0,514.0,514.0,529.0,508.0
522.0,515.0,505.0,526.0,519.0
521.0,512.0,503.0,526.0,520.0
508.0,507.0,499.0,520.0,526.0
498.0,500.0,496.0,510.0,527.0
498.0,504.0,500.0,506.0,520.0
497.0,501.0,506.0,505.0,513.0
502.0,502.0,514.0,504.0,507.0
504.0,501.0,520.0,503.0,505.0
509.0,504.0,524.0,506.0,502.0
510.0,504.0,525.0,505.0,507.0
507.0,505.0,527.0,504.0,520.0
514.0,503.0,523.0,507.0,527.0
516.0,505.0,522.0,513.0,527.0
522.0,509.0,522.0,517.0,519.0
523.0,515.0,517.0,523.0,507.0
528.0,515.0,514.0,528.0,501.0
526.0,516.0,509.0,526.0,513.0
526.0,516.0,503.0,521.0,529.0
519.0,510.0,503.0,519.0,531.0
505.0,504.0,495.0,518.0,519.0
502.0,503.0,496.0,510.0,519.0
501.0,501.0,500.0,508.0,515.0
501.0,502.0,507.0,506.0,508.0
501.0,501.0,517.0,507.0,499.0
505.0,504.0,524.0,511.0,495.0
506.0,503.0,526.0,509.0,493.0
509.0,502.0,525.0,507.0,482.0
514.0,502.0,525.0,511.0,486.0
512.0,503.0,522.0,505.0,498.0
518.0,507.0,521.0,515.0,487.0
518.0,512.0,521.0,521.0,526.0
519.0,513.0,516.0,523.0,532.0
521.0,513.0,511.0,525.0,524.0
526.0,515.0,507.0,529.0,505.0
529.0,513.0,502.0,523.0,512.0
522.0,509.0,499.0,519.0,538.0
506.0,504.0,496.0,512.0,545.0
500.0,502.0,497.0,507.0,529.0
499.0,499.0,502.0,505.0,516.0
499.0,502.0,511.0,504.0,517.0
503.0,505.0,515.0,503.0,508.0
508.0,504.0,520.0,504.0,496.0
512.0,503.0,526.0,505.0,503.0
514.0,502.0,524.0,504.0,528.0
514.0,501.0,523.0,509.0,516.0
520.0,503.0,521.0,512.0,501.0
524.0,506.0,520.0,520.0,496.0
533.0,509.0,517.0,522.0,512.0
530.0,513.0,516.0,525.0,520.0
524.0,513.0,508.0,531.0,524.0
522.0,515.0,506.0,526.0,528.0
516.0,512.0,501.0,525.0,516.0
506.0,505.0,494.0,516.0,514.0
498.0,502.0,496.0,514.0,522.0
494.0,500.0,499.0,510.0,517.0
497.0,500.0,506.0,507.0,511.0
498.0,501.0,513.0,508.0,516.0
496.0,500.0,519.0,505.0,519.0
509.0,503.0,523.0,506.0,503.0
515.0,503.0,525.0,506.0,493.0
509.0,500.0,522.0,504.0,502.0
513.0,502.0,522.0,507.0,495.0
519.0,504.0,520.0,513.0,504.0
521.0,507.0,519.0,518.0,504.0
525.0,509.0,521.0,525.0,506.0
526.0,514.0,513.0,527.0,506.0
526.0,518.0,510.0,531.0,509.0
523.0,513.0,503.0,529.0,516.0
518.0,515.0,500.0,523.0,519.0
507.0,506.0,496.0,515.0,530.0
503.0,503.0,497.0,509.0,525.0
500.0,502.0,501.0,504.0,526.0
498.0,502.0,509.0,504.0,525.0
502.0,502.0,517.0,506.0,519.0
511.0,503.0,524.0,508.0,507.0
514.0,503.0,525.0,506.0,497.0
514.0,501.0,526.0,507.0,496.0
513.0,503.0,525.0,508.0,500.0
517.0,503.0,522.0,508.0,514.0
524.0,507.0,520.0,517.0,512.0
532.0,509.0,518.0,521.0,508.0
528.0,514.0,518.0,527.0,512.0
529.0,515.0,512.0,533.0,517.0
524.0,514.0,509.0,527.0,520.0
517.0,518.0,504.0,526.0,529.0
509.0,508.0,499.0,521.0,531.0
502.0,505.0,497.0,511.0,532.0
497.0,501.0,497.0,508.0,527.0
498.0,501.0,505.0,507.0,522.0
502.0,503.0,512.0,506.0,522.0
510.0,502.0,516.0,504.0,514.0
512.0,504.0,525.0,507.0,496.0
512.0,504.0,525.0,506.0,502.0
515.0,504.0,525.0,505.0,499.0
514.0,502.0,523.0,507.0,496.0
518.0,504.0,523.0,514.0,497.0
522.0,508.0,522.0,518.0,502.0
525.0,508.0,519.0,523.0,509.0
527.0,514.0,515.0,524.0,528.0
526.0,513.0,512.0,526.0,522.0
522.0,515.0,506.0,527.0,522.0
514.0,514.0,503.0,529.0,523.0
503.0,506.0,497.0,520.0,535.0
496.0,502.0,498.0,508.0,527.0
496.0,502.0,501.0,508.0,518.0
495.0,500.0,507.0,504.0,511.0
499.0,501.0,518.0,505.0,506.0
515.0,503.0,521.0,506.0,504.0
516.0,504.0,526.0,505.0,505.0
513.0,505.0,527.0,506.0,511.0
508.0,500.0,523.0,503.0,514.0
513.0,504.0,523.0,505.0,512.0
520.0,505.0,522.0,512.0,503.0
525.0,509.0,521.0,520.0,502.0
526.0,514.0,517.0,523.0,503.0
524.0,515.0,515.0,528.0,510.0
520.0,514.0,509.0,525.0,511.0
520.0,515.0,506.0,526.0,517.0
508.0,509.0,506.0,522.0,524.0
497.0,504.0,494.0,512.0,540.0
501.0,504.0,498.0,508.0,537.0
499.0,502.0,503.0,503.0,527.0
510.0,501.0,511.0,503.0,515.0
515.0,505.0,517.0,504.0,506.0
512.0,503.0,523.0,506.0,493.0
514.0,503.0,525.0,507.0,489.0
520.0,504.0,529.0,510.0,484.0
514.0,501.0,525.0,508.0,488.0
515.0,507.0,523.0,512.0,496.0
522.0,508.0,522.0,518.0,516.0
526.0,512.0,522.0,521.0,532.0
527.0,515.0,516.0,523.0,531.0
527.0,515.0,513.0,528.0,546.0
522.0,514.0,508.0,528.0,544.0
517.0,512.0,503.0,525.0,539.0
516.0,511.0,502.0,523.0,538.0
501.0,502.0,491.0,515.0,542.0
497.0,501.0,499.0,507.0,517.0
499.0,502.0,506.0,510.0,489.0
505.0,504.0,514.0,509.0,496.0
510.0,502.0,518.0,507.0,497.0
506.0,507.0,523.0,506.0,504.0
503.0,503.0,525.0,506.0,505.0
509.0,501.0,525.0,504.0,507.0
510.0,504.0,523.0,506.0,502.0
517.0,507.0,526.0,515.0,485.0
520.0,507.0,520.0,517.0,506.0
532.0,512.0,519.0,524.0,516.0
531.0,518.0,517.0,527.0,504.0
529.0,517.0,506.0,533.0,486.0
524.0,515.0,506.0,528.0,498.0
521.0,510.0,500.0,524.0,508.0
512.0,506.0,496.0,519.0,521.0
506.0,505.0,499.0,513.0,532.0
495.0,503.0,502.0,506.0,543.0
497.0,502.0,512.0,504.0,535.0
499.0,504.0,513.0,502.0,521.0
502.0,502.0,520.0,504.0,510.0
506.0,504.0,525.0,506.0,499.0
504.0,503.0,527.0,507.0,507.0
504.0,501.0,528.0,508.0,514.0
513.0,501.0,523.0,510.0,509.0
517.0,504.0,522.0,512.0,527.0
520.0,509.0,521.0,515.0,531.0
536.0,514.0,519.0,524.0,517.0
536.0,516.0,519.0,530.0,505.0
530.0,514.0,510.0,532.0,505.0
522.0,516.0,505.0,526.0,518.0
510.0,510.0,505.0,521.0,526.0
506.0,505.0,497.0,515.0,530.0
503.0,503.0,498.0,511.0,529.0
503.0,501.0,503.0,506.0,515.0
505.0,502.0,511.0,507.0,509.0
505.0,503.0,518.0,506.0,507.0
508.0,504.0,527.0,506.0,504.0
512.0,503.0,526.0,505.0,501.0
509.0,502.0,525.0,505.0,503.0
508.0,503.0,525.0,509.0,509.0
513.0,504.0,525.0,514.0,506.0
517.0,506.0,521.0,514.0,516.0
525.0,509.0,523.0,524.0,509.0
527.0,512.0,517.0,525.0,518.0
526.0,510.0,509.0,530.0,522.0
517.0,515.0,508.0,529.0,522.0
518.0,513.0,504.0,525.0,525.0
508.0,509.0,501.0,520.0,526.0
500.0,503.0,496.0,513.0,524.0
497.0,502.0,496.0,507.0,517.0
495.0,501.0,506.0,505.0,515.0
505.0,504.0,516.0,505.0,511.0
508.0,501.0,516.0,504.0,511.0
509.0,503.0,524.0,507.0,505.0
509.0,502.0,524.0,505.0,509.0
509.0,505.0,524.0,503.0,515.0
509.0,506.0,524.0,507.0,514.0
520.0,505.0,522.0,511.0,508.0
528.0,509.0,520.0,521.0,510.0
533.0,512.0,519.0,522.0,501.0
531.0,515.0,514.0,525.0,503.0
528.0,515.0,510.0,528.0,507.0
524.0,516.0,506.0,527.0,512.0
516.0,513.0,502.0,525.0,517.0
508.0,506.0,497.0,515.0,529.0
501.0,503.0,497.0,509.0,534.0
501.0,502.0,501.0,506.0,521.0
501.0,501.0,508.0,506.0,507.0
503.0,501.0,518.0,507.0,506.0
507.0,503.0,523.0,504.0,504.0
510.0,508.0,525.0,508.0,502.0
509.0,503.0,525.0,505.0,504.0
512.0,500.0,524.0,506.0,511.0
515.0,501.0,524.0,510.0,508.0
520.0,506.0,526.0,515.0,509.0
522.0,510.0,521.0,520.0,503.0
527.0,514.0,520.0,529.0,505.0
527.0,514.0,515.0,531.0,511.0
528.0,517.0,510.0,529.0,517.0
521.0,514.0,504.0,529.0,524.0
518.0,510.0,500.0,521.0,533.0
505.0,503.0,494.0,515.0,523.0
494.0,502.0,498.0,511.0,528.0
493.0,502.0,504.0,506.0,516.0
493.0,503.0,515.0,506.0,513.0
493.0,502.0,519.0,505.0,510.0
500.0,504.0,523.0,505.0,505.0
510.0,505.0,526.0,505.0,504.0
519.0,503.0,526.0,505.0,507.0
518.0,502.0,523.0,506.0,512.0
523.0,505.0,524.0,510.0,524.0
524.0,506.0,521.0,519.0,510.0
530.0,511.0,520.0,523.0,497.0
530.0,512.0,513.0,525.0,500.0
527.0,514.0,511.0,532.0,515.0
526.0,515.0,512.0,529.0,514.0
519.0,513.0,503.0,526.0,513.0
514.0,512.0,500.0,520.0,531.0
500.0,501.0,492.0,512.0,552.0
498.0,501.0,499.0,509.0,538.0
503.0,503.0,503.0,506.0,520.0
503.0,503.0,513.0,505.0,522.0
499.0,500.0,517.0,505.0,508.0
506.0,503.0,525.0,508.0,497.0
510.0,503.0,526.0,504.0,497.0
510.0,502.0,524.0,505.0,503.0
512.0,506.0,524.0,509.0,500.0
518.0,505.0,522.0,514.0,505.0
517.0,507.0,520.0,517.0,508.0
523.0,513.0,521.0,525.0,511.0
518.0,514.0,516.0,525.0,524.0
522.0,515.0,510.0,526.0,523.0
526.0,516.0,508.0,529.0,521.0
513.0,512.0,502.0,525.0,506.0
501.0,503.0,493.0,515.0,509.0
506.0,508.0,499.0,513.0,515.0
499.0,502.0,502.0,505.0,530.0
498.0,502.0,508.0,501.0,530.0
501.0,504.0,516.0,502.0,526.0
503.0,502.0,520.0,507.0,510.0
504.0,502.0,524.0,504.0,501.0
510.0,500.0,523.0,504.0,494.0
516.0,500.0,524.0,506.0,487.0
523.0,503.0,523.0,507.0,497.0
526.0,505.0,522.0,511.0,504.0
528.0,509.0,520.0,521.0,504.0
530.0,513.0,519.0,525.0,517.0
531.0,514.0,514.0,527.0,524.0
527.0,517.0,510.0,527.0,524.0
517.0,513.0,505.0,524.0,529.0
517.0,512.0,502.0,523.0,533.0
502.0,505.0,496.0,513.0,533.0
500.0,501.0,499.0,508.0,526.0
503.0,504.0,503.0,504.0,518.0
503.0,502.0,510.0,505.0,509.0
505.0,502.0,516.0,504.0,498.0
511.0,501.0,519.0,504.0,501.0
511.0,503.0,530.0,505.0,501.0
515.0,504.0,526.0,507.0,505.0
512.0,507.0,525.0,508.0,504.0
514.0,503.0,522.0,509.0,508.0
521.0,508.0,522.0,514.0,513.0
524.0,510.0,519.0,521.0,513.0
527.0,519.0,518.0,526.0,515.0
525.0,514.0,510.0,527.0,518.0
524.0,514.0,507.0,526.0,519.0
515.0,513.0,504.0,524.0,524.0
510.0,508.0,501.0,524.0,525.0
498.0,504.0,496.0,513.0,527.0
500.0,502.0,499.0,507.0,519.0
496.0,502.0,506.0,506.0,516.0
499.0,501.0,511.0,505.0,513.0
503.0,499.0,515.0,503.0,509.0
507.0,504.0,523.0,507.0,502.0
517.0,507.0,528.0,508.0,506.0
516.0,502.0,525.0,505.0,511.0
516.0,502.0,527.0,507.0,513.0
521.0,504.0,522.0,510.0,514.0
524.0,507.0,519.0,517.0,511.0
526.0,511.0,519.0,524.0,513.0
527.0,514.0,515.0,527.0,514.0
532.0,517.0,514.0,529.0,515.0
528.0,514.0,505.0,529.0,520.0
521.0,509.0,506.0,524.0,529.0
512.0,507.0,498.0,514.0,542.0
505.0,505.0,499.0,511.0,547.0
502.0,503.0,503.0,507.0,536.0
503.0,502.0,509.0,506.0,512.0
503.0,502.0,516.0,506.0,513.0
502.0,505.0,521.0,504.0,512.0
504.0,502.0,524.0,506.0,496.0
509.0,503.0,526.0,507.0,491.0
513.0,502.0,525.0,505.0,493.0
517.0,502.0,523.0,508.0,503.0
520.0,504.0,523.0,514.0,506.0
520.0,508.0,520.0,519.0,517.0
523.0,511.0,517.0,524.0,524.0
527.0,513.0,512.0,524.0,516.0
524.0,515.0,509.0,529.0,509.0
517.0,517.0,505.0,529.0,512.0
515.0,511.0,501.0,525.0,515.0
513.0,506.0,497.0,518.0,523.0
502.0,502.0,498.0,511.0,522.0
498.0,501.0,504.0,507.0,512.0
497.0,500.0,513.0,509.0,493.0
502.0,504.0,516.0,508.0,491.0
507.0,504.0,524.0,508.0,492.0
505.0,505.0,528.0,507.0,523.0
502.0,502.0,527.0,505.0,517.0
507.0,506.0,529.0,507.0,520.0
509.0,508.0,525.0,511.0,516.0
512.0,504.0,521.0,514.0,501.0
525.0,510.0,520.0,519.0,510.0
523.0,515.0,515.0,523.0,518.0
536.0,512.0,508.0,528.0,522.0
538.0,516.0,507.0,531.0,524.0
526.0,509.0,505.0,525.0,525.0
515.0,505.0,500.0,520.0,530.0
502.0,505.0,498.0,513.0,524.0
497.0,502.0,501.0,509.0,512.0
497.0,501.0,506.0,506.0,509.0
500.0,502.0,514.0,505.0,509.0
502.0,502.0,518.0,506.0,512.0
511.0,503.0,525.0,508.0,508.0
515.0,504.0,527.0,508.0,505.0
517.0,504.0,527.0,509.0,523.0
519.0,500.0,523.0,506.0,509.0
523.0,504.0,521.0,507.0,509.0
524.0,507.0,520.0,517.0,490.0
528.0,512.0,516.0,527.0,482.0
535.0,513.0,516.0,528.0,489.0
529.0,512.0,512.0,529.0,513.0
521.0,513.0,503.0,528.0,515.0
517.0,511.0,502.0,523.0,507.0
507.0,506.0,497.0,516.0,526.0
498.0,500.0,497.0,510.0,522.0
495.0,503.0,500.0,508.0,525.0
498.0,501.0,509.0,506.0,532.0
500.0,504.0,517.0,503.0,521.0
502.0,501.0,521.0,507.0,514.0
508.0,502.0,522.0,509.0,501.0
508.0,502.0,524.0,508.0,501.0
507.0,502.0,523.0,504.0,508.0
511.0,504.0,523.0,509.0,502.0
523.0,505.0,522.0,515.0,507.0
525.0,509.0,520.0,516.0,518.0
529.0,514.0,518.0,524.0,516.0
532.0,517.0,515.0,530.0,518.0
528.0,517.0,509.0,529.0,519.0
521.0,512.0,504.0,525.0,522.0
512.0,512.0,502.0,523.0,527.0
500.0,510.0,497.0,514.0,534.0
499.0,503.0,498.0,508.0,524.0
498.0,504.0,506.0,509.0,518.0
505.0,503.0,512.0,506.0,512.0
507.0,502.0,517.0,506.0,508.0
508.0,504.0,524.0,509.0,507.0
509.0,504.0,526.0,504.0,511.0
510.0,504.0,527.0,510.0,513.0
510.0,503.0,521.0,513.0,512.0
516.0,502.0,522.0,511.0,510.0
518.0,508.0,522.0,517.0,513.0
522.0,510.0,524.0,522.0,509.0
526.0,514.0,517.0,531.0,516.0
523.0,514.0,511.0,527.0,523.0
521.0,517.0,508.0,532.0,521.0
512.0,512.0,503.0,524.0,509.0
513.0,509.0,497.0,523.0,521.0
503.0,507.0,495.0,510.0,530.0
504.0,503.0,501.0,512.0,532.0
500.0,501.0,506.0,504.0,532.0
503.0,502.0,513.0,507.0,505.0
507.0,502.0,522.0,503.0,501.0
506.0,503.0,524.0,506.0,496.0
510.0,504.0,526.0,509.0,498.0
511.0,503.0,527.0,509.0,502.0
518.0,501.0,522.0,509.0,504.0
524.0,505.0,525.0,511.0,511.0
526.0,507.0,519.0,515.0,515.0
530.0,510.0,515.0,520.0,517.0
533.0,515.0,515.0,526.0,517.0
531.0,516.0,510.0,527.0,521.0
524.0,514.0,505.0,527.0,522.0
515.0,511.0,507.0,524.0,528.0
498.0,501.0,498.0,515.0,530.0
497.0,504.0,498.0,512.0,526.0
496.0,503.0,504.0,508.0,530.0
498.0,505.0,507.0,504.0,518.0
502.0,502.0,515.0,505.0,493.0
504.0,503.0,519.0,508.0,499.0
506.0,503.0,525.0,507.0,499.0
507.0,502.0,528.0,506.0,496.0
513.0,503.0,529.0,506.0,501.0
508.0,501.0,521.0,508.0,523.0
513.0,504.0,521.0,516.0,508.0
527.0,511.0,526.0,520.0,508.0
534.0,517.0,519.0,525.0,507.0
533.0,514.0,513.0,526.0,513.0
528.0,514.0,508.0,529.0,508.0
518.0,512.0,504.0,526.0,522.0
514.0,511.0,502.0,524.0,526.0
498.0,502.0,494.0,511.0,537.0
494.0,502.0,498.0,508.0,533.0
497.0,505.0,507.0,505.0,522.0
498.0,506.0,512.0,506.0,520.0
498.0,503.0,521.0,505.0,521.0
505.0,501.0,521.0,504.0,503.0
512.0,507.0,525.0,508.0,492.0
518.0,504.0,526.0,509.0,499.0
518.0,502.0,524.0,505.0,513.0
519.0,504.0,522.0,509.0,531.0
524.0,506.0,520.0,514.0,521.0
528.0,509.0,518.0,520.0,507.0
531.0,514.0,517.0,527.0,503.0
526.0,514.0,510.0,529.0,508.0
520.0,519.0,508.0,529.0,506.0
508.0,513.0,503.0,528.0,522.0
503.0,508.0,500.0,521.0,533.0
491.0,502.0,495.0,511.0,531.0
492.0,504.0,501.0,510.0,533.0
494.0,508.0,509.0,509.0,528.0
499.0,503.0,515.0,507.0,521.0
521.0,501.0,517.0,505.0,509.0
518.0,503.0,524.0,508.0,505.0
518.0,504.0,527.0,507.0,501.0
514.0,502.0,525.0,507.0,495.0
521.0,503.0,525.0,506.0,499.0
522.0,505.0,523.0,513.0,509.0
528.0,508.0,520.0,521.0,509.0
529.0,513.0,521.0,528.0,510.0
530.0,515.0,518.0,529.0,511.0
526.0,517.0,512.0,532.0,529.0
520.0,511.0,510.0,526.0,530.0
512.0,511.0,502.0,521.0,542.0
502.0,503.0,495.0,515.0,543.0
496.0,502.0,498.0,510.0,534.0
493.0,500.0,502.0,509.0,490.0
493.0,500.0,507.0,504.0,515.0
498.0,503.0,513.0,501.0,512.0
504.0,501.0,519.0,502.0,506.0
511.0,503.0,525.0,505.0,507.0
523.0,502.0,523.0,504.0,502.0
522.0,504.0,526.0,506.0,502.0
519.0,502.0,518.0,509.0,501.0
524.0,506.0,524.0,515.0,515.0
527.0,511.0,521.0,520.0,522.0
528.0,510.0,521.0,524.0,527.0
528.0,515.0,513.0,526.0,529.0
525.0,518.0,510.0,527.0,526.0
519.0,514.0,503.0,525.0,514.0
513.0,512.0,505.0,524.0,517.0
503.0,503.0,495.0,514.0,520.0
503.0,502.0,498.0,507.0,522.0
499.0,502.0,510.0,506.0,521.0
503.0,504.0,513.0,509.0,513.0
503.0,501.0,519.0,504.0,509.0
510.0,505.0,525.0,506.0,509.0
514.0,503.0,526.0,507.0,496.0
521.0,503.0,526.0,506.0,493.0
518.0,504.0,527.0,510.0,497.0
520.0,506.0,523.0,511.0,504.0
523.0,506.0,520.0,512.0,510.0
528.0,509.0,517.0,519.0,510.0
525.0,512.0,516.0,523.0,527.0
520.0,517.0,513.0,530.0,512.0
524.0,516.0,509.0,530.0,511.0
517.0,512.0,509.0,525.0,518.0
509.0,509.0,502.0,520.0,521.0
496.0,503.0,499.0,514.0,521.0
493.0,502.0,500.0,508.0,524.0
496.0,500.0,505.0,505.0,526.0
499.0,504.0,513.0,507.0,522.0
502.0,501.0,519.0,505.0,507.0
506.0,505.0,525.0,507.0,501.0
511.0,503.0,526.0,512.0,500.0
509.0,502.0,529.0,508.0,506.0
512.0,502.0,523.0,510.0,504.0
514.0,504.0,523.0,515.0,501.0
523.0,507.0,517.0,519.0,506.0
520.0,514.0,520.0,525.0,516.0
528.0,516.0,517.0,528.0,528.0
529.0,517.0,512.0,530.0,523.0
524.0,515.0,506.0,526.0,523.0
511.0,511.0,501.0,520.0,524.0
506.0,506.0,497.0,515.0,530.0
497.0,502.0,497.0,510.0,528.0
499.0,503.0,502.0,510.0,524.0
501.0,498.0,511.0,505.0,517.0
505.0,500.0,514.0,504.0,509.0
506.0,500.0,519.0,505.0,504.0
508.0,503.0,522.0,505.0,502.0
512.0,504.0,524.0,506.0,505.0
517.0,504.0,526.0,508.0,504.0
526.0,501.0,522.0,508.0,502.0
527.0,505.0,523.0,514.0,503.0
530.0,509.0,520.0,522.0,503.0
529.0,511.0,516.0,524.0,525.0
524.0,513.0,513.0,526.0,537.0
515.0,515.0,510.0,528.0,524.0
507.0,512.0,504.0,525.0,522.0
510.0,510.0,502.0,522.0,515.0
502.0,504.0,496.0,517.0,528.0
495.0,501.0,498.0,507.0,533.0
496.0,501.0,507.0,506.0,526.0
497.0,502.0,512.0,505.0,515.0
499.0,501.0,515.0,505.0,504.0
506.0,503.0,522.0,508.0,498.0
506.0,499.0,528.0,507.0,497.0
506.0,502.0,525.0,509.0,500.0
508.0,502.0,524.0,507.0,499.0
517.0,504.0,521.0,510.0,512.0
519.0,506.0,519.0,515.0,512.0
522.0,511.0,520.0,525.0,509.0
521.0,513.0,516.0,526.0,510.0
530.0,514.0,509.0,527.0,513.0
518.0,514.0,507.0,527.0,516.0
513.0,512.0,503.0,522.0,513.0
521.0,508.0,494.0,519.0,517.0
509.0,502.0,497.0,511.0,525.0
500.0,501.0,504.0,505.0,519.0
502.0,501.0,506.0,503.0,522.0
512.0,503.0,514.0,503.0,529.0
514.0,502.0,518.0,505.0,507.0
511.0,503.0,523.0,507.0,512.0
517.0,504.0,525.0,506.0,501.0
516.0,508.0,526.0,507.0,504.0
517.0,503.0,526.0,510.0,515.0
518.0,505.0,523.0,515.0,523.0
525.0,510.0,523.0,519.0,523.0
527.0,512.0,522.0,522.0,512.0
530.0,514.0,515.0,523.0,522.0
528.0,514.0,509.0,528.0,519.0
524.0,515.0,507.0,525.0,521.0
520.0,511.0,504.0,519.0,528.0
506.0,499.0,497.0,512.0,522.0
502.0,500.0,495.0,510.0,513.0
505.0,499.0,501.0,506.0,511.0
503.0,500.0,507.0,504.0,505.0
499.0,500.0,515.0,504.0,501.0
498.0,501.0,517.0,507.0,507.0
507.0,503.0,525.0,507.0,505.0
508.0,501.0,524.0,506.0,489.0
508.0,504.0,525.0,509.0,497.0
513.0,504.0,528.0,512.0,501.0
525.0,505.0,522.0,515.0,496.0
528.0,509.0,522.0,522.0,502.0
528.0,513.0,523.0,524.0,503.0
524.0,512.0,511.0,527.0,519.0
532.0,514.0,510.0,526.0,525.0
519.0,512.0,507.0,525.0,532.0
513.0,515.0,505.0,523.0,520.0
507.0,507.0,498.0,513.0,521.0
507.0,502.0,501.0,512.0,525.0
502.0,502.0,508.0,505.0,515.0
504.0,502.0,512.0,503.0,508.0
505.0,500.0,516.0,504.0,506.0
509.0,502.0,522.0,502.0,507.0
511.0,502.0,526.0,507.0,505.0
511.0,503.0,526.0,510.0,512.0
508.0,502.0,526.0,514.0,517.0
512.0,502.0,523.0,509.0,506.0
519.0,509.0,525.0,515.0,513.0
526.0,511.0,521.0,521.0,512.0
533.0,514.0,521.0,526.0,521.0
526.0,513.0,513.0,528.0,525.0
524.0,514.0,508.0,526.0,522.0
517.0,512.0,506.0,524.0,518.0
514.0,508.0,500.0,520.0,514.0
503.0,502.0,496.0,512.0,513.0
501.0,500.0,502.0,507.0,506.0
500.0,501.0,507.0,506.0,513.0
503.0,502.0,514.0,502.0,515.0
503.0,502.0,517.0,502.0,506.0
509.0,503.0,523.0,501.0,506.0
511.0,502.0,529.0,504.0,509.0
510.0,503.0,526.0,506.0,507.0
514.0,503.0,524.0,509.0,508.0
520.0,505.0,524.0,512.0,513.0
523.0,508.0,523.0,519.0,519.0
528.0,512.0,520.0,522.0,514.0
527.0,509.0,518.0,525.0,514.0
526.0,515.0,512.0,528.0,517.0
525.0,515.0,508.0,526.0,524.0
514.0,511.0,504.0,523.0,522.0
506.0,503.0,498.0,515.0,529.0
503.0,504.0,500.0,510.0,531.0
499.0,502.0,504.0,512.0,526.0
501.0,503.0,510.0,510.0,519.0
507.0,501.0,515.0,504.0,517.0
507.0,501.0,518.0,502.0,515.0
507.0,504.0,524.0,506.0,508.0
506.0,503.0,525.0,508.0,495.0
508.0,503.0,525.0,512.0,489.0
514.0,504.0,524.0,510.0,504.0
515.0,505.0,523.0,516.0,510.0
523.0,509.0,521.0,521.0,504.0
526.0,513.0,521.0,525.0,509.0
525.0,513.0,513.0,526.0,509.0
525.0,515.0,511.0,526.0,519.0
517.0,512.0,502.0,526.0,527.0
514.0,511.0,505.0,520.0,523.0
507.0,504.0,498.0,513.0,522.0
495.0,500.0,498.0,504.0,519.0
506.0,504.0,507.0,512.0,510.0
508.0,505.0,513.0,506.0,524.0
501.0,508.0,518.0,506.0,516.0
508.0,505.0,524.0,507.0,506.0
505.0,503.0,525.0,506.0,512.0
507.0,503.0,526.0,507.0,517.0
509.0,504.0,526.0,507.0,510.0
520.0,505.0,524.0,511.0,510.0
528.0,507.0,521.0,516.0,513.0
532.0,511.0,521.0,525.0,505.0
530.0,513.0,516.0,526.0,507.0
528.0,514.0,508.0,531.0,514.0
528.0,515.0,508.0,524.0,524.0
519.0,510.0,505.0,525.0,515.0
514.0,506.0,500.0,519.0,518.0
503.0,502.0,496.0,513.0,525.0
498.0,498.0,506.0,507.0,524.0
495.0,504.0,506.0,505.0,516.0
500.0,501.0,510.0,506.0,495.0
502.0,501.0,518.0,506.0,494.0
508.0,505.0,522.0,508.0,499.0
518.0,506.0,526.0,507.0,504.0
521.0,504.0,526.0,506.0,516.0
520.0,503.0,524.0,508.0,522.0
520.0,507.0,523.0,517.0,527.0
522.0,510.0,522.0,519.0,488.0
524.0,511.0,518.0,522.0,504.0
523.0,510.0,513.0,526.0,507.0
525.0,515.0,511.0,533.0,505.0
523.0,513.0,506.0,526.0,516.0
520.0,508.0,506.0,524.0,525.0
506.0,506.0,496.0,514.0,538.0
497.0,505.0,498.0,511.0,526.0
499.0,503.0,504.0,511.0,522.0
499.0,504.0,510.0,509.0,522.0
502.0,504.0,514.0,507.0,505.0
502.0,501.0,517.0,503.0,503.0
511.0,504.0,522.0,510.0,502.0
508.0,507.0,523.0,508.0,505.0
518.0,506.0,525.0,509.0,514.0
520.0,504.0,522.0,510.0,518.0
524.0,512.0,521.0,516.0,518.0
527.0,509.0,519.0,520.0,509.0
527.0,513.0,517.0,525.0,512.0
524.0,511.0,517.0,528.0,521.0
521.0,516.0,510.0,529.0,521.0
517.0,513.0,504.0,524.0,524.0
514.0,511.0,502.0,523.0,522.0
503.0,504.0,497.0,515.0,531.0
501.0,503.0,502.0,509.0,525.0
503.0,507.0,505.0,508.0,515.0
506.0,503.0,513.0,506.0,510.0
502.0,503.0,516.0,503.0,526.0
499.0,503.0,514.0,505.0,517.0
501.0,504.0,526.0,507.0,505.0
505.0,504.0,523.0,508.0,504.0
511.0,504.0,524.0,510.0,504.0
515.0,505.0,523.0,512.0,507.0
512.0,505.0,519.0,516.0,511.0
530.0,513.0,520.0,523.0,516.0
533.0,514.0,518.0,528.0,515.0
538.0,513.0,511.0,527.0,507.0
530.0,515.0,508.0,526.0,526.0
520.0,508.0,509.0,524.0,542.0
515.0,508.0,500.0,516.0,532.0
503.0,504.0,498.0,511.0,536.0
501.0,501.0,499.0,505.0,528.0
500.0,501.0,501.0,505.0,508.0
499.0,502.0,507.0,508.0,495.0
501.0,502.0,516.0,505.0,503.0
506.0,503.0,522.0,506.0,503.0
507.0,503.0,522.0,505.0,506.0
509.0,503.0,524.0,508.0,488.0
513.0,505.0,522.0,510.0,504.0
524.0,505.0,521.0,513.0,507.0
526.0,508.0,520.0,517.0,507.0
526.0,512.0,518.0,523.0,514.0
527.0,517.0,519.0,527.0,516.0
525.0,516.0,511.0,526.0,519.0
522.0,515.0,507.0,526.0,528.0
519.0,515.0,505.0,523.0,526.0
504.0,506.0,497.0,514.0,526.0
499.0,503.0,499.0,507.0,530.0
497.0,503.0,504.0,507.0,518.0
498.0,498.0,512.0,505.0,507.0
500.0,502.0,512.0,504.0,507.0
502.0,503.0,516.0,503.0,497.0
512.0,503.0,522.0,507.0,482.0
512.0,503.0,523.0,508.0,489.0
516.0,504.0,524.0,508.0,500.0
512.0,504.0,522.0,514.0,518.0
516.0,506.0,522.0,512.0,529.0
524.0,512.0,521.0,520.0,516.0
530.0,515.0,517.0,529.0,512.0
527.0,510.0,508.0,528.0,514.0
523.0,517.0,513.0,527.0,517.0
515.0,510.0,502.0,521.0,515.0
520.0,516.0,503.0,520.0,514.0
506.0,505.0,500.0,513.0,521.0
500.0,503.0,499.0,510.0,526.0
502.0,502.0,506.0,507.0,528.0
501.0,503.0,513.0,506.0,521.0
504.0,503.0,517.0,507.0,513.0
500.0,506.0,520.0,507.0,509.0
502.0,506.0,524.0,509.0,508.0
502.0,503.0,523.0,505.0,508.0
505.0,502.0,523.0,507.0,509.0
507.0,504.0,522.0,511.0,512.0
520.0,506.0,519.0,515.0,508.0
541.0,512.0,516.0,523.0,507.0
539.0,513.0,521.0,527.0,510.0
530.0,514.0,513.0,527.0,517.0
526.0,515.0,509.0,528.0,522.0
521.0,517.0,505.0,523.0,526.0
510.0,506.0,498.0,516.0,535.0
501.0,503.0,500.0,509.0,532.0
499.0,506.0,503.0,508.0,524.0
502.0,502.0,508.0,505.0,515.0
505.0,504.0,513.0,505.0,511.0
505.0,501.0,517.0,506.0,509.0
514.0,504.0,523.0,510.0,503.0
509.0,503.0,524.0,506.0,503.0
516.0,507.0,524.0,508.0,507.0
515.0,504.0,525.0,510.0,514.0
516.0,501.0,522.0,511.0,519.0
517.0,508.0,520.0,518.0,516.0
524.0,511.0,519.0,523.0,513.0
526.0,513.0,517.0,529.0,516.0
527.0,519.0,516.0,527.0,516.0
525.0,512.0,507.0,525.0,518.0
518.0,511.0,504.0,521.0,519.0
503.0,503.0,497.0,516.0,534.0
494.0,502.0,498.0,510.0,523.0
500.0,501.0,503.0,507.0,507.0
503.0,504.0,510.0,507.0,511.0
501.0,504.0,517.0,507.0,514.0
503.0,506.0,518.0,504.0,514.0
509.0,503.0,526.0,505.0,507.0
508.0,503.0,521.0,505.0,499.0
522.0,504.0,524.0,508.0,498.0
524.0,501.0,521.0,509.0,501.0
528.0,507.0,520.0,517.0,499.0
527.0,509.0,521.0,518.0,500.0
526.0,514.0,520.0,526.0,495.0
523.0,514.0,517.0,526.0,512.0
522.0,516.0,510.0,529.0,514.0
518.0,516.0,508.0,526.0,521.0
508.0,512.0,504.0,520.0,537.0
499.0,502.0,492.0,512.0,551.0
497.0,500.0,498.0,505.0,548.0
501.0,502.0,505.0,507.0,510.0
507.0,502.0,510.0,504.0,512.0
506.0,503.0,515.0,503.0,511.0
510.0,503.0,523.0,505.0,508.0
513.0,505.0,524.0,508.0,514.0
512.0,503.0,523.0,509.0,499.0
512.0,505.0,528.0,511.0,495.0
513.0,504.0,522.0,516.0,510.0
516.0,505.0,523.0,514.0,510.0
522.0,510.0,518.0,518.0,514.0
527.0,514.0,517.0,524.0,525.0
520.0,513.0,511.0,524.0,518.0
521.0,514.0,509.0,527.0,516.0
523.0,517.0,507.0,525.0,510.0
512.0,508.0,502.0,520.0,519.0
499.0,501.0,497.0,511.0,522.0
497.0,501.0,502.0,505.0,525.0
501.0,502.0,512.0,504.0,518.0
510.0,503.0,513.0,505.0,514.0
507.0,502.0,518.0,504.0,503.0
510.0,507.0,523.0,507.0,501.0
512.0,503.0,524.0,506.0,500.0
521.0,504.0,526.0,510.0,497.0
517.0,504.0,523.0,510.0,505.0
519.0,509.0,523.0,513.0,536.0
518.0,510.0,519.0,515.0,526.0
519.0,512.0,518.0,522.0,522.0
531.0,513.0,516.0,527.0,518.0
527.0,515.0,512.0,529.0,524.0
519.0,512.0,501.0,529.0,523.0
509.0,514.0,506.0,526.0,522.0
501.0,504.0,500.0,518.0,519.0
499.0,503.0,500.0,513.0,514.0
498.0,500.0,508.0,509.0,514.0
504.0,502.0,512.0,504.0,515.0
505.0,501.0,514.0,502.0,512.0
506.0,499.0,519.0,501.0,513.0
511.0,506.0,524.0,505.0,506.0
512.0,503.0,525.0,506.0,507.0
511.0,505.0,524.0,507.0,509.0
511.0,503.0,522.0,507.0,516.0
515.0,507.0,522.0,516.0,518.0
519.0,513.0,521.0,522.0,517.0
525.0,512.0,518.0,526.0,513.0
527.0,515.0,515.0,529.0,513.0
529.0,514.0,510.0,526.0,511.0
527.0,514.0,506.0,525.0,509.0
520.0,511.0,503.0,522.0,513.0
505.0,503.0,500.0,513.0,517.0
500.0,501.0,505.0,508.0,515.0
499.0,501.0,504.0,502.0,511.0
501.0,503.0,509.0,507.0,505.0
503.0,501.0,520.0,506.0,503.0
507.0,504.0,522.0,506.0,508.0
513.0,503.0,524.0,507.0,506.0
510.0,507.0,525.0,507.0,504.0
509.0,503.0,523.0,509.0,509.0
518.0,504.0,522.0,512.0,511.0
524.0,506.0,519.0,518.0,512.0
523.0,512.0,518.0,519.0,515.0
528.0,513.0,517.0,526.0,519.0
528.0,513.0,512.0,526.0,522.0
526.0,514.0,509.0,527.0,523.0
520.0,515.0,505.0,524.0,517.0
512.0,507.0,499.0,518.0,521.0
504.0,503.0,499.0,514.0,528.0
495.0,502.0,503.0,508.0,527.0
496.0,502.0,508.0,510.0,519.0
499.0,507.0,514.0,504.0,511.0
498.0,501.0,517.0,507.0,510.0
501.0,503.0,521.0,506.0,505.0
499.0,503.0,528.0,508.0,506.0
517.0,503.0,525.0,512.0,506.0
530.0,504.0,522.0,509.0,511.0
527.0,507.0,524.0,515.0,509.0
527.0,510.0,522.0,520.0,508.0
530.0,512.0,520.0,527.0,508.0
529.0,513.0,516.0,526.0,511.0
530.0,516.0,513.0,528.0,510.0
526.0,512.0,506.0,524.0,515.0
521.0,511.0,505.0,517.0,524.0
507.0,499.0,500.0,511.0,527.0
501.0,501.0,498.0,503.0,526.0
499.0,503.0,505.0,505.0,524.0
502.0,503.0,510.0,506.0,516.0
503.0,503.0,516.0,505.0,512.0
507.0,502.0,522.0,505.0,508.0
511.0,505.0,524.0,512.0,505.0
510.0,503.0,523.0,506.0,501.0
512.0,501.0,522.0,507.0,500.0
514.0,501.0,520.0,511.0,505.0
516.0,505.0,523.0,513.0,511.0
522.0,508.0,519.0,519.0,520.0
524.0,513.0,514.0,529.0,522.0
517.0,512.0,512.0,525.0,520.0
523.0,517.0,510.0,526.0,519.0
526.0,517.0,511.0,524.0,520.0
516.0,511.0,503.0,522.0,523.0
503.0,504.0,498.0,511.0,524.0
495.0,506.0,500.0,507.0,523.0
501.0,502.0,505.0,506.0,518.0
501.0,502.0,511.0,508.0,516.0
501.0,503.0,516.0,503.0,517.0
502.0,504.0,524.0,506.0,508.0
505.0,504.0,524.0,507.0,498.0
511.0,504.0,525.0,507.0,493.0
505.0,502.0,522.0,508.0,497.0
517.0,504.0,521.0,510.0,517.0
524.0,507.0,524.0,515.0,529.0
533.0,513.0,519.0,525.0,515.0
539.0,516.0,519.0,528.0,519.0
535.0,515.0,514.0,526.0,523.0
531.0,514.0,513.0,528.0,528.0
529.0,513.0,506.0,524.0,531.0
517.0,509.0,499.0,515.0,531.0
510.0,502.0,498.0,509.0,527.0
510.0,503.0,500.0,505.0,514.0
501.0,500.0,505.0,503.0,513.0
501.0,500.0,510.0,503.0,511.0
500.0,501.0,516.0,503.0,498.0
505.0,503.0,522.0,507.0,499.0
509.0,504.0,526.0,508.0,500.0
508.0,503.0,522.0,505.0,503.0
511.0,503.0,520.0,508.0,505.0
526.0,509.0,522.0,513.0,500.0
528.0,508.0,517.0,518.0,500.0
528.0,514.0,518.0,523.0,512.0
526.0,513.0,514.0,527.0,514.0
523.0,516.0,511.0,528.0,518.0
515.0,512.0,504.0,521.0,521.0
511.0,513.0,505.0,521.0,526.0
497.0,505.0,497.0,511.0,527.0
489.0,501.0,499.0,508.0,507.0
483.0,500.0,505.0,505.0,516.0
480.0,502.0,508.0,504.0,506.0
501.0,499.0,511.0,505.0,493.0
513.0,503.0,518.0,507.0,488.0
513.0,509.0,523.0,508.0,502.0
503.0,503.0,522.0,508.0,518.0
514.0,504.0,522.0,509.0,517.0
524.0,505.0,522.0,512.0,522.0
532.0,508.0,521.0,513.0,536.0
542.0,514.0,525.0,519.0,525.0
542.0,515.0,518.0,528.0,520.0
536.0,513.0,512.0,523.0,531.0
533.0,519.0,509.0,525.0,529.0
523.0,512.0,505.0,525.0,538.0
512.0,509.0,501.0,519.0,529.0
496.0,502.0,498.0,513.0,521.0
493.0,503.0,501.0,511.0,507.0
501.0,504.0,506.0,509.0,511.0
504.0,505.0,511.0,507.0,513.0
510.0,503.0,517.0,507.0,502.0
509.0,502.0,520.0,507.0,507.0
512.0,503.0,522.0,504.0,515.0
503.0,503.0,523.0,506.0,522.0
509.0,502.0,519.0,509.0,500.0
508.0,505.0,511.0,509.0,506.0
509.0,508.0,507.0,514.0,517.0
514.0,513.0,497.0,521.0,516.0
521.0,517.0,492.0,524.0,527.0
533.0,521.0,492.0,525.0,538.0
528.0,517.0,489.0,526.0,525.0
524.0,516.0,487.0,524.0,511.0
521.0,510.0,486.0,517.0,503.0
502.0,504.0,488.0,510.0,531.0
496.0,504.0,494.0,508.0,531.0
504.0,501.0,498.0,498.0,522.0
501.0,498.0,507.0,501.0,512.0
506.0,499.0,518.0,499.0,504.0
508.0,501.0,515.0,505.0,489.0
508.0,502.0,517.0,511.0,500.0
503.0,503.0,519.0,508.0,510.0
499.0,505.0,519.0,505.0,516.0
500.0,507.0,516.0,514.0,513.0
506.0,510.0,512.0,521.0,508.0
507.0,512.0,504.0,522.0,501.0
510.0,517.0,503.0,531.0,498.0
517.0,515.0,498.0,527.0,509.0
525.0,514.0,496.0,525.0,521.0
521.0,509.0,495.0,523.0,519.0
521.0,503.0,492.0,514.0,525.0
509.0,497.0,493.0,508.0,529.0
500.0,495.0,504.0,502.0,528.0
490.0,495.0,518.0,502.0,515.0
495.0,498.0,526.0,505.0,504.0
505.0,499.0,538.0,510.0,500.0
512.0,506.0,547.0,513.0,501.0
511.0,503.0,550.0,509.0,513.0
513.0,503.0,549.0,510.0,525.0
517.0,503.0,546.0,513.0,523.0
530.0,506.0,545.0,521.0,511.0
553.0,510.0,540.0,523.0,497.0
544.0,514.0,536.0,526.0,502.0
536.0,517.0,532.0,532.0,511.0
528.0,520.0,531.0,532.0,521.0
516.0,512.0,522.0,525.0,525.0
514.0,509.0,516.0,522.0,527.0
505.0,508.0,508.0,511.0,530.0
508.0,506.0,510.0,511.0,530.0
486.0,500.0,507.0,509.0,533.0
481.0,502.0,515.0,504.0,529.0
485.0,504.0,514.0,506.0,519.0
492.0,504.0,514.0,507.0,480.0
496.0,510.0,511.0,506.0,489.0
486.0,504.0,505.0,506.0,508.0
502.0,507.0,500.0,506.0,508.0
534.0,514.0,504.0,513.0,505.0
553.0,513.0,500.0,516.0,507.0
549.0,517.0,499.0,519.0,511.0
533.0,515.0,494.0,523.0,515.0
529.0,514.0,478.0,523.0,518.0
536.0,518.0,485.0,530.0,521.0
525.0,513.0,488.0,525.0,521.0
507.0,502.0,489.0,516.0,522.0
498.0,495.0,497.0,508.0,521.0
509.0,499.0,512.0,510.0,506.0
516.0,500.0,525.0,505.0,498.0
483.0,500.0,533.0,508.0,492.0
473.0,500.0,539.0,512.0,493.0
466.0,498.0,540.0,508.0,486.0
468.0,504.0,545.0,512.0,464.0
475.0,500.0,543.0,513.0,471.0
469.0,504.0,546.0,511.0,519.0
486.0,504.0,535.0,513.0,541.0
546.0,513.0,530.0,520.0,536.0
558.0,517.0,526.0,528.0,522.0
543.0,519.0,521.0,531.0,529.0
530.0,516.0,507.0,526.0,544.0
519.0,516.0,494.0,524.0,538.0
510.0,514.0,486.0,520.0,536.0
527.0,509.0,477.0,514.0,532.0
525.0,506.0,482.0,509.0,507.0
519.0,505.0,489.0,510.0,504.0
518.0,504.0,499.0,505.0,516.0
522.0,509.0,509.0,502.0,512.0
529.0,509.0,516.0,505.0,513.0
521.0,510.0,519.0,505.0,500.0
522.0,510.0,522.0,506.0,507.0
527.0,504.0,524.0,504.0,517.0
523.0,501.0,523.0,506.0,513.0
520.0,504.0,527.0,513.0,522.0
527.0,512.0,535.0,523.0,519.0
526.0,515.0,530.0,527.0,516.0
527.0,515.0,523.0,528.0,523.0
510.0,517.0,511.0,529.0,542.0
498.0,516.0,499.0,526.0,567.0
485.0,508.0,489.0,528.0,565.0
456.0,504.0,469.0,510.0,535.0
452.0,509.0,465.0,500.0,509.0
464.0,507.0,474.0,513.0,515.0
475.0,513.0,469.0,499.0,518.0
517.0,517.0,477.0,493.0,502.0
510.0,516.0,476.0,497.0,501.0
489.0,511.0,480.0,507.0,500.0
491.0,505.0,472.0,505.0,524.0
482.0,495.0,460.0,501.0,530.0
482.0,498.0,467.0,502.0,511.0
506.0,512.0,486.0,499.0,501.0
549.0,526.0,500.0,517.0,500.0
557.0,533.0,512.0,525.0,512.0
564.0,529.0,512.0,524.0,509.0
596.0,527.0,511.0,528.0,489.0
562.0,509.0,506.0,520.0,487.0
540.0,502.0,512.0,514.0,495.0
529.0,499.0,523.0,511.0,517.0
516.0,496.0,534.0,505.0,522.0
507.0,492.0,548.0,507.0,514.0
511.0,493.0,550.0,509.0,506.0
516.0,495.0,560.0,517.0,493.0
513.0,500.0,568.0,522.0,509.0
506.0,504.0,561.0,510.0,515.0
517.0,506.0,559.0,507.0,498.0
522.0,507.0,559.0,523.0,494.0
514.0,510.0,558.0,526.0,495.0
508.0,505.0,550.0,532.0,494.0
516.0,509.0,544.0,530.0,490.0
509.0,508.0,522.0,531.0,510.0
493.0,507.0,502.0,532.0,534.0
476.0,505.0,486.0,527.0,528.0
484.0,506.0,484.0,526.0,528.0
483.0,498.0,472.0,507.0,535.0
477.0,500.0,466.0,498.0,538.0
502.0,505.0,477.0,498.0,522.0
508.0,499.0,487.0,492.0,516.0
511.0,501.0,505.0,494.0,520.0
543.0,516.0,545.0,506.0,498.0
532.0,515.0,562.0,511.0,486.0
522.0,514.0,569.0,514.0,502.0
515.0,502.0,553.0,510.0,518.0
532.0,496.0,542.0,511.0,520.0
550.0,499.0,532.0,518.0,521.0
545.0,509.0,535.0,520.0,515.0
539.0,515.0,548.0,534.0,527.0
537.0,514.0,524.0,537.0,533.0
540.0,524.0,505.0,529.0,542.0
533.0,521.0,475.0,529.0,487.0
534.0,523.0,439.0,526.0,443.0
521.0,513.0,417.0,513.0,466.0
506.0,504.0,430.0,507.0,501.0
496.0,508.0,412.0,492.0,519.0
493.0,502.0,389.0,490.0,510.0
480.0,492.0,415.0,481.0,527.0
470.0,491.0,447.0,475.0,532.0
476.0,504.0,474.0,492.0,530.0
490.0,504.0,470.0,498.0,537.0
496.0,494.0,441.0,498.0,536.0
505.0,491.0,457.0,504.0,561.0
520.0,504.0,495.0,502.0,534.0
522.0,503.0,512.0,524.0,520.0
528.0,499.0,544.0,524.0,519.0
521.0,497.0,568.0,526.0,517.0
524.0,511.0,620.0,541.0,511.0
515.0,513.0,633.0,542.0,496.0
507.0,505.0,614.0,536.0,513.0
520.0,512.0,610.0,532.0,505.0
531.0,509.0,594.0,530.0,503.0
535.0,512.0,585.0,524.0,517.0
531.0,512.0,548.0,517.0,526.0
511.0,513.0,527.0,508.0,532.0
503.0,503.0,508.0,508.0,523.0
496.0,494.0,506.0,512.0,519.0
506.0,497.0,531.0,512.0,508.0
517.0,501.0,526.0,510.0,493.0
522.0,500.0,507.0,513.0,478.0
552.0,518.0,475.0,524.0,461.0
547.0,524.0,443.0,528.0,462.0
544.0,528.0,444.0,536.0,492.0
532.0,518.0,435.0,525.0,528.0
515.0,509.0,423.0,513.0,531.0
504.0,493.0,430.0,496.0,553.0
490.0,494.0,456.0,478.0,548.0
491.0,515.0,429.0,490.0,514.0
505.0,549.0,485.0,514.0,528.0
507.0,565.0,483.0,521.0,531.0
507.0,547.0,484.0,519.0,471.0
498.0,510.0,485.0,512.0,440.0
492.0,480.0,525.0,507.0,477.0
491.0,480.0,591.0,495.0,527.0
520.0,482.0,640.0,503.0,491.0
511.0,492.0,643.0,522.0,511.0
507.0,502.0,657.0,533.0,530.0
496.0,506.0,660.0,543.0,591.0
502.0,509.0,641.0,531.0,561.0
506.0,502.0,629.0,540.0,546.0
544.0,518.0,627.0,551.0,519.0
543.0,513.0,603.0,553.0,525.0
532.0,506.0,577.0,540.0,516.0
509.0,495.0,553.0,527.0,495.0
499.0,490.0,529.0,519.0,467.0
521.0,502.0,530.0,521.0,492.0
517.0,502.0,541.0,516.0,503.0
502.0,497.0,538.0,521.0,496.0
502.0,501.0,539.0,518.0,495.0
496.0,504.0,543.0,512.0,550.0
488.0,498.0,536.0,505.0,600.0
491.0,496.0,524.0,507.0,541.0
502.0,507.0,514.0,515.0,520.0
499.0,502.0,508.0,519.0,521.0
515.0,509.0,507.0,520.0,508.0
535.0,514.0,495.0,525.0,499.0
545.0,516.0,485.0,523.0,476.0
531.0,508.0,486.0,531.0,457.0
522.0,508.0,489.0,533.0,505.0
520.0,503.0,476.0,508.0,525.0
492.0,507.0,481.0,500.0,529.0
469.0,501.0,491.0,501.0,553.0
461.0,494.0,481.0,496.0,548.0
480.0,500.0,494.0,496.0,520.0
487.0,496.0,494.0,500.0,472.0
485.0,505.0,518.0,518.0,472.0
495.0,498.0,509.0,517.0,509.0
481.0,502.0,491.0,511.0,494.0
491.0,508.0,488.0,504.0,500.0
482.0,513.0,488.0,520.0,569.0
530.0,508.0,460.0,515.0,552.0
528.0,501.0,418.0,502.0,541.0
551.0,514.0,426.0,517.0,541.0
561.0,522.0,450.0,525.0,480.0
531.0,512.0,471.0,520.0,481.0
515.0,510.0,480.0,514.0,504.0
473.0,495.0,499.0,511.0,519.0
469.0,501.0,534.0,513.0,488.0
511.0,515.0,574.0,523.0,484.0
503.0,510.0,578.0,515.0,525.0
501.0,504.0,565.0,510.0,524.0
511.0,503.0,558.0,514.0,428.0
532.0,504.0,550.0,519.0,449.0
529.0,500.0,549.0,524.0,460.0
517.0,502.0,545.0,519.0,429.0
518.0,511.0,549.0,524.0,407.0
524.0,522.0,548.0,536.0,502.0
498.0,517.0,533.0,519.0,648.0
480.0,509.0,525.0,517.0,638.0
488.0,510.0,511.0,521.0,622.0
490.0,513.0,497.0,522.0,583.0
480.0,508.0,488.0,518.0,572.0
477.0,502.0,476.0,514.0,570.0
480.0,500.0,462.0,501.0,554.0
504.0,500.0,463.0,497.0,544.0
507.0,494.0,478.0,498.0,536.0
501.0,493.0,497.0,502.0,543.0
555.0,509.0,488.0,495.0,527.0
536.0,514.0,478.0,499.0,507.0
491.0,520.0,488.0,516.0,504.0
490.0,520.0,470.0,508.0,483.0
499.0,509.0,461.0,502.0,489.0
522.0,508.0,478.0,511.0,509.0
521.0,498.0,484.0,514.0,532.0
502.0,490.0,502.0,514.0,486.0
501.0,502.0,516.0,522.0,551.0
499.0,519.0,500.0,518.0,533.0
509.0,520.0,482.0,527.0,522.0
500.0,513.0,485.0,525.0,522.0
548.0,505.0,480.0,514.0,497.0
575.0,512.0,494.0,517.0,460.0
579.0,505.0,518.0,516.0,425.0
553.0,506.0,512.0,514.0,437.0
532.0,505.0,512.0,517.0,495.0
520.0,513.0,517.0,497.0,567.0
523.0,508.0,526.0,496.0,594.0
530.0,503.0,511.0,503.0,544.0
530.0,507.0,505.0,500.0,516.0
529.0,503.0,499.0,504.0,511.0
528.0,488.0,453.0,501.0,514.0
518.0,494.0,455.0,512.0,535.0
521.0,501.0,509.0,521.0,520.0
533.0,508.0,550.0,521.0,508.0
538.0,523.0,594.0,551.0,468.0
543.0,524.0,600.0,560.0,434.0
540.0,526.0,600.0,547.0,444.0
515.0,513.0,563.0,537.0,472.0
516.0,505.0,516.0,518.0,495.0
507.0,508.0,511.0,517.0,537.0
503.0,510.0,518.0,520.0,561.0
500.0,504.0,516.0,522.0,527.0
493.0,504.0,477.0,511.0,557.0
489.0,511.0,440.0,489.0,565.0
492.0,510.0,439.0,490.0,527.0
504.0,512.0,372.0,488.0,519.0
512.0,507.0,366.0,494.0,516.0
508.0,498.0,389.0,489.0,518.0
518.0,489.0,416.0,478.0,541.0
528.0,498.0,481.0,508.0,546.0
526.0,504.0,536.0,534.0,541.0
520.0,504.0,557.0,525.0,541.0
512.0,508.0,601.0,527.0,530.0
507.0,510.0,628.0,538.0,489.0
503.0,516.0,646.0,538.0,480.0
509.0,518.0,626.0,530.0,499.0
512.0,512.0,597.0,524.0,489.0
513.0,509.0,571.0,523.0,479.0
512.0,510.0,583.0,518.0,510.0
512.0,507.0,573.0,514.0,534.0
514.0,508.0,574.0,518.0,487.0
514.0,507.0,574.0,524.0,405.0
522.0,515.0,578.0,526.0,435.0
519.0,511.0,579.0,524.0,483.0
516.0,504.0,563.0,524.0,527.0
528.0,515.0,557.0,532.0,503.0
517.0,510.0,538.0,531.0,486.0
506.0,508.0,533.0,529.0,524.0
500.0,507.0,522.0,526.0,537.0
494.0,508.0,511.0,522.0,516.0
474.0,501.0,501.0,515.0,589.0
461.0,497.0,493.0,502.0,589.0
477.0,503.0,511.0,509.0,567.0
504.0,508.0,512.0,509.0,533.0
497.0,505.0,512.0,504.0,508.0
498.0,506.0,526.0,520.0,500.0
469.0,493.0,516.0,512.0,522.0
479.0,495.0,514.0,523.0,527.0
533.0,510.0,515.0,501.0,512.0
528.0,512.0,516.0,505.0,576.0
510.0,506.0,511.0,510.0,547.0
501.0,507.0,513.0,514.0,541.0
484.0,509.0,492.0,523.0,524.0
462.0,505.0,492.0,530.0,484.0
470.0,508.0,494.0,530.0,484.0
458.0,504.0,489.0,526.0,465.0
469.0,507.0,497.0,522.0,441.0
513.0,507.0,506.0,516.0,439.0
577.0,509.0,509.0,513.0,466.0
591.0,514.0,513.0,513.0,452.0
558.0,509.0,505.0,512.0,483.0
532.0,506.0,517.0,514.0,508.0
519.0,511.0,514.0,496.0,527.0
502.0,506.0,516.0,496.0,542.0
493.0,501.0,515.0,504.0,514.0
531.0,511.0,516.0,507.0,501.0
559.0,516.0,518.0,510.0,537.0
530.0,514.0,492.0,508.0,622.0
519.0,507.0,468.0,513.0,598.0
517.0,509.0,459.0,515.0,536.0
521.0,512.0,455.0,512.0,518.0
516.0,502.0,436.0,503.0,509.0
529.0,508.0,428.0,514.0,464.0
511.0,506.0,443.0,521.0,472.0
503.0,500.0,468.0,513.0,489.0
539.0,502.0,499.0,513.0,488.0
537.0,507.0,518.0,506.0,490.0
500.0,498.0,543.0,511.0,599.0
488.0,498.0,553.0,514.0,582.0
518.0,513.0,521.0,502.0,520.0
529.0,520.0,494.0,501.0,512.0
526.0,513.0,482.0,510.0,531.0
518.0,500.0,466.0,507.0,546.0
519.0,486.0,451.0,503.0,542.0
520.0,486.0,468.0,506.0,531.0
527.0,501.0,503.0,506.0,551.0
530.0,520.0,548.0,534.0,528.0
527.0,518.0,531.0,541.0,518.0
541.0,518.0,518.0,527.0,498.0
525.0,516.0,520.0,535.0,484.0
494.0,499.0,505.0,517.0,512.0
493.0,497.0,511.0,505.0,536.0
506.0,499.0,513.0,496.0,543.0
502.0,501.0,545.0,504.0,525.0
507.0,506.0,584.0,519.0,500.0
514.0,510.0,568.0,516.0,486.0
521.0,514.0,568.0,515.0,476.0
522.0,516.0,549.0,518.0,478.0
523.0,508.0,512.0,517.0,495.0
520.0,505.0,484.0,513.0,528.0
524.0,512.0,479.0,515.0,527.0
532.0,513.0,485.0,521.0,520.0
528.0,502.0,495.0,514.0,512.0
530.0,504.0,536.0,523.0,503.0
524.0,507.0,540.0,529.0,506.0
519.0,519.0,556.0,533.0,509.0
514.0,515.0,573.0,537.0,509.0
506.0,515.0,553.0,521.0,502.0
504.0,507.0,529.0,513.0,497.0
501.0,509.0,533.0,517.0,504.0
502.0,509.0,546.0,521.0,507.0
506.0,504.0,547.0,513.0,517.0
506.0,499.0,549.0,508.0,498.0
508.0,500.0,535.0,507.0,506.0
514.0,503.0,539.0,511.0,500.0
515.0,506.0,532.0,517.0,492.0
514.0,501.0,535.0,518.0,506.0
519.0,504.0,525.0,516.0,528.0
521.0,514.0,522.0,522.0,526.0
528.0,518.0,516.0,524.0,507.0
526.0,513.0,513.0,530.0,457.0
499.0,504.0,496.0,523.0,467.0
487.0,509.0,516.0,529.0,494.0
477.0,505.0,524.0,524.0,497.0
475.0,504.0,528.0,522.0,515.0
467.0,504.0,524.0,508.0,574.0
512.0,502.0,520.0,501.0,605.0
550.0,502.0,526.0,509.0,518.0
517.0,501.0,527.0,507.0,525.0
486.0,504.0,534.0,505.0,536.0
469.0,499.0,530.0,506.0,513.0
466.0,498.0,525.0,511.0,467.0
468.0,499.0,524.0,514.0,496.0
483.0,504.0,518.0,515.0,556.0
552.0,513.0,516.0,507.0,509.0
596.0,517.0,513.0,525.0,437.0
579.0,517.0,510.0,536.0,447.0
563.0,517.0,505.0,524.0,472.0
540.0,511.0,504.0,522.0,519.0
507.0,508.0,491.0,512.0,575.0
473.0,505.0,488.0,509.0,586.0
466.0,503.0,488.0,515.0,547.0
468.0,500.0,496.0,507.0,506.0
467.0,495.0,496.0,506.0,471.0
499.0,502.0,506.0,509.0,465.0
566.0,511.0,515.0,509.0,469.0
541.0,510.0,514.0,512.0,480.0
533.0,508.0,508.0,507.0,494.0
526.0,508.0,517.0,511.0,530.0
512.0,509.0,513.0,505.0,609.0
522.0,505.0,512.0,515.0,565.0
521.0,502.0,508.0,519.0,505.0
539.0,515.0,501.0,515.0,495.0
529.0,514.0,486.0,518.0,500.0
529.0,515.0,478.0,517.0,517.0
536.0,514.0,471.0,514.0,526.0
515.0,509.0,445.0,532.0,545.0
502.0,503.0,441.0,496.0,570.0
505.0,502.0,442.0,501.0,552.0
502.0,505.0,455.0,497.0,553.0
487.0,497.0,473.0,499.0,546.0
489.0,494.0,501.0,500.0,528.0
505.0,500.0,538.0,497.0,539.0
518.0,508.0,544.0,502.0,505.0
511.0,508.0,532.0,517.0,493.0
531.0,513.0,543.0,520.0,492.0
525.0,516.0,550.0,529.0,490.0
510.0,515.0,539.0,509.0,494.0
510.0,508.0,535.0,513.0,506.0
521.0,518.0,513.0,518.0,531.0
536.0,525.0,511.0,532.0,523.0
517.0,516.0,487.0,517.0,529.0
523.0,518.0,469.0,513.0,519.0
543.0,510.0,460.0,506.0,526.0
529.0,499.0,480.0,503.0,533.0
507.0,491.0,493.0,493.0,536.0
499.0,486.0,497.0,494.0,521.0
507.0,498.0,541.0,518.0,493.0
510.0,515.0,582.0,539.0,491.0
514.0,510.0,569.0,539.0,496.0
513.0,505.0,559.0,514.0,508.0
515.0,502.0,557.0,505.0,508.0
516.0,504.0,542.0,513.0,506.0
526.0,510.0,515.0,518.0,499.0
531.0,515.0,496.0,524.0,488.0
534.0,517.0,505.0,530.0,492.0
536.0,516.0,491.0,531.0,497.0
528.0,510.0,487.0,529.0,514.0
510.0,497.0,494.0,520.0,537.0
507.0,498.0,495.0,510.0,528.0
499.0,498.0,521.0,511.0,540.0
497.0,499.0,529.0,510.0,536.0
493.0,502.0,529.0,516.0,525.0
496.0,506.0,547.0,513.0,487.0
499.0,506.0,553.0,514.0,485.0
510.0,509.0,553.0,515.0,487.0
507.0,505.0,550.0,518.0,481.0
512.0,509.0,556.0,517.0,469.0
526.0,508.0,557.0,514.0,463.0
524.0,507.0,548.0,517.0,514.0
520.0,508.0,544.0,520.0,543.0
524.0,511.0,538.0,521.0,534.0
531.0,509.0,522.0,527.0,506.0
535.0,519.0,524.0,534.0,497.0
527.0,517.0,509.0,532.0,503.0
526.0,518.0,501.0,527.0,483.0
522.0,515.0,496.0,524.0,478.0
506.0,499.0,482.0,509.0,527.0
495.0,503.0,480.0,509.0,547.0
484.0,503.0,495.0,505.0,538.0
473.0,495.0,507.0,502.0,509.0
471.0,498.0,512.0,505.0,448.0
478.0,499.0,519.0,510.0,422.0
470.0,494.0,518.0,505.0,426.0
478.0,497.0,525.0,505.0,505.0
490.0,495.0,538.0,504.0,594.0
510.0,505.0,539.0,507.0,603.0
529.0,514.0,540.0,517.0,584.0
532.0,513.0,535.0,523.0,551.0
556.0,518.0,533.0,539.0,514.0
568.0,520.0,525.0,527.0,481.0
548.0,514.0,509.0,523.0,494.0
530.0,513.0,506.0,525.0,479.0
519.0,506.0,503.0,519.0,498.0
509.0,501.0,495.0,509.0,527.0
502.0,504.0,493.0,510.0,511.0
495.0,501.0,500.0,502.0,527.0
508.0,506.0,515.0,504.0,487.0
522.0,506.0,518.0,508.0,524.0
522.0,504.0,516.0,504.0,511.0
519.0,499.0,520.0,505.0,526.0
515.0,500.0,527.0,509.0,537.0
506.0,499.0,519.0,514.0,530.0
501.0,505.0,513.0,513.0,512.0
471.0,503.0,506.0,522.0,543.0
478.0,506.0,509.0,515.0,536.0
481.0,510.0,507.0,525.0,530.0
484.0,515.0,493.0,520.0,492.0
501.0,521.0,494.0,523.0,492.0
535.0,520.0,478.0,509.0,522.0
565.0,512.0,459.0,498.0,545.0
565.0,512.0,480.0,509.0,504.0
524.0,499.0,493.0,509.0,515.0
514.0,494.0,492.0,503.0,516.0
519.0,505.0,512.0,504.0,520.0
522.0,507.0,523.0,505.0,522.0
519.0,505.0,530.0,507.0,512.0
518.0,504.0,533.0,511.0,513.0
530.0,516.0,541.0,520.0,487.0
531.0,514.0,538.0,518.0,501.0
532.0,517.0,530.0,522.0,488.0
527.0,520.0,519.0,522.0,510.0
532.0,519.0,501.0,514.0,546.0
531.0,512.0,490.0,522.0,522.0
530.0,504.0,473.0,518.0,523.0
519.0,504.0,463.0,523.0,554.0
521.0,512.0,449.0,509.0,552.0
501.0,502.0,453.0,495.0,547.0
499.0,498.0,464.0,503.0,513.0
495.0,494.0,484.0,508.0,514.0
490.0,496.0,502.0,497.0,524.0
501.0,500.0,516.0,493.0,507.0
508.0,515.0,555.0,503.0,500.0
514.0,522.0,572.0,510.0,501.0
515.0,516.0,544.0,509.0,501.0
513.0,503.0,531.0,506.0,506.0
516.0,497.0,520.0,509.0,510.0
528.0,498.0,505.0,531.0,505.0
530.0,506.0,498.0,532.0,500.0
526.0,510.0,502.0,521.0,513.0
520.0,514.0,510.0,524.0,514.0
520.0,518.0,520.0,530.0,518.0
514.0,513.0,522.0,527.0,523.0
507.0,513.0,517.0,518.0,526.0
503.0,508.0,522.0,514.0,516.0
496.0,503.0,525.0,508.0,517.0
495.0,500.0,528.0,509.0,512.0
501.0,505.0,547.0,510.0,508.0
500.0,501.0,535.0,504.0,504.0
500.0,497.0,535.0,510.0,508.0
515.0,499.0,534.0,527.0,505.0
522.0,502.0,540.0,516.0,506.0
517.0,505.0,546.0,519.0,510.0
519.0,506.0,545.0,522.0,513.0
519.0,508.0,547.0,524.0,520.0
525.0,515.0,544.0,524.0,503.0
531.0,520.0,543.0,535.0,486.0
534.0,523.0,538.0,533.0,502.0
521.0,515.0,526.0,527.0,534.0
511.0,508.0,510.0,522.0,535.0
503.0,504.0,505.0,519.0,501.0
509.0,503.0,508.0,517.0,470.0
513.0,505.0,511.0,514.0,432.0
513.0,500.0,518.0,518.0,432.0
517.0,503.0,522.0,512.0,411.0
514.0,506.0,527.0,513.0,442.0
497.0,497.0,523.0,512.0,538.0
479.0,499.0,524.0,504.0,608.0
478.0,499.0,528.0,505.0,575.0
482.0,497.0,524.0,513.0,551.0
503.0,504.0,521.0,510.0,541.0
511.0,510.0,524.0,515.0,520.0
526.0,513.0,520.0,520.0,524.0
524.0,513.0,511.0,528.0,537.0
502.0,509.0,505.0,523.0,538.0
493.0,513.0,505.0,521.0,500.0
494.0,511.0,508.0,520.0,522.0
489.0,499.0,491.0,508.0,523.0
477.0,497.0,498.0,508.0,517.0
471.0,496.0,504.0,498.0,570.0
522.0,506.0,511.0,499.0,592.0
562.0,509.0,513.0,505.0,528.0
552.0,510.0,523.0,508.0,524.0
533.0,503.0,518.0,508.0,501.0
530.0,511.0,524.0,507.0,504.0
534.0,507.0,525.0,509.0,509.0
533.0,512.0,531.0,513.0,516.0
529.0,508.0,523.0,514.0,518.0
534.0,513.0,517.0,521.0,511.0
540.0,514.0,518.0,535.0,518.0
533.0,516.0,514.0,537.0,530.0
526.0,512.0,495.0,525.0,489.0
520.0,510.0,487.0,514.0,477.0
504.0,507.0,472.0,511.0,522.0
491.0,507.0,470.0,511.0,536.0
481.0,508.0,474.0,514.0,515.0
494.0,502.0,469.0,499.0,484.0
483.0,494.0,478.0,501.0,446.0
493.0,498.0,496.0,525.0,420.0
522.0,512.0,512.0,487.0,459.0
524.0,502.0,521.0,491.0,505.0
540.0,501.0,526.0,505.0,525.0
524.0,500.0,525.0,502.0,557.0
529.0,506.0,519.0,504.0,556.0
532.0,512.0,521.0,513.0,557.0
530.0,510.0,516.0,527.0,564.0
531.0,522.0,511.0,527.0,554.0
527.0,515.0,493.0,526.0,549.0
519.0,507.0,468.0,523.0,552.0
509.0,507.0,482.0,520.0,539.0
492.0,495.0,504.0,508.0,527.0
500.0,499.0,508.0,502.0,533.0
502.0,513.0,531.0,505.0,513.0
500.0,518.0,557.0,513.0,508.0
501.0,511.0,549.0,510.0,515.0
508.0,504.0,537.0,506.0,500.0
522.0,499.0,528.0,504.0,489.0
523.0,502.0,527.0,511.0,497.0
514.0,500.0,524.0,510.0,496.0
514.0,501.0,511.0,509.0,499.0
518.0,503.0,513.0,512.0,516.0
523.0,505.0,518.0,519.0,527.0
535.0,516.0,518.0,525.0,516.0
528.0,514.0,529.0,548.0,523.0
525.0,510.0,523.0,542.0,510.0
515.0,508.0,518.0,535.0,517.0
517.0,512.0,520.0,532.0,521.0
504.0,500.0,473.0,509.0,525.0
494.0,497.0,479.0,498.0,516.0
500.0,504.0,511.0,491.0,501.0
498.0,499.0,521.0,497.0,509.0
500.0,498.0,532.0,506.0,510.0
512.0,506.0,535.0,508.0,502.0
510.0,510.0,543.0,506.0,505.0
509.0,503.0,543.0,505.0,509.0
511.0,506.0,543.0,512.0,505.0
517.0,510.0,547.0,515.0,513.0
517.0,510.0,547.0,519.0,520.0
526.0,511.0,535.0,522.0,522.0
533.0,520.0,520.0,521.0,530.0
531.0,520.0,527.0,527.0,493.0
525.0,515.0,518.0,521.0,516.0
517.0,514.0,512.0,518.0,513.0
507.0,509.0,505.0,515.0,513.0
508.0,505.0,504.0,507.0,510.0
503.0,503.0,508.0,508.0,504.0
500.0,503.0,504.0,518.0,520.0
501.0,502.0,512.0,517.0,511.0
505.0,501.0,517.0,510.0,504.0
504.0,501.0,522.0,510.0,508.0
509.0,504.0,525.0,510.0,521.0
512.0,504.0,521.0,504.0,519.0
516.0,504.0,524.0,509.0,522.0
516.0,501.0,521.0,514.0,521.0
528.0,507.0,520.0,521.0,521.0
524.0,508.0,519.0,529.0,525.0
526.0,512.0,516.0,530.0,502.0
528.0,511.0,510.0,531.0,484.0
517.0,506.0,506.0,531.0,502.0
516.0,511.0,504.0,514.0,513.0
507.0,506.0,495.0,511.0,512.0
501.0,504.0,497.0,508.0,509.0
502.0,504.0,504.0,516.0,482.0
507.0,505.0,510.0,513.0,460.0
516.0,507.0,518.0,511.0,437.0
513.0,507.0,521.0,509.0,508.0
510.0,501.0,522.0,505.0,540.0
506.0,505.0,523.0,506.0,539.0
502.0,502.0,524.0,505.0,539.0
499.0,502.0,522.0,513.0,548.0
504.0,503.0,519.0,516.0,562.0
519.0,512.0,520.0,509.0,535.0
522.0,513.0,516.0,521.0,505.0
524.0,516.0,514.0,525.0,517.0
537.0,514.0,511.0,529.0,530.0
527.0,511.0,507.0,523.0,512.0
528.0,510.0,503.0,520.0,507.0
509.0,503.0,498.0,508.0,526.0
514.0,503.0,499.0,503.0,533.0
510.0,501.0,502.0,502.0,520.0
503.0,499.0,508.0,499.0,525.0
507.0,501.0,516.0,503.0,512.0
510.0,504.0,521.0,508.0,510.0
504.0,501.0,523.0,503.0,543.0
511.0,504.0,525.0,507.0,526.0
514.0,502.0,524.0,510.0,518.0
525.0,506.0,525.0,517.0,510.0
526.0,508.0,523.0,523.0,483.0
533.0,512.0,518.0,523.0,491.0
531.0,516.0,520.0,528.0,512.0
529.0,517.0,520.0,530.0,513.0
524.0,509.0,510.0,517.0,518.0
520.0,517.0,506.0,522.0,513.0
506.0,506.0,495.0,516.0,542.0
491.0,503.0,495.0,501.0,537.0
482.0,500.0,501.0,506.0,526.0
488.0,502.0,511.0,509.0,505.0
495.0,501.0,512.0,508.0,484.0
487.0,497.0,514.0,505.0,492.0
507.0,501.0,519.0,505.0,503.0
528.0,505.0,525.0,507.0,510.0
525.0,504.0,522.0,508.0,502.0
527.0,503.0,518.0,510.0,509.0
532.0,506.0,525.0,514.0,519.0
536.0,514.0,514.0,515.0,504.0
537.0,515.0,506.0,516.0,502.0
537.0,516.0,509.0,520.0,509.0
529.0,516.0,508.0,522.0,511.0
517.0,511.0,506.0,521.0,525.0
519.0,513.0,500.0,523.0,525.0
507.0,498.0,490.0,511.0,528.0
505.0,501.0,491.0,504.0,515.0
506.0,500.0,514.0,516.0,520.0
510.0,505.0,520.0,512.0,524.0
509.0,507.0,524.0,510.0,516.0
513.0,504.0,525.0,496.0,509.0
510.0,502.0,521.0,482.0,510.0
510.0,502.0,524.0,491.0,500.0
512.0,499.0,533.0,500.0,490.0
516.0,501.0,525.0,521.0,478.0
529.0,509.0,525.0,538.0,466.0
531.0,509.0,525.0,534.0,469.0
525.0,510.0,524.0,529.0,494.0
527.0,515.0,520.0,528.0,511.0
517.0,514.0,519.0,533.0,557.0
513.0,508.0,502.0,522.0,559.0
516.0,507.0,510.0,519.0,536.0
507.0,501.0,502.0,511.0,527.0
495.0,497.0,501.0,508.0,524.0
495.0,498.0,505.0,509.0,522.0
504.0,507.0,515.0,501.0,510.0
504.0,509.0,524.0,507.0,524.0
506.0,510.0,522.0,510.0,518.0
510.0,504.0,526.0,518.0,502.0
520.0,503.0,527.0,518.0,492.0
524.0,501.0,525.0,514.0,489.0
524.0,504.0,530.0,517.0,505.0
532.0,507.0,529.0,520.0,505.0
525.0,515.0,532.0,520.0,525.0
523.0,515.0,527.0,519.0,536.0
523.0,514.0,526.0,523.0,511.0
520.0,512.0,515.0,519.0,513.0
517.0,511.0,496.0,522.0,517.0
507.0,498.0,485.0,514.0,532.0
500.0,495.0,490.0,508.0,525.0
495.0,489.0,498.0,510.0,527.0
497.0,490.0,503.0,511.0,526.0
500.0,498.0,506.0,508.0,525.0
501.0,493.0,516.0,510.0,515.0
510.0,492.0,516.0,502.0,509.0
511.0,496.0,522.0,505.0,506.0
511.0,503.0,527.0,509.0,509.0
511.0,508.0,536.0,515.0,511.0
521.0,511.0,537.0,519.0,513.0
526.0,508.0,537.0,528.0,511.0
531.0,514.0,531.0,543.0,504.0
531.0,517.0,518.0,527.0,515.0
524.0,514.0,504.0,519.0,530.0
514.0,514.0,499.0,512.0,546.0
514.0,521.0,492.0,510.0,537.0
498.0,511.0,481.0,499.0,540.0
498.0,504.0,483.0,493.0,536.0
495.0,506.0,498.0,494.0,523.0
497.0,503.0,508.0,503.0,508.0
500.0,506.0,525.0,515.0,510.0
505.0,506.0,524.0,520.0,495.0
507.0,507.0,528.0,519.0,500.0
508.0,503.0,528.0,519.0,505.0
514.0,504.0,531.0,518.0,505.0
512.0,505.0,530.0,509.0,519.0
516.0,506.0,525.0,512.0,517.0
522.0,511.0,524.0,516.0,504.0
530.0,510.0,519.0,527.0,489.0
538.0,515.0,516.0,522.0,487.0
538.0,514.0,513.0,518.0,488.0
530.0,516.0,514.0,510.0,510.0
517.0,512.0,510.0,509.0,521.0
501.0,507.0,506.0,505.0,529.0
495.0,504.0,509.0,507.0,530.0
493.0,504.0,507.0,521.0,530.0
492.0,505.0,509.0,520.0,530.0
493.0,504.0,511.0,514.0,523.0
500.0,505.0,514.0,514.0,531.0
502.0,500.0,525.0,511.0,522.0
520.0,504.0,534.0,504.0,489.0
524.0,505.0,542.0,509.0,474.0
529.0,511.0,549.0,507.0,484.0
525.0,506.0,529.0,500.0,540.0
533.0,513.0,498.0,505.0,565.0
537.0,516.0,514.0,527.0,534.0
540.0,520.0,518.0,538.0,515.0
543.0,514.0,512.0,524.0,507.0
543.0,511.0,506.0,515.0,493.0
529.0,506.0,490.0,513.0,496.0
512.0,504.0,499.0,515.0,489.0
501.0,503.0,506.0,516.0,509.0
491.0,504.0,506.0,508.0,524.0
500.0,500.0,511.0,506.0,517.0
499.0,498.0,513.0,505.0,487.0
497.0,499.0,518.0,506.0,496.0
506.0,500.0,522.0,513.0,488.0
513.0,504.0,526.0,514.0,474.0
509.0,501.0,522.0,512.0,487.0
517.0,503.0,522.0,516.0,499.0
520.0,508.0,523.0,521.0,498.0
526.0,513.0,521.0,528.0,506.0
526.0,514.0,518.0,527.0,511.0
523.0,514.0,515.0,528.0,511.0
519.0,508.0,506.0,523.0,516.0
525.0,511.0,504.0,524.0,503.0
503.0,504.0,500.0,515.0,512.0
497.0,503.0,491.0,504.0,505.0
505.0,500.0,498.0,503.0,494.0
504.0,503.0,509.0,505.0,508.0
502.0,505.0,517.0,508.0,520.0
506.0,507.0,526.0,509.0,529.0
501.0,504.0,527.0,505.0,528.0
508.0,505.0,527.0,507.0,521.0
514.0,505.0,525.0,509.0,523.0
521.0,504.0,521.0,511.0,495.0
528.0,503.0,517.0,512.0,500.0
540.0,506.0,516.0,517.0,499.0
544.0,513.0,517.0,524.0,496.0
542.0,516.0,516.0,530.0,510.0
533.0,514.0,518.0,529.0,529.0
526.0,515.0,518.0,529.0,537.0
517.0,515.0,522.0,530.0,540.0
488.0,499.0,504.0,509.0,541.0
481.0,500.0,488.0,491.0,525.0
484.0,503.0,507.0,502.0,510.0
489.0,503.0,509.0,499.0,520.0
497.0,503.0,518.0,500.0,523.0
507.0,504.0,524.0,503.0,520.0
507.0,503.0,521.0,505.0,512.0
517.0,504.0,520.0,507.0,510.0
524.0,504.0,517.0,509.0,506.0
531.0,507.0,513.0,516.0,494.0
530.0,505.0,512.0,510.0,493.0
535.0,511.0,515.0,517.0,481.0
527.0,511.0,514.0,519.0,492.0
523.0,512.0,517.0,523.0,529.0
516.0,511.0,514.0,523.0,538.0
522.0,513.0,513.0,528.0,529.0
512.0,509.0,509.0,524.0,531.0
503.0,501.0,497.0,514.0,528.0
500.0,501.0,502.0,505.0,521.0
497.0,505.0,505.0,504.0,512.0
503.0,502.0,506.0,507.0,489.0
493.0,503.0,508.0,502.0,499.0
495.0,504.0,511.0,498.0,505.0
506.0,503.0,511.0,503.0,518.0
505.0,503.0,513.0,503.0,544.0
518.0,505.0,520.0,516.0,536.0
521.0,511.0,536.0,527.0,534.0
524.0,514.0,541.0,537.0,527.0
523.0,513.0,533.0,541.0,513.0
514.0,511.0,516.0,515.0,541.0
516.0,509.0,507.0,503.0,503.0
520.0,508.0,505.0,511.0,498.0
518.0,506.0,499.0,521.0,513.0
504.0,502.0,497.0,517.0,526.0
500.0,500.0,497.0,502.0,538.0
504.0,505.0,501.0,501.0,529.0
506.0,508.0,525.0,506.0,489.0
510.0,505.0,538.0,504.0,496.0
515.0,506.0,541.0,505.0,496.0
509.0,502.0,538.0,504.0,499.0
508.0,502.0,509.0,498.0,498.0
514.0,501.0,496.0,503.0,495.0
521.0,500.0,516.0,515.0,500.0
529.0,510.0,520.0,517.0,512.0
527.0,513.0,520.0,517.0,514.0
529.0,510.0,520.0,524.0,512.0
530.0,515.0,515.0,525.0,510.0
525.0,513.0,507.0,524.0,510.0
507.0,515.0,508.0,522.0,534.0
511.0,514.0,502.0,520.0,532.0
503.0,501.0,494.0,507.0,538.0
505.0,505.0,504.0,508.0,523.0
505.0,503.0,506.0,503.0,509.0
503.0,503.0,512.0,508.0,493.0
508.0,505.0,517.0,508.0,493.0
520.0,504.0,521.0,509.0,501.0
509.0,504.0,520.0,505.0,501.0
506.0,503.0,525.0,508.0,498.0
519.0,501.0,528.0,508.0,504.0
531.0,504.0,527.0,515.0,497.0
542.0,507.0,524.0,513.0,491.0
552.0,514.0,523.0,523.0,493.0
551.0,512.0,505.0,525.0,491.0
547.0,514.0,507.0,525.0,500.0
531.0,511.0,502.0,515.0,546.0
508.0,509.0,497.0,512.0,550.0
489.0,508.0,493.0,509.0,521.0
480.0,502.0,492.0,505.0,524.0
484.0,501.0,493.0,504.0,513.0
490.0,504.0,500.0,500.0,507.0
501.0,502.0,507.0,501.0,510.0
503.0,502.0,514.0,503.0,522.0
508.0,502.0,519.0,503.0,518.0
511.0,502.0,520.0,505.0,513.0
516.0,507.0,525.0,516.0,500.0
510.0,502.0,520.0,509.0,500.0
514.0,504.0,520.0,513.0,504.0
511.0,511.0,525.0,523.0,532.0
519.0,513.0,521.0,530.0,520.0
523.0,516.0,519.0,532.0,512.0
522.0,517.0,515.0,531.0,509.0
516.0,507.0,501.0,520.0,512.0
516.0,509.0,503.0,519.0,520.0
498.0,502.0,496.0,512.0,527.0
494.0,501.0,499.0,508.0,545.0
501.0,503.0,505.0,513.0,524.0
514.0,504.0,510.0,507.0,503.0
513.0,506.0,514.0,506.0,485.0
516.0,505.0,514.0,507.0,507.0
520.0,501.0,521.0,505.0,501.0
521.0,502.0,522.0,505.0,511.0
516.0,502.0,522.0,509.0,520.0
514.0,509.0,523.0,512.0,523.0
524.0,506.0,521.0,515.0,515.0
532.0,512.0,522.0,522.0,511.0
532.0,514.0,519.0,525.0,516.0
528.0,519.0,515.0,527.0,515.0
516.0,513.0,509.0,526.0,509.0
505.0,511.0,504.0,525.0,520.0
506.0,507.0,505.0,519.0,527.0
496.0,504.0,497.0,510.0,520.0
496.0,499.0,501.0,505.0,528.0
498.0,504.0,510.0,504.0,539.0
495.0,504.0,511.0,503.0,538.0
494.0,501.0,515.0,500.0,543.0
509.0,498.0,517.0,506.0,490.0
516.0,500.0,522.0,504.0,487.0
512.0,505.0,523.0,511.0,491.0
510.0,504.0,524.0,512.0,498.0
510.0,505.0,522.0,518.0,504.0
517.0,507.0,520.0,519.0,517.0
524.0,512.0,520.0,523.0,521.0
532.0,516.0,521.0,526.0,514.0
537.0,515.0,514.0,528.0,509.0
529.0,515.0,508.0,526.0,508.0
519.0,512.0,504.0,523.0,494.0
511.0,506.0,496.0,514.0,496.0
510.0,500.0,495.0,509.0,511.0
500.0,500.0,503.0,507.0,547.0
500.0,500.0,505.0,504.0,539.0
501.0,500.0,514.0,505.0,519.0
501.0,501.0,519.0,505.0,502.0
505.0,502.0,519.0,505.0,489.0
519.0,503.0,523.0,506.0,480.0
526.0,505.0,525.0,509.0,476.0
519.0,501.0,520.0,506.0,519.0
521.0,504.0,519.0,511.0,520.0
542.0,511.0,521.0,518.0,496.0
541.0,513.0,518.0,521.0,522.0
536.0,513.0,514.0,525.0,528.0
532.0,514.0,510.0,526.0,535.0
515.0,510.0,504.0,522.0,531.0
513.0,510.0,503.0,521.0,515.0
502.0,502.0,497.0,517.0,524.0
495.0,501.0,499.0,510.0,527.0
499.0,502.0,506.0,510.0,539.0
499.0,503.0,511.0,508.0,528.0
498.0,502.0,514.0,506.0,515.0
504.0,504.0,519.0,505.0,514.0
510.0,505.0,525.0,508.0,534.0
512.0,504.0,525.0,509.0,527.0
509.0,503.0,528.0,510.0,510.0
512.0,507.0,522.0,513.0,509.0
519.0,505.0,519.0,517.0,483.0
529.0,510.0,521.0,522.0,479.0
537.0,512.0,517.0,527.0,482.0
536.0,517.0,514.0,528.0,493.0
533.0,515.0,511.0,529.0,505.0
523.0,508.0,501.0,518.0,511.0
514.0,510.0,500.0,515.0,523.0
497.0,501.0,494.0,510.0,526.0
496.0,503.0,503.0,511.0,520.0
498.0,503.0,508.0,504.0,519.0
501.0,503.0,514.0,509.0,512.0
503.0,503.0,519.0,510.0,513.0
510.0,501.0,521.0,505.0,500.0
511.0,502.0,521.0,502.0,501.0
517.0,506.0,522.0,506.0,504.0
517.0,504.0,523.0,509.0,495.0
520.0,504.0,522.0,512.0,497.0
523.0,509.0,522.0,519.0,516.0
518.0,511.0,518.0,524.0,525.0
522.0,508.0,518.0,532.0,518.0
527.0,512.0,512.0,529.0,518.0
522.0,508.0,503.0,524.0,517.0
525.0,514.0,507.0,521.0,525.0
514.0,506.0,499.0,511.0,532.0
502.0,497.0,495.0,509.0,534.0
503.0,495.0,501.0,503.0,511.0
501.0,499.0,506.0,504.0,504.0
492.0,502.0,514.0,503.0,499.0
500.0,509.0,520.0,506.0,495.0
507.0,503.0,522.0,510.0,497.0
509.0,502.0,525.0,505.0,502.0
509.0,504.0,524.0,507.0,497.0
517.0,503.0,522.0,510.0,501.0
522.0,506.0,522.0,517.0,506.0
524.0,508.0,517.0,519.0,508.0
534.0,514.0,520.0,525.0,513.0
527.0,512.0,513.0,524.0,512.0
526.0,513.0,511.0,526.0,521.0
519.0,508.0,502.0,520.0,528.0
519.0,510.0,504.0,520.0,525.0
504.0,505.0,500.0,514.0,534.0
496.0,498.0,502.0,506.0,532.0
499.0,502.0,505.0,508.0,519.0
502.0,503.0,510.0,504.0,502.0
506.0,502.0,515.0,503.0,498.0
512.0,503.0,520.0,508.0,501.0
516.0,501.0,521.0,502.0,506.0
513.0,502.0,522.0,504.0,506.0
519.0,505.0,521.0,512.0,518.0
515.0,505.0,524.0,509.0,530.0
512.0,505.0,521.0,510.0,524.0
519.0,512.0,522.0,521.0,511.0
524.0,513.0,517.0,523.0,510.0
523.0,515.0,514.0,528.0,508.0
529.0,515.0,508.0,525.0,501.0
519.0,509.0,501.0,521.0,516.0
512.0,509.0,501.0,517.0,521.0
501.0,503.0,497.0,509.0,523.0
498.0,501.0,499.0,503.0,526.0
504.0,500.0,509.0,505.0,515.0
505.0,501.0,511.0,501.0,518.0
502.0,502.0,513.0,502.0,507.0
506.0,505.0,523.0,506.0,479.0
507.0,504.0,521.0,506.0,480.0
510.0,504.0,525.0,510.0,484.0
507.0,502.0,522.0,505.0,494.0
507.0,503.0,520.0,510.0,518.0
522.0,507.0,520.0,517.0,527.0
536.0,511.0,523.0,522.0,515.0
536.0,513.0,515.0,523.0,517.0
529.0,514.0,511.0,525.0,523.0
524.0,515.0,505.0,520.0,531.0
526.0,512.0,499.0,519.0,527.0
517.0,505.0,496.0,515.0,505.0
507.0,503.0,497.0,507.0,514.0
506.0,507.0,503.0,507.0,510.0
503.0,503.0,508.0,505.0,503.0
502.0,503.0,515.0,505.0,510.0
502.0,503.0,520.0,505.0,513.0
506.0,505.0,522.0,507.0,492.0
508.0,501.0,523.0,509.0,486.0
512.0,503.0,527.0,509.0,491.0
513.0,503.0,523.0,509.0,505.0
513.0,504.0,522.0,513.0,540.0
520.0,510.0,522.0,519.0,536.0
528.0,513.0,519.0,523.0,536.0
529.0,514.0,515.0,526.0,520.0
534.0,518.0,513.0,529.0,509.0
522.0,510.0,503.0,524.0,523.0
519.0,511.0,505.0,525.0,527.0
497.0,505.0,498.0,510.0,549.0
493.0,501.0,499.0,504.0,538.0
499.0,501.0,505.0,504.0,523.0
502.0,502.0,510.0,507.0,478.0
505.0,500.0,515.0,504.0,474.0
511.0,504.0,522.0,506.0,470.0
