CH1,CH2
494.0,494.0
493.0,497.0
500.0,494.0
487.0,500.0
499.0,495.0
501.0,502.0
508.0,499.0
517.0,501.0
523.0,508.0
523.0,511.0
523.0,515.0
517.0,505.0
513.0,510.0
510.0,505.0
506.0,501.0
507.0,506.0
502.0,503.0
504.0,496.0
503.0,497.0
504.0,495.0
495.0,491.0
504.0,488.0
508.0,499.0
514.0,498.0
518.0,502.0
527.0,513.0
526.0,514.0
524.0,508.0
517.0,510.0
517.0,508.0
517.0,508.0
511.0,505.0
509.0,506.0
496.0,507.0
502.0,490.0
510.0,496.0
498.0,496.0
503.0,495.0
508.0,495.0
513.0,502.0
514.0,504.0
523.0,509.0
522.0,513.0
513.0,504.0
517.0,511.0
517.0,505.0
514.0,515.0
510.0,503.0
501.0,509.0
508.0,503.0
509.0,503.0
498.0,503.0
500.0,488.0
503.0,494.0
499.0,487.0
498.0,494.0
512.0,494.0
516.0,503.0
527.0,511.0
523.0,507.0
523.0,516.0
522.0,510.0
511.0,512.0
511.0,504.0
507.0,504.0
508.0,499.0
508.0,497.0
504.0,496.0
503.0,496.0
495.0,499.0
502.0,494.0
494.0,499.0
511.0,497.0
511.0,498.0
523.0,506.0
528.0,509.0
527.0,507.0
525.0,513.0
522.0,508.0
516.0,507.0
510.0,513.0
505.0,510.0
499.0,509.0
499.0,504.0
501.0,491.0
501.0,493.0
499.0,492.0
499.0,490.0
499.0,485.0
514.0,503.0
519.0,497.0
525.0,505.0
519.0,509.0
517.0,509.0
521.0,512.0
509.0,502.0
510.0,507.0
505.0,507.0
505.0,507.0
515.0,503.0
501.0,504.0
501.0,491.0
498.0,488.0
494.0,493.0
498.0,489.0
505.0,494.0
511.0,499.0
519.0,504.0
526.0,507.0
529.0,516.0
526.0,513.0
520.0,508.0
513.0,507.0
499.0,511.0
505.0,499.0
509.0,503.0
504.0,507.0
511.0,500.0
512.0,499.0
510.0,487.0
512.0,494.0
507.0,491.0
508.0,499.0
508.0,505.0
518.0,508.0
520.0,511.0
527.0,512.0
515.0,512.0
520.0,514.0
510.0,511.0
508.0,506.0
499.0,511.0
502.0,503.0
499.0,502.0
496.0,499.0
500.0,484.0
500.0,495.0
500.0,494.0
508.0,496.0
512.0,500.0
514.0,500.0
526.0,509.0
526.0,513.0
526.0,512.0
519.0,508.0
514.0,508.0
512.0,508.0
508.0,506.0
504.0,500.0
503.0,500.0
503.0,495.0
505.0,498.0
498.0,496.0
497.0,493.0
500.0,489.0
510.0,500.0
513.0,505.0
524.0,507.0
528.0,512.0
524.0,511.0
527.0,514.0
514.0,513.0
514.0,509.0
504.0,511.0
507.0,509.0
503.0,494.0
503.0,497.0
502.0,494.0
504.0,497.0
505.0,494.0
496.0,492.0
505.0,495.0
504.0,497.0
511.0,499.0
517.0,509.0
527.0,504.0
526.0,513.0
522.0,508.0
521.0,512.0
517.0,504.0
512.0,507.0
510.0,505.0
507.0,503.0
496.0,497.0
495.0,499.0
500.0,497.0
491.0,499.0
498.0,496.0
504.0,495.0
500.0,503.0
514.0,504.0
522.0,510.0
527.0,513.0
521.0,507.0
524.0,512.0
519.0,514.0
510.0,510.0
506.0,500.0
504.0,508.0
499.0,505.0
497.0,501.0
499.0,498.0
501.0,495.0
491.0,496.0
508.0,495.0
507.0,492.0
511.0,496.0
517.0,504.0
522.0,508.0
525.0,513.0
519.0,512.0
516.0,512.0
514.0,508.0
509.0,498.0
512.0,505.0
509.0,504.0
506.0,506.0
501.0,497.0
489.0,501.0
489.0,498.0
500.0,485.0
510.0,494.0
507.0,503.0
511.0,503.0
523.0,504.0
527.0,508.0
525.0,513.0
517.0,507.0
514.0,506.0
509.0,500.0
507.0,499.0
506.0,505.0
507.0,503.0
508.0,500.0
502.0,499.0
494.0,500.0
504.0,485.0
497.0,497.0
499.0,494.0
510.0,495.0
509.0,496.0
517.0,506.0
523.0,511.0
521.0,512.0
509.0,508.0
513.0,510.0
509.0,511.0
509.0,504.0
503.0,501.0
502.0,497.0
499.0,495.0
500.0,489.0
498.0,491.0
502.0,492.0
501.0,496.0
507.0,497.0
512.0,501.0
516.0,498.0
523.0,510.0
522.0,511.0
524.0,511.0
519.0,514.0
512.0,511.0
512.0,510.0
498.0,500.0
501.0,510.0
502.0,506.0
501.0,502.0
504.0,481.0
507.0,495.0
504.0,491.0
501.0,497.0
506.0,497.0
507.0,502.0
513.0,508.0
519.0,509.0
518.0,506.0
511.0,505.0
518.0,512.0
503.0,511.0
497.0,510.0
501.0,507.0
500.0,510.0
498.0,505.0
500.0,505.0
492.0,493.0
497.0,498.0
495.0,490.0
506.0,494.0
506.0,500.0
516.0,503.0
521.0,508.0
512.0,506.0
523.0,514.0
520.0,511.0
513.0,511.0
500.0,513.0
505.0,506.0
504.0,499.0
503.0,495.0
502.0,491.0
501.0,494.0
499.0,494.0
491.0,497.0
499.0,488.0
506.0,500.0
511.0,501.0
522.0,507.0
526.0,507.0
529.0,513.0
517.0,506.0
516.0,512.0
515.0,509.0
508.0,499.0
504.0,508.0
509.0,503.0
504.0,503.0
497.0,505.0
501.0,489.0
500.0,496.0
502.0,493.0
504.0,493.0
504.0,490.0
507.0,500.0
518.0,501.0
524.0,510.0
525.0,509.0
520.0,514.0
522.0,508.0
510.0,508.0
502.0,505.0
503.0,504.0
505.0,498.0
507.0,502.0
500.0,502.0
482.0,497.0
498.0,488.0
499.0,487.0
501.0,496.0
507.0,500.0
510.0,499.0
520.0,502.0
525.0,517.0
526.0,512.0
520.0,511.0
517.0,513.0
513.0,509.0
500.0,510.0
500.0,511.0
502.0,507.0
504.0,506.0
503.0,494.0
499.0,496.0
493.0,495.0
493.0,490.0
498.0,499.0
510.0,502.0
522.0,506.0
529.0,514.0
525.0,511.0
517.0,511.0
515.0,512.0
507.0,505.0
519.0,503.0
524.0,500.0
508.0,511.0
516.0,505.0
510.0,499.0
490.0,501.0
478.0,499.0
487.0,490.0
487.0,494.0
499.0,496.0
514.0,505.0
520.0,508.0
523.0,512.0
521.0,513.0
514.0,512.0
514.0,506.0
502.0,513.0
508.0,508.0
502.0,508.0
497.0,505.0
494.0,503.0
491.0,496.0
490.0,492.0
499.0,496.0
497.0,486.0
505.0,493.0
510.0,504.0
514.0,507.0
521.0,510.0
523.0,506.0
516.0,509.0
514.0,513.0
510.0,505.0
503.0,511.0
504.0,500.0
508.0,500.0
504.0,497.0
500.0,492.0
499.0,495.0
499.0,495.0
497.0,489.0
504.0,495.0
510.0,499.0
513.0,502.0
521.0,508.0
531.0,505.0
533.0,515.0
517.0,505.0
516.0,512.0
512.0,512.0
502.0,511.0
497.0,509.0
495.0,508.0
493.0,506.0
495.0,505.0
500.0,489.0
498.0,491.0
490.0,501.0
494.0,503.0
503.0,495.0
516.0,505.0
518.0,507.0
524.0,509.0
526.0,512.0
517.0,507.0
514.0,512.0
515.0,510.0
509.0,514.0
508.0,512.0
506.0,507.0
503.0,498.0
503.0,501.0
493.0,495.0
494.0,497.0
500.0,497.0
499.0,500.0
502.0,497.0
516.0,504.0
519.0,508.0
517.0,512.0
524.0,516.0
516.0,517.0
514.0,509.0
506.0,513.0
509.0,508.0
502.0,512.0
511.0,501.0
505.0,505.0
501.0,504.0
490.0,491.0
502.0,495.0
504.0,496.0
502.0,505.0
509.0,502.0
511.0,508.0
516.0,513.0
517.0,507.0
518.0,513.0
512.0,509.0
515.0,506.0
505.0,514.0
510.0,508.0
507.0,503.0
503.0,501.0
502.0,499.0
503.0,493.0
506.0,493.0
503.0,500.0
524.0,495.0
523.0,499.0
531.0,506.0
526.0,514.0
511.0,511.0
508.0,510.0
503.0,511.0
506.0,511.0
503.0,514.0
503.0,502.0
506.0,504.0
500.0,501.0
495.0,503.0
497.0,498.0
489.0,495.0
495.0,498.0
499.0,498.0
509.0,507.0
511.0,503.0
521.0,502.0
524.0,506.0
530.0,509.0
522.0,511.0
518.0,512.0
508.0,510.0
503.0,504.0
496.0,510.0
504.0,505.0
509.0,497.0
508.0,497.0
505.0,487.0
512.0,495.0
499.0,497.0
506.0,492.0
499.0,493.0
506.0,503.0
518.0,501.0
517.0,509.0
518.0,514.0
517.0,511.0
519.0,517.0
509.0,516.0
502.0,515.0
505.0,510.0
509.0,503.0
507.0,501.0
501.0,499.0
503.0,498.0
501.0,490.0
494.0,500.0
497.0,482.0
498.0,497.0
515.0,506.0
526.0,504.0
531.0,514.0
523.0,504.0
534.0,511.0
530.0,512.0
524.0,503.0
516.0,507.0
502.0,507.0
519.0,501.0
500.0,490.0
505.0,499.0
496.0,498.0
483.0,493.0
490.0,493.0
501.0,494.0
515.0,498.0
522.0,503.0
523.0,510.0
516.0,508.0
524.0,513.0
519.0,511.0
526.0,507.0
519.0,500.0
529.0,503.0
534.0,499.0
515.0,503.0
498.0,497.0
486.0,492.0
470.0,498.0
492.0,493.0
524.0,502.0
542.0,495.0
537.0,496.0
528.0,496.0
533.0,508.0
523.0,506.0
485.0,505.0
515.0,512.0
539.0,505.0
520.0,510.0
495.0,506.0
490.0,503.0
489.0,495.0
493.0,506.0
492.0,504.0
480.0,499.0
480.0,497.0
489.0,493.0
500.0,500.0
508.0,504.0
513.0,508.0
520.0,506.0
518.0,506.0
528.0,514.0
524.0,517.0
513.0,510.0
515.0,508.0
515.0,510.0
502.0,504.0
503.0,503.0
497.0,505.0
505.0,497.0
491.0,505.0
495.0,496.0
502.0,495.0
513.0,500.0
512.0,495.0
518.0,503.0
512.0,508.0
497.0,504.0
508.0,504.0
507.0,507.0
507.0,499.0
501.0,515.0
499.0,512.0
500.0,507.0
492.0,508.0
486.0,491.0
494.0,497.0
483.0,503.0
497.0,502.0
503.0,492.0
517.0,496.0
524.0,503.0
528.0,504.0
537.0,513.0
534.0,518.0
525.0,519.0
515.0,517.0
509.0,516.0
500.0,514.0
493.0,513.0
497.0,506.0
498.0,495.0
498.0,500.0
499.0,487.0
503.0,485.0
515.0,482.0
501.0,496.0
522.0,503.0
535.0,504.0
544.0,506.0
534.0,503.0
520.0,506.0
516.0,505.0
497.0,497.0
462.0,499.0
495.0,500.0
520.0,514.0
511.0,512.0
499.0,506.0
487.0,506.0
494.0,490.0
498.0,507.0
504.0,506.0
529.0,503.0
526.0,500.0
520.0,493.0
540.0,498.0
512.0,494.0
509.0,498.0
507.0,502.0
497.0,498.0
486.0,503.0
495.0,506.0
502.0,513.0
520.0,516.0
506.0,517.0
496.0,514.0
501.0,516.0
505.0,494.0
508.0,507.0
509.0,507.0
507.0,497.0
495.0,496.0
487.0,497.0
483.0,493.0
492.0,498.0
509.0,499.0
532.0,500.0
545.0,501.0
543.0,526.0
534.0,521.0
526.0,513.0
502.0,513.0
512.0,508.0
515.0,512.0
519.0,510.0
516.0,508.0
518.0,506.0
541.0,505.0
537.0,492.0
509.0,489.0
505.0,483.0
475.0,485.0
478.0,486.0
499.0,498.0
519.0,498.0
496.0,508.0
489.0,514.0
513.0,516.0
524.0,514.0
523.0,510.0
521.0,513.0
516.0,507.0
495.0,511.0
514.0,502.0
525.0,497.0
520.0,495.0
522.0,481.0
516.0,473.0
518.0,488.0
506.0,512.0
500.0,501.0
487.0,510.0
501.0,513.0
492.0,506.0
486.0,518.0
491.0,518.0
499.0,510.0
503.0,508.0
514.0,510.0
518.0,507.0
524.0,501.0
523.0,484.0
526.0,482.0
526.0,494.0
518.0,488.0
505.0,497.0
510.0,501.0
508.0,501.0
506.0,519.0
506.0,518.0
500.0,517.0
498.0,512.0
500.0,515.0
499.0,516.0
500.0,502.0
508.0,505.0
523.0,501.0
529.0,493.0
523.0,488.0
522.0,490.0
517.0,488.0
525.0,498.0
520.0,490.0
515.0,496.0
508.0,504.0
499.0,490.0
496.0,493.0
485.0,500.0
491.0,524.0
486.0,540.0
498.0,512.0
495.0,502.0
500.0,487.0
503.0,490.0
509.0,485.0
513.0,486.0
520.0,481.0
531.0,493.0
524.0,489.0
532.0,501.0
533.0,507.0
520.0,500.0
517.0,499.0
515.0,514.0
489.0,512.0
508.0,508.0
503.0,511.0
503.0,505.0
507.0,503.0
500.0,496.0
501.0,500.0
501.0,496.0
514.0,491.0
511.0,490.0
512.0,486.0
518.0,496.0
512.0,504.0
509.0,501.0
486.0,517.0
478.0,520.0
503.0,519.0
518.0,514.0
532.0,506.0
533.0,504.0
530.0,506.0
533.0,499.0
536.0,504.0
547.0,497.0
554.0,493.0
519.0,485.0
511.0,488.0
539.0,488.0
548.0,493.0
542.0,493.0
525.0,507.0
502.0,509.0
487.0,508.0
469.0,507.0
467.0,517.0
481.0,510.0
490.0,503.0
489.0,509.0
496.0,504.0
511.0,502.0
529.0,497.0
535.0,492.0
541.0,494.0
534.0,492.0
524.0,493.0
513.0,491.0
517.0,501.0
505.0,507.0
505.0,516.0
499.0,519.0
504.0,514.0
489.0,506.0
479.0,517.0
498.0,505.0
505.0,509.0
519.0,505.0
522.0,497.0
527.0,486.0
525.0,493.0
524.0,489.0
511.0,484.0
508.0,488.0
505.0,495.0
502.0,503.0
506.0,503.0
510.0,521.0
501.0,518.0
488.0,530.0
495.0,524.0
502.0,511.0
509.0,506.0
513.0,507.0
518.0,504.0
525.0,501.0
527.0,484.0
528.0,486.0
520.0,486.0
506.0,484.0
511.0,488.0
496.0,494.0
485.0,505.0
488.0,498.0
489.0,520.0
513.0,515.0
528.0,515.0
516.0,519.0
507.0,514.0
517.0,504.0
518.0,507.0
530.0,509.0
526.0,496.0
509.0,493.0
492.0,475.0
506.0,469.0
509.0,479.0
506.0,494.0
506.0,497.0
531.0,504.0
535.0,510.0
521.0,520.0
522.0,527.0
544.0,520.0
546.0,514.0
528.0,511.0
544.0,499.0
543.0,502.0
528.0,490.0
461.0,473.0
468.0,462.0
498.0,472.0
513.0,505.0
527.0,501.0
542.0,496.0
530.0,514.0
535.0,507.0
529.0,509.0
509.0,519.0
475.0,523.0
494.0,521.0
504.0,519.0
494.0,523.0
513.0,515.0
512.0,502.0
526.0,496.0
524.0,479.0
520.0,479.0
519.0,477.0
503.0,478.0
491.0,488.0
465.0,500.0
499.0,498.0
525.0,512.0
524.0,510.0
522.0,509.0
518.0,512.0
511.0,518.0
499.0,509.0
499.0,506.0
505.0,502.0
498.0,494.0
509.0,497.0
495.0,496.0
503.0,489.0
506.0,496.0
504.0,491.0
513.0,504.0
517.0,506.0
525.0,512.0
520.0,512.0
522.0,511.0
515.0,510.0
514.0,512.0
505.0,511.0
503.0,508.0
502.0,498.0
502.0,500.0
503.0,499.0
497.0,501.0
492.0,499.0
505.0,494.0
498.0,491.0
513.0,499.0
507.0,501.0
525.0,505.0
526.0,513.0
525.0,514.0
524.0,514.0
513.0,514.0
505.0,509.0
507.0,505.0
510.0,506.0
511.0,504.0
508.0,502.0
497.0,503.0
490.0,499.0
497.0,490.0
484.0,496.0
496.0,491.0
508.0,501.0
514.0,503.0
528.0,507.0
533.0,512.0
529.0,510.0
517.0,509.0
507.0,515.0
495.0,512.0
495.0,504.0
505.0,507.0
507.0,501.0
499.0,503.0
502.0,495.0
497.0,488.0
497.0,498.0
506.0,486.0
506.0,493.0
508.0,498.0
514.0,500.0
525.0,512.0
522.0,511.0
525.0,510.0
522.0,510.0
509.0,509.0
503.0,510.0
503.0,503.0
505.0,499.0
509.0,500.0
496.0,503.0
498.0,487.0
492.0,500.0
503.0,496.0
499.0,495.0
505.0,505.0
511.0,505.0
516.0,510.0
522.0,513.0
521.0,511.0
524.0,507.0
524.0,515.0
523.0,510.0
517.0,507.0
505.0,511.0
505.0,506.0
507.0,500.0
508.0,503.0
505.0,490.0
500.0,497.0
503.0,495.0
506.0,498.0
514.0,502.0
515.0,507.0
521.0,503.0
515.0,508.0
519.0,511.0
520.0,510.0
515.0,504.0
515.0,511.0
507.0,498.0
511.0,505.0
509.0,502.0
501.0,492.0
508.0,496.0
499.0,493.0
499.0,490.0
500.0,499.0
514.0,498.0
510.0,500.0
515.0,494.0
528.0,507.0
515.0,510.0
511.0,509.0
516.0,514.0
513.0,512.0
503.0,514.0
509.0,505.0
509.0,504.0
507.0,503.0
506.0,504.0
497.0,503.0
499.0,493.0
500.0,498.0
506.0,496.0
506.0,494.0
514.0,505.0
519.0,507.0
528.0,509.0
526.0,514.0
523.0,511.0
514.0,508.0
511.0,513.0
505.0,510.0
506.0,505.0
503.0,508.0
505.0,500.0
497.0,504.0
507.0,501.0
502.0,481.0
503.0,493.0
502.0,490.0
506.0,495.0
510.0,504.0
517.0,503.0
517.0,513.0
522.0,511.0
522.0,505.0
521.0,508.0
520.0,506.0
517.0,504.0
516.0,504.0
520.0,502.0
520.0,498.0
510.0,503.0
495.0,488.0
495.0,489.0
496.0,490.0
500.0,496.0
509.0,504.0
520.0,513.0
516.0,510.0
522.0,511.0
516.0,510.0
518.0,513.0
512.0,511.0
513.0,508.0
511.0,502.0
504.0,496.0
508.0,501.0
496.0,503.0
497.0,494.0
498.0,497.0
499.0,485.0
505.0,494.0
510.0,505.0
511.0,505.0
519.0,515.0
528.0,519.0
526.0,506.0
517.0,503.0
509.0,509.0
507.0,516.0
514.0,514.0
497.0,518.0
493.0,497.0
508.0,485.0
511.0,487.0
511.0,491.0
503.0,491.0
507.0,493.0
505.0,504.0
509.0,498.0
508.0,493.0
511.0,504.0
519.0,511.0
522.0,512.0
521.0,510.0
518.0,507.0
512.0,511.0
507.0,491.0
509.0,506.0
506.0,503.0
493.0,505.0
499.0,489.0
500.0,492.0
496.0,485.0
495.0,484.0
500.0,497.0
509.0,498.0
512.0,492.0
525.0,512.0
527.0,511.0
517.0,516.0
519.0,513.0
506.0,506.0
501.0,507.0
498.0,510.0
496.0,510.0
498.0,500.0
496.0,498.0
498.0,496.0
498.0,499.0
506.0,495.0
500.0,500.0
502.0,494.0
509.0,495.0
520.0,503.0
521.0,519.0
524.0,520.0
520.0,517.0
518.0,517.0
510.0,513.0
509.0,504.0
501.0,505.0
508.0,502.0
498.0,503.0
508.0,498.0
502.0,496.0
505.0,496.0
505.0,493.0
499.0,495.0
505.0,502.0
510.0,505.0
521.0,507.0
522.0,500.0
522.0,516.0
523.0,514.0
521.0,516.0
521.0,510.0
505.0,511.0
514.0,498.0
513.0,503.0
512.0,499.0
506.0,492.0
501.0,494.0
492.0,497.0
503.0,486.0
504.0,501.0
508.0,504.0
519.0,508.0
519.0,507.0
524.0,508.0
523.0,506.0
514.0,509.0
512.0,512.0
512.0,509.0
501.0,503.0
507.0,502.0
507.0,503.0
501.0,495.0
505.0,485.0
502.0,499.0
509.0,494.0
506.0,496.0
507.0,492.0
520.0,502.0
526.0,504.0
521.0,509.0
522.0,515.0
521.0,518.0
518.0,513.0
512.0,509.0
508.0,508.0
503.0,506.0
505.0,494.0
507.0,500.0
502.0,501.0
501.0,494.0
503.0,496.0
499.0,496.0
501.0,498.0
500.0,495.0
511.0,505.0
512.0,501.0
521.0,516.0
522.0,516.0
518.0,511.0
517.0,514.0
514.0,502.0
511.0,504.0
503.0,506.0
502.0,498.0
503.0,488.0
503.0,497.0
500.0,488.0
495.0,496.0
495.0,502.0
507.0,499.0
512.0,498.0
515.0,503.0
520.0,504.0
519.0,508.0
523.0,504.0
520.0,509.0
513.0,508.0
510.0,506.0
507.0,510.0
508.0,507.0
504.0,503.0
502.0,503.0
504.0,493.0
492.0,495.0
504.0,496.0
502.0,499.0
502.0,491.0
518.0,503.0
523.0,507.0
525.0,511.0
524.0,515.0
519.0,513.0
520.0,513.0
513.0,516.0
505.0,511.0
496.0,507.0
492.0,498.0
483.0,506.0
493.0,496.0
495.0,494.0
498.0,495.0
499.0,493.0
499.0,491.0
503.0,496.0
519.0,500.0
523.0,508.0
527.0,513.0
525.0,515.0
521.0,515.0
516.0,517.0
507.0,506.0
498.0,509.0
506.0,504.0
502.0,505.0
511.0,502.0
511.0,496.0
507.0,493.0
509.0,490.0
504.0,496.0
507.0,499.0
516.0,499.0
523.0,503.0
534.0,510.0
527.0,511.0
516.0,506.0
516.0,513.0
506.0,509.0
500.0,506.0
498.0,504.0
503.0,505.0
509.0,508.0
510.0,512.0
499.0,515.0
500.0,491.0
498.0,483.0
501.0,492.0
500.0,496.0
513.0,502.0
520.0,505.0
510.0,494.0
524.0,506.0
514.0,516.0
514.0,514.0
512.0,517.0
497.0,510.0
504.0,494.0
505.0,495.0
494.0,503.0
495.0,489.0
495.0,497.0
494.0,492.0
496.0,487.0
493.0,495.0
499.0,490.0
523.0,503.0
519.0,505.0
527.0,513.0
515.0,509.0
520.0,516.0
515.0,513.0
510.0,511.0
506.0,498.0
511.0,506.0
509.0,504.0
500.0,495.0
506.0,496.0
500.0,494.0
495.0,489.0
503.0,496.0
501.0,500.0
515.0,502.0
518.0,506.0
520.0,507.0
524.0,510.0
521.0,513.0
518.0,516.0
514.0,511.0
508.0,505.0
505.0,505.0
502.0,502.0
508.0,500.0
498.0,506.0
502.0,489.0
495.0,497.0
505.0,493.0
505.0,496.0
504.0,493.0
508.0,503.0
513.0,504.0
524.0,513.0
523.0,515.0
522.0,515.0
511.0,510.0
502.0,502.0
503.0,509.0
499.0,509.0
505.0,499.0
504.0,494.0
502.0,496.0
504.0,496.0
496.0,491.0
494.0,497.0
501.0,494.0
512.0,502.0
513.0,509.0
516.0,502.0
520.0,514.0
523.0,514.0
514.0,510.0
512.0,509.0
500.0,509.0
500.0,502.0
495.0,499.0
496.0,495.0
502.0,500.0
492.0,502.0
493.0,490.0
486.0,499.0
505.0,488.0
517.0,496.0
514.0,498.0
528.0,510.0
525.0,501.0
527.0,509.0
520.0,509.0
517.0,510.0
517.0,513.0
519.0,508.0
510.0,504.0
510.0,512.0
504.0,508.0
504.0,505.0
510.0,494.0
496.0,496.0
496.0,502.0
498.0,501.0
508.0,501.0
513.0,504.0
520.0,512.0
514.0,506.0
519.0,510.0
517.0,516.0
517.0,508.0
524.0,510.0
516.0,513.0
512.0,505.0
501.0,500.0
505.0,493.0
506.0,507.0
502.0,500.0
492.0,489.0
494.0,495.0
506.0,487.0
515.0,481.0
516.0,502.0
518.0,507.0
513.0,508.0
514.0,515.0
506.0,514.0
511.0,517.0
509.0,504.0
509.0,509.0
506.0,509.0
504.0,510.0
500.0,506.0
500.0,497.0
496.0,501.0
501.0,488.0
502.0,488.0
506.0,484.0
508.0,494.0
514.0,506.0
523.0,508.0
519.0,506.0
515.0,514.0
514.0,520.0
511.0,514.0
501.0,512.0
503.0,504.0
501.0,506.0
499.0,508.0
502.0,511.0
509.0,500.0
510.0,483.0
499.0,493.0
502.0,496.0
509.0,501.0
513.0,510.0
521.0,504.0
525.0,497.0
517.0,513.0
522.0,511.0
515.0,508.0
512.0,503.0
505.0,504.0
504.0,503.0
501.0,503.0
499.0,496.0
499.0,493.0
492.0,494.0
490.0,489.0
490.0,499.0
501.0,492.0
501.0,493.0
517.0,506.0
520.0,513.0
519.0,509.0
512.0,509.0
510.0,516.0
510.0,517.0
508.0,510.0
517.0,505.0
518.0,506.0
515.0,507.0
529.0,495.0
523.0,495.0
502.0,497.0
482.0,502.0
490.0,501.0
500.0,505.0
506.0,511.0
514.0,511.0
527.0,503.0
534.0,498.0
526.0,506.0
523.0,506.0
523.0,516.0
509.0,508.0
498.0,508.0
499.0,506.0
502.0,495.0
495.0,493.0
476.0,495.0
457.0,491.0
470.0,492.0
467.0,496.0
485.0,499.0
507.0,499.0
532.0,505.0
548.0,511.0
555.0,514.0
548.0,515.0
540.0,513.0
532.0,508.0
531.0,510.0
530.0,506.0
538.0,494.0
534.0,492.0
506.0,492.0
493.0,498.0
491.0,501.0
506.0,493.0
514.0,501.0
510.0,510.0
521.0,518.0
525.0,509.0
524.0,513.0
524.0,506.0
517.0,515.0
517.0,513.0
507.0,507.0
501.0,506.0
497.0,505.0
495.0,504.0
489.0,496.0
509.0,501.0
521.0,501.0
533.0,501.0
535.0,491.0
540.0,486.0
546.0,495.0
518.0,505.0
477.0,506.0
494.0,499.0
506.0,504.0
513.0,510.0
504.0,517.0
495.0,524.0
481.0,522.0
491.0,515.0
510.0,498.0
511.0,482.0
501.0,493.0
486.0,493.0
477.0,488.0
504.0,498.0
513.0,496.0
518.0,500.0
519.0,511.0
515.0,508.0
515.0,504.0
512.0,504.0
508.0,504.0
509.0,506.0
501.0,493.0
493.0,500.0
496.0,496.0
515.0,491.0
494.0,499.0
482.0,507.0
468.0,507.0
469.0,514.0
483.0,511.0
502.0,495.0
540.0,488.0
568.0,506.0
573.0,512.0
586.0,521.0
564.0,517.0
525.0,512.0
476.0,519.0
472.0,516.0
495.0,498.0
494.0,470.0
504.0,480.0
514.0,506.0
503.0,508.0
516.0,493.0
522.0,488.0
530.0,495.0
509.0,505.0
506.0,514.0
517.0,515.0
514.0,510.0
503.0,505.0
484.0,500.0
486.0,505.0
493.0,505.0
508.0,507.0
515.0,508.0
538.0,505.0
539.0,487.0
526.0,475.0
462.0,484.0
462.0,485.0
482.0,482.0
497.0,493.0
525.0,515.0
538.0,521.0
552.0,523.0
533.0,520.0
524.0,520.0
515.0,507.0
501.0,503.0
507.0,508.0
507.0,505.0
490.0,500.0
505.0,494.0
514.0,495.0
503.0,491.0
492.0,503.0
500.0,500.0
497.0,502.0
483.0,493.0
493.0,511.0
494.0,511.0
501.0,504.0
517.0,512.0
532.0,512.0
543.0,513.0
545.0,508.0
538.0,507.0
525.0,507.0
540.0,510.0
498.0,515.0
485.0,500.0
493.0,493.0
507.0,485.0
519.0,489.0
511.0,495.0
517.0,489.0
530.0,490.0
540.0,507.0
549.0,515.0
503.0,516.0
497.0,524.0
494.0,519.0
489.0,500.0
480.0,503.0
480.0,497.0
486.0,494.0
492.0,508.0
511.0,509.0
526.0,491.0
520.0,497.0
522.0,474.0
524.0,495.0
536.0,509.0
548.0,531.0
536.0,538.0
512.0,520.0
498.0,507.0
503.0,479.0
498.0,471.0
505.0,488.0
512.0,510.0
530.0,518.0
513.0,515.0
524.0,515.0
514.0,505.0
511.0,476.0
513.0,476.0
503.0,498.0
512.0,498.0
514.0,510.0
502.0,499.0
495.0,492.0
485.0,501.0
507.0,504.0
515.0,530.0
506.0,527.0
481.0,492.0
470.0,478.0
495.0,484.0
489.0,485.0
467.0,500.0
484.0,477.0
515.0,481.0
541.0,489.0
544.0,520.0
555.0,533.0
523.0,559.0
533.0,546.0
540.0,498.0
559.0,462.0
565.0,467.0
533.0,466.0
495.0,493.0
474.0,496.0
496.0,509.0
506.0,508.0
497.0,513.0
507.0,502.0
520.0,488.0
513.0,488.0
501.0,504.0
504.0,504.0
508.0,500.0
519.0,505.0
525.0,510.0
525.0,514.0
509.0,507.0
506.0,511.0
501.0,517.0
481.0,513.0
465.0,502.0
461.0,487.0
497.0,490.0
491.0,486.0
482.0,494.0
497.0,486.0
511.0,494.0
534.0,500.0
558.0,498.0
586.0,501.0
617.0,490.0
583.0,486.0
490.0,526.0
484.0,565.0
451.0,561.0
449.0,516.0
430.0,492.0
471.0,478.0
510.0,519.0
554.0,527.0
588.0,513.0
552.0,487.0
539.0,465.0
499.0,480.0
485.0,484.0
515.0,484.0
524.0,503.0
509.0,507.0
511.0,490.0
513.0,501.0
470.0,509.0
448.0,527.0
451.0,525.0
466.0,513.0
501.0,518.0
530.0,513.0
493.0,481.0
451.0,479.0
487.0,512.0
525.0,526.0
521.0,522.0
545.0,503.0
567.0,464.0
558.0,490.0
574.0,538.0
564.0,520.0
516.0,504.0
432.0,510.0
437.0,510.0
469.0,502.0
501.0,507.0
529.0,515.0
532.0,513.0
546.0,468.0
522.0,450.0
495.0,482.0
484.0,495.0
493.0,490.0
488.0,476.0
498.0,479.0
517.0,505.0
522.0,517.0
504.0,529.0
503.0,533.0
499.0,518.0
521.0,494.0
516.0,466.0
438.0,505.0
459.0,504.0
440.0,491.0
505.0,490.0
508.0,489.0
572.0,512.0
580.0,604.0
611.0,615.0
551.0,547.0
513.0,443.0
496.0,427.0
503.0,498.0
531.0,487.0
554.0,533.0
572.0,546.0
576.0,566.0
444.0,498.0
406.0,441.0
448.0,435.0
488.0,468.0
545.0,499.0
590.0,515.0
615.0,504.0
553.0,488.0
458.0,491.0
424.0,513.0
502.0,508.0
528.0,477.0
528.0,478.0
505.0,579.0
499.0,600.0
491.0,527.0
489.0,469.0
500.0,525.0
474.0,579.0
470.0,590.0
493.0,516.0
516.0,505.0
452.0,447.0
450.0,403.0
479.0,455.0
505.0,507.0
505.0,492.0
528.0,488.0
562.0,496.0
557.0,488.0
516.0,518.0
500.0,557.0
542.0,490.0
593.0,460.0
646.0,473.0
551.0,511.0
428.0,504.0
387.0,515.0
521.0,539.0
605.0,482.0
509.0,411.0
521.0,447.0
508.0,546.0
442.0,526.0
340.0,485.0
391.0,498.0
509.0,510.0
577.0,527.0
518.0,500.0
555.0,434.0
434.0,445.0
494.0,505.0
525.0,576.0
552.0,598.0
571.0,522.0
424.0,448.0
423.0,439.0
485.0,475.0
452.0,479.0
415.0,475.0
407.0,528.0
356.0,557.0
484.0,501.0
588.0,512.0
634.0,615.0
650.0,640.0
673.0,521.0
627.0,416.0
606.0,412.0
559.0,448.0
481.0,537.0
382.0,509.0
224.0,484.0
280.0,432.0
424.0,461.0
550.0,522.0
562.0,512.0
565.0,508.0
549.0,520.0
562.0,514.0
545.0,521.0
522.0,545.0
445.0,534.0
410.0,468.0
416.0,421.0
463.0,478.0
511.0,494.0
512.0,530.0
518.0,555.0
500.0,507.0
466.0,461.0
529.0,496.0
493.0,553.0
497.0,492.0
528.0,473.0
526.0,467.0
581.0,569.0
566.0,550.0
488.0,491.0
460.0,441.0
429.0,465.0
450.0,507.0
554.0,511.0
661.0,494.0
580.0,497.0
409.0,508.0
477.0,520.0
521.0,488.0
480.0,491.0
381.0,512.0
488.0,505.0
603.0,537.0
611.0,564.0
591.0,561.0
553.0,542.0
555.0,547.0
525.0,474.0
439.0,462.0
458.0,470.0
446.0,486.0
430.0,491.0
473.0,457.0
498.0,458.0
464.0,478.0
504.0,494.0
599.0,497.0
572.0,527.0
532.0,493.0
506.0,496.0
477.0,505.0
479.0,524.0
496.0,537.0
507.0,534.0
508.0,501.0
493.0,534.0
533.0,523.0
578.0,452.0
604.0,456.0
601.0,546.0
507.0,575.0
481.0,540.0
405.0,458.0
456.0,465.0
465.0,486.0
436.0,492.0
503.0,509.0
489.0,507.0
399.0,555.0
431.0,581.0
510.0,534.0
509.0,409.0
580.0,385.0
572.0,494.0
611.0,525.0
641.0,511.0
582.0,458.0
433.0,471.0
458.0,497.0
473.0,531.0
508.0,530.0
490.0,463.0
460.0,513.0
563.0,496.0
615.0,468.0
549.0,501.0
434.0,514.0
442.0,520.0
511.0,490.0
509.0,506.0
470.0,563.0
485.0,564.0
524.0,526.0
520.0,513.0
460.0,500.0
367.0,494.0
367.0,434.0
490.0,473.0
615.0,504.0
639.0,488.0
551.0,499.0
517.0,504.0
548.0,496.0
567.0,513.0
534.0,521.0
536.0,496.0
498.0,509.0
432.0,561.0
487.0,543.0
546.0,456.0
549.0,483.0
494.0,504.0
491.0,491.0
491.0,492.0
520.0,508.0
572.0,553.0
603.0,665.0
571.0,689.0
576.0,486.0
510.0,362.0
378.0,440.0
388.0,494.0
480.0,497.0
504.0,480.0
509.0,453.0
543.0,484.0
506.0,497.0
388.0,496.0
458.0,501.0
529.0,499.0
491.0,491.0
462.0,511.0
451.0,500.0
549.0,478.0
642.0,497.0
686.0,509.0
577.0,513.0
427.0,517.0
379.0,509.0
433.0,499.0
427.0,461.0
600.0,491.0
541.0,532.0
572.0,564.0
562.0,538.0
544.0,518.0
518.0,509.0
539.0,503.0
473.0,485.0
500.0,521.0
426.0,493.0
424.0,455.0
498.0,467.0
516.0,502.0
507.0,530.0
507.0,538.0
502.0,528.0
486.0,530.0
513.0,522.0
549.0,505.0
528.0,465.0
508.0,469.0
417.0,474.0
465.0,487.0
517.0,513.0
525.0,518.0
515.0,493.0
489.0,506.0
588.0,564.0
629.0,575.0
612.0,500.0
422.0,462.0
359.0,468.0
383.0,501.0
468.0,510.0
607.0,505.0
616.0,492.0
588.0,489.0
557.0,507.0
463.0,511.0
422.0,467.0
462.0,480.0
502.0,531.0
473.0,536.0
463.0,494.0
440.0,504.0
469.0,484.0
586.0,526.0
644.0,558.0
643.0,482.0
619.0,437.0
474.0,471.0
395.0,480.0
468.0,496.0
471.0,507.0
471.0,498.0
520.0,491.0
636.0,498.0
586.0,517.0
480.0,537.0
502.0,534.0
552.0,542.0
560.0,560.0
453.0,529.0
377.0,451.0
448.0,474.0
581.0,555.0
609.0,547.0
556.0,482.0
427.0,481.0
449.0,502.0
498.0,500.0
451.0,438.0
481.0,451.0
508.0,486.0
531.0,499.0
563.0,482.0
601.0,501.0
612.0,500.0
603.0,505.0
578.0,495.0
435.0,501.0
397.0,523.0
386.0,558.0
432.0,489.0
383.0,475.0
424.0,500.0
495.0,513.0
565.0,481.0
530.0,483.0
530.0,511.0
492.0,510.0
495.0,562.0
537.0,571.0
509.0,475.0
524.0,449.0
537.0,540.0
559.0,557.0
554.0,508.0
559.0,490.0
542.0,537.0
534.0,521.0
475.0,473.0
460.0,441.0
494.0,507.0
409.0,506.0
531.0,465.0
574.0,459.0
574.0,499.0
603.0,530.0
546.0,512.0
464.0,529.0
508.0,517.0
552.0,477.0
568.0,486.0
491.0,506.0
420.0,499.0
405.0,507.0
521.0,490.0
530.0,489.0
512.0,488.0
534.0,496.0
493.0,503.0
481.0,514.0
524.0,515.0
577.0,497.0
526.0,549.0
558.0,570.0
492.0,491.0
416.0,523.0
468.0,540.0
480.0,465.0
445.0,429.0
481.0,479.0
534.0,486.0
559.0,487.0
472.0,490.0
502.0,480.0
518.0,480.0
595.0,512.0
550.0,532.0
491.0,514.0
513.0,474.0
573.0,522.0
568.0,515.0
495.0,486.0
445.0,608.0
476.0,609.0
500.0,513.0
522.0,399.0
507.0,466.0
487.0,490.0
463.0,495.0
474.0,497.0
451.0,474.0
535.0,485.0
590.0,497.0
506.0,486.0
446.0,518.0
448.0,534.0
554.0,530.0
568.0,497.0
569.0,527.0
571.0,521.0
597.0,471.0
514.0,486.0
532.0,506.0
548.0,538.0
467.0,555.0
431.0,482.0
485.0,451.0
540.0,480.0
579.0,509.0
584.0,471.0
506.0,454.0
483.0,486.0
529.0,509.0
523.0,527.0
554.0,510.0
514.0,520.0
420.0,529.0
391.0,549.0
477.0,511.0
490.0,509.0
501.0,519.0
510.0,484.0
488.0,445.0
467.0,476.0
399.0,487.0
397.0,499.0
459.0,513.0
508.0,493.0
590.0,476.0
587.0,487.0
537.0,513.0
532.0,518.0
508.0,520.0
498.0,521.0
549.0,504.0
558.0,486.0
565.0,490.0
551.0,500.0
516.0,501.0
447.0,499.0
499.0,495.0
535.0,488.0
506.0,484.0
462.0,507.0
451.0,514.0
502.0,526.0
523.0,531.0
541.0,517.0
547.0,485.0
515.0,496.0
496.0,503.0
512.0,507.0
496.0,500.0
508.0,477.0
549.0,484.0
532.0,530.0
553.0,519.0
546.0,470.0
476.0,475.0
466.0,498.0
433.0,517.0
540.0,532.0
533.0,505.0
557.0,507.0
546.0,502.0
546.0,499.0
482.0,507.0
449.0,562.0
532.0,569.0
538.0,486.0
508.0,429.0
509.0,488.0
485.0,487.0
481.0,488.0
496.0,492.0
470.0,493.0
445.0,485.0
513.0,478.0
522.0,492.0
541.0,516.0
542.0,524.0
552.0,516.0
546.0,495.0
535.0,513.0
495.0,529.0
479.0,518.0
511.0,487.0
570.0,494.0
543.0,498.0
468.0,483.0
431.0,485.0
439.0,471.0
499.0,480.0
583.0,523.0
551.0,557.0
514.0,540.0
507.0,489.0
503.0,524.0
481.0,523.0
511.0,468.0
538.0,480.0
524.0,487.0
537.0,488.0
507.0,495.0
496.0,512.0
502.0,532.0
489.0,510.0
474.0,471.0
504.0,483.0
495.0,514.0
563.0,524.0
564.0,489.0
551.0,464.0
516.0,507.0
521.0,510.0
522.0,503.0
513.0,501.0
441.0,517.0
384.0,532.0
450.0,533.0
521.0,506.0
550.0,511.0
518.0,487.0
472.0,487.0
507.0,491.0
537.0,490.0
515.0,506.0
506.0,500.0
515.0,463.0
491.0,496.0
496.0,487.0
503.0,490.0
499.0,494.0
474.0,505.0
413.0,513.0
507.0,506.0
550.0,506.0
532.0,499.0
512.0,492.0
485.0,489.0
491.0,488.0
502.0,495.0
507.0,498.0
519.0,493.0
521.0,503.0
536.0,502.0
593.0,519.0
610.0,539.0
616.0,562.0
498.0,545.0
510.0,502.0
619.0,450.0
595.0,457.0
455.0,492.0
455.0,501.0
372.0,527.0
424.0,532.0
465.0,484.0
476.0,443.0
522.0,501.0
508.0,501.0
509.0,505.0
515.0,517.0
465.0,502.0
427.0,507.0
442.0,519.0
538.0,535.0
607.0,523.0
630.0,463.0
608.0,489.0
528.0,517.0
457.0,515.0
479.0,489.0
493.0,520.0
495.0,515.0
501.0,480.0
496.0,465.0
507.0,487.0
586.0,509.0
636.0,512.0
554.0,510.0
454.0,502.0
467.0,500.0
531.0,500.0
512.0,494.0
507.0,497.0
494.0,517.0
496.0,534.0
517.0,508.0
522.0,473.0
501.0,448.0
496.0,480.0
485.0,486.0
489.0,499.0
495.0,503.0
453.0,497.0
458.0,514.0
522.0,531.0
517.0,525.0
557.0,507.0
554.0,474.0
521.0,498.0
513.0,521.0
482.0,525.0
498.0,505.0
512.0,480.0
539.0,481.0
575.0,553.0
565.0,560.0
512.0,509.0
434.0,471.0
465.0,497.0
490.0,497.0
501.0,492.0
507.0,499.0
498.0,504.0
524.0,494.0
528.0,511.0
532.0,533.0
521.0,533.0
521.0,487.0
500.0,486.0
540.0,491.0
499.0,490.0
539.0,465.0
526.0,489.0
458.0,507.0
486.0,503.0
521.0,484.0
519.0,504.0
537.0,505.0
537.0,489.0
485.0,488.0
390.0,483.0
404.0,482.0
506.0,496.0
586.0,510.0
594.0,528.0
542.0,528.0
516.0,516.0
489.0,497.0
485.0,496.0
524.0,485.0
526.0,500.0
526.0,499.0
497.0,511.0
484.0,515.0
502.0,527.0
502.0,504.0
507.0,500.0
527.0,482.0
585.0,499.0
594.0,521.0
479.0,487.0
503.0,483.0
530.0,482.0
578.0,499.0
583.0,499.0
571.0,492.0
437.0,498.0
431.0,486.0
483.0,499.0
515.0,520.0
532.0,520.0
528.0,516.0
522.0,519.0
529.0,524.0
546.0,507.0
531.0,509.0
493.0,502.0
463.0,501.0
470.0,500.0
478.0,518.0
500.0,515.0
493.0,504.0
490.0,483.0
488.0,484.0
495.0,493.0
480.0,514.0
509.0,553.0
558.0,548.0
553.0,532.0
533.0,534.0
545.0,498.0
562.0,437.0
505.0,460.0
455.0,489.0
510.0,522.0
503.0,533.0
471.0,496.0
474.0,493.0
497.0,459.0
504.0,477.0
520.0,477.0
535.0,480.0
541.0,505.0
546.0,534.0
527.0,528.0
512.0,503.0
509.0,483.0
483.0,531.0
482.0,513.0
495.0,483.0
473.0,494.0
407.0,504.0
430.0,493.0
498.0,489.0
545.0,493.0
587.0,500.0
580.0,496.0
580.0,503.0
508.0,495.0
523.0,516.0
556.0,513.0
569.0,533.0
566.0,567.0
531.0,546.0
517.0,487.0
513.0,469.0
480.0,470.0
508.0,477.0
466.0,484.0
480.0,496.0
512.0,508.0
536.0,490.0
452.0,476.0
460.0,484.0
494.0,516.0
491.0,527.0
492.0,507.0
498.0,499.0
517.0,516.0
538.0,500.0
508.0,516.0
470.0,507.0
476.0,495.0
483.0,509.0
502.0,496.0
495.0,498.0
540.0,500.0
553.0,496.0
495.0,481.0
502.0,484.0
520.0,492.0
530.0,506.0
538.0,508.0
531.0,509.0
510.0,514.0
516.0,513.0
525.0,514.0
467.0,515.0
415.0,515.0
467.0,503.0
526.0,483.0
646.0,484.0
685.0,485.0
661.0,486.0
580.0,493.0
461.0,499.0
278.0,508.0
446.0,519.0
543.0,524.0
531.0,536.0
472.0,527.0
482.0,488.0
508.0,495.0
524.0,507.0
507.0,508.0
485.0,525.0
488.0,514.0
493.0,517.0
510.0,484.0
509.0,479.0
507.0,497.0
504.0,484.0
486.0,505.0
493.0,502.0
508.0,487.0
515.0,507.0
519.0,514.0
521.0,512.0
515.0,519.0
493.0,509.0
489.0,484.0
501.0,489.0
506.0,507.0
505.0,497.0
502.0,500.0
490.0,491.0
493.0,488.0
507.0,493.0
494.0,488.0
506.0,503.0
505.0,507.0
521.0,496.0
539.0,509.0
558.0,525.0
567.0,526.0
541.0,507.0
493.0,486.0
463.0,503.0
477.0,504.0
464.0,494.0
541.0,491.0
528.0,505.0
501.0,509.0
487.0,516.0
502.0,488.0
504.0,477.0
503.0,495.0
506.0,497.0
523.0,503.0
526.0,517.0
518.0,522.0
536.0,523.0
537.0,510.0
515.0,495.0
494.0,507.0
499.0,501.0
484.0,504.0
499.0,497.0
516.0,482.0
508.0,481.0
504.0,491.0
474.0,494.0
500.0,490.0
526.0,496.0
535.0,499.0
543.0,516.0
551.0,512.0
562.0,515.0
554.0,513.0
534.0,506.0
521.0,525.0
478.0,515.0
441.0,498.0
479.0,501.0
503.0,512.0
529.0,505.0
529.0,494.0
509.0,495.0
518.0,497.0
532.0,499.0
528.0,505.0
503.0,507.0
500.0,509.0
525.0,534.0
516.0,521.0
550.0,505.0
574.0,495.0
556.0,522.0
501.0,523.0
458.0,500.0
469.0,472.0
483.0,476.0
490.0,485.0
487.0,485.0
489.0,488.0
492.0,492.0
500.0,488.0
522.0,499.0
534.0,507.0
537.0,509.0
518.0,516.0
500.0,514.0
495.0,509.0
494.0,502.0
518.0,506.0
502.0,507.0
503.0,501.0
505.0,502.0
482.0,497.0
505.0,484.0
522.0,486.0
526.0,500.0
533.0,495.0
514.0,496.0
516.0,498.0
514.0,506.0
526.0,504.0
518.0,511.0
519.0,513.0
513.0,512.0
517.0,500.0
508.0,501.0
500.0,507.0
512.0,499.0
509.0,493.0
506.0,492.0
491.0,490.0
487.0,491.0
469.0,504.0
494.0,506.0
519.0,491.0
527.0,502.0
523.0,513.0
524.0,510.0
536.0,515.0
525.0,511.0
518.0,513.0
515.0,507.0
506.0,506.0
499.0,503.0
498.0,505.0
499.0,492.0
493.0,487.0
504.0,495.0
498.0,493.0
496.0,497.0
502.0,499.0
522.0,497.0
526.0,500.0
532.0,511.0
525.0,510.0
513.0,506.0
512.0,517.0
521.0,508.0
502.0,498.0
491.0,493.0
494.0,501.0
493.0,508.0
498.0,498.0
509.0,491.0
509.0,491.0
517.0,491.0
527.0,497.0
518.0,495.0
529.0,508.0
532.0,513.0
524.0,504.0
517.0,509.0
533.0,513.0
519.0,513.0
508.0,506.0
505.0,509.0
518.0,502.0
510.0,505.0
511.0,499.0
505.0,498.0
488.0,492.0
503.0,493.0
513.0,495.0
519.0,502.0
520.0,500.0
523.0,507.0
521.0,510.0
518.0,515.0
520.0,514.0
512.0,512.0
502.0,505.0
495.0,505.0
496.0,501.0
499.0,506.0
496.0,503.0
502.0,495.0
508.0,490.0
503.0,494.0
506.0,489.0
509.0,496.0
501.0,495.0
516.0,505.0
515.0,511.0
514.0,514.0
501.0,501.0
498.0,509.0
506.0,510.0
502.0,507.0
512.0,506.0
523.0,509.0
525.0,494.0
513.0,496.0
508.0,487.0
495.0,491.0
495.0,497.0
492.0,492.0
508.0,502.0
521.0,502.0
535.0,514.0
526.0,510.0
535.0,513.0
527.0,510.0
520.0,509.0
511.0,507.0
501.0,522.0
497.0,508.0
503.0,502.0
514.0,496.0
517.0,493.0
517.0,499.0
503.0,500.0
512.0,496.0
507.0,497.0
505.0,494.0
514.0,499.0
526.0,507.0
523.0,510.0
524.0,506.0
527.0,513.0
529.0,513.0
522.0,511.0
501.0,514.0
511.0,499.0
506.0,497.0
509.0,501.0
492.0,504.0
497.0,490.0
504.0,496.0
496.0,497.0
509.0,498.0
511.0,495.0
525.0,503.0
525.0,506.0
520.0,514.0
525.0,515.0
521.0,513.0
516.0,512.0
514.0,502.0
494.0,508.0
502.0,505.0
501.0,496.0
504.0,491.0
505.0,500.0
508.0,500.0
509.0,494.0
504.0,496.0
498.0,494.0
506.0,499.0
517.0,508.0
522.0,511.0
527.0,514.0
521.0,514.0
516.0,513.0
510.0,512.0
509.0,506.0
501.0,504.0
501.0,501.0
495.0,501.0
491.0,493.0
493.0,493.0
508.0,494.0
516.0,480.0
521.0,495.0
526.0,501.0
528.0,500.0
538.0,507.0
528.0,509.0
522.0,515.0
511.0,508.0
503.0,505.0
502.0,513.0
500.0,507.0
498.0,502.0
508.0,502.0
512.0,499.0
500.0,501.0
502.0,494.0
503.0,492.0
500.0,489.0
508.0,496.0
520.0,497.0
525.0,501.0
533.0,511.0
537.0,515.0
536.0,512.0
524.0,515.0
509.0,507.0
501.0,511.0
497.0,499.0
490.0,498.0
492.0,495.0
487.0,501.0
488.0,495.0
479.0,497.0
489.0,495.0
496.0,490.0
510.0,490.0
529.0,503.0
522.0,502.0
523.0,508.0
522.0,515.0
521.0,517.0
522.0,516.0
518.0,511.0
504.0,517.0
506.0,501.0
510.0,502.0
507.0,499.0
506.0,498.0
494.0,501.0
501.0,489.0
493.0,494.0
490.0,495.0
499.0,494.0
512.0,508.0
518.0,505.0
526.0,512.0
526.0,515.0
522.0,512.0
529.0,519.0
517.0,512.0
512.0,505.0
509.0,497.0
502.0,493.0
497.0,499.0
496.0,498.0
494.0,498.0
497.0,493.0
495.0,484.0
500.0,500.0
500.0,501.0
513.0,499.0
527.0,508.0
526.0,508.0
523.0,512.0
522.0,518.0
519.0,511.0
501.0,506.0
504.0,500.0
507.0,497.0
508.0,503.0
507.0,498.0
492.0,500.0
491.0,499.0
491.0,489.0
500.0,486.0
506.0,500.0
514.0,503.0
516.0,508.0
531.0,512.0
523.0,510.0
517.0,513.0
517.0,511.0
514.0,514.0
508.0,507.0
501.0,507.0
502.0,505.0
502.0,494.0
499.0,498.0
499.0,495.0
489.0,497.0
492.0,489.0
496.0,497.0
501.0,499.0
511.0,505.0
518.0,509.0
524.0,511.0
524.0,510.0
523.0,514.0
519.0,513.0
512.0,508.0
499.0,514.0
497.0,501.0
487.0,500.0
498.0,494.0
506.0,496.0
498.0,490.0
496.0,493.0
496.0,487.0
505.0,491.0
503.0,495.0
516.0,503.0
520.0,509.0
525.0,509.0
520.0,512.0
517.0,511.0
510.0,500.0
498.0,507.0
493.0,510.0
489.0,504.0
482.0,508.0
496.0,502.0
508.0,494.0
513.0,490.0
520.0,493.0
515.0,494.0
508.0,493.0
516.0,504.0
515.0,506.0
520.0,513.0
527.0,514.0
520.0,514.0
513.0,517.0
508.0,510.0
504.0,507.0
502.0,509.0
515.0,505.0
499.0,506.0
500.0,489.0
503.0,493.0
495.0,497.0
494.0,499.0
501.0,496.0
508.0,501.0
509.0,501.0
514.0,504.0
524.0,513.0
525.0,508.0
518.0,512.0
519.0,514.0
519.0,509.0
508.0,501.0
507.0,505.0
505.0,503.0
496.0,507.0
495.0,501.0
486.0,501.0
485.0,495.0
496.0,496.0
503.0,496.0
507.0,495.0
507.0,503.0
516.0,505.0
525.0,518.0
526.0,514.0
520.0,514.0
511.0,507.0
513.0,513.0
510.0,507.0
497.0,498.0
499.0,504.0
501.0,495.0
499.0,491.0
494.0,488.0
501.0,491.0
501.0,493.0
504.0,496.0
501.0,498.0
517.0,507.0
519.0,510.0
523.0,515.0
513.0,512.0
514.0,513.0
511.0,507.0
506.0,501.0
507.0,505.0
506.0,508.0
507.0,501.0
499.0,491.0
495.0,495.0
495.0,495.0
501.0,495.0
488.0,497.0
505.0,500.0
512.0,504.0
514.0,504.0
521.0,512.0
518.0,508.0
514.0,507.0
515.0,507.0
513.0,516.0
506.0,501.0
510.0,504.0
502.0,503.0
501.0,498.0
500.0,492.0
507.0,490.0
495.0,500.0
506.0,492.0
499.0,498.0
502.0,498.0
515.0,504.0
520.0,509.0
521.0,515.0
519.0,511.0
517.0,514.0
519.0,513.0
510.0,509.0
504.0,505.0
504.0,504.0
500.0,504.0
499.0,504.0
493.0,506.0
490.0,500.0
498.0,491.0
499.0,489.0
498.0,495.0
514.0,502.0
513.0,505.0
516.0,506.0
515.0,508.0
518.0,513.0
513.0,508.0
506.0,509.0
502.0,503.0
508.0,506.0
508.0,506.0
508.0,504.0
499.0,505.0
498.0,493.0
495.0,488.0
499.0,493.0
501.0,488.0
502.0,492.0
518.0,506.0
521.0,509.0
525.0,512.0
522.0,514.0
518.0,513.0
519.0,508.0
513.0,512.0
489.0,513.0
499.0,507.0
493.0,510.0
501.0,498.0
499.0,499.0
501.0,494.0
501.0,491.0
494.0,491.0
500.0,496.0
502.0,499.0
516.0,504.0
527.0,507.0
528.0,508.0
526.0,510.0
521.0,512.0
515.0,508.0
511.0,509.0
503.0,508.0
497.0,509.0
503.0,503.0
504.0,499.0
504.0,495.0
500.0,494.0
509.0,491.0
511.0,491.0
507.0,491.0
516.0,496.0
513.0,502.0
517.0,514.0
517.0,513.0
516.0,509.0
521.0,510.0
512.0,499.0
509.0,507.0
501.0,510.0
502.0,504.0
507.0,501.0
509.0,499.0
497.0,499.0
502.0,491.0
500.0,497.0
503.0,492.0
515.0,500.0
517.0,508.0
522.0,509.0
515.0,506.0
525.0,518.0
521.0,515.0
513.0,514.0
501.0,507.0
499.0,510.0
503.0,500.0
502.0,497.0
500.0,496.0
502.0,498.0
501.0,495.0
493.0,498.0
501.0,493.0
496.0,495.0
503.0,499.0
517.0,506.0
514.0,500.0
527.0,513.0
524.0,515.0
521.0,516.0
515.0,510.0
509.0,512.0
500.0,508.0
506.0,496.0
495.0,498.0
505.0,502.0
499.0,491.0
506.0,495.0
500.0,492.0
491.0,499.0
500.0,500.0
510.0,505.0
518.0,509.0
516.0,510.0
526.0,515.0
523.0,514.0
517.0,511.0
516.0,513.0
511.0,508.0
504.0,505.0
497.0,507.0
508.0,503.0
503.0,498.0
504.0,496.0
497.0,497.0
499.0,489.0
502.0,495.0
503.0,499.0
517.0,492.0
517.0,505.0
524.0,510.0
531.0,514.0
525.0,512.0
523.0,509.0
514.0,512.0
511.0,506.0
496.0,506.0
500.0,504.0
504.0,496.0
502.0,495.0
502.0,495.0
503.0,494.0
500.0,489.0
504.0,491.0
510.0,501.0
515.0,505.0
523.0,509.0
524.0,508.0
523.0,515.0
520.0,511.0
512.0,503.0
511.0,503.0
505.0,497.0
505.0,497.0
504.0,493.0
505.0,497.0
506.0,496.0
503.0,494.0
489.0,496.0
495.0,500.0
501.0,495.0
510.0,499.0
513.0,507.0
525.0,504.0
526.0,514.0
526.0,514.0
520.0,515.0
511.0,510.0
510.0,509.0
506.0,501.0
506.0,494.0
508.0,500.0
500.0,502.0
502.0,493.0
505.0,493.0
494.0,497.0
497.0,491.0
507.0,497.0
516.0,504.0
517.0,508.0
525.0,513.0
520.0,514.0
515.0,514.0
516.0,514.0
510.0,512.0
501.0,510.0
506.0,504.0
509.0,502.0
507.0,499.0
505.0,498.0
504.0,495.0
500.0,493.0
503.0,489.0
514.0,490.0
514.0,499.0
528.0,505.0
529.0,510.0
526.0,513.0
517.0,510.0
515.0,512.0
510.0,507.0
509.0,506.0
512.0,506.0
505.0,505.0
498.0,504.0
498.0,502.0
502.0,497.0
493.0,496.0
491.0,496.0
500.0,493.0
506.0,493.0
514.0,501.0
516.0,499.0
524.0,505.0
525.0,514.0
524.0,513.0
514.0,509.0
519.0,511.0
514.0,511.0
508.0,504.0
508.0,502.0
511.0,500.0
507.0,497.0
500.0,496.0
494.0,496.0
492.0,498.0
503.0,494.0
510.0,498.0
505.0,500.0
522.0,509.0
521.0,504.0
522.0,513.0
525.0,513.0
519.0,512.0
512.0,509.0
508.0,507.0
500.0,508.0
502.0,505.0
493.0,506.0
493.0,503.0
500.0,482.0
502.0,492.0
497.0,486.0
502.0,488.0
503.0,499.0
515.0,497.0
519.0,505.0
530.0,513.0
524.0,514.0
522.0,516.0
515.0,512.0
513.0,504.0
514.0,506.0
516.0,504.0
507.0,503.0
503.0,492.0
502.0,491.0
501.0,493.0
498.0,485.0
494.0,493.0
500.0,490.0
500.0,502.0
513.0,505.0
520.0,511.0
512.0,512.0
515.0,506.0
517.0,508.0
511.0,510.0
498.0,506.0
500.0,507.0
503.0,503.0
501.0,492.0
496.0,495.0
502.0,490.0
500.0,484.0
507.0,492.0
508.0,496.0
508.0,498.0
515.0,503.0
517.0,502.0
527.0,510.0
521.0,511.0
521.0,514.0
518.0,509.0
508.0,510.0
500.0,514.0
505.0,492.0
504.0,497.0
497.0,495.0
502.0,487.0
500.0,497.0
498.0,488.0
503.0,492.0
505.0,495.0
507.0,495.0
509.0,497.0
518.0,506.0
526.0,511.0
521.0,500.0
514.0,510.0
516.0,512.0
508.0,502.0
509.0,504.0
505.0,493.0
505.0,503.0
502.0,484.0
499.0,488.0
489.0,498.0
490.0,498.0
500.0,488.0
505.0,497.0
511.0,501.0
521.0,506.0
524.0,509.0
526.0,505.0
520.0,513.0
522.0,512.0
499.0,507.0
508.0,510.0
504.0,505.0
505.0,505.0
502.0,502.0
506.0,497.0
502.0,495.0
499.0,492.0
497.0,496.0
503.0,491.0
506.0,501.0
506.0,501.0
522.0,506.0
522.0,505.0
515.0,506.0
511.0,510.0
511.0,511.0
505.0,509.0
503.0,500.0
501.0,505.0
501.0,503.0
501.0,498.0
505.0,496.0
499.0,494.0
500.0,492.0
492.0,493.0
502.0,500.0
504.0,496.0
510.0,503.0
519.0,508.0
526.0,508.0
517.0,514.0
516.0,507.0
508.0,508.0
501.0,511.0
505.0,505.0
505.0,503.0
506.0,501.0
504.0,501.0
501.0,497.0
498.0,492.0
501.0,492.0
498.0,484.0
499.0,493.0
501.0,497.0
522.0,506.0
522.0,507.0
527.0,514.0
522.0,509.0
520.0,509.0
507.0,514.0
501.0,507.0
502.0,509.0
506.0,504.0
502.0,505.0
506.0,501.0
498.0,497.0
496.0,497.0
494.0,489.0
499.0,486.0
506.0,493.0
512.0,499.0
520.0,504.0
519.0,509.0
525.0,517.0
523.0,514.0
514.0,509.0
513.0,512.0
507.0,504.0
500.0,508.0
508.0,503.0
505.0,496.0
503.0,495.0
501.0,495.0
501.0,493.0
500.0,495.0
491.0,498.0
500.0,495.0
508.0,497.0
517.0,505.0
519.0,506.0
522.0,512.0
524.0,514.0
514.0,508.0
507.0,515.0
505.0,501.0
493.0,506.0
499.0,506.0
495.0,505.0
496.0,504.0
491.0,499.0
499.0,484.0
497.0,490.0
502.0,494.0
506.0,504.0
510.0,502.0
517.0,507.0
524.0,509.0
527.0,515.0
523.0,511.0
510.0,506.0
517.0,507.0
509.0,504.0
507.0,506.0
508.0,500.0
507.0,498.0
502.0,502.0
503.0,495.0
497.0,496.0
506.0,488.0
513.0,500.0
514.0,502.0
527.0,509.0
529.0,512.0
530.0,511.0
514.0,514.0
513.0,510.0
504.0,508.0
503.0,509.0
502.0,502.0
498.0,498.0
499.0,498.0
500.0,495.0
498.0,486.0
496.0,491.0
498.0,494.0
500.0,489.0
510.0,498.0
513.0,497.0
519.0,507.0
520.0,504.0
527.0,514.0
523.0,513.0
519.0,510.0
511.0,504.0
502.0,505.0
512.0,498.0
511.0,503.0
504.0,493.0
505.0,490.0
506.0,489.0
504.0,493.0
503.0,496.0
510.0,483.0
512.0,502.0
523.0,507.0
520.0,506.0
520.0,514.0
518.0,511.0
517.0,510.0
515.0,507.0
508.0,503.0
502.0,509.0
502.0,509.0
506.0,501.0
502.0,498.0
503.0,494.0
499.0,492.0
496.0,490.0
500.0,495.0
505.0,493.0
507.0,499.0
520.0,510.0
521.0,508.0
525.0,514.0
522.0,510.0
517.0,507.0
512.0,515.0
508.0,510.0
507.0,502.0
499.0,505.0
504.0,500.0
503.0,491.0
499.0,493.0
497.0,485.0
501.0,492.0
502.0,489.0
506.0,500.0
518.0,505.0
522.0,508.0
526.0,514.0
525.0,505.0
513.0,514.0
520.0,514.0
510.0,511.0
499.0,515.0
500.0,508.0
508.0,503.0
503.0,503.0
494.0,503.0
493.0,494.0
497.0,491.0
496.0,494.0
505.0,491.0
507.0,499.0
519.0,504.0
525.0,504.0
528.0,509.0
522.0,514.0
520.0,513.0
511.0,511.0
509.0,509.0
496.0,509.0
505.0,507.0
503.0,496.0
497.0,501.0
494.0,503.0
491.0,497.0
489.0,499.0
497.0,500.0
503.0,492.0
504.0,496.0
519.0,503.0
525.0,509.0
530.0,515.0
521.0,508.0
521.0,516.0
517.0,514.0
514.0,511.0
507.0,503.0
502.0,494.0
501.0,499.0
489.0,498.0
498.0,496.0
502.0,489.0
500.0,493.0
504.0,496.0
505.0,493.0
516.0,506.0
521.0,507.0
526.0,518.0
517.0,503.0
521.0,515.0
508.0,511.0
507.0,511.0
507.0,502.0
505.0,504.0
506.0,505.0
508.0,501.0
508.0,499.0
494.0,500.0
489.0,501.0
500.0,494.0
509.0,499.0
508.0,502.0
517.0,497.0
518.0,506.0
527.0,514.0
519.0,514.0
515.0,513.0
510.0,504.0
511.0,503.0
500.0,509.0
510.0,508.0
499.0,496.0
506.0,505.0
507.0,491.0
503.0,490.0
497.0,497.0
497.0,496.0
503.0,499.0
505.0,503.0
518.0,505.0
522.0,510.0
525.0,509.0
520.0,509.0
519.0,514.0
514.0,514.0
507.0,501.0
500.0,509.0
507.0,505.0
509.0,502.0
498.0,502.0
501.0,494.0
496.0,488.0
497.0,495.0
506.0,496.0
510.0,494.0
517.0,505.0
526.0,509.0
530.0,514.0
525.0,517.0
512.0,507.0
512.0,510.0
502.0,508.0
511.0,505.0
505.0,507.0
503.0,491.0
495.0,493.0
500.0,490.0
491.0,498.0
494.0,496.0
497.0,490.0
502.0,494.0
503.0,496.0
515.0,502.0
523.0,511.0
519.0,501.0
523.0,514.0
519.0,511.0
521.0,513.0
505.0,505.0
509.0,502.0
498.0,507.0
501.0,496.0
501.0,497.0
501.0,494.0
499.0,495.0
497.0,497.0
505.0,495.0
503.0,503.0
513.0,502.0
518.0,506.0
525.0,510.0
524.0,513.0
522.0,502.0
519.0,512.0
514.0,512.0
505.0,497.0
505.0,505.0
507.0,501.0
506.0,500.0
504.0,493.0
505.0,494.0
502.0,493.0
495.0,495.0
501.0,497.0
511.0,497.0
515.0,498.0
517.0,502.0
530.0,514.0
521.0,509.0
518.0,510.0
522.0,512.0
510.0,510.0
508.0,503.0
506.0,497.0
501.0,505.0
507.0,499.0
499.0,500.0
497.0,500.0
498.0,486.0
490.0,499.0
502.0,494.0
509.0,499.0
519.0,507.0
526.0,509.0
520.0,509.0
529.0,514.0
519.0,510.0
516.0,511.0
510.0,509.0
509.0,505.0
507.0,507.0
508.0,486.0
502.0,494.0
505.0,487.0
502.0,489.0
500.0,496.0
501.0,501.0
509.0,498.0
511.0,503.0
517.0,503.0
525.0,499.0
528.0,514.0
519.0,512.0
514.0,512.0
509.0,512.0
503.0,511.0
506.0,504.0
509.0,501.0
504.0,501.0
503.0,491.0
503.0,495.0
500.0,495.0
496.0,489.0
504.0,497.0
503.0,492.0
518.0,505.0
523.0,508.0
528.0,512.0
520.0,508.0
523.0,514.0
514.0,512.0
513.0,499.0
506.0,513.0
508.0,508.0
512.0,502.0
504.0,500.0
502.0,484.0
500.0,492.0
498.0,497.0
509.0,495.0
508.0,495.0
516.0,503.0
525.0,507.0
531.0,515.0
532.0,514.0
528.0,506.0
512.0,511.0
508.0,508.0
502.0,515.0
504.0,504.0
505.0,502.0
505.0,499.0
501.0,501.0
500.0,502.0
490.0,499.0
500.0,487.0
505.0,494.0
509.0,489.0
504.0,498.0
522.0,508.0
529.0,513.0
526.0,512.0
514.0,511.0
522.0,513.0
514.0,510.0
502.0,505.0
490.0,505.0
502.0,506.0
504.0,500.0
504.0,499.0
503.0,496.0
501.0,495.0
498.0,494.0
503.0,503.0
508.0,498.0
513.0,503.0
523.0,510.0
528.0,514.0
517.0,508.0
522.0,515.0
512.0,513.0
507.0,506.0
512.0,506.0
507.0,497.0
503.0,504.0
510.0,500.0
504.0,498.0
500.0,495.0
496.0,493.0
501.0,494.0
502.0,491.0
510.0,502.0
514.0,503.0
521.0,514.0
523.0,518.0
523.0,514.0
512.0,510.0
516.0,514.0
508.0,507.0
505.0,509.0
511.0,505.0
509.0,502.0
502.0,498.0
503.0,501.0
500.0,485.0
500.0,493.0
503.0,494.0
500.0,498.0
511.0,506.0
514.0,503.0
529.0,509.0
527.0,516.0
522.0,518.0
520.0,509.0
509.0,509.0
506.0,512.0
511.0,505.0
505.0,503.0
506.0,498.0
505.0,499.0
509.0,496.0
495.0,498.0
490.0,488.0
492.0,496.0
504.0,496.0
509.0,500.0
519.0,505.0
524.0,515.0
528.0,514.0
519.0,514.0
513.0,511.0
504.0,509.0
503.0,500.0
502.0,498.0
506.0,497.0
501.0,493.0
503.0,497.0
496.0,500.0
498.0,499.0
504.0,488.0
500.0,499.0
506.0,495.0
518.0,507.0
524.0,514.0
522.0,506.0
524.0,510.0
516.0,509.0
517.0,512.0
509.0,508.0
500.0,513.0
500.0,509.0
503.0,504.0
496.0,505.0
500.0,504.0
494.0,491.0
501.0,493.0
508.0,495.0
509.0,497.0
513.0,504.0
518.0,502.0
527.0,512.0
525.0,512.0
521.0,510.0
512.0,508.0
512.0,512.0
512.0,503.0
509.0,502.0
511.0,505.0
509.0,498.0
514.0,498.0
504.0,496.0
498.0,488.0
497.0,493.0
494.0,488.0
505.0,498.0
508.0,499.0
518.0,507.0
527.0,509.0
524.0,518.0
523.0,513.0
513.0,509.0
518.0,509.0
508.0,505.0
503.0,502.0
499.0,495.0
496.0,499.0
497.0,497.0
498.0,495.0
499.0,494.0
492.0,495.0
499.0,497.0
512.0,502.0
513.0,508.0
521.0,506.0
526.0,513.0
523.0,505.0
516.0,510.0
513.0,514.0
503.0,508.0
510.0,505.0
510.0,503.0
512.0,501.0
501.0,503.0
496.0,504.0
495.0,498.0
500.0,497.0
499.0,498.0
510.0,498.0
516.0,500.0
516.0,499.0
524.0,510.0
526.0,514.0
519.0,515.0
517.0,511.0
517.0,507.0
508.0,515.0
510.0,500.0
508.0,494.0
508.0,498.0
510.0,497.0
497.0,499.0
495.0,490.0
503.0,493.0
503.0,494.0
510.0,500.0
515.0,502.0
511.0,501.0
527.0,513.0
528.0,508.0
522.0,509.0
510.0,508.0
500.0,505.0
504.0,501.0
506.0,505.0
507.0,500.0
512.0,499.0
499.0,495.0
505.0,495.0
505.0,493.0
503.0,493.0
500.0,490.0
508.0,501.0
517.0,505.0
525.0,510.0
519.0,511.0
523.0,513.0
525.0,514.0
513.0,499.0
516.0,504.0
511.0,506.0
500.0,508.0
497.0,504.0
492.0,503.0
498.0,494.0
498.0,495.0
498.0,490.0
506.0,494.0
507.0,499.0
514.0,497.0
519.0,509.0
519.0,510.0
526.0,514.0
522.0,513.0
520.0,513.0
514.0,509.0
508.0,506.0
507.0,496.0
502.0,507.0
508.0,503.0
505.0,503.0
503.0,496.0
506.0,491.0
505.0,496.0
507.0,498.0
505.0,496.0
517.0,505.0
522.0,507.0
532.0,509.0
529.0,515.0
519.0,515.0
518.0,513.0
514.0,509.0
502.0,511.0
509.0,504.0
506.0,503.0
505.0,491.0
501.0,502.0
500.0,495.0
495.0,497.0
501.0,493.0
503.0,490.0
509.0,503.0
516.0,501.0
529.0,506.0
535.0,514.0
528.0,509.0
518.0,511.0
516.0,512.0
507.0,502.0
501.0,502.0
508.0,503.0
506.0,502.0
507.0,496.0
502.0,501.0
500.0,491.0
500.0,496.0
489.0,496.0
504.0,495.0
514.0,504.0
519.0,505.0
526.0,505.0
524.0,513.0
526.0,514.0
522.0,513.0
506.0,503.0
502.0,515.0
503.0,507.0
503.0,503.0
505.0,499.0
514.0,499.0
505.0,496.0
501.0,496.0
496.0,495.0
485.0,499.0
499.0,497.0
501.0,506.0
510.0,501.0
516.0,508.0
523.0,508.0
516.0,505.0
517.0,510.0
506.0,511.0
508.0,505.0
495.0,510.0
498.0,499.0
503.0,500.0
496.0,501.0
499.0,487.0
501.0,492.0
507.0,492.0
502.0,495.0
508.0,494.0
516.0,506.0
516.0,505.0
528.0,507.0
523.0,513.0
520.0,517.0
514.0,513.0
517.0,511.0
502.0,510.0
507.0,501.0
507.0,501.0
500.0,506.0
503.0,501.0
497.0,496.0
495.0,497.0
500.0,493.0
507.0,492.0
509.0,498.0
519.0,508.0
523.0,508.0
519.0,511.0
517.0,508.0
523.0,513.0
513.0,508.0
511.0,507.0
504.0,498.0
509.0,499.0
502.0,504.0
508.0,500.0
509.0,496.0
490.0,490.0
479.0,498.0
504.0,495.0
509.0,501.0
515.0,503.0
519.0,507.0
525.0,515.0
525.0,514.0
516.0,517.0
517.0,510.0
504.0,516.0
507.0,508.0
502.0,507.0
498.0,507.0
498.0,498.0
503.0,498.0
498.0,499.0
497.0,493.0
498.0,493.0
496.0,496.0
511.0,500.0
511.0,501.0
517.0,501.0
523.0,510.0
522.0,511.0
514.0,508.0
521.0,512.0
512.0,510.0
510.0,508.0
505.0,496.0
509.0,501.0
498.0,502.0
503.0,496.0
487.0,499.0
499.0,489.0
504.0,493.0
498.0,496.0
513.0,504.0
520.0,507.0
528.0,512.0
532.0,515.0
527.0,515.0
519.0,514.0
515.0,511.0
502.0,513.0
506.0,507.0
508.0,497.0
506.0,505.0
501.0,494.0
500.0,496.0
494.0,489.0
495.0,498.0
511.0,496.0
510.0,503.0
517.0,498.0
529.0,504.0
523.0,510.0
523.0,512.0
514.0,506.0
514.0,514.0
504.0,507.0
502.0,510.0
505.0,506.0
501.0,504.0
506.0,496.0
505.0,498.0
506.0,494.0
507.0,488.0
503.0,489.0
501.0,496.0
497.0,493.0
517.0,505.0
519.0,506.0
524.0,514.0
530.0,514.0
517.0,509.0
514.0,513.0
511.0,509.0
505.0,506.0
511.0,506.0
498.0,506.0
505.0,494.0
500.0,498.0
492.0,493.0
498.0,495.0
492.0,502.0
507.0,492.0
512.0,502.0
519.0,495.0
525.0,512.0
525.0,514.0
523.0,514.0
520.0,517.0
508.0,503.0
508.0,505.0
499.0,508.0
508.0,497.0
504.0,501.0
498.0,501.0
502.0,487.0
500.0,495.0
500.0,497.0
493.0,498.0
510.0,492.0
507.0,501.0
525.0,506.0
527.0,512.0
526.0,511.0
521.0,511.0
519.0,510.0
517.0,510.0
507.0,503.0
511.0,504.0
505.0,502.0
501.0,503.0
499.0,495.0
501.0,491.0
497.0,492.0
493.0,499.0
496.0,492.0
508.0,502.0
513.0,503.0
515.0,508.0
527.0,512.0
526.0,516.0
516.0,511.0
517.0,514.0
519.0,509.0
510.0,506.0
508.0,503.0
502.0,504.0
494.0,502.0
504.0,492.0
499.0,483.0
498.0,490.0
493.0,487.0
500.0,496.0
503.0,496.0
523.0,507.0
521.0,507.0
526.0,512.0
523.0,516.0
514.0,508.0
515.0,510.0
514.0,508.0
505.0,496.0
503.0,500.0
505.0,498.0
507.0,498.0
500.0,497.0
493.0,498.0
500.0,485.0
495.0,493.0
511.0,493.0
516.0,503.0
523.0,510.0
521.0,505.0
520.0,508.0
516.0,508.0
513.0,509.0
514.0,510.0
510.0,504.0
503.0,507.0
499.0,509.0
505.0,492.0
508.0,496.0
501.0,496.0
505.0,493.0
502.0,493.0
499.0,489.0
501.0,492.0
515.0,503.0
521.0,509.0
526.0,512.0
527.0,514.0
524.0,511.0
519.0,511.0
518.0,509.0
504.0,507.0
505.0,504.0
504.0,505.0
504.0,495.0
502.0,491.0
505.0,495.0
503.0,492.0
511.0,493.0
515.0,496.0
526.0,502.0
520.0,500.0
532.0,505.0
529.0,512.0
512.0,507.0
515.0,512.0
508.0,509.0
504.0,502.0
493.0,501.0
500.0,496.0
494.0,491.0
495.0,495.0
504.0,496.0
493.0,495.0
498.0,491.0
500.0,490.0
501.0,494.0
514.0,502.0
521.0,507.0
529.0,513.0
528.0,509.0
524.0,509.0
521.0,514.0
510.0,505.0
505.0,510.0
509.0,499.0
508.0,499.0
502.0,496.0
497.0,503.0
499.0,491.0
506.0,492.0
501.0,484.0
507.0,497.0
507.0,492.0
505.0,499.0
518.0,511.0
515.0,509.0
518.0,507.0
520.0,507.0
511.0,507.0
517.0,509.0
500.0,503.0
507.0,506.0
503.0,505.0
484.0,501.0
501.0,492.0
498.0,498.0
503.0,494.0
504.0,495.0
508.0,496.0
508.0,503.0
516.0,503.0
525.0,513.0
524.0,511.0
518.0,505.0
520.0,506.0
519.0,512.0
509.0,502.0
500.0,507.0
502.0,500.0
502.0,497.0
504.0,497.0
494.0,498.0
499.0,491.0
499.0,494.0
499.0,489.0
505.0,491.0
517.0,503.0
515.0,502.0
523.0,505.0
524.0,514.0
523.0,514.0
515.0,509.0
501.0,503.0
509.0,508.0
512.0,504.0
503.0,493.0
507.0,500.0
506.0,497.0
497.0,500.0
490.0,494.0
503.0,493.0
505.0,501.0
507.0,496.0
515.0,501.0
524.0,505.0
526.0,517.0
526.0,517.0
522.0,514.0
517.0,512.0
508.0,513.0
506.0,500.0
505.0,499.0
505.0,495.0
505.0,499.0
499.0,501.0
502.0,492.0
501.0,493.0
507.0,494.0
505.0,500.0
510.0,498.0
517.0,506.0
525.0,513.0
525.0,516.0
522.0,511.0
512.0,509.0
517.0,516.0
514.0,512.0
511.0,505.0
507.0,503.0
508.0,501.0
504.0,502.0
494.0,493.0
501.0,493.0
499.0,491.0
504.0,494.0
504.0,498.0
515.0,504.0
520.0,510.0
529.0,513.0
528.0,513.0
523.0,510.0
522.0,511.0
516.0,518.0
508.0,508.0
493.0,510.0
502.0,503.0
502.0,490.0
499.0,497.0
490.0,490.0
500.0,493.0
497.0,495.0
502.0,498.0
499.0,498.0
512.0,492.0
522.0,503.0
530.0,513.0
528.0,514.0
527.0,515.0
521.0,513.0
510.0,508.0
500.0,498.0
499.0,498.0
499.0,492.0
502.0,499.0
494.0,502.0
496.0,487.0
497.0,497.0
500.0,497.0
505.0,498.0
504.0,498.0
519.0,507.0
521.0,508.0
530.0,514.0
524.0,514.0
519.0,516.0
514.0,510.0
510.0,507.0
497.0,510.0
503.0,501.0
510.0,500.0
493.0,495.0
503.0,495.0
491.0,500.0
495.0,489.0
496.0,501.0
511.0,498.0
515.0,494.0
525.0,508.0
527.0,505.0
525.0,508.0
521.0,506.0
513.0,504.0
508.0,503.0
501.0,510.0
502.0,506.0
498.0,501.0
506.0,498.0
499.0,497.0
489.0,492.0
490.0,487.0
503.0,492.0
500.0,490.0
507.0,496.0
515.0,505.0
524.0,509.0
524.0,511.0
521.0,502.0
517.0,509.0
513.0,501.0
500.0,504.0
504.0,505.0
505.0,502.0
503.0,496.0
502.0,496.0
500.0,488.0
501.0,493.0
497.0,488.0
493.0,492.0
507.0,497.0
513.0,504.0
518.0,504.0
522.0,507.0
522.0,514.0
520.0,504.0
521.0,507.0
516.0,512.0
515.0,501.0
513.0,499.0
498.0,493.0
498.0,493.0
499.0,495.0
502.0,495.0
502.0,492.0
496.0,492.0
498.0,492.0
506.0,496.0
513.0,501.0
519.0,502.0
524.0,511.0
526.0,514.0
522.0,512.0
519.0,513.0
506.0,506.0
503.0,510.0
497.0,507.0
503.0,497.0
509.0,499.0
491.0,492.0
502.0,494.0
495.0,500.0
503.0,495.0
503.0,493.0
509.0,496.0
516.0,506.0
523.0,509.0
519.0,509.0
518.0,511.0
517.0,509.0
519.0,508.0
514.0,508.0
506.0,495.0
505.0,504.0
505.0,501.0
506.0,503.0
501.0,502.0
506.0,494.0
490.0,487.0
501.0,493.0
502.0,493.0
509.0,501.0
517.0,507.0
522.0,511.0
524.0,514.0
531.0,515.0
524.0,513.0
514.0,506.0
516.0,509.0
508.0,502.0
495.0,501.0
493.0,498.0
502.0,489.0
499.0,498.0
496.0,491.0
490.0,495.0
502.0,493.0
503.0,496.0
511.0,500.0
511.0,507.0
518.0,505.0
520.0,508.0
517.0,514.0
518.0,512.0
510.0,512.0
507.0,510.0
506.0,504.0
506.0,496.0
503.0,504.0
506.0,497.0
500.0,499.0
500.0,485.0
488.0,497.0
498.0,498.0
500.0,495.0
513.0,504.0
514.0,502.0
526.0,515.0
527.0,515.0
520.0,516.0
517.0,510.0
510.0,511.0
501.0,510.0
503.0,496.0
506.0,501.0
503.0,502.0
501.0,496.0
500.0,492.0
494.0,496.0
496.0,501.0
500.0,493.0
509.0,497.0
514.0,503.0
527.0,509.0
529.0,507.0
524.0,513.0
515.0,511.0
514.0,511.0
506.0,514.0
506.0,503.0
501.0,504.0
507.0,499.0
498.0,500.0
499.0,498.0
499.0,489.0
499.0,486.0
499.0,493.0
504.0,502.0
512.0,500.0
519.0,509.0
525.0,510.0
525.0,515.0
515.0,506.0
517.0,511.0
505.0,503.0
509.0,506.0
495.0,510.0
507.0,506.0
503.0,496.0
508.0,498.0
502.0,485.0
493.0,497.0
501.0,492.0
506.0,488.0
511.0,500.0
518.0,504.0
524.0,502.0
520.0,510.0
520.0,511.0
515.0,508.0
513.0,503.0
509.0,505.0
510.0,506.0
508.0,498.0
506.0,506.0
495.0,501.0
506.0,493.0
498.0,503.0
502.0,493.0
503.0,492.0
506.0,495.0
511.0,499.0
512.0,496.0
524.0,501.0
517.0,507.0
514.0,509.0
520.0,511.0
514.0,503.0
509.0,500.0
502.0,508.0
502.0,498.0
504.0,492.0
507.0,498.0
502.0,492.0
498.0,495.0
501.0,492.0
501.0,497.0
512.0,497.0
515.0,504.0
521.0,508.0
528.0,510.0
530.0,513.0
525.0,517.0
514.0,510.0
515.0,517.0
506.0,507.0
511.0,502.0
510.0,501.0
506.0,503.0
503.0,485.0
501.0,496.0
507.0,493.0
503.0,496.0
501.0,498.0
505.0,500.0
505.0,492.0
520.0,508.0
524.0,511.0
526.0,514.0
516.0,500.0
515.0,512.0
511.0,505.0
497.0,511.0
507.0,505.0
498.0,502.0
508.0,498.0
501.0,497.0
501.0,496.0
491.0,497.0
499.0,485.0
505.0,490.0
512.0,499.0
515.0,502.0
523.0,505.0
522.0,506.0
525.0,506.0
514.0,508.0
506.0,504.0
510.0,507.0
501.0,505.0
504.0,500.0
504.0,497.0
507.0,498.0
499.0,500.0
500.0,490.0
506.0,488.0
508.0,493.0
508.0,499.0
515.0,503.0
520.0,509.0
517.0,507.0
521.0,513.0
517.0,509.0
518.0,507.0
511.0,512.0
509.0,507.0
501.0,508.0
500.0,504.0
505.0,496.0
500.0,502.0
500.0,488.0
501.0,493.0
499.0,491.0
505.0,496.0
506.0,491.0
512.0,497.0
524.0,508.0
527.0,510.0
526.0,511.0
522.0,513.0
521.0,509.0
506.0,501.0
507.0,508.0
511.0,503.0
508.0,501.0
506.0,499.0
506.0,494.0
502.0,487.0
494.0,498.0
501.0,493.0
505.0,496.0
506.0,494.0
519.0,504.0
526.0,509.0
525.0,507.0
520.0,511.0
517.0,507.0
514.0,513.0
511.0,511.0
508.0,504.0
509.0,505.0
500.0,504.0
505.0,494.0
501.0,496.0
499.0,494.0
498.0,484.0
503.0,493.0
507.0,496.0
516.0,503.0
515.0,509.0
525.0,509.0
527.0,511.0
524.0,516.0
520.0,514.0
516.0,507.0
504.0,510.0
505.0,504.0
506.0,498.0
507.0,502.0
500.0,494.0
506.0,494.0
496.0,488.0
497.0,494.0
504.0,496.0
504.0,497.0
512.0,502.0
518.0,502.0
523.0,511.0
520.0,509.0
521.0,509.0
519.0,513.0
514.0,508.0
506.0,508.0
504.0,499.0
505.0,504.0
503.0,501.0
506.0,498.0
510.0,495.0
501.0,490.0
503.0,492.0
493.0,488.0
502.0,496.0
516.0,507.0
521.0,507.0
525.0,515.0
522.0,510.0
519.0,514.0
516.0,513.0
515.0,510.0
499.0,513.0
504.0,501.0
498.0,509.0
502.0,494.0
501.0,499.0
494.0,492.0
481.0,495.0
498.0,493.0
506.0,497.0
507.0,501.0
511.0,503.0
523.0,508.0
521.0,511.0
523.0,507.0
517.0,508.0
515.0,513.0
512.0,510.0
512.0,505.0
512.0,503.0
510.0,500.0
509.0,498.0
494.0,503.0
497.0,490.0
500.0,495.0
502.0,494.0
508.0,499.0
515.0,500.0
520.0,502.0
527.0,511.0
520.0,510.0
521.0,510.0
516.0,513.0
511.0,513.0
507.0,501.0
505.0,509.0
505.0,491.0
497.0,501.0
502.0,493.0
503.0,498.0
499.0,494.0
502.0,491.0
506.0,495.0
517.0,503.0
522.0,505.0
522.0,501.0
526.0,511.0
523.0,511.0
517.0,509.0
510.0,511.0
508.0,508.0
498.0,510.0
504.0,498.0
507.0,501.0
493.0,507.0
504.0,496.0
498.0,495.0
491.0,489.0
504.0,497.0
505.0,497.0
514.0,499.0
520.0,511.0
523.0,512.0
526.0,511.0
525.0,513.0
523.0,512.0
514.0,513.0
509.0,510.0
508.0,504.0
504.0,506.0
495.0,507.0
498.0,493.0
502.0,495.0
497.0,497.0
501.0,495.0
503.0,490.0
513.0,499.0
516.0,503.0
522.0,505.0
522.0,508.0
522.0,515.0
517.0,513.0
511.0,511.0
515.0,511.0
509.0,506.0
504.0,499.0
504.0,505.0
501.0,500.0
503.0,497.0
496.0,498.0
499.0,491.0
499.0,479.0
502.0,496.0
510.0,499.0
518.0,511.0
517.0,509.0
521.0,507.0
527.0,509.0
514.0,512.0
511.0,512.0
510.0,511.0
508.0,505.0
503.0,507.0
503.0,497.0
507.0,500.0
494.0,499.0
499.0,494.0
495.0,486.0
502.0,494.0
502.0,491.0
509.0,505.0
516.0,507.0
521.0,508.0
525.0,508.0
521.0,508.0
520.0,508.0
517.0,513.0
507.0,505.0
496.0,511.0
493.0,508.0
498.0,503.0
499.0,501.0
498.0,492.0
500.0,495.0
497.0,495.0
501.0,495.0
507.0,505.0
507.0,507.0
516.0,504.0
520.0,505.0
522.0,517.0
521.0,517.0
515.0,510.0
504.0,508.0
503.0,501.0
492.0,505.0
504.0,506.0
494.0,506.0
503.0,498.0
502.0,490.0
499.0,496.0
497.0,496.0
504.0,496.0
508.0,495.0
509.0,503.0
524.0,512.0
526.0,515.0
524.0,518.0
516.0,510.0
510.0,507.0
510.0,507.0
502.0,507.0
503.0,505.0
503.0,501.0
502.0,500.0
502.0,501.0
505.0,494.0
493.0,488.0
493.0,491.0
500.0,498.0
504.0,502.0
518.0,508.0
523.0,510.0
523.0,513.0
524.0,515.0
515.0,512.0
512.0,513.0
508.0,507.0
503.0,506.0
505.0,503.0
497.0,503.0
504.0,494.0
505.0,496.0
505.0,493.0
502.0,494.0
507.0,493.0
510.0,500.0
512.0,506.0
513.0,503.0
518.0,512.0
513.0,509.0
519.0,517.0
518.0,513.0
514.0,510.0
512.0,507.0
505.0,500.0
509.0,502.0
497.0,505.0
503.0,495.0
496.0,491.0
495.0,496.0
495.0,499.0
508.0,496.0
501.0,493.0
517.0,507.0
518.0,508.0
520.0,507.0
524.0,515.0
520.0,513.0
512.0,506.0
514.0,507.0
502.0,509.0
506.0,496.0
510.0,500.0
503.0,492.0
498.0,501.0
497.0,484.0
489.0,497.0
499.0,496.0
511.0,500.0
512.0,500.0
517.0,503.0
523.0,514.0
528.0,518.0
524.0,514.0
514.0,508.0
509.0,510.0
514.0,508.0
508.0,505.0
503.0,509.0
506.0,500.0
492.0,501.0
504.0,495.0
500.0,492.0
496.0,496.0
501.0,497.0
508.0,496.0
510.0,502.0
519.0,504.0
519.0,506.0
520.0,510.0
521.0,511.0
518.0,512.0
514.0,513.0
507.0,509.0
498.0,507.0
505.0,494.0
505.0,501.0
506.0,489.0
494.0,489.0
492.0,496.0
497.0,493.0
512.0,496.0
513.0,501.0
511.0,501.0
525.0,508.0
521.0,508.0
519.0,514.0
519.0,515.0
516.0,515.0
508.0,508.0
502.0,510.0
507.0,502.0
501.0,506.0
505.0,498.0
499.0,504.0
502.0,493.0
504.0,488.0
493.0,486.0
501.0,493.0
507.0,501.0
522.0,506.0
519.0,501.0
521.0,511.0
516.0,509.0
516.0,510.0
510.0,510.0
514.0,509.0
511.0,504.0
501.0,495.0
505.0,497.0
503.0,494.0
505.0,495.0
498.0,492.0
489.0,487.0
500.0,496.0
516.0,506.0
508.0,504.0
521.0,509.0
530.0,516.0
528.0,512.0
522.0,514.0
511.0,511.0
505.0,510.0
499.0,503.0
494.0,508.0
490.0,496.0
493.0,500.0
497.0,502.0
500.0,503.0
514.0,490.0
513.0,497.0
528.0,494.0
525.0,499.0
538.0,509.0
539.0,506.0
534.0,511.0
520.0,507.0
518.0,508.0
506.0,509.0
491.0,500.0
500.0,509.0
502.0,505.0
503.0,495.0
502.0,500.0
493.0,503.0
497.0,490.0
500.0,493.0
503.0,496.0
504.0,497.0
513.0,500.0
518.0,502.0
525.0,513.0
528.0,517.0
525.0,515.0
518.0,509.0
515.0,512.0
511.0,507.0
508.0,505.0
500.0,504.0
504.0,499.0
500.0,502.0
503.0,491.0
496.0,489.0
499.0,492.0
502.0,493.0
508.0,499.0
511.0,497.0
517.0,506.0
529.0,513.0
530.0,511.0
523.0,512.0
520.0,506.0
514.0,509.0
511.0,505.0
505.0,511.0
500.0,510.0
500.0,498.0
501.0,501.0
500.0,490.0
504.0,494.0
503.0,492.0
497.0,497.0
511.0,505.0
519.0,513.0
524.0,516.0
521.0,506.0
523.0,503.0
523.0,512.0
523.0,514.0
513.0,517.0
509.0,501.0
506.0,490.0
504.0,496.0
500.0,502.0
493.0,491.0
499.0,489.0
495.0,495.0
496.0,487.0
494.0,497.0
503.0,500.0
512.0,496.0
517.0,505.0
528.0,507.0
532.0,511.0
521.0,511.0
520.0,511.0
514.0,507.0
508.0,500.0
510.0,502.0
513.0,500.0
505.0,491.0
498.0,499.0
499.0,490.0
491.0,489.0
501.0,495.0
506.0,502.0
503.0,501.0
513.0,504.0
512.0,511.0
511.0,511.0
508.0,516.0
508.0,509.0
509.0,513.0
518.0,508.0
513.0,507.0
531.0,503.0
519.0,498.0
514.0,500.0
515.0,497.0
504.0,491.0
510.0,495.0
517.0,496.0
517.0,506.0
524.0,504.0
530.0,511.0
532.0,509.0
525.0,510.0
525.0,508.0
519.0,506.0
502.0,501.0
503.0,500.0
507.0,507.0
505.0,505.0
505.0,499.0
498.0,502.0
502.0,497.0
503.0,488.0
500.0,489.0
505.0,496.0
511.0,503.0
516.0,499.0
529.0,510.0
526.0,513.0
521.0,515.0
515.0,515.0
524.0,513.0
506.0,512.0
504.0,507.0
507.0,503.0
500.0,498.0
508.0,498.0
503.0,498.0
493.0,496.0
499.0,495.0
506.0,492.0
504.0,499.0
507.0,501.0
518.0,510.0
524.0,505.0
521.0,510.0
521.0,507.0
519.0,510.0
505.0,503.0
505.0,501.0
505.0,502.0
501.0,504.0
497.0,497.0
507.0,496.0
493.0,501.0
506.0,494.0
499.0,493.0
493.0,498.0
504.0,497.0
510.0,505.0
519.0,506.0
520.0,511.0
522.0,512.0
512.0,512.0
514.0,507.0
502.0,501.0
498.0,510.0
493.0,510.0
506.0,497.0
510.0,499.0
496.0,496.0
501.0,499.0
489.0,495.0
491.0,495.0
503.0,499.0
510.0,493.0
511.0,500.0
524.0,509.0
528.0,514.0
520.0,512.0
519.0,507.0
511.0,502.0
509.0,512.0
500.0,501.0
505.0,498.0
506.0,499.0
508.0,497.0
499.0,498.0
497.0,488.0
492.0,496.0
505.0,489.0
506.0,496.0
507.0,493.0
512.0,503.0
521.0,507.0
522.0,513.0
513.0,510.0
516.0,509.0
505.0,500.0
494.0,496.0
497.0,498.0
499.0,506.0
495.0,503.0
497.0,494.0
505.0,497.0
493.0,500.0
512.0,498.0
507.0,499.0
511.0,501.0
511.0,504.0
523.0,503.0
530.0,516.0
533.0,511.0
532.0,516.0
530.0,506.0
519.0,514.0
517.0,506.0
506.0,499.0
501.0,504.0
497.0,492.0
490.0,493.0
474.0,500.0
483.0,500.0
489.0,494.0
490.0,488.0
505.0,494.0
526.0,502.0
527.0,513.0
521.0,511.0
515.0,518.0
510.0,517.0
523.0,515.0
524.0,512.0
520.0,501.0
510.0,503.0
516.0,496.0
505.0,497.0
497.0,500.0
499.0,486.0
496.0,492.0
499.0,500.0
510.0,498.0
517.0,498.0
531.0,499.0
539.0,506.0
532.0,511.0
527.0,511.0
515.0,513.0
495.0,507.0
502.0,512.0
502.0,512.0
497.0,508.0
502.0,498.0
504.0,497.0
495.0,505.0
499.0,499.0
492.0,498.0
497.0,498.0
505.0,504.0
507.0,497.0
521.0,513.0
524.0,512.0
524.0,516.0
517.0,494.0
510.0,498.0
510.0,518.0
508.0,509.0
504.0,507.0
501.0,490.0
502.0,482.0
504.0,485.0
498.0,486.0
501.0,496.0
504.0,498.0
505.0,499.0
512.0,499.0
512.0,491.0
526.0,505.0
528.0,511.0
522.0,512.0
518.0,514.0
513.0,511.0
510.0,498.0
493.0,497.0
490.0,493.0
490.0,496.0
489.0,500.0
477.0,494.0
483.0,496.0
498.0,497.0
503.0,499.0
512.0,497.0
506.0,503.0
523.0,507.0
522.0,511.0
523.0,514.0
518.0,509.0
508.0,507.0
500.0,503.0
505.0,510.0
508.0,506.0
501.0,508.0
506.0,508.0
507.0,495.0
504.0,499.0
493.0,499.0
495.0,487.0
503.0,492.0
512.0,499.0
506.0,500.0
523.0,504.0
533.0,513.0
529.0,514.0
522.0,511.0
514.0,509.0
498.0,513.0
494.0,506.0
480.0,500.0
477.0,494.0
474.0,503.0
491.0,500.0
513.0,489.0
535.0,490.0
539.0,492.0
564.0,496.0
559.0,500.0
560.0,496.0
516.0,501.0
495.0,498.0
506.0,498.0
511.0,506.0
495.0,517.0
494.0,520.0
506.0,506.0
506.0,501.0
507.0,501.0
507.0,503.0
524.0,495.0
505.0,506.0
513.0,499.0
500.0,495.0
501.0,497.0
517.0,502.0
527.0,512.0
542.0,516.0
540.0,509.0
541.0,518.0
523.0,510.0
517.0,512.0
525.0,513.0
528.0,494.0
511.0,498.0
476.0,495.0
463.0,492.0
481.0,502.0
489.0,501.0
505.0,498.0
510.0,495.0
515.0,496.0
524.0,511.0
528.0,507.0
499.0,513.0
506.0,517.0
502.0,511.0
494.0,505.0
491.0,500.0
501.0,497.0
496.0,508.0
493.0,515.0
496.0,508.0
493.0,510.0
490.0,491.0
487.0,484.0
488.0,487.0
476.0,499.0
476.0,498.0
486.0,498.0
521.0,503.0
539.0,514.0
541.0,517.0
544.0,510.0
529.0,509.0
531.0,498.0
536.0,494.0
543.0,505.0
512.0,518.0
499.0,528.0
502.0,538.0
486.0,521.0
467.0,511.0
462.0,487.0
484.0,462.0
507.0,491.0
509.0,509.0
523.0,503.0
544.0,497.0
542.0,501.0
533.0,509.0
531.0,511.0
531.0,507.0
514.0,494.0
493.0,498.0
503.0,484.0
497.0,489.0
498.0,490.0
503.0,481.0
495.0,489.0
487.0,500.0
486.0,499.0
497.0,501.0
484.0,507.0
480.0,509.0
498.0,501.0
548.0,501.0
593.0,502.0
559.0,504.0
536.0,501.0
495.0,489.0
479.0,493.0
492.0,489.0
513.0,495.0
522.0,493.0
521.0,505.0
518.0,505.0
520.0,517.0
533.0,522.0
527.0,516.0
507.0,511.0
505.0,513.0
479.0,516.0
509.0,514.0
545.0,517.0
553.0,512.0
540.0,506.0
545.0,508.0
530.0,510.0
522.0,506.0
508.0,499.0
518.0,496.0
503.0,483.0
503.0,483.0
495.0,485.0
490.0,497.0
503.0,534.0
507.0,535.0
544.0,532.0
545.0,515.0
485.0,476.0
487.0,490.0
489.0,511.0
483.0,483.0
486.0,479.0
505.0,519.0
519.0,520.0
501.0,498.0
500.0,492.0
484.0,501.0
472.0,505.0
488.0,513.0
503.0,514.0
520.0,513.0
528.0,508.0
539.0,510.0
530.0,508.0
516.0,512.0
492.0,504.0
487.0,498.0
499.0,498.0
499.0,491.0
514.0,497.0
512.0,504.0
516.0,486.0
497.0,492.0
494.0,498.0
504.0,499.0
518.0,513.0
532.0,509.0
524.0,501.0
508.0,511.0
496.0,517.0
507.0,518.0
504.0,527.0
514.0,523.0
516.0,498.0
519.0,511.0
495.0,490.0
482.0,489.0
514.0,487.0
509.0,479.0
502.0,479.0
495.0,488.0
498.0,502.0
495.0,493.0
516.0,503.0
537.0,514.0
584.0,517.0
575.0,552.0
545.0,545.0
527.0,520.0
524.0,482.0
454.0,471.0
472.0,523.0
519.0,509.0
540.0,494.0
494.0,498.0
510.0,472.0
494.0,498.0
504.0,500.0
489.0,489.0
492.0,493.0
500.0,503.0
512.0,502.0
503.0,508.0
513.0,514.0
523.0,516.0
486.0,514.0
493.0,502.0
513.0,500.0
527.0,518.0
549.0,518.0
568.0,507.0
531.0,484.0
510.0,473.0
498.0,484.0
499.0,538.0
493.0,546.0
505.0,519.0
526.0,484.0
554.0,441.0
527.0,476.0
500.0,513.0
513.0,536.0
523.0,524.0
542.0,518.0
537.0,496.0
531.0,486.0
527.0,491.0
515.0,494.0
460.0,502.0
460.0,519.0
525.0,522.0
530.0,501.0
529.0,485.0
514.0,502.0
524.0,534.0
519.0,523.0
531.0,524.0
515.0,506.0
500.0,492.0
492.0,497.0
473.0,505.0
487.0,508.0
487.0,512.0
498.0,504.0
495.0,489.0
491.0,499.0
494.0,513.0
503.0,500.0
500.0,493.0
488.0,480.0
485.0,494.0
489.0,518.0
522.0,510.0
569.0,478.0
532.0,478.0
489.0,502.0
506.0,527.0
526.0,513.0
502.0,505.0
488.0,488.0
500.0,486.0
508.0,515.0
515.0,516.0
482.0,488.0
463.0,492.0
452.0,518.0
492.0,516.0
526.0,497.0
576.0,472.0
612.0,521.0
618.0,547.0
596.0,545.0
546.0,579.0
493.0,565.0
445.0,513.0
470.0,503.0
491.0,479.0
511.0,443.0
499.0,444.0
523.0,508.0
511.0,548.0
512.0,524.0
511.0,473.0
485.0,431.0
488.0,432.0
507.0,495.0
551.0,492.0
540.0,509.0
542.0,512.0
532.0,500.0
453.0,504.0
433.0,501.0
386.0,495.0
435.0,501.0
479.0,537.0
527.0,566.0
562.0,550.0
598.0,490.0
579.0,467.0
558.0,498.0
596.0,515.0
681.0,520.0
635.0,512.0
487.0,491.0
528.0,506.0
510.0,542.0
467.0,535.0
433.0,507.0
423.0,495.0
391.0,511.0
464.0,476.0
482.0,472.0
471.0,457.0
502.0,486.0
489.0,488.0
445.0,490.0
451.0,457.0
478.0,459.0
521.0,476.0
523.0,495.0
564.0,510.0
558.0,507.0
562.0,508.0
552.0,517.0
560.0,516.0
580.0,514.0
523.0,516.0
492.0,524.0
503.0,497.0
497.0,516.0
467.0,563.0
479.0,556.0
528.0,494.0
526.0,513.0
477.0,455.0
517.0,463.0
542.0,463.0
458.0,490.0
459.0,488.0
462.0,507.0
521.0,528.0
562.0,557.0
587.0,559.0
520.0,502.0
451.0,446.0
350.0,482.0
321.0,552.0
451.0,517.0
511.0,485.0
501.0,456.0
517.0,522.0
489.0,497.0
530.0,491.0
550.0,559.0
561.0,502.0
525.0,500.0
538.0,488.0
577.0,500.0
608.0,521.0
609.0,494.0
546.0,479.0
539.0,484.0
514.0,472.0
466.0,482.0
428.0,504.0
460.0,520.0
511.0,541.0
540.0,550.0
593.0,519.0
504.0,459.0
402.0,470.0
407.0,505.0
454.0,525.0
572.0,529.0
580.0,545.0
582.0,504.0
523.0,522.0
458.0,599.0
436.0,524.0
496.0,376.0
554.0,440.0
565.0,496.0
530.0,470.0
538.0,419.0
410.0,476.0
425.0,552.0
503.0,507.0
520.0,488.0
497.0,502.0
483.0,544.0
520.0,571.0
508.0,544.0
433.0,502.0
459.0,495.0
435.0,533.0
450.0,504.0
416.0,479.0
455.0,470.0
629.0,516.0
602.0,518.0
605.0,502.0
631.0,526.0
573.0,573.0
485.0,507.0
473.0,437.0
405.0,466.0
457.0,504.0
522.0,513.0
566.0,536.0
565.0,514.0
510.0,486.0
398.0,472.0
338.0,486.0
413.0,476.0
464.0,494.0
510.0,554.0
539.0,561.0
571.0,501.0
552.0,479.0
472.0,509.0
447.0,508.0
435.0,494.0
460.0,450.0
537.0,460.0
587.0,500.0
664.0,552.0
552.0,537.0
515.0,494.0
500.0,501.0
446.0,500.0
464.0,498.0
523.0,494.0
566.0,519.0
586.0,530.0
525.0,503.0
508.0,518.0
517.0,579.0
516.0,594.0
465.0,596.0
564.0,567.0
599.0,472.0
543.0,393.0
455.0,442.0
463.0,487.0
469.0,475.0
472.0,474.0
421.0,470.0
420.0,453.0
452.0,457.0
526.0,486.0
570.0,525.0
569.0,546.0
592.0,534.0
497.0,510.0
482.0,515.0
489.0,572.0
472.0,577.0
418.0,495.0
407.0,473.0
552.0,465.0
640.0,481.0
580.0,496.0
588.0,549.0
479.0,550.0
454.0,497.0
535.0,456.0
535.0,505.0
520.0,512.0
481.0,509.0
500.0,516.0
470.0,506.0
474.0,510.0
499.0,519.0
488.0,474.0
511.0,484.0
551.0,486.0
471.0,505.0
490.0,495.0
569.0,527.0
610.0,537.0
564.0,481.0
507.0,454.0
389.0,504.0
326.0,533.0
420.0,500.0
579.0,532.0
558.0,487.0
486.0,473.0
430.0,485.0
503.0,492.0
603.0,501.0
571.0,489.0
505.0,503.0
473.0,504.0
486.0,510.0
523.0,505.0
504.0,525.0
495.0,511.0
469.0,502.0
498.0,515.0
528.0,553.0
536.0,510.0
551.0,462.0
520.0,514.0
510.0,547.0
559.0,538.0
578.0,535.0
566.0,511.0
477.0,504.0
405.0,451.0
476.0,481.0
603.0,493.0
653.0,474.0
536.0,453.0
467.0,468.0
431.0,503.0
487.0,514.0
504.0,529.0
487.0,510.0
513.0,502.0
465.0,499.0
456.0,497.0
435.0,509.0
448.0,501.0
459.0,518.0
477.0,527.0
512.0,532.0
490.0,503.0
514.0,468.0
529.0,474.0
523.0,489.0
534.0,499.0
530.0,528.0
515.0,517.0
540.0,510.0
551.0,496.0
545.0,489.0
490.0,513.0
500.0,547.0
551.0,518.0
557.0,481.0
518.0,500.0
460.0,522.0
403.0,489.0
444.0,462.0
470.0,472.0
447.0,497.0
493.0,499.0
507.0,493.0
611.0,505.0
518.0,518.0
519.0,535.0
590.0,518.0
584.0,490.0
576.0,482.0
528.0,495.0
533.0,496.0
541.0,493.0
526.0,524.0
532.0,552.0
569.0,512.0
505.0,465.0
448.0,482.0
413.0,513.0
529.0,498.0
507.0,493.0
476.0,498.0
488.0,510.0
493.0,488.0
502.0,509.0
519.0,517.0
528.0,522.0
522.0,502.0
545.0,495.0
588.0,551.0
543.0,535.0
465.0,462.0
458.0,451.0
381.0,497.0
447.0,497.0
507.0,485.0
527.0,494.0
472.0,481.0
501.0,494.0
537.0,511.0
563.0,499.0
446.0,498.0
478.0,533.0
485.0,571.0
487.0,520.0
532.0,464.0
562.0,476.0
552.0,513.0
507.0,521.0
497.0,491.0
541.0,468.0
553.0,486.0
509.0,475.0
462.0,495.0
562.0,500.0
617.0,509.0
632.0,522.0
556.0,539.0
405.0,511.0
443.0,509.0
482.0,488.0
487.0,516.0
514.0,523.0
486.0,513.0
489.0,497.0
462.0,470.0
517.0,475.0
550.0,497.0
497.0,502.0
452.0,503.0
387.0,498.0
473.0,487.0
524.0,489.0
520.0,506.0
495.0,515.0
478.0,533.0
518.0,527.0
543.0,503.0
523.0,509.0
539.0,508.0
545.0,524.0
523.0,500.0
514.0,466.0
505.0,485.0
496.0,493.0
516.0,493.0
514.0,510.0
522.0,511.0
543.0,516.0
498.0,495.0
509.0,485.0
547.0,547.0
579.0,518.0
568.0,484.0
535.0,497.0
522.0,503.0
506.0,497.0
487.0,518.0
499.0,522.0
484.0,507.0
497.0,452.0
505.0,475.0
494.0,488.0
465.0,468.0
541.0,467.0
519.0,482.0
511.0,508.0
519.0,518.0
535.0,530.0
495.0,513.0
438.0,494.0
493.0,502.0
502.0,502.0
508.0,500.0
542.0,492.0
550.0,496.0
533.0,492.0
494.0,490.0
526.0,515.0
525.0,514.0
470.0,518.0
458.0,514.0
499.0,476.0
481.0,483.0
500.0,517.0
504.0,521.0
518.0,514.0
541.0,501.0
553.0,488.0
524.0,494.0
554.0,491.0
523.0,511.0
522.0,513.0
494.0,508.0
443.0,470.0
396.0,484.0
432.0,489.0
513.0,498.0
538.0,498.0
551.0,481.0
585.0,483.0
623.0,490.0
627.0,498.0
579.0,526.0
571.0,540.0
475.0,563.0
505.0,554.0
472.0,495.0
401.0,422.0
411.0,481.0
482.0,492.0
499.0,486.0
472.0,504.0
484.0,526.0
539.0,532.0
557.0,521.0
540.0,504.0
539.0,499.0
534.0,490.0
508.0,488.0
484.0,522.0
512.0,522.0
515.0,499.0
499.0,463.0
504.0,502.0
496.0,514.0
515.0,530.0
482.0,502.0
518.0,481.0
486.0,497.0
486.0,491.0
500.0,481.0
514.0,481.0
523.0,503.0
542.0,500.0
511.0,517.0
449.0,519.0
473.0,505.0
524.0,490.0
574.0,508.0
586.0,492.0
507.0,489.0
457.0,491.0
426.0,485.0
478.0,492.0
470.0,517.0
457.0,513.0
454.0,492.0
478.0,500.0
543.0,502.0
561.0,507.0
555.0,501.0
552.0,502.0
560.0,492.0
594.0,510.0
591.0,507.0
555.0,504.0
465.0,507.0
451.0,506.0
472.0,516.0
482.0,516.0
478.0,490.0
496.0,474.0
523.0,506.0
545.0,512.0
551.0,527.0
544.0,517.0
509.0,482.0
486.0,494.0
441.0,516.0
465.0,515.0
513.0,498.0
548.0,495.0
600.0,499.0
594.0,496.0
551.0,494.0
399.0,490.0
295.0,492.0
333.0,491.0
411.0,493.0
504.0,501.0
577.0,502.0
593.0,499.0
541.0,489.0
534.0,508.0
513.0,511.0
544.0,515.0
624.0,507.0
596.0,506.0
602.0,504.0
521.0,467.0
469.0,479.0
519.0,509.0
572.0,514.0
491.0,510.0
414.0,503.0
468.0,495.0
519.0,477.0
530.0,495.0
539.0,505.0
514.0,510.0
508.0,532.0
531.0,526.0
539.0,499.0
532.0,515.0
527.0,521.0
484.0,526.0
498.0,517.0
458.0,489.0
440.0,471.0
487.0,493.0
501.0,495.0
518.0,508.0
552.0,517.0
537.0,521.0
500.0,506.0
518.0,481.0
550.0,512.0
516.0,525.0
512.0,525.0
526.0,503.0
535.0,481.0
526.0,505.0
473.0,525.0
444.0,499.0
468.0,487.0
480.0,480.0
495.0,475.0
529.0,486.0
525.0,491.0
517.0,493.0
533.0,491.0
559.0,497.0
589.0,506.0
534.0,509.0
513.0,512.0
486.0,518.0
440.0,529.0
408.0,521.0
465.0,502.0
513.0,502.0
546.0,515.0
535.0,519.0
495.0,482.0
495.0,480.0
498.0,488.0
516.0,481.0
538.0,482.0
538.0,505.0
555.0,516.0
571.0,520.0
551.0,518.0
517.0,500.0
527.0,484.0
511.0,507.0
487.0,504.0
470.0,508.0
481.0,488.0
473.0,490.0
489.0,502.0
495.0,501.0
483.0,500.0
477.0,486.0
484.0,492.0
503.0,500.0
520.0,507.0
546.0,525.0
532.0,526.0
520.0,523.0
524.0,517.0
522.0,520.0
509.0,498.0
526.0,466.0
527.0,468.0
534.0,497.0
552.0,499.0
545.0,502.0
540.0,484.0
511.0,487.0
488.0,502.0
432.0,501.0
451.0,500.0
486.0,506.0
518.0,520.0
518.0,523.0
515.0,518.0
506.0,507.0
503.0,509.0
485.0,501.0
489.0,499.0
478.0,503.0
465.0,490.0
483.0,497.0
496.0,501.0
525.0,497.0
599.0,488.0
593.0,471.0
529.0,496.0
523.0,505.0
537.0,512.0
552.0,520.0
553.0,515.0
546.0,524.0
507.0,520.0
500.0,500.0
487.0,483.0
489.0,504.0
524.0,511.0
546.0,517.0
541.0,477.0
515.0,496.0
475.0,493.0
470.0,517.0
470.0,513.0
504.0,517.0
526.0,495.0
530.0,502.0
535.0,501.0
534.0,488.0
501.0,506.0
483.0,497.0
448.0,496.0
478.0,503.0
472.0,494.0
502.0,505.0
512.0,517.0
510.0,488.0
520.0,465.0
531.0,480.0
537.0,508.0
555.0,494.0
531.0,503.0
485.0,504.0
510.0,498.0
518.0,511.0
524.0,536.0
508.0,539.0
472.0,506.0
476.0,487.0
482.0,489.0
492.0,500.0
517.0,504.0
512.0,496.0
525.0,499.0
525.0,501.0
518.0,493.0
462.0,492.0
436.0,501.0
490.0,497.0
526.0,492.0
524.0,504.0
497.0,518.0
539.0,529.0
550.0,523.0
528.0,515.0
515.0,519.0
526.0,509.0
524.0,504.0
517.0,482.0
491.0,493.0
503.0,481.0
506.0,493.0
504.0,494.0
472.0,504.0
479.0,505.0
505.0,518.0
512.0,514.0
519.0,504.0
543.0,504.0
538.0,516.0
524.0,515.0
525.0,511.0
514.0,506.0
497.0,502.0
497.0,495.0
510.0,519.0
495.0,523.0
495.0,486.0
522.0,466.0
536.0,477.0
548.0,492.0
534.0,505.0
540.0,514.0
514.0,511.0
462.0,518.0
493.0,516.0
501.0,503.0
502.0,501.0
496.0,503.0
488.0,510.0
493.0,495.0
494.0,498.0
498.0,496.0
505.0,497.0
501.0,499.0
500.0,502.0
507.0,500.0
514.0,497.0
528.0,510.0
525.0,497.0
533.0,502.0
539.0,511.0
533.0,512.0
522.0,511.0
505.0,543.0
501.0,525.0
509.0,501.0
511.0,486.0
501.0,496.0
497.0,501.0
480.0,496.0
456.0,491.0
464.0,493.0
489.0,497.0
504.0,498.0
509.0,498.0
531.0,513.0
543.0,535.0
549.0,535.0
536.0,498.0
528.0,483.0
518.0,503.0
511.0,516.0
510.0,508.0
516.0,504.0
513.0,503.0
503.0,501.0
449.0,494.0
445.0,483.0
471.0,493.0
481.0,492.0
534.0,508.0
557.0,516.0
564.0,514.0
557.0,500.0
541.0,505.0
525.0,509.0
478.0,510.0
476.0,508.0
493.0,494.0
495.0,508.0
499.0,507.0
519.0,502.0
532.0,497.0
513.0,496.0
472.0,488.0
474.0,498.0
516.0,493.0
527.0,509.0
522.0,504.0
519.0,517.0
497.0,511.0
488.0,508.0
527.0,510.0
544.0,507.0
543.0,505.0
537.0,502.0
531.0,505.0
530.0,497.0
519.0,496.0
505.0,496.0
497.0,494.0
507.0,488.0
501.0,487.0
507.0,487.0
522.0,496.0
526.0,510.0
531.0,517.0
528.0,527.0
517.0,514.0
508.0,506.0
509.0,507.0
494.0,506.0
487.0,498.0
490.0,502.0
481.0,498.0
473.0,494.0
471.0,489.0
456.0,491.0
481.0,490.0
491.0,495.0
520.0,497.0
553.0,506.0
566.0,520.0
556.0,525.0
544.0,519.0
542.0,527.0
523.0,512.0
522.0,489.0
515.0,488.0
502.0,502.0
506.0,497.0
502.0,495.0
497.0,489.0
492.0,493.0
505.0,491.0
511.0,492.0
517.0,502.0
523.0,502.0
533.0,507.0
526.0,505.0
522.0,516.0
512.0,518.0
506.0,508.0
504.0,510.0
501.0,507.0
488.0,510.0
507.0,505.0
505.0,502.0
503.0,492.0
493.0,491.0
496.0,495.0
508.0,494.0
502.0,494.0
501.0,498.0
516.0,503.0
528.0,508.0
526.0,514.0
521.0,514.0
513.0,507.0
516.0,500.0
516.0,502.0
504.0,498.0
506.0,506.0
505.0,499.0
504.0,498.0
504.0,503.0
498.0,505.0
497.0,501.0
499.0,495.0
507.0,484.0
504.0,491.0
521.0,506.0
524.0,507.0
530.0,510.0
518.0,510.0
521.0,509.0
512.0,505.0
517.0,515.0
516.0,505.0
509.0,504.0
516.0,500.0
518.0,497.0
516.0,495.0
506.0,490.0
505.0,493.0
505.0,495.0
501.0,494.0
503.0,502.0
509.0,506.0
513.0,511.0
508.0,511.0
507.0,506.0
522.0,508.0
513.0,511.0
513.0,512.0
515.0,501.0
507.0,499.0
497.0,509.0
505.0,497.0
503.0,486.0
499.0,488.0
492.0,486.0
502.0,493.0
496.0,494.0
513.0,502.0
528.0,504.0
533.0,508.0
530.0,504.0
530.0,512.0
523.0,521.0
517.0,513.0
509.0,512.0
514.0,507.0
499.0,499.0
496.0,502.0
501.0,500.0
511.0,497.0
519.0,495.0
518.0,488.0
523.0,499.0
518.0,507.0
521.0,504.0
525.0,505.0
526.0,510.0
519.0,517.0
517.0,510.0
502.0,514.0
502.0,511.0
495.0,508.0
500.0,503.0
511.0,495.0
502.0,502.0
497.0,503.0
502.0,495.0
504.0,494.0
504.0,497.0
509.0,502.0
518.0,501.0
520.0,509.0
521.0,510.0
517.0,510.0
514.0,511.0
516.0,509.0
514.0,511.0
509.0,505.0
502.0,508.0
508.0,504.0
502.0,498.0
494.0,500.0
491.0,496.0
497.0,497.0
497.0,489.0
505.0,500.0
517.0,502.0
519.0,506.0
526.0,507.0
527.0,513.0
515.0,509.0
517.0,514.0
514.0,513.0
509.0,510.0
490.0,502.0
507.0,502.0
495.0,503.0
506.0,498.0
499.0,491.0
492.0,501.0
488.0,500.0
490.0,497.0
508.0,502.0
511.0,502.0
523.0,509.0
526.0,512.0
526.0,517.0
516.0,509.0
518.0,512.0
509.0,497.0
506.0,503.0
495.0,507.0
504.0,505.0
504.0,501.0
500.0,500.0
502.0,490.0
493.0,489.0
496.0,490.0
493.0,496.0
502.0,499.0
513.0,499.0
516.0,507.0
520.0,509.0
520.0,511.0
518.0,518.0
513.0,509.0
508.0,512.0
505.0,498.0
504.0,507.0
494.0,497.0
498.0,504.0
504.0,497.0
495.0,491.0
491.0,498.0
497.0,490.0
505.0,496.0
506.0,497.0
509.0,502.0
521.0,510.0
524.0,514.0
522.0,514.0
518.0,513.0
509.0,505.0
504.0,507.0
507.0,501.0
504.0,504.0
500.0,499.0
496.0,497.0
498.0,498.0
491.0,501.0
492.0,499.0
494.0,502.0
505.0,495.0
512.0,502.0
519.0,509.0
529.0,513.0
523.0,516.0
521.0,514.0
512.0,507.0
509.0,511.0
504.0,506.0
509.0,503.0
495.0,505.0
504.0,499.0
498.0,502.0
496.0,500.0
491.0,496.0
488.0,494.0
501.0,494.0
508.0,501.0
520.0,500.0
529.0,508.0
518.0,508.0
526.0,517.0
520.0,507.0
514.0,508.0
500.0,501.0
494.0,501.0
501.0,500.0
499.0,501.0
505.0,497.0
496.0,499.0
502.0,487.0
500.0,487.0
502.0,499.0
513.0,505.0
514.0,503.0
521.0,507.0
524.0,510.0
515.0,511.0
516.0,514.0
514.0,514.0
510.0,508.0
506.0,506.0
509.0,506.0
504.0,502.0
502.0,495.0
496.0,502.0
495.0,500.0
495.0,497.0
492.0,498.0
499.0,498.0
510.0,499.0
514.0,501.0
508.0,504.0
517.0,510.0
523.0,514.0
515.0,513.0
513.0,508.0
507.0,505.0
506.0,511.0
506.0,505.0
502.0,498.0
504.0,496.0
505.0,491.0
502.0,489.0
499.0,491.0
502.0,497.0
505.0,496.0
505.0,496.0
512.0,502.0
525.0,510.0
530.0,517.0
527.0,508.0
525.0,508.0
522.0,513.0
513.0,511.0
502.0,506.0
506.0,507.0
504.0,499.0
501.0,502.0
498.0,495.0
493.0,496.0
492.0,496.0
502.0,496.0
506.0,498.0
501.0,498.0
509.0,500.0
508.0,506.0
514.0,513.0
514.0,512.0
514.0,507.0
509.0,511.0
508.0,508.0
496.0,508.0
505.0,505.0
502.0,504.0
505.0,500.0
501.0,497.0
497.0,491.0
499.0,495.0
496.0,496.0
508.0,499.0
512.0,501.0
520.0,509.0
523.0,506.0
526.0,512.0
518.0,511.0
519.0,509.0
508.0,510.0
506.0,511.0
507.0,505.0
504.0,498.0
505.0,505.0
506.0,501.0
498.0,501.0
504.0,487.0
499.0,499.0
504.0,500.0
507.0,494.0
518.0,505.0
524.0,509.0
527.0,517.0
524.0,510.0
524.0,514.0
512.0,507.0
509.0,509.0
502.0,499.0
504.0,501.0
504.0,496.0
502.0,499.0
499.0,495.0
499.0,494.0
500.0,495.0
494.0,495.0
507.0,503.0
509.0,498.0
512.0,500.0
517.0,508.0
525.0,514.0
522.0,505.0
516.0,507.0
519.0,512.0
513.0,516.0
504.0,508.0
522.0,503.0
515.0,498.0
500.0,506.0
495.0,500.0
492.0,495.0
493.0,493.0
493.0,494.0
501.0,498.0
508.0,503.0
511.0,504.0
523.0,510.0
524.0,511.0
525.0,513.0
523.0,508.0
515.0,511.0
518.0,508.0
509.0,493.0
502.0,505.0
498.0,503.0
501.0,500.0
498.0,494.0
495.0,496.0
499.0,497.0
499.0,494.0
509.0,499.0
514.0,506.0
525.0,510.0
527.0,516.0
522.0,509.0
519.0,516.0
514.0,510.0
511.0,513.0
502.0,506.0
494.0,506.0
504.0,504.0
506.0,498.0
504.0,502.0
499.0,487.0
501.0,489.0
503.0,495.0
506.0,497.0
508.0,500.0
516.0,508.0
526.0,515.0
524.0,513.0
520.0,512.0
520.0,514.0
517.0,511.0
514.0,503.0
512.0,503.0
514.0,504.0
508.0,500.0
505.0,494.0
503.0,494.0
494.0,499.0
492.0,491.0
497.0,491.0
507.0,491.0
507.0,502.0
516.0,502.0
521.0,512.0
521.0,509.0
518.0,511.0
519.0,513.0
517.0,512.0
514.0,510.0
505.0,508.0
509.0,503.0
505.0,498.0
499.0,500.0
491.0,502.0
491.0,498.0
496.0,499.0
502.0,495.0
507.0,494.0
510.0,504.0
514.0,507.0
530.0,514.0
524.0,514.0
523.0,515.0
526.0,515.0
522.0,513.0
513.0,501.0
508.0,507.0
507.0,494.0
498.0,496.0
499.0,495.0
495.0,487.0
482.0,494.0
491.0,487.0
503.0,496.0
511.0,500.0
520.0,501.0
517.0,506.0
524.0,514.0
523.0,510.0
516.0,512.0
513.0,510.0
511.0,508.0
501.0,510.0
512.0,503.0
503.0,500.0
499.0,494.0
500.0,495.0
492.0,501.0
497.0,500.0
500.0,500.0
504.0,492.0
513.0,504.0
514.0,506.0
520.0,511.0
524.0,513.0
519.0,510.0
518.0,513.0
509.0,513.0
508.0,504.0
506.0,497.0
496.0,500.0
497.0,504.0
503.0,498.0
502.0,495.0
498.0,494.0
500.0,499.0
504.0,499.0
510.0,499.0
520.0,505.0
520.0,503.0
532.0,514.0
522.0,503.0
511.0,516.0
507.0,516.0
507.0,513.0
500.0,511.0
496.0,510.0
501.0,489.0
504.0,500.0
501.0,495.0
502.0,494.0
495.0,489.0
498.0,492.0
498.0,501.0
505.0,503.0
515.0,505.0
524.0,508.0
517.0,514.0
522.0,516.0
515.0,509.0
517.0,512.0
514.0,509.0
510.0,502.0
513.0,504.0
508.0,506.0
509.0,498.0
490.0,498.0
497.0,496.0
497.0,493.0
496.0,494.0
499.0,490.0
508.0,502.0
519.0,505.0
511.0,503.0
527.0,515.0
530.0,513.0
524.0,509.0
519.0,508.0
512.0,509.0
504.0,509.0
506.0,501.0
492.0,508.0
501.0,499.0
498.0,492.0
501.0,489.0
496.0,492.0
500.0,494.0
515.0,498.0
523.0,505.0
520.0,506.0
525.0,510.0
524.0,502.0
511.0,515.0
512.0,513.0
509.0,508.0
510.0,509.0
498.0,506.0
506.0,500.0
503.0,491.0
503.0,496.0
503.0,488.0
501.0,488.0
503.0,494.0
503.0,496.0
505.0,499.0
513.0,503.0
523.0,509.0
526.0,513.0
517.0,513.0
522.0,513.0
516.0,516.0
505.0,505.0
502.0,510.0
508.0,503.0
508.0,498.0
506.0,500.0
506.0,497.0
501.0,489.0
500.0,490.0
502.0,495.0
507.0,500.0
509.0,501.0
517.0,503.0
519.0,503.0
523.0,513.0
517.0,509.0
519.0,514.0
515.0,514.0
503.0,501.0
507.0,498.0
502.0,506.0
512.0,500.0
506.0,497.0
500.0,488.0
499.0,491.0
505.0,494.0
496.0,496.0
509.0,497.0
516.0,503.0
518.0,508.0
531.0,514.0
524.0,510.0
518.0,511.0
519.0,512.0
514.0,515.0
502.0,504.0
505.0,495.0
494.0,498.0
499.0,505.0
496.0,503.0
495.0,499.0
495.0,490.0
509.0,493.0
508.0,499.0
511.0,501.0
522.0,503.0
522.0,504.0
524.0,508.0
524.0,512.0
523.0,512.0
504.0,509.0
519.0,509.0
506.0,501.0
497.0,509.0
508.0,501.0
508.0,499.0
502.0,489.0
496.0,496.0
495.0,490.0
505.0,493.0
506.0,501.0
510.0,502.0
514.0,507.0
519.0,510.0
521.0,507.0
522.0,513.0
519.0,506.0
518.0,511.0
515.0,507.0
503.0,502.0
508.0,504.0
510.0,499.0
507.0,494.0
508.0,494.0
513.0,493.0
506.0,497.0
503.0,495.0
516.0,497.0
518.0,501.0
520.0,511.0
517.0,510.0
517.0,514.0
518.0,512.0
518.0,512.0
509.0,511.0
492.0,513.0
497.0,501.0
498.0,503.0
499.0,501.0
494.0,500.0
498.0,497.0
500.0,492.0
494.0,499.0
501.0,497.0
510.0,499.0
517.0,501.0
513.0,505.0
520.0,510.0
524.0,512.0
514.0,507.0
519.0,512.0
507.0,513.0
503.0,509.0
511.0,503.0
505.0,494.0
507.0,494.0
503.0,501.0
492.0,498.0
487.0,496.0
494.0,488.0
508.0,498.0
513.0,502.0
513.0,502.0
528.0,509.0
535.0,512.0
532.0,515.0
523.0,509.0
514.0,510.0
505.0,511.0
504.0,501.0
499.0,506.0
505.0,505.0
501.0,498.0
505.0,496.0
500.0,497.0
502.0,494.0
493.0,497.0
503.0,495.0
515.0,502.0
528.0,508.0
537.0,509.0
533.0,516.0
525.0,512.0
521.0,517.0
508.0,513.0
504.0,503.0
499.0,508.0
506.0,507.0
508.0,502.0
502.0,501.0
504.0,499.0
495.0,496.0
498.0,498.0
500.0,498.0
507.0,499.0
511.0,498.0
519.0,510.0
523.0,510.0
522.0,514.0
521.0,516.0
512.0,510.0
504.0,506.0
503.0,511.0
505.0,509.0
510.0,502.0
506.0,504.0
496.0,496.0
499.0,490.0
495.0,488.0
490.0,498.0
507.0,499.0
507.0,496.0
513.0,505.0
524.0,509.0
529.0,516.0
525.0,515.0
520.0,510.0
514.0,516.0
505.0,513.0
507.0,511.0
504.0,497.0
496.0,499.0
504.0,499.0
503.0,494.0
504.0,496.0
496.0,487.0
505.0,494.0
510.0,499.0
520.0,505.0
527.0,506.0
527.0,507.0
528.0,516.0
525.0,515.0
519.0,509.0
512.0,513.0
500.0,512.0
502.0,497.0
506.0,497.0
505.0,491.0
502.0,492.0
500.0,497.0
499.0,495.0
491.0,493.0
497.0,488.0
511.0,500.0
518.0,505.0
527.0,504.0
528.0,516.0
520.0,512.0
527.0,517.0
512.0,511.0
513.0,503.0
510.0,502.0
504.0,511.0
505.0,505.0
498.0,501.0
498.0,491.0
493.0,490.0
497.0,494.0
504.0,493.0
501.0,497.0
498.0,499.0
516.0,503.0
522.0,507.0
529.0,516.0
520.0,510.0
515.0,513.0
518.0,515.0
514.0,510.0
507.0,494.0
507.0,498.0
509.0,502.0
500.0,506.0
493.0,502.0
502.0,491.0
503.0,493.0
501.0,503.0
501.0,499.0
513.0,503.0
517.0,507.0
523.0,513.0
522.0,512.0
526.0,518.0
515.0,510.0
516.0,512.0
508.0,508.0
508.0,505.0
506.0,497.0
507.0,503.0
505.0,496.0
504.0,498.0
499.0,495.0
501.0,490.0
503.0,498.0
506.0,499.0
514.0,501.0
529.0,507.0
527.0,511.0
518.0,504.0
517.0,514.0
518.0,512.0
511.0,511.0
513.0,505.0
506.0,505.0
506.0,495.0
509.0,498.0
504.0,494.0
502.0,494.0
490.0,490.0
496.0,491.0
506.0,499.0
515.0,497.0
515.0,509.0
527.0,509.0
524.0,514.0
521.0,515.0
515.0,502.0
509.0,506.0
508.0,505.0
506.0,505.0
502.0,506.0
505.0,502.0
502.0,502.0
503.0,499.0
499.0,495.0
501.0,498.0
503.0,487.0
509.0,491.0
512.0,504.0
516.0,505.0
525.0,512.0
526.0,514.0
517.0,505.0
518.0,514.0
513.0,515.0
506.0,511.0
502.0,509.0
504.0,501.0
508.0,499.0
503.0,496.0
497.0,491.0
493.0,500.0
496.0,494.0
503.0,496.0
517.0,499.0
525.0,503.0
533.0,510.0
534.0,505.0
530.0,514.0
520.0,516.0
512.0,508.0
502.0,513.0
498.0,511.0
500.0,496.0
504.0,501.0
493.0,500.0
503.0,483.0
495.0,500.0
503.0,492.0
500.0,493.0
511.0,496.0
509.0,500.0
522.0,506.0
527.0,505.0
523.0,509.0
521.0,514.0
507.0,509.0
499.0,506.0
508.0,509.0
504.0,500.0
498.0,506.0
501.0,498.0
499.0,500.0
496.0,503.0
498.0,496.0
498.0,493.0
493.0,500.0
509.0,499.0
510.0,502.0
514.0,510.0
527.0,511.0
527.0,509.0
519.0,506.0
517.0,513.0
515.0,508.0
510.0,507.0
514.0,506.0
510.0,504.0
502.0,500.0
503.0,500.0
494.0,499.0
500.0,492.0
498.0,493.0
503.0,495.0
509.0,500.0
514.0,500.0
524.0,510.0
524.0,509.0
527.0,513.0
523.0,515.0
520.0,514.0
511.0,507.0
508.0,508.0
500.0,509.0
505.0,506.0
510.0,499.0
496.0,499.0
499.0,488.0
492.0,497.0
495.0,498.0
506.0,500.0
515.0,503.0
514.0,503.0
526.0,513.0
521.0,510.0
524.0,511.0
511.0,506.0
508.0,515.0
509.0,513.0
505.0,500.0
509.0,503.0
511.0,503.0
504.0,507.0
500.0,490.0
499.0,494.0
494.0,489.0
497.0,496.0
502.0,499.0
512.0,504.0
516.0,508.0
522.0,507.0
521.0,510.0
514.0,513.0
515.0,509.0
512.0,514.0
504.0,512.0
500.0,511.0
493.0,509.0
500.0,488.0
504.0,497.0
490.0,502.0
495.0,489.0
501.0,499.0
499.0,499.0
510.0,499.0
515.0,509.0
517.0,511.0
526.0,514.0
523.0,518.0
514.0,513.0
512.0,505.0
505.0,506.0
497.0,502.0
505.0,504.0
507.0,501.0
504.0,499.0
494.0,500.0
498.0,493.0
499.0,497.0
501.0,494.0
508.0,498.0
510.0,501.0
513.0,505.0
518.0,509.0
527.0,511.0
520.0,514.0
517.0,519.0
515.0,513.0
509.0,513.0
499.0,510.0
503.0,495.0
504.0,496.0
506.0,500.0
496.0,494.0
503.0,494.0
497.0,488.0
503.0,497.0
503.0,497.0
505.0,500.0
511.0,506.0
529.0,511.0
525.0,511.0
521.0,508.0
514.0,506.0
511.0,513.0
504.0,503.0
490.0,507.0
495.0,503.0
501.0,497.0
503.0,497.0
498.0,499.0
496.0,492.0
491.0,499.0
499.0,498.0
507.0,494.0
511.0,499.0
516.0,504.0
517.0,508.0
520.0,512.0
517.0,509.0
520.0,514.0
508.0,513.0
504.0,512.0
504.0,510.0
504.0,499.0
506.0,491.0
505.0,501.0
500.0,489.0
498.0,497.0
501.0,495.0
504.0,499.0
507.0,501.0
515.0,505.0
521.0,508.0
527.0,510.0
521.0,511.0
517.0,513.0
512.0,512.0
508.0,505.0
506.0,502.0
503.0,499.0
503.0,500.0
489.0,498.0
499.0,496.0
499.0,484.0
501.0,489.0
502.0,495.0
505.0,494.0
508.0,496.0
518.0,509.0
521.0,504.0
527.0,510.0
522.0,513.0
518.0,516.0
509.0,510.0
510.0,504.0
515.0,505.0
507.0,507.0
506.0,499.0
497.0,506.0
506.0,496.0
499.0,495.0
500.0,491.0
505.0,495.0
510.0,495.0
509.0,497.0
524.0,505.0
529.0,517.0
536.0,516.0
535.0,515.0
534.0,515.0
528.0,511.0
518.0,511.0
496.0,510.0
492.0,500.0
485.0,500.0
489.0,493.0
492.0,484.0
498.0,495.0
499.0,494.0
503.0,500.0
508.0,502.0
516.0,505.0
516.0,505.0
520.0,516.0
512.0,515.0
510.0,508.0
510.0,510.0
501.0,507.0
495.0,512.0
504.0,498.0
504.0,496.0
499.0,503.0
504.0,493.0
494.0,498.0
493.0,497.0
505.0,487.0
507.0,494.0
515.0,503.0
523.0,507.0
526.0,510.0
529.0,515.0
528.0,515.0
515.0,512.0
517.0,513.0
509.0,508.0
498.0,511.0
504.0,496.0
500.0,504.0
495.0,493.0
497.0,499.0
499.0,494.0
499.0,491.0
504.0,493.0
511.0,495.0
509.0,500.0
526.0,497.0
533.0,514.0
530.0,513.0
519.0,514.0
520.0,510.0
514.0,512.0
498.0,504.0
503.0,504.0
501.0,503.0
501.0,500.0
499.0,504.0
506.0,495.0
493.0,488.0
484.0,496.0
496.0,491.0
504.0,501.0
518.0,505.0
523.0,507.0
522.0,515.0
524.0,515.0
516.0,507.0
512.0,513.0
508.0,512.0
506.0,509.0
507.0,506.0
498.0,502.0
503.0,498.0
495.0,499.0
501.0,494.0
502.0,489.0
502.0,494.0
500.0,491.0
510.0,495.0
519.0,509.0
520.0,509.0
527.0,513.0
524.0,515.0
521.0,515.0
510.0,510.0
511.0,511.0
506.0,506.0
506.0,502.0
505.0,501.0
504.0,499.0
506.0,495.0
502.0,490.0
496.0,495.0
508.0,495.0
513.0,500.0
519.0,503.0
525.0,507.0
526.0,504.0
529.0,507.0
530.0,512.0
525.0,515.0
518.0,510.0
505.0,514.0
501.0,498.0
498.0,498.0
497.0,494.0
496.0,496.0
487.0,492.0
497.0,491.0
494.0,485.0
507.0,494.0
499.0,490.0
516.0,504.0
517.0,501.0
518.0,511.0
520.0,511.0
511.0,500.0
506.0,503.0
503.0,504.0
501.0,505.0
503.0,502.0
502.0,499.0
504.0,502.0
506.0,495.0
504.0,493.0
495.0,496.0
500.0,490.0
508.0,499.0
516.0,501.0
522.0,504.0
529.0,510.0
523.0,499.0
518.0,512.0
518.0,511.0
511.0,504.0
507.0,508.0
505.0,504.0
497.0,507.0
499.0,496.0
505.0,498.0
505.0,497.0
495.0,498.0
499.0,479.0
503.0,498.0
507.0,496.0
516.0,503.0
524.0,502.0
528.0,510.0
532.0,514.0
525.0,512.0
514.0,507.0
512.0,510.0
500.0,503.0
500.0,501.0
504.0,496.0
505.0,499.0
505.0,497.0
493.0,499.0
498.0,490.0
493.0,493.0
500.0,498.0
507.0,495.0
517.0,504.0
526.0,509.0
518.0,508.0
522.0,511.0
525.0,514.0
520.0,512.0
514.0,507.0
510.0,505.0
500.0,510.0
492.0,503.0
502.0,500.0
502.0,499.0
498.0,488.0
501.0,492.0
501.0,496.0
504.0,502.0
513.0,502.0
514.0,502.0
526.0,510.0
522.0,508.0
522.0,519.0
521.0,514.0
515.0,507.0
503.0,504.0
512.0,505.0
510.0,505.0
509.0,500.0
499.0,501.0
503.0,498.0
500.0,488.0
508.0,492.0
504.0,491.0
508.0,499.0
506.0,503.0
522.0,508.0
521.0,504.0
523.0,508.0
515.0,509.0
517.0,511.0
513.0,510.0
504.0,507.0
504.0,503.0
504.0,493.0
504.0,495.0
504.0,497.0
496.0,497.0
488.0,493.0
503.0,494.0
497.0,496.0
512.0,499.0
520.0,508.0
523.0,509.0
526.0,507.0
521.0,506.0
514.0,512.0
518.0,514.0
506.0,512.0
498.0,511.0
501.0,503.0
508.0,496.0
503.0,487.0
496.0,505.0
500.0,488.0
501.0,493.0
503.0,481.0
505.0,491.0
508.0,506.0
516.0,499.0
526.0,509.0
523.0,512.0
525.0,516.0
524.0,513.0
510.0,513.0
512.0,507.0
507.0,499.0
498.0,501.0
502.0,497.0
509.0,497.0
495.0,499.0
494.0,497.0
497.0,484.0
509.0,496.0
519.0,498.0
533.0,504.0
538.0,513.0
539.0,512.0
524.0,512.0
514.0,508.0
508.0,507.0
497.0,509.0
507.0,497.0
507.0,505.0
504.0,500.0
498.0,499.0
499.0,496.0
498.0,493.0
493.0,489.0
497.0,495.0
498.0,494.0
497.0,496.0
510.0,502.0
518.0,509.0
515.0,510.0
522.0,513.0
512.0,506.0
515.0,515.0
503.0,513.0
495.0,507.0
507.0,502.0
505.0,500.0
503.0,497.0
501.0,488.0
496.0,493.0
501.0,488.0
497.0,497.0
507.0,496.0
512.0,501.0
518.0,505.0
526.0,512.0
522.0,509.0
523.0,512.0
522.0,513.0
511.0,514.0
509.0,511.0
510.0,500.0
499.0,511.0
494.0,504.0
496.0,496.0
498.0,493.0
497.0,484.0
499.0,489.0
501.0,497.0
506.0,500.0
516.0,495.0
522.0,503.0
530.0,513.0
527.0,516.0
524.0,510.0
520.0,514.0
514.0,512.0
507.0,509.0
500.0,504.0
507.0,504.0
508.0,500.0
500.0,501.0
504.0,494.0
503.0,492.0
501.0,496.0
496.0,496.0
512.0,497.0
514.0,500.0
523.0,510.0
523.0,506.0
523.0,515.0
520.0,512.0
517.0,512.0
510.0,509.0
509.0,501.0
508.0,503.0
506.0,492.0
508.0,498.0
508.0,497.0
500.0,495.0
498.0,486.0
497.0,488.0
501.0,498.0
508.0,500.0
517.0,506.0
519.0,505.0
528.0,513.0
521.0,506.0
512.0,511.0
515.0,510.0
512.0,506.0
508.0,503.0
507.0,502.0
503.0,503.0
503.0,501.0
501.0,490.0
501.0,494.0
500.0,491.0
504.0,497.0
506.0,499.0
513.0,503.0
522.0,509.0
522.0,504.0
526.0,512.0
523.0,514.0
517.0,514.0
512.0,510.0
502.0,506.0
505.0,506.0
502.0,507.0
497.0,499.0
504.0,487.0
499.0,498.0
498.0,490.0
504.0,495.0
496.0,495.0
508.0,498.0
517.0,502.0
521.0,512.0
525.0,510.0
518.0,506.0
516.0,512.0
516.0,507.0
506.0,511.0
502.0,505.0
505.0,485.0
506.0,497.0
510.0,498.0
500.0,501.0
505.0,494.0
497.0,499.0
501.0,499.0
506.0,496.0
505.0,500.0
514.0,504.0
524.0,510.0
534.0,508.0
524.0,507.0
520.0,505.0
518.0,511.0
509.0,506.0
502.0,503.0
503.0,498.0
503.0,496.0
497.0,495.0
500.0,495.0
499.0,493.0
489.0,496.0
500.0,490.0
507.0,501.0
515.0,504.0
519.0,507.0
526.0,513.0
525.0,514.0
523.0,511.0
521.0,511.0
514.0,506.0
501.0,510.0
511.0,501.0
509.0,500.0
503.0,499.0
499.0,498.0
502.0,490.0
498.0,494.0
499.0,488.0
502.0,492.0
509.0,499.0
525.0,501.0
523.0,508.0
531.0,514.0
533.0,513.0
523.0,512.0
522.0,514.0
505.0,510.0
492.0,504.0
501.0,499.0
497.0,502.0
498.0,500.0
498.0,488.0
498.0,497.0
496.0,493.0
497.0,496.0
506.0,488.0
511.0,496.0
520.0,511.0
520.0,508.0
529.0,516.0
525.0,515.0
518.0,514.0
512.0,508.0
506.0,509.0
506.0,509.0
503.0,506.0
507.0,500.0
506.0,499.0
502.0,498.0
492.0,499.0
500.0,489.0
492.0,501.0
508.0,498.0
514.0,505.0
507.0,502.0
526.0,513.0
525.0,514.0
522.0,514.0
522.0,510.0
514.0,511.0
507.0,503.0
505.0,507.0
509.0,501.0
504.0,499.0
500.0,498.0
499.0,493.0
497.0,490.0
487.0,496.0
497.0,501.0
507.0,500.0
512.0,506.0
518.0,506.0
525.0,513.0
523.0,508.0
518.0,509.0
515.0,510.0
511.0,509.0
513.0,506.0
498.0,510.0
506.0,499.0
504.0,484.0
506.0,498.0
502.0,493.0
500.0,495.0
497.0,500.0
500.0,493.0
511.0,502.0
509.0,501.0
518.0,504.0
519.0,511.0
523.0,508.0
514.0,503.0
513.0,514.0
511.0,508.0
497.0,506.0
492.0,504.0
502.0,491.0
504.0,498.0
504.0,496.0
501.0,489.0
515.0,491.0
507.0,497.0
513.0,495.0
510.0,497.0
514.0,509.0
518.0,509.0
521.0,512.0
527.0,509.0
519.0,508.0
512.0,505.0
505.0,514.0
502.0,509.0
505.0,500.0
504.0,491.0
511.0,495.0
493.0,501.0
498.0,491.0
503.0,493.0
502.0,493.0
505.0,501.0
517.0,508.0
524.0,508.0
519.0,508.0
532.0,515.0
526.0,515.0
517.0,510.0
516.0,509.0
510.0,509.0
500.0,497.0
495.0,504.0
490.0,503.0
493.0,498.0
495.0,490.0
499.0,493.0
499.0,490.0
505.0,498.0
510.0,501.0
513.0,501.0
524.0,504.0
520.0,507.0
524.0,509.0
516.0,511.0
517.0,512.0
512.0,508.0
505.0,502.0
506.0,487.0
505.0,495.0
507.0,500.0
502.0,489.0
502.0,489.0
500.0,491.0
504.0,494.0
503.0,496.0
512.0,495.0
517.0,502.0
524.0,505.0
528.0,509.0
525.0,516.0
522.0,513.0
517.0,512.0
519.0,506.0
513.0,504.0
502.0,510.0
491.0,504.0
506.0,496.0
508.0,494.0
485.0,493.0
504.0,491.0
507.0,494.0
510.0,497.0
516.0,500.0
523.0,505.0
527.0,512.0
529.0,514.0
523.0,508.0
520.0,512.0
511.0,502.0
509.0,506.0
497.0,507.0
501.0,505.0
499.0,494.0
502.0,489.0
506.0,493.0
494.0,495.0
497.0,499.0
509.0,497.0
506.0,498.0
518.0,500.0
525.0,503.0
524.0,511.0
527.0,514.0
522.0,511.0
513.0,504.0
504.0,500.0
511.0,505.0
511.0,502.0
510.0,501.0
512.0,497.0
498.0,500.0
499.0,488.0
505.0,492.0
507.0,495.0
512.0,500.0
516.0,504.0
520.0,503.0
533.0,512.0
525.0,507.0
524.0,513.0
524.0,515.0
516.0,508.0
508.0,511.0
498.0,508.0
506.0,507.0
503.0,494.0
497.0,492.0
500.0,490.0
491.0,491.0
501.0,493.0
490.0,490.0
506.0,500.0
509.0,500.0
517.0,501.0
527.0,512.0
520.0,510.0
524.0,510.0
518.0,509.0
511.0,512.0
505.0,508.0
506.0,503.0
508.0,502.0
505.0,502.0
496.0,505.0
493.0,491.0
498.0,492.0
492.0,494.0
502.0,501.0
511.0,499.0
522.0,506.0
519.0,507.0
527.0,514.0
525.0,513.0
520.0,509.0
513.0,507.0
511.0,502.0
502.0,508.0
507.0,502.0
505.0,495.0
506.0,498.0
493.0,499.0
502.0,489.0
500.0,495.0
498.0,499.0
512.0,497.0
513.0,495.0
521.0,505.0
521.0,507.0
521.0,507.0
521.0,509.0
516.0,506.0
513.0,511.0
506.0,508.0
512.0,503.0
508.0,502.0
506.0,501.0
496.0,503.0
493.0,490.0
499.0,494.0
492.0,497.0
507.0,495.0
510.0,499.0
510.0,498.0
523.0,506.0
527.0,511.0
520.0,501.0
523.0,509.0
517.0,515.0
511.0,514.0
510.0,502.0
503.0,503.0
503.0,504.0
495.0,506.0
499.0,495.0
501.0,488.0
505.0,492.0
503.0,490.0
508.0,497.0
507.0,499.0
516.0,500.0
520.0,510.0
528.0,513.0
520.0,511.0
517.0,510.0
513.0,517.0
507.0,509.0
505.0,505.0
506.0,500.0
508.0,499.0
507.0,498.0
508.0,496.0
497.0,498.0
498.0,491.0
501.0,489.0
508.0,500.0
506.0,502.0
516.0,501.0
527.0,511.0
529.0,517.0
524.0,513.0
519.0,511.0
516.0,514.0
509.0,507.0
504.0,509.0
505.0,505.0
506.0,502.0
509.0,498.0
498.0,500.0
503.0,489.0
500.0,495.0
495.0,493.0
504.0,493.0
515.0,509.0
521.0,513.0
524.0,506.0
523.0,517.0
522.0,515.0
515.0,507.0
516.0,511.0
501.0,502.0
512.0,499.0
508.0,506.0
518.0,499.0
519.0,498.0
510.0,495.0
503.0,495.0
494.0,491.0
504.0,494.0
502.0,499.0
506.0,507.0
511.0,507.0
523.0,511.0
520.0,510.0
514.0,515.0
511.0,508.0
502.0,515.0
505.0,506.0
501.0,501.0
502.0,498.0
501.0,497.0
494.0,498.0
501.0,492.0
496.0,492.0
499.0,498.0
506.0,495.0
509.0,504.0
518.0,502.0
526.0,510.0
522.0,507.0
525.0,516.0
524.0,513.0
513.0,510.0
508.0,515.0
505.0,500.0
501.0,504.0
506.0,497.0
503.0,492.0
507.0,497.0
496.0,495.0
502.0,488.0
500.0,497.0
509.0,497.0
509.0,502.0
519.0,509.0
522.0,509.0
526.0,514.0
522.0,513.0
515.0,512.0
509.0,513.0
513.0,506.0
499.0,505.0
500.0,496.0
506.0,491.0
507.0,496.0
504.0,495.0
495.0,496.0
502.0,495.0
504.0,491.0
508.0,485.0
521.0,504.0
520.0,503.0
527.0,514.0
528.0,512.0
513.0,508.0
522.0,513.0
518.0,512.0
509.0,508.0
505.0,493.0
504.0,497.0
504.0,500.0
504.0,494.0
505.0,494.0
501.0,493.0
505.0,495.0
504.0,498.0
507.0,498.0
521.0,503.0
529.0,505.0
524.0,512.0
519.0,509.0
521.0,513.0
511.0,510.0
504.0,507.0
506.0,506.0
514.0,501.0
510.0,498.0
499.0,502.0
492.0,499.0
494.0,497.0
499.0,478.0
505.0,493.0
513.0,499.0
514.0,506.0
522.0,502.0
528.0,516.0
528.0,511.0
521.0,507.0
520.0,513.0
511.0,512.0
511.0,498.0
505.0,502.0
501.0,506.0
506.0,500.0
510.0,495.0
503.0,493.0
503.0,491.0
496.0,496.0
496.0,492.0
510.0,501.0
517.0,504.0
520.0,503.0
527.0,515.0
530.0,511.0
525.0,513.0
511.0,508.0
511.0,504.0
506.0,505.0
504.0,505.0
503.0,492.0
501.0,493.0
487.0,496.0
491.0,497.0
495.0,498.0
505.0,493.0
500.0,490.0
511.0,501.0
515.0,507.0
520.0,508.0
528.0,515.0
522.0,515.0
519.0,510.0
516.0,513.0
506.0,510.0
508.0,504.0
505.0,499.0
504.0,494.0
495.0,495.0
501.0,490.0
505.0,489.0
503.0,492.0
497.0,499.0
511.0,500.0
517.0,503.0
522.0,507.0
526.0,512.0
528.0,511.0
521.0,513.0
527.0,514.0
513.0,515.0
513.0,508.0
505.0,506.0
500.0,509.0
497.0,502.0
496.0,497.0
496.0,497.0
498.0,492.0
498.0,493.0
503.0,486.0
507.0,499.0
512.0,506.0
518.0,509.0
524.0,511.0
517.0,510.0
521.0,508.0
518.0,513.0
515.0,511.0
499.0,510.0
499.0,508.0
505.0,508.0
498.0,505.0
504.0,492.0
499.0,484.0
503.0,492.0
501.0,486.0
498.0,494.0
506.0,500.0
517.0,505.0
527.0,512.0
523.0,506.0
525.0,515.0
524.0,501.0
518.0,512.0
508.0,511.0
505.0,503.0
508.0,497.0
502.0,495.0
506.0,499.0
509.0,496.0
496.0,498.0
499.0,492.0
497.0,500.0
497.0,497.0
515.0,497.0
535.0,508.0
533.0,510.0
526.0,503.0
519.0,510.0
516.0,513.0
511.0,511.0
504.0,508.0
501.0,509.0
500.0,504.0
502.0,500.0
503.0,496.0
500.0,497.0
494.0,492.0
502.0,494.0
496.0,490.0
510.0,504.0
520.0,505.0
527.0,509.0
523.0,507.0
528.0,516.0
521.0,512.0
517.0,508.0
517.0,510.0
501.0,511.0
497.0,511.0
500.0,510.0
497.0,504.0
492.0,498.0
498.0,487.0
496.0,484.0
493.0,496.0
506.0,498.0
512.0,501.0
515.0,505.0
522.0,509.0
526.0,512.0
524.0,514.0
520.0,500.0
514.0,510.0
508.0,505.0
503.0,509.0
510.0,503.0
504.0,497.0
502.0,492.0
498.0,492.0
497.0,499.0
495.0,501.0
496.0,498.0
513.0,493.0
511.0,500.0
519.0,502.0
523.0,508.0
526.0,509.0
524.0,515.0
515.0,512.0
514.0,514.0
505.0,505.0
498.0,507.0
501.0,495.0
497.0,499.0
495.0,500.0
500.0,495.0
498.0,495.0
501.0,492.0
502.0,498.0
505.0,501.0
512.0,506.0
521.0,512.0
522.0,509.0
525.0,518.0
519.0,510.0
512.0,511.0
516.0,507.0
499.0,512.0
503.0,505.0
506.0,492.0
502.0,500.0
503.0,491.0
501.0,491.0
492.0,490.0
503.0,495.0
498.0,495.0
511.0,499.0
512.0,502.0
520.0,503.0
526.0,514.0
522.0,515.0
518.0,510.0
514.0,513.0
504.0,514.0
506.0,505.0
498.0,506.0
501.0,503.0
504.0,500.0
500.0,497.0
506.0,492.0
491.0,497.0
505.0,489.0
508.0,497.0
514.0,498.0
524.0,506.0
527.0,513.0
523.0,509.0
516.0,508.0
517.0,511.0
514.0,507.0
509.0,509.0
505.0,505.0
498.0,509.0
502.0,500.0
504.0,496.0
501.0,494.0
499.0,494.0
502.0,485.0
503.0,491.0
511.0,503.0
516.0,503.0
525.0,504.0
524.0,515.0
524.0,513.0
521.0,512.0
510.0,512.0
509.0,508.0
507.0,505.0
506.0,496.0
504.0,502.0
500.0,499.0
496.0,496.0
498.0,493.0
497.0,483.0
504.0,487.0
500.0,488.0
507.0,493.0
522.0,495.0
526.0,509.0
528.0,508.0
524.0,514.0
522.0,513.0
512.0,513.0
506.0,503.0
505.0,494.0
502.0,500.0
506.0,499.0
507.0,496.0
499.0,498.0
494.0,495.0
488.0,498.0
494.0,496.0
507.0,498.0
507.0,497.0
514.0,503.0
526.0,509.0
525.0,511.0
524.0,512.0
521.0,512.0
512.0,510.0
504.0,510.0
500.0,507.0
501.0,506.0
503.0,500.0
503.0,495.0
501.0,493.0
499.0,492.0
497.0,496.0
503.0,497.0
507.0,499.0
516.0,505.0
519.0,508.0
521.0,512.0
525.0,509.0
516.0,509.0
514.0,510.0
510.0,505.0
505.0,501.0
499.0,510.0
503.0,505.0
498.0,503.0
494.0,502.0
500.0,485.0
497.0,486.0
494.0,499.0
505.0,494.0
510.0,500.0
519.0,511.0
527.0,511.0
528.0,509.0
524.0,505.0
516.0,510.0
518.0,514.0
510.0,501.0
509.0,506.0
507.0,502.0
511.0,501.0
508.0,498.0
502.0,496.0
498.0,496.0
498.0,495.0
501.0,494.0
510.0,499.0
513.0,504.0
519.0,501.0
523.0,513.0
528.0,514.0
523.0,516.0
516.0,512.0
504.0,505.0
502.0,505.0
505.0,501.0
506.0,497.0
503.0,493.0
505.0,499.0
497.0,499.0
497.0,493.0
501.0,493.0
509.0,495.0
505.0,486.0
509.0,500.0
520.0,501.0
529.0,516.0
527.0,514.0
520.0,513.0
509.0,513.0
509.0,512.0
499.0,509.0
500.0,507.0
500.0,504.0
499.0,504.0
503.0,501.0
505.0,497.0
503.0,493.0
503.0,497.0
500.0,492.0
497.0,498.0
514.0,506.0
522.0,511.0
522.0,506.0
522.0,509.0
515.0,511.0
511.0,510.0
509.0,506.0
504.0,507.0
505.0,501.0
503.0,494.0
501.0,492.0
495.0,494.0
489.0,488.0
498.0,493.0
504.0,493.0
507.0,497.0
517.0,503.0
513.0,502.0
529.0,508.0
527.0,516.0
527.0,516.0
523.0,512.0
520.0,517.0
506.0,510.0
497.0,510.0
497.0,504.0
504.0,501.0
503.0,501.0
495.0,499.0
491.0,500.0
496.0,485.0
496.0,497.0
502.0,492.0
517.0,506.0
520.0,506.0
519.0,510.0
524.0,514.0
522.0,514.0
520.0,512.0
511.0,501.0
507.0,505.0
511.0,502.0
505.0,503.0
504.0,500.0
505.0,497.0
502.0,493.0
494.0,495.0
502.0,493.0
504.0,499.0
507.0,499.0
516.0,501.0
524.0,510.0
529.0,513.0
521.0,511.0
521.0,515.0
506.0,509.0
514.0,503.0
509.0,506.0
506.0,504.0
500.0,504.0
494.0,505.0
501.0,491.0
501.0,494.0
492.0,497.0
504.0,490.0
503.0,492.0
517.0,503.0
511.0,497.0
530.0,509.0
529.0,515.0
526.0,513.0
516.0,507.0
515.0,512.0
506.0,503.0
501.0,504.0
499.0,507.0
504.0,502.0
504.0,500.0
495.0,501.0
495.0,496.0
498.0,490.0
504.0,499.0
500.0,496.0
512.0,505.0
522.0,508.0
525.0,514.0
525.0,514.0
508.0,510.0
518.0,515.0
513.0,510.0
503.0,511.0
507.0,502.0
502.0,496.0
504.0,488.0
505.0,498.0
500.0,498.0
502.0,487.0
503.0,486.0
504.0,499.0
508.0,500.0
518.0,502.0
520.0,510.0
523.0,512.0
517.0,516.0
518.0,512.0
515.0,513.0
513.0,511.0
508.0,505.0
506.0,503.0
511.0,500.0
504.0,498.0
502.0,495.0
502.0,493.0
495.0,497.0
503.0,496.0
507.0,495.0
510.0,497.0
525.0,509.0
525.0,507.0
528.0,513.0
519.0,509.0
517.0,511.0
507.0,511.0
509.0,506.0
509.0,503.0
506.0,500.0
502.0,492.0
501.0,495.0
496.0,498.0
492.0,496.0
489.0,499.0
500.0,488.0
508.0,492.0
512.0,503.0
513.0,501.0
519.0,512.0
522.0,514.0
522.0,513.0
515.0,507.0
505.0,506.0
505.0,505.0
502.0,502.0
497.0,508.0
505.0,500.0
504.0,495.0
497.0,495.0
488.0,500.0
500.0,493.0
502.0,486.0
510.0,500.0
519.0,503.0
520.0,505.0
525.0,509.0
524.0,516.0
516.0,513.0
508.0,505.0
508.0,506.0
488.0,506.0
498.0,507.0
504.0,497.0
499.0,493.0
491.0,498.0
500.0,494.0
498.0,492.0
491.0,495.0
503.0,498.0
509.0,498.0
515.0,504.0
525.0,509.0
524.0,515.0
512.0,512.0
516.0,508.0
508.0,506.0
501.0,505.0
506.0,504.0
504.0,494.0
502.0,494.0
488.0,504.0
498.0,489.0
498.0,494.0
494.0,490.0
501.0,494.0
503.0,496.0
514.0,504.0
519.0,501.0
523.0,512.0
520.0,516.0
512.0,509.0
515.0,511.0
511.0,515.0
499.0,509.0
505.0,507.0
504.0,503.0
504.0,501.0
502.0,497.0
499.0,495.0
498.0,493.0
493.0,496.0
496.0,488.0
504.0,499.0
511.0,504.0
521.0,508.0
527.0,508.0
522.0,518.0
519.0,517.0
517.0,512.0
502.0,505.0
500.0,509.0
501.0,506.0
505.0,501.0
496.0,497.0
493.0,494.0
487.0,497.0
486.0,498.0
497.0,496.0
505.0,489.0
518.0,495.0
527.0,507.0
528.0,513.0
519.0,509.0
515.0,516.0
508.0,511.0
506.0,513.0
509.0,510.0
504.0,512.0
510.0,501.0
507.0,499.0
505.0,499.0
497.0,498.0
489.0,487.0
492.0,490.0
501.0,496.0
505.0,498.0
506.0,497.0
520.0,509.0
521.0,507.0
526.0,515.0
519.0,513.0
517.0,508.0
510.0,511.0
505.0,507.0
503.0,506.0
506.0,501.0
502.0,501.0
500.0,490.0
497.0,488.0
500.0,493.0
496.0,484.0
506.0,495.0
511.0,499.0
520.0,504.0
525.0,512.0
525.0,508.0
519.0,506.0
513.0,509.0
522.0,512.0
516.0,508.0
504.0,508.0
500.0,505.0
498.0,507.0
491.0,502.0
488.0,492.0
497.0,488.0
500.0,493.0
507.0,493.0
508.0,497.0
510.0,498.0
520.0,501.0
524.0,513.0
520.0,507.0
517.0,512.0
517.0,508.0
511.0,512.0
507.0,502.0
498.0,510.0
495.0,507.0
492.0,498.0
495.0,500.0
499.0,489.0
501.0,493.0
496.0,496.0
502.0,491.0
509.0,500.0
510.0,496.0
519.0,505.0
523.0,505.0
524.0,517.0
521.0,514.0
511.0,509.0
514.0,511.0
507.0,509.0
502.0,507.0
511.0,503.0
507.0,498.0
502.0,499.0
502.0,496.0
490.0,499.0
502.0,489.0
505.0,502.0
507.0,502.0
513.0,502.0
522.0,507.0
523.0,510.0
518.0,516.0
521.0,515.0
512.0,507.0
511.0,506.0
510.0,505.0
509.0,503.0
502.0,495.0
505.0,498.0
497.0,500.0
503.0,493.0
498.0,492.0
499.0,492.0
499.0,492.0
512.0,499.0
520.0,507.0
524.0,511.0
521.0,507.0
521.0,513.0
520.0,507.0
517.0,514.0
512.0,511.0
507.0,508.0
500.0,505.0
512.0,501.0
507.0,502.0
508.0,498.0
495.0,498.0
502.0,493.0
505.0,497.0
509.0,501.0
510.0,503.0
519.0,507.0
527.0,511.0
525.0,509.0
525.0,511.0
514.0,510.0
515.0,510.0
508.0,501.0
512.0,504.0
507.0,489.0
506.0,502.0
510.0,498.0
500.0,497.0
494.0,500.0
505.0,498.0
510.0,496.0
513.0,494.0
509.0,501.0
518.0,505.0
525.0,513.0
524.0,513.0
522.0,509.0
517.0,513.0
510.0,509.0
509.0,506.0
509.0,503.0
507.0,501.0
505.0,501.0
509.0,496.0
503.0,495.0
495.0,499.0
497.0,496.0
500.0,491.0
512.0,503.0
520.0,511.0
522.0,512.0
528.0,513.0
516.0,509.0
516.0,506.0
516.0,512.0
512.0,502.0
499.0,509.0
498.0,507.0
503.0,503.0
504.0,501.0
493.0,499.0
498.0,493.0
494.0,487.0
505.0,493.0
506.0,493.0
515.0,502.0
521.0,507.0
528.0,511.0
528.0,507.0
528.0,511.0
523.0,513.0
511.0,507.0
500.0,513.0
494.0,506.0
497.0,507.0
508.0,500.0
508.0,495.0
497.0,487.0
486.0,495.0
494.0,487.0
500.0,491.0
506.0,494.0
508.0,499.0
517.0,502.0
526.0,511.0
520.0,517.0
516.0,515.0
515.0,512.0
507.0,507.0
501.0,508.0
508.0,501.0
503.0,501.0
501.0,492.0
503.0,492.0
498.0,488.0
492.0,495.0
501.0,493.0
495.0,496.0
504.0,497.0
511.0,502.0
528.0,511.0
529.0,515.0
522.0,511.0
518.0,513.0
514.0,514.0
507.0,506.0
505.0,498.0
506.0,506.0
507.0,504.0
510.0,499.0
506.0,496.0
504.0,493.0
503.0,488.0
504.0,495.0
501.0,496.0
515.0,503.0
517.0,501.0
523.0,512.0
521.0,510.0
523.0,511.0
519.0,513.0
513.0,511.0
501.0,506.0
502.0,507.0
504.0,504.0
503.0,491.0
502.0,496.0
503.0,494.0
493.0,497.0
506.0,493.0
505.0,501.0
506.0,498.0
515.0,505.0
520.0,506.0
526.0,515.0
526.0,509.0
522.0,506.0
514.0,514.0
514.0,510.0
507.0,501.0
505.0,500.0
506.0,496.0
507.0,499.0
503.0,499.0
489.0,498.0
499.0,488.0
503.0,488.0
509.0,497.0
516.0,505.0
517.0,499.0
516.0,505.0
523.0,513.0
516.0,514.0
514.0,512.0
504.0,506.0
505.0,502.0
502.0,495.0
506.0,498.0
502.0,503.0
498.0,503.0
495.0,498.0
495.0,497.0
499.0,488.0
501.0,497.0
512.0,504.0
514.0,505.0
519.0,504.0
526.0,513.0
525.0,504.0
510.0,512.0
516.0,514.0
507.0,513.0
505.0,505.0
496.0,504.0
501.0,509.0
503.0,502.0
505.0,493.0
498.0,498.0
496.0,491.0
505.0,493.0
504.0,495.0
510.0,500.0
519.0,503.0
520.0,504.0
523.0,513.0
526.0,514.0
522.0,513.0
512.0,506.0
501.0,506.0
510.0,505.0
505.0,497.0
503.0,497.0
494.0,501.0
505.0,499.0
508.0,493.0
503.0,493.0
496.0,492.0
499.0,495.0
513.0,502.0
515.0,504.0
524.0,512.0
522.0,511.0
525.0,514.0
525.0,511.0
512.0,508.0
500.0,512.0
496.0,512.0
503.0,504.0
505.0,496.0
503.0,494.0
500.0,490.0
495.0,489.0
499.0,498.0
504.0,495.0
502.0,493.0
509.0,502.0
521.0,507.0
525.0,505.0
530.0,517.0
525.0,513.0
523.0,518.0
520.0,509.0
518.0,511.0
507.0,498.0
503.0,505.0
504.0,499.0
494.0,489.0
493.0,499.0
484.0,498.0
495.0,486.0
496.0,493.0
500.0,499.0
510.0,501.0
524.0,514.0
527.0,516.0
525.0,514.0
521.0,510.0
522.0,503.0
510.0,501.0
501.0,506.0
500.0,503.0
506.0,499.0
500.0,501.0
509.0,504.0
502.0,498.0
498.0,487.0
496.0,502.0
500.0,498.0
507.0,501.0
518.0,504.0
527.0,510.0
519.0,510.0
525.0,518.0
521.0,509.0
517.0,514.0
510.0,510.0
506.0,500.0
507.0,506.0
509.0,502.0
507.0,499.0
503.0,498.0
497.0,497.0
499.0,494.0
501.0,493.0
508.0,495.0
511.0,498.0
512.0,508.0
515.0,510.0
523.0,514.0
522.0,522.0
519.0,521.0
516.0,513.0
516.0,515.0
515.0,494.0
504.0,497.0
514.0,495.0
510.0,493.0
507.0,497.0
501.0,499.0
502.0,497.0
501.0,494.0
512.0,489.0
508.0,493.0
523.0,507.0
526.0,510.0
525.0,513.0
517.0,511.0
519.0,512.0
506.0,501.0
495.0,508.0
500.0,501.0
497.0,502.0
498.0,495.0
498.0,493.0
496.0,490.0
500.0,494.0
500.0,492.0
497.0,494.0
511.0,495.0
521.0,501.0
528.0,508.0
532.0,513.0
522.0,513.0
527.0,513.0
514.0,505.0
508.0,509.0
508.0,504.0
502.0,499.0
499.0,496.0
499.0,496.0
504.0,489.0
501.0,495.0
498.0,495.0
492.0,494.0
500.0,492.0
515.0,498.0
518.0,501.0
525.0,509.0
526.0,514.0
515.0,508.0
513.0,507.0
506.0,502.0
507.0,507.0
500.0,509.0
501.0,505.0
512.0,499.0
510.0,497.0
506.0,496.0
495.0,502.0
502.0,497.0
499.0,491.0
512.0,501.0
512.0,499.0
512.0,499.0
531.0,509.0
522.0,506.0
521.0,509.0
519.0,515.0
512.0,507.0
509.0,508.0
505.0,497.0
504.0,500.0
504.0,500.0
506.0,496.0
498.0,500.0
499.0,493.0
498.0,491.0
500.0,494.0
513.0,501.0
517.0,507.0
529.0,506.0
529.0,512.0
528.0,511.0
516.0,500.0
510.0,507.0
507.0,502.0
504.0,504.0
509.0,498.0
506.0,496.0
508.0,497.0
508.0,499.0
503.0,488.0
505.0,494.0
497.0,500.0
511.0,498.0
510.0,503.0
504.0,500.0
514.0,506.0
522.0,515.0
521.0,513.0
516.0,516.0
501.0,505.0
509.0,498.0
506.0,507.0
503.0,490.0
501.0,493.0
503.0,496.0
503.0,494.0
492.0,495.0
499.0,493.0
499.0,488.0
508.0,500.0
514.0,503.0
520.0,507.0
521.0,508.0
521.0,513.0
518.0,517.0
518.0,515.0
501.0,511.0
506.0,510.0
509.0,505.0
505.0,505.0
502.0,502.0
501.0,499.0
505.0,494.0
501.0,494.0
491.0,485.0
499.0,499.0
506.0,494.0
517.0,505.0
520.0,504.0
529.0,514.0
520.0,511.0
515.0,506.0
516.0,512.0
502.0,510.0
509.0,505.0
506.0,506.0
507.0,501.0
506.0,499.0
501.0,495.0
499.0,493.0
492.0,497.0
491.0,496.0
506.0,496.0
512.0,500.0
513.0,505.0
526.0,509.0
521.0,510.0
523.0,512.0
526.0,514.0
522.0,513.0
513.0,507.0
506.0,507.0
499.0,508.0
503.0,506.0
503.0,504.0
496.0,495.0
503.0,487.0
498.0,490.0
492.0,498.0
497.0,499.0
510.0,503.0
520.0,504.0
522.0,507.0
523.0,510.0
522.0,516.0
512.0,509.0
509.0,511.0
508.0,509.0
500.0,506.0
497.0,504.0
498.0,497.0
501.0,497.0
501.0,487.0
501.0,495.0
507.0,493.0
506.0,494.0
515.0,502.0
513.0,501.0
519.0,510.0
524.0,509.0
524.0,516.0
521.0,514.0
512.0,516.0
508.0,503.0
497.0,511.0
511.0,505.0
504.0,505.0
503.0,494.0
504.0,499.0
501.0,496.0
499.0,493.0
509.0,495.0
502.0,504.0
510.0,501.0
517.0,508.0
519.0,510.0
525.0,513.0
522.0,510.0
516.0,507.0
518.0,508.0
514.0,511.0
507.0,513.0
508.0,512.0
508.0,515.0
504.0,504.0
495.0,502.0
492.0,500.0
499.0,473.0
497.0,484.0
507.0,492.0
515.0,498.0
528.0,508.0
522.0,493.0
528.0,497.0
519.0,510.0
503.0,512.0
507.0,514.0
503.0,508.0
502.0,500.0
500.0,502.0
509.0,499.0
512.0,492.0
506.0,490.0
510.0,490.0
495.0,490.0
512.0,501.0
512.0,513.0
515.0,508.0
528.0,518.0
528.0,520.0
525.0,519.0
526.0,500.0
514.0,501.0
510.0,521.0
506.0,509.0
496.0,500.0
498.0,503.0
494.0,504.0
490.0,492.0
495.0,497.0
499.0,494.0
506.0,494.0
512.0,496.0
525.0,505.0
534.0,512.0
526.0,508.0
520.0,511.0
527.0,511.0
526.0,520.0
520.0,515.0
510.0,513.0
498.0,513.0
505.0,506.0
503.0,505.0
512.0,504.0
505.0,494.0
494.0,493.0
494.0,495.0
493.0,486.0
507.0,503.0
510.0,505.0
526.0,512.0
525.0,510.0
527.0,517.0
525.0,513.0
522.0,517.0
513.0,511.0
519.0,513.0
505.0,511.0
506.0,503.0
516.0,499.0
512.0,499.0
494.0,502.0
487.0,501.0
499.0,495.0
506.0,497.0
509.0,501.0
506.0,506.0
513.0,507.0
524.0,506.0
516.0,509.0
514.0,500.0
516.0,515.0
496.0,511.0
499.0,505.0
517.0,508.0
517.0,497.0
509.0,506.0
520.0,493.0
513.0,486.0
508.0,489.0
507.0,501.0
510.0,497.0
511.0,497.0
518.0,507.0
535.0,510.0
534.0,514.0
525.0,503.0
525.0,514.0
503.0,511.0
503.0,505.0
491.0,497.0
497.0,505.0
512.0,493.0
506.0,505.0
509.0,504.0
507.0,505.0
501.0,490.0
514.0,485.0
525.0,490.0
520.0,479.0
514.0,496.0
514.0,503.0
503.0,508.0
490.0,522.0
485.0,519.0
488.0,513.0
480.0,522.0
508.0,521.0
500.0,516.0
507.0,494.0
502.0,495.0
492.0,487.0
489.0,488.0
504.0,493.0
510.0,495.0
514.0,511.0
516.0,504.0
522.0,500.0
524.0,509.0
529.0,513.0
520.0,510.0
513.0,508.0
505.0,508.0
505.0,500.0
500.0,507.0
495.0,496.0
494.0,497.0
483.0,501.0
489.0,502.0
497.0,493.0
498.0,495.0
514.0,502.0
525.0,511.0
530.0,511.0
531.0,511.0
528.0,517.0
520.0,518.0
515.0,518.0
519.0,518.0
508.0,515.0
505.0,505.0
499.0,491.0
489.0,489.0
486.0,496.0
486.0,492.0
494.0,503.0
508.0,501.0
519.0,491.0
526.0,485.0
544.0,500.0
531.0,513.0
527.0,512.0
525.0,508.0
519.0,507.0
516.0,518.0
509.0,517.0
495.0,508.0
486.0,487.0
498.0,482.0
513.0,478.0
507.0,494.0
499.0,505.0
494.0,494.0
491.0,491.0
487.0,487.0
485.0,500.0
505.0,506.0
531.0,508.0
551.0,513.0
554.0,506.0
542.0,511.0
539.0,516.0
530.0,514.0
475.0,514.0
463.0,505.0
471.0,502.0
496.0,493.0
489.0,501.0
500.0,500.0
501.0,504.0
515.0,495.0
541.0,497.0
517.0,496.0
519.0,509.0
520.0,519.0
519.0,518.0
495.0,497.0
505.0,498.0
509.0,503.0
510.0,498.0
502.0,493.0
506.0,502.0
509.0,491.0
487.0,495.0
498.0,494.0
482.0,493.0
488.0,500.0
485.0,504.0
502.0,501.0
523.0,503.0
527.0,509.0
511.0,510.0
526.0,520.0
522.0,523.0
507.0,516.0
496.0,511.0
512.0,491.0
516.0,492.0
509.0,507.0
518.0,500.0
516.0,496.0
508.0,496.0
494.0,492.0
492.0,488.0
501.0,498.0
508.0,491.0
520.0,508.0
547.0,512.0
564.0,503.0
567.0,514.0
560.0,506.0
561.0,516.0
545.0,514.0
510.0,508.0
486.0,493.0
473.0,491.0
459.0,493.0
484.0,491.0
496.0,496.0
496.0,499.0
499.0,514.0
487.0,523.0
498.0,514.0
489.0,502.0
495.0,496.0
503.0,503.0
502.0,505.0
529.0,513.0
539.0,514.0
540.0,508.0
524.0,513.0
513.0,502.0
470.0,504.0
472.0,499.0
476.0,499.0
488.0,499.0
480.0,490.0
484.0,498.0
495.0,496.0
500.0,500.0
519.0,502.0
542.0,519.0
538.0,519.0
531.0,511.0
525.0,508.0
519.0,510.0
522.0,506.0
498.0,501.0
507.0,497.0
499.0,501.0
495.0,495.0
502.0,498.0
494.0,497.0
499.0,476.0
496.0,466.0
514.0,484.0
508.0,504.0
517.0,526.0
525.0,526.0
527.0,507.0
533.0,493.0
543.0,513.0
556.0,528.0
541.0,519.0
480.0,507.0
453.0,488.0
461.0,480.0
444.0,510.0
455.0,506.0
517.0,508.0
558.0,497.0
560.0,482.0
541.0,490.0
548.0,503.0
542.0,505.0
533.0,510.0
530.0,513.0
528.0,506.0
498.0,509.0
493.0,512.0
506.0,511.0
495.0,499.0
498.0,505.0
475.0,502.0
492.0,493.0
484.0,490.0
495.0,490.0
487.0,509.0
499.0,512.0
514.0,502.0
519.0,500.0
552.0,504.0
567.0,514.0
560.0,530.0
557.0,503.0
526.0,485.0
496.0,487.0
468.0,492.0
444.0,497.0
492.0,520.0
528.0,515.0
540.0,518.0
513.0,512.0
491.0,504.0
507.0,489.0
517.0,481.0
524.0,485.0
536.0,514.0
510.0,508.0
522.0,522.0
493.0,524.0
490.0,500.0
497.0,496.0
498.0,487.0
492.0,504.0
522.0,505.0
520.0,507.0
524.0,510.0
511.0,496.0
501.0,490.0
499.0,492.0
472.0,497.0
471.0,500.0
485.0,494.0
498.0,512.0
522.0,515.0
520.0,522.0
538.0,517.0
578.0,502.0
563.0,516.0
511.0,533.0
451.0,527.0
475.0,471.0
455.0,501.0
527.0,525.0
518.0,514.0
514.0,479.0
533.0,443.0
553.0,500.0
560.0,522.0
537.0,524.0
527.0,506.0
499.0,491.0
498.0,504.0
514.0,507.0
547.0,517.0
560.0,512.0
545.0,490.0
503.0,504.0
487.0,499.0
499.0,503.0
502.0,490.0
462.0,492.0
449.0,488.0
471.0,485.0
497.0,492.0
493.0,482.0
502.0,484.0
529.0,493.0
547.0,520.0
518.0,552.0
498.0,536.0
498.0,495.0
506.0,462.0
499.0,469.0
507.0,533.0
494.0,541.0
487.0,508.0
502.0,470.0
499.0,491.0
489.0,503.0
496.0,490.0
502.0,459.0
499.0,527.0
507.0,573.0
515.0,537.0
503.0,492.0
521.0,474.0
537.0,474.0
569.0,503.0
606.0,518.0
591.0,519.0
594.0,520.0
511.0,517.0
415.0,528.0
410.0,539.0
413.0,530.0
409.0,462.0
446.0,391.0
534.0,432.0
614.0,503.0
644.0,513.0
638.0,512.0
516.0,512.0
483.0,531.0
439.0,522.0
442.0,527.0
475.0,540.0
508.0,536.0
523.0,511.0
539.0,456.0
505.0,455.0
495.0,469.0
495.0,529.0
474.0,504.0
499.0,480.0
509.0,488.0
561.0,490.0
579.0,503.0
583.0,511.0
546.0,517.0
502.0,517.0
411.0,492.0
424.0,477.0
509.0,491.0
596.0,535.0
609.0,546.0
545.0,539.0
387.0,519.0
485.0,572.0
523.0,519.0
502.0,425.0
542.0,455.0
551.0,477.0
578.0,517.0
557.0,499.0
510.0,509.0
477.0,541.0
388.0,556.0
461.0,497.0
461.0,409.0
446.0,461.0
453.0,498.0
454.0,472.0
604.0,442.0
604.0,445.0
559.0,500.0
558.0,522.0
512.0,519.0
469.0,503.0
435.0,514.0
452.0,482.0
469.0,484.0
491.0,513.0
499.0,539.0
508.0,585.0
522.0,584.0
602.0,553.0
664.0,488.0
661.0,500.0
604.0,567.0
469.0,492.0
439.0,430.0
485.0,465.0
382.0,596.0
381.0,584.0
454.0,480.0
483.0,392.0
487.0,465.0
469.0,523.0
454.0,532.0
429.0,522.0
436.0,463.0
447.0,463.0
477.0,505.0
499.0,527.0
548.0,530.0
562.0,504.0
531.0,490.0
475.0,479.0
508.0,499.0
549.0,521.0
583.0,471.0
526.0,446.0
495.0,486.0
480.0,535.0
486.0,550.0
510.0,536.0
538.0,480.0
582.0,482.0
614.0,516.0
605.0,526.0
479.0,521.0
461.0,492.0
518.0,515.0
429.0,509.0
367.0,479.0
464.0,581.0
504.0,581.0
488.0,484.0
468.0,367.0
461.0,432.0
474.0,504.0
551.0,524.0
630.0,542.0
614.0,545.0
558.0,525.0
527.0,497.0
471.0,471.0
423.0,477.0
457.0,489.0
462.0,480.0
480.0,495.0
527.0,469.0
506.0,463.0
502.0,488.0
486.0,555.0
431.0,588.0
500.0,527.0
521.0,466.0
548.0,474.0
586.0,482.0
602.0,500.0
571.0,527.0
497.0,541.0
455.0,574.0
470.0,609.0
494.0,531.0
492.0,422.0
498.0,405.0
464.0,460.0
524.0,499.0
585.0,561.0
617.0,539.0
541.0,477.0
412.0,464.0
329.0,482.0
353.0,509.0
453.0,504.0
432.0,500.0
478.0,465.0
491.0,484.0
576.0,499.0
636.0,515.0
631.0,536.0
593.0,536.0
529.0,466.0
478.0,421.0
441.0,489.0
588.0,505.0
598.0,497.0
637.0,569.0
565.0,603.0
522.0,525.0
498.0,497.0
497.0,502.0
499.0,544.0
498.0,517.0
403.0,452.0
433.0,462.0
472.0,487.0
462.0,519.0
481.0,537.0
520.0,550.0
531.0,492.0
544.0,434.0
532.0,474.0
428.0,530.0
448.0,496.0
497.0,489.0
500.0,499.0
486.0,500.0
514.0,499.0
384.0,502.0
479.0,498.0
616.0,521.0
619.0,509.0
555.0,530.0
493.0,551.0
435.0,556.0
441.0,516.0
515.0,481.0
587.0,446.0
561.0,504.0
514.0,540.0
465.0,494.0
505.0,463.0
541.0,480.0
604.0,491.0
587.0,502.0
509.0,504.0
489.0,497.0
455.0,515.0
422.0,516.0
489.0,508.0
470.0,500.0
484.0,512.0
543.0,531.0
522.0,502.0
459.0,476.0
496.0,522.0
576.0,584.0
589.0,544.0
493.0,433.0
531.0,417.0
559.0,500.0
560.0,491.0
520.0,498.0
502.0,512.0
470.0,525.0
524.0,525.0
540.0,498.0
525.0,452.0
398.0,444.0
438.0,479.0
