CH1,CH2
505.0,494.0
503.0,496.0
511.0,502.0
516.0,508.0
514.0,514.0
517.0,509.0
518.0,518.0
515.0,504.0
509.0,509.0
504.0,498.0
512.0,502.0
503.0,502.0
510.0,500.0
503.0,497.0
501.0,492.0
493.0,496.0
500.0,494.0
509.0,496.0
508.0,500.0
522.0,508.0
525.0,507.0
528.0,518.0
513.0,506.0
515.0,513.0
513.0,511.0
500.0,510.0
513.0,505.0
510.0,503.0
506.0,496.0
505.0,500.0
504.0,495.0
500.0,487.0
498.0,487.0
502.0,487.0
504.0,494.0
509.0,494.0
521.0,507.0
523.0,506.0
528.0,516.0
521.0,515.0
521.0,508.0
510.0,511.0
506.0,506.0
498.0,509.0
491.0,504.0
497.0,492.0
494.0,501.0
501.0,493.0
492.0,494.0
500.0,490.0
499.0,488.0
501.0,489.0
506.0,501.0
520.0,507.0
518.0,508.0
523.0,508.0
522.0,515.0
514.0,503.0
518.0,509.0
515.0,506.0
505.0,496.0
508.0,500.0
502.0,492.0
499.0,497.0
502.0,493.0
501.0,490.0
508.0,491.0
502.0,493.0
511.0,501.0
507.0,500.0
523.0,511.0
526.0,516.0
523.0,513.0
514.0,506.0
517.0,508.0
511.0,506.0
500.0,509.0
508.0,502.0
505.0,501.0
505.0,492.0
500.0,498.0
504.0,497.0
508.0,492.0
509.0,481.0
514.0,492.0
514.0,498.0
525.0,507.0
518.0,507.0
520.0,515.0
517.0,512.0
508.0,505.0
508.0,510.0
497.0,507.0
494.0,509.0
502.0,498.0
501.0,501.0
501.0,488.0
492.0,502.0
497.0,494.0
486.0,489.0
500.0,496.0
493.0,491.0
507.0,507.0
525.0,511.0
528.0,515.0
524.0,518.0
511.0,512.0
515.0,512.0
500.0,504.0
506.0,504.0
507.0,503.0
504.0,501.0
503.0,493.0
506.0,497.0
492.0,489.0
492.0,496.0
491.0,498.0
501.0,496.0
503.0,499.0
501.0,505.0
526.0,511.0
526.0,514.0
523.0,507.0
519.0,511.0
511.0,506.0
507.0,507.0
505.0,506.0
501.0,502.0
496.0,505.0
503.0,490.0
482.0,498.0
497.0,493.0
487.0,488.0
490.0,477.0
493.0,498.0
506.0,497.0
521.0,502.0
528.0,514.0
527.0,514.0
523.0,514.0
517.0,512.0
512.0,513.0
506.0,513.0
508.0,501.0
511.0,502.0
503.0,508.0
504.0,501.0
498.0,503.0
505.0,499.0
518.0,494.0
513.0,487.0
519.0,499.0
514.0,503.0
522.0,511.0
512.0,505.0
508.0,510.0
508.0,509.0
506.0,509.0
508.0,516.0
508.0,506.0
501.0,499.0
499.0,510.0
495.0,505.0
503.0,498.0
500.0,495.0
499.0,493.0
492.0,498.0
493.0,495.0
507.0,501.0
515.0,501.0
519.0,508.0
521.0,509.0
525.0,509.0
514.0,509.0
517.0,513.0
510.0,508.0
507.0,504.0
501.0,500.0
496.0,504.0
492.0,499.0
483.0,501.0
496.0,494.0
495.0,495.0
501.0,493.0
500.0,489.0
507.0,501.0
512.0,505.0
527.0,512.0
528.0,516.0
521.0,512.0
519.0,511.0
514.0,511.0
507.0,509.0
500.0,505.0
497.0,506.0
505.0,500.0
503.0,496.0
502.0,486.0
501.0,480.0
504.0,492.0
511.0,493.0
504.0,498.0
513.0,502.0
522.0,508.0
529.0,513.0
526.0,516.0
526.0,514.0
522.0,513.0
518.0,512.0
509.0,493.0
512.0,502.0
508.0,493.0
511.0,500.0
504.0,492.0
496.0,498.0
494.0,486.0
503.0,494.0
498.0,503.0
508.0,502.0
510.0,503.0
518.0,513.0
518.0,508.0
526.0,514.0
519.0,505.0
518.0,510.0
511.0,504.0
507.0,497.0
504.0,493.0
501.0,505.0
501.0,501.0
503.0,493.0
490.0,491.0
496.0,492.0
498.0,491.0
503.0,488.0
508.0,497.0
519.0,501.0
524.0,513.0
524.0,514.0
518.0,510.0
522.0,513.0
513.0,511.0
503.0,506.0
506.0,506.0
504.0,497.0
503.0,502.0
507.0,497.0
509.0,495.0
501.0,489.0
498.0,484.0
503.0,496.0
506.0,499.0
506.0,499.0
527.0,513.0
522.0,512.0
520.0,512.0
518.0,512.0
520.0,511.0
505.0,501.0
508.0,505.0
512.0,502.0
508.0,502.0
507.0,494.0
516.0,498.0
512.0,494.0
508.0,492.0
501.0,500.0
502.0,501.0
514.0,500.0
513.0,504.0
519.0,510.0
515.0,508.0
517.0,515.0
514.0,514.0
510.0,506.0
502.0,514.0
509.0,504.0
505.0,499.0
512.0,500.0
501.0,498.0
498.0,497.0
488.0,498.0
491.0,496.0
499.0,491.0
499.0,497.0
510.0,497.0
519.0,505.0
524.0,505.0
528.0,516.0
520.0,511.0
521.0,511.0
513.0,510.0
505.0,511.0
506.0,505.0
504.0,501.0
496.0,503.0
509.0,498.0
502.0,491.0
500.0,490.0
503.0,485.0
506.0,491.0
515.0,498.0
521.0,505.0
531.0,509.0
528.0,515.0
526.0,516.0
518.0,508.0
512.0,513.0
506.0,502.0
504.0,496.0
505.0,502.0
509.0,501.0
509.0,497.0
499.0,502.0
507.0,493.0
504.0,490.0
502.0,497.0
503.0,494.0
514.0,496.0
520.0,508.0
524.0,510.0
523.0,513.0
516.0,506.0
514.0,513.0
509.0,506.0
510.0,507.0
493.0,508.0
507.0,503.0
490.0,500.0
503.0,501.0
504.0,498.0
499.0,497.0
498.0,498.0
502.0,495.0
501.0,493.0
510.0,497.0
517.0,507.0
522.0,515.0
518.0,504.0
519.0,516.0
515.0,506.0
511.0,502.0
507.0,509.0
506.0,502.0
506.0,505.0
504.0,494.0
490.0,501.0
495.0,496.0
497.0,487.0
489.0,499.0
502.0,495.0
509.0,499.0
514.0,507.0
515.0,500.0
523.0,512.0
515.0,511.0
518.0,512.0
519.0,511.0
506.0,510.0
506.0,506.0
507.0,508.0
507.0,501.0
503.0,501.0
491.0,503.0
504.0,493.0
497.0,496.0
498.0,496.0
503.0,496.0
504.0,494.0
510.0,500.0
524.0,508.0
525.0,512.0
519.0,511.0
528.0,512.0
519.0,513.0
517.0,507.0
511.0,505.0
500.0,506.0
502.0,502.0
497.0,493.0
498.0,496.0
495.0,480.0
493.0,486.0
489.0,498.0
510.0,499.0
512.0,504.0
519.0,508.0
521.0,510.0
522.0,509.0
513.0,509.0
516.0,507.0
510.0,512.0
511.0,498.0
500.0,511.0
504.0,504.0
508.0,497.0
505.0,491.0
505.0,490.0
497.0,488.0
499.0,489.0
494.0,503.0
501.0,495.0
514.0,504.0
513.0,502.0
521.0,507.0
519.0,506.0
523.0,511.0
523.0,511.0
507.0,505.0
512.0,505.0
507.0,493.0
501.0,505.0
508.0,498.0
499.0,491.0
497.0,497.0
505.0,491.0
496.0,496.0
507.0,500.0
507.0,504.0
521.0,505.0
520.0,503.0
525.0,513.0
525.0,514.0
520.0,508.0
514.0,512.0
500.0,506.0
502.0,506.0
500.0,498.0
511.0,501.0
497.0,501.0
509.0,495.0
500.0,488.0
498.0,491.0
490.0,497.0
503.0,497.0
512.0,504.0
519.0,510.0
523.0,513.0
526.0,507.0
526.0,516.0
524.0,513.0
509.0,510.0
509.0,511.0
499.0,509.0
504.0,500.0
502.0,494.0
507.0,497.0
503.0,491.0
495.0,497.0
494.0,497.0
503.0,497.0
511.0,498.0
518.0,501.0
524.0,508.0
519.0,512.0
520.0,509.0
517.0,508.0
515.0,510.0
505.0,510.0
505.0,502.0
509.0,500.0
500.0,505.0
508.0,499.0
503.0,493.0
500.0,498.0
500.0,496.0
504.0,497.0
509.0,495.0
506.0,498.0
515.0,507.0
527.0,509.0
529.0,513.0
516.0,512.0
518.0,512.0
515.0,512.0
506.0,509.0
511.0,504.0
505.0,493.0
504.0,503.0
505.0,486.0
497.0,499.0
508.0,494.0
503.0,494.0
496.0,497.0
507.0,493.0
502.0,497.0
516.0,506.0
518.0,513.0
514.0,512.0
522.0,515.0
515.0,512.0
512.0,504.0
509.0,511.0
505.0,498.0
502.0,499.0
503.0,504.0
508.0,497.0
500.0,496.0
495.0,489.0
499.0,488.0
486.0,499.0
512.0,499.0
513.0,504.0
523.0,506.0
525.0,514.0
522.0,509.0
517.0,512.0
512.0,510.0
512.0,512.0
509.0,509.0
504.0,497.0
508.0,500.0
504.0,490.0
503.0,500.0
492.0,498.0
493.0,496.0
496.0,487.0
502.0,491.0
510.0,495.0
513.0,502.0
525.0,511.0
528.0,513.0
528.0,509.0
524.0,513.0
517.0,515.0
514.0,508.0
506.0,502.0
503.0,503.0
504.0,503.0
512.0,497.0
502.0,489.0
497.0,499.0
497.0,494.0
498.0,498.0
511.0,498.0
515.0,501.0
524.0,512.0
528.0,513.0
521.0,512.0
522.0,509.0
526.0,513.0
520.0,508.0
508.0,510.0
506.0,507.0
505.0,495.0
506.0,499.0
489.0,495.0
495.0,494.0
496.0,486.0
498.0,486.0
500.0,494.0
508.0,498.0
517.0,505.0
512.0,507.0
524.0,512.0
519.0,507.0
519.0,512.0
510.0,510.0
510.0,500.0
507.0,501.0
507.0,503.0
505.0,499.0
508.0,501.0
495.0,500.0
500.0,486.0
498.0,490.0
494.0,498.0
509.0,495.0
512.0,490.0
516.0,499.0
521.0,504.0
530.0,514.0
522.0,512.0
518.0,513.0
512.0,513.0
506.0,504.0
508.0,503.0
502.0,498.0
504.0,501.0
507.0,497.0
503.0,497.0
498.0,489.0
499.0,488.0
504.0,494.0
495.0,496.0
506.0,490.0
520.0,510.0
522.0,512.0
518.0,513.0
515.0,516.0
516.0,509.0
508.0,505.0
496.0,510.0
503.0,497.0
503.0,496.0
497.0,507.0
506.0,497.0
506.0,494.0
499.0,492.0
501.0,492.0
502.0,491.0
500.0,496.0
513.0,499.0
517.0,509.0
526.0,510.0
522.0,514.0
513.0,506.0
519.0,513.0
512.0,508.0
504.0,500.0
502.0,498.0
502.0,506.0
507.0,499.0
503.0,494.0
498.0,490.0
497.0,489.0
499.0,485.0
502.0,487.0
508.0,499.0
518.0,508.0
519.0,507.0
523.0,515.0
516.0,511.0
521.0,517.0
513.0,517.0
510.0,508.0
503.0,504.0
489.0,508.0
507.0,500.0
498.0,502.0
500.0,492.0
488.0,499.0
494.0,497.0
496.0,504.0
500.0,497.0
520.0,504.0
520.0,501.0
528.0,510.0
522.0,513.0
522.0,514.0
510.0,504.0
511.0,507.0
507.0,507.0
506.0,501.0
507.0,499.0
500.0,503.0
503.0,498.0
503.0,493.0
496.0,488.0
502.0,494.0
501.0,491.0
514.0,503.0
522.0,504.0
522.0,502.0
524.0,514.0
515.0,512.0
505.0,506.0
511.0,511.0
503.0,511.0
502.0,502.0
494.0,509.0
509.0,501.0
504.0,494.0
495.0,501.0
503.0,493.0
498.0,480.0
495.0,491.0
496.0,484.0
516.0,503.0
520.0,509.0
524.0,515.0
527.0,515.0
533.0,515.0
523.0,513.0
524.0,513.0
517.0,508.0
513.0,502.0
507.0,504.0
502.0,503.0
501.0,497.0
487.0,492.0
500.0,495.0
493.0,493.0
496.0,495.0
510.0,501.0
510.0,501.0
522.0,509.0
527.0,514.0
529.0,517.0
516.0,509.0
519.0,514.0
514.0,513.0
512.0,506.0
505.0,504.0
508.0,504.0
506.0,494.0
503.0,493.0
502.0,495.0
494.0,498.0
496.0,496.0
508.0,495.0
513.0,500.0
512.0,502.0
527.0,512.0
521.0,513.0
525.0,516.0
520.0,514.0
517.0,513.0
511.0,506.0
509.0,505.0
496.0,507.0
510.0,500.0
492.0,500.0
505.0,496.0
499.0,490.0
495.0,498.0
502.0,491.0
506.0,499.0
508.0,500.0
513.0,502.0
517.0,504.0
521.0,515.0
520.0,509.0
510.0,515.0
512.0,511.0
498.0,512.0
502.0,507.0
508.0,502.0
507.0,501.0
503.0,497.0
504.0,491.0
493.0,494.0
491.0,489.0
500.0,493.0
511.0,497.0
522.0,503.0
518.0,501.0
530.0,506.0
529.0,515.0
525.0,509.0
525.0,510.0
520.0,509.0
514.0,499.0
504.0,508.0
506.0,500.0
507.0,497.0
506.0,497.0
504.0,493.0
504.0,491.0
498.0,495.0
507.0,493.0
506.0,498.0
520.0,504.0
526.0,509.0
535.0,513.0
529.0,514.0
521.0,507.0
514.0,505.0
516.0,510.0
517.0,504.0
505.0,497.0
495.0,504.0
502.0,499.0
503.0,488.0
502.0,488.0
504.0,477.0
507.0,485.0
513.0,499.0
503.0,495.0
513.0,509.0
507.0,510.0
519.0,515.0
515.0,509.0
517.0,513.0
513.0,508.0
510.0,508.0
518.0,503.0
506.0,506.0
506.0,501.0
498.0,502.0
502.0,493.0
495.0,494.0
494.0,485.0
503.0,493.0
502.0,496.0
515.0,503.0
522.0,505.0
522.0,508.0
525.0,513.0
519.0,508.0
513.0,508.0
507.0,510.0
505.0,505.0
501.0,497.0
505.0,500.0
505.0,496.0
503.0,494.0
505.0,496.0
510.0,494.0
508.0,496.0
508.0,497.0
507.0,505.0
507.0,507.0
510.0,514.0
517.0,513.0
516.0,513.0
519.0,512.0
518.0,512.0
514.0,508.0
509.0,492.0
504.0,504.0
496.0,499.0
513.0,499.0
511.0,497.0
516.0,493.0
512.0,492.0
507.0,487.0
517.0,505.0
510.0,493.0
514.0,504.0
514.0,508.0
512.0,508.0
521.0,514.0
513.0,501.0
504.0,504.0
504.0,507.0
505.0,505.0
491.0,508.0
498.0,496.0
502.0,498.0
490.0,500.0
500.0,492.0
505.0,489.0
511.0,497.0
521.0,499.0
527.0,502.0
525.0,505.0
534.0,519.0
531.0,507.0
525.0,514.0
515.0,512.0
502.0,503.0
507.0,508.0
506.0,506.0
514.0,501.0
497.0,503.0
500.0,490.0
500.0,493.0
487.0,501.0
489.0,497.0
498.0,494.0
505.0,497.0
509.0,505.0
522.0,510.0
523.0,509.0
522.0,509.0
521.0,511.0
518.0,510.0
515.0,507.0
509.0,497.0
509.0,503.0
510.0,498.0
507.0,498.0
499.0,500.0
503.0,490.0
505.0,489.0
497.0,499.0
501.0,501.0
516.0,502.0
522.0,507.0
519.0,507.0
526.0,514.0
522.0,515.0
515.0,512.0
513.0,508.0
509.0,508.0
497.0,509.0
503.0,492.0
503.0,499.0
504.0,489.0
497.0,491.0
495.0,487.0
509.0,496.0
514.0,495.0
521.0,511.0
521.0,511.0
527.0,523.0
527.0,525.0
521.0,519.0
512.0,505.0
498.0,497.0
505.0,508.0
516.0,504.0
510.0,498.0
509.0,487.0
501.0,490.0
492.0,490.0
502.0,500.0
513.0,494.0
520.0,499.0
509.0,494.0
525.0,486.0
532.0,507.0
528.0,510.0
505.0,507.0
508.0,511.0
510.0,511.0
504.0,515.0
500.0,515.0
500.0,508.0
489.0,503.0
497.0,501.0
505.0,488.0
502.0,493.0
495.0,498.0
507.0,496.0
509.0,500.0
517.0,499.0
525.0,514.0
524.0,510.0
524.0,517.0
520.0,515.0
509.0,506.0
514.0,505.0
512.0,505.0
499.0,508.0
505.0,501.0
500.0,504.0
505.0,492.0
500.0,486.0
507.0,491.0
509.0,493.0
503.0,493.0
501.0,499.0
503.0,502.0
520.0,509.0
517.0,515.0
518.0,509.0
511.0,505.0
520.0,513.0
512.0,496.0
505.0,506.0
502.0,500.0
508.0,499.0
509.0,501.0
509.0,494.0
509.0,495.0
503.0,496.0
508.0,480.0
516.0,494.0
521.0,501.0
516.0,508.0
516.0,515.0
520.0,512.0
515.0,509.0
507.0,511.0
509.0,513.0
491.0,512.0
515.0,504.0
501.0,506.0
500.0,501.0
491.0,501.0
492.0,495.0
499.0,480.0
498.0,495.0
511.0,496.0
518.0,503.0
526.0,507.0
530.0,514.0
525.0,516.0
523.0,514.0
521.0,512.0
508.0,499.0
504.0,506.0
510.0,502.0
517.0,499.0
509.0,490.0
508.0,496.0
499.0,485.0
481.0,496.0
474.0,492.0
490.0,494.0
507.0,498.0
512.0,495.0
521.0,505.0
527.0,510.0
524.0,514.0
525.0,507.0
526.0,505.0
521.0,502.0
512.0,510.0
511.0,501.0
513.0,508.0
504.0,498.0
494.0,502.0
494.0,498.0
496.0,495.0
500.0,488.0
496.0,500.0
508.0,499.0
512.0,506.0
515.0,507.0
527.0,515.0
529.0,515.0
524.0,514.0
520.0,510.0
502.0,510.0
500.0,502.0
498.0,504.0
508.0,492.0
514.0,500.0
514.0,492.0
514.0,495.0
508.0,491.0
499.0,485.0
502.0,499.0
500.0,496.0
521.0,503.0
524.0,515.0
516.0,510.0
525.0,520.0
527.0,508.0
521.0,513.0
507.0,510.0
502.0,505.0
500.0,510.0
512.0,502.0
497.0,503.0
496.0,498.0
489.0,497.0
490.0,485.0
494.0,495.0
515.0,504.0
523.0,508.0
529.0,508.0
527.0,520.0
526.0,524.0
532.0,515.0
515.0,517.0
521.0,518.0
507.0,496.0
511.0,485.0
493.0,491.0
501.0,501.0
504.0,502.0
493.0,496.0
499.0,481.0
495.0,485.0
501.0,485.0
508.0,494.0
510.0,496.0
524.0,499.0
530.0,509.0
525.0,511.0
513.0,508.0
512.0,505.0
513.0,511.0
506.0,511.0
508.0,506.0
508.0,502.0
508.0,499.0
501.0,498.0
500.0,499.0
498.0,489.0
498.0,497.0
507.0,497.0
501.0,492.0
511.0,508.0
519.0,507.0
525.0,518.0
528.0,518.0
523.0,515.0
516.0,504.0
510.0,500.0
506.0,503.0
506.0,502.0
498.0,505.0
497.0,491.0
495.0,485.0
499.0,491.0
503.0,488.0
503.0,487.0
504.0,496.0
508.0,498.0
513.0,502.0
525.0,512.0
529.0,516.0
520.0,509.0
519.0,512.0
510.0,497.0
512.0,508.0
510.0,504.0
509.0,499.0
500.0,503.0
496.0,500.0
492.0,497.0
499.0,492.0
490.0,495.0
504.0,483.0
507.0,489.0
529.0,503.0
536.0,500.0
534.0,510.0
520.0,513.0
525.0,513.0
519.0,514.0
498.0,509.0
495.0,506.0
491.0,506.0
503.0,502.0
508.0,498.0
514.0,496.0
510.0,493.0
502.0,487.0
489.0,497.0
493.0,496.0
502.0,498.0
510.0,505.0
525.0,509.0
522.0,510.0
522.0,513.0
519.0,514.0
518.0,513.0
507.0,512.0
505.0,501.0
505.0,499.0
509.0,495.0
515.0,495.0
507.0,493.0
490.0,483.0
487.0,488.0
488.0,497.0
499.0,500.0
509.0,505.0
521.0,509.0
520.0,511.0
523.0,516.0
525.0,518.0
521.0,515.0
508.0,512.0
511.0,505.0
511.0,506.0
508.0,505.0
495.0,504.0
506.0,494.0
498.0,486.0
502.0,492.0
498.0,488.0
500.0,497.0
507.0,507.0
516.0,506.0
520.0,515.0
527.0,511.0
526.0,513.0
519.0,512.0
518.0,511.0
507.0,502.0
502.0,502.0
505.0,503.0
502.0,499.0
507.0,498.0
504.0,499.0
500.0,493.0
495.0,492.0
483.0,490.0
505.0,498.0
509.0,501.0
504.0,503.0
525.0,506.0
529.0,506.0
529.0,506.0
523.0,514.0
518.0,512.0
507.0,514.0
506.0,517.0
514.0,507.0
519.0,503.0
512.0,504.0
502.0,495.0
495.0,488.0
507.0,490.0
501.0,497.0
516.0,497.0
516.0,499.0
527.0,510.0
523.0,508.0
518.0,507.0
502.0,508.0
503.0,515.0
505.0,509.0
506.0,511.0
496.0,509.0
503.0,499.0
498.0,487.0
501.0,494.0
506.0,494.0
501.0,492.0
498.0,485.0
506.0,498.0
510.0,494.0
524.0,510.0
525.0,512.0
520.0,519.0
525.0,518.0
523.0,508.0
514.0,507.0
513.0,510.0
509.0,504.0
513.0,500.0
510.0,489.0
509.0,494.0
507.0,497.0
489.0,500.0
487.0,496.0
507.0,486.0
497.0,476.0
515.0,491.0
512.0,495.0
516.0,503.0
527.0,520.0
518.0,514.0
518.0,519.0
514.0,512.0
499.0,511.0
503.0,495.0
506.0,504.0
498.0,501.0
493.0,511.0
500.0,502.0
506.0,490.0
510.0,488.0
505.0,496.0
509.0,500.0
508.0,501.0
517.0,507.0
525.0,511.0
526.0,516.0
527.0,511.0
524.0,514.0
521.0,503.0
507.0,502.0
502.0,510.0
508.0,505.0
513.0,501.0
500.0,498.0
506.0,498.0
501.0,487.0
499.0,491.0
502.0,489.0
504.0,501.0
504.0,497.0
519.0,507.0
531.0,512.0
524.0,514.0
503.0,508.0
502.0,510.0
504.0,509.0
507.0,509.0
507.0,505.0
495.0,503.0
501.0,501.0
503.0,488.0
502.0,493.0
500.0,491.0
504.0,491.0
502.0,500.0
513.0,502.0
515.0,506.0
522.0,503.0
529.0,512.0
530.0,515.0
524.0,514.0
518.0,506.0
505.0,507.0
497.0,512.0
502.0,504.0
502.0,491.0
499.0,490.0
503.0,497.0
505.0,491.0
485.0,496.0
500.0,485.0
505.0,497.0
516.0,502.0
522.0,507.0
519.0,507.0
516.0,510.0
515.0,511.0
512.0,513.0
512.0,512.0
507.0,506.0
500.0,503.0
492.0,505.0
503.0,491.0
492.0,497.0
504.0,494.0
499.0,495.0
496.0,496.0
502.0,499.0
513.0,498.0
514.0,503.0
522.0,505.0
530.0,514.0
533.0,517.0
519.0,510.0
527.0,517.0
525.0,514.0
517.0,510.0
497.0,510.0
494.0,512.0
489.0,504.0
499.0,504.0
503.0,504.0
489.0,491.0
484.0,479.0
490.0,487.0
498.0,497.0
505.0,504.0
517.0,509.0
515.0,503.0
513.0,512.0
508.0,508.0
518.0,514.0
511.0,503.0
510.0,504.0
510.0,504.0
507.0,505.0
501.0,498.0
496.0,488.0
492.0,488.0
497.0,492.0
508.0,493.0
516.0,499.0
519.0,504.0
519.0,504.0
525.0,515.0
525.0,516.0
522.0,519.0
519.0,518.0
513.0,508.0
507.0,505.0
507.0,503.0
507.0,501.0
512.0,498.0
501.0,496.0
494.0,497.0
490.0,495.0
496.0,491.0
498.0,495.0
509.0,502.0
513.0,501.0
529.0,503.0
528.0,515.0
526.0,516.0
516.0,509.0
515.0,511.0
503.0,509.0
494.0,509.0
506.0,504.0
507.0,499.0
500.0,495.0
501.0,491.0
510.0,488.0
507.0,491.0
502.0,492.0
494.0,502.0
500.0,503.0
502.0,515.0
511.0,519.0
493.0,511.0
493.0,513.0
494.0,516.0
497.0,507.0
503.0,504.0
516.0,501.0
523.0,507.0
514.0,512.0
525.0,501.0
518.0,493.0
510.0,477.0
506.0,478.0
506.0,484.0
509.0,493.0
509.0,495.0
515.0,502.0
529.0,508.0
526.0,510.0
521.0,513.0
513.0,514.0
503.0,502.0
514.0,508.0
505.0,494.0
507.0,500.0
502.0,499.0
495.0,500.0
507.0,488.0
509.0,491.0
513.0,493.0
518.0,499.0
523.0,501.0
528.0,513.0
531.0,518.0
522.0,511.0
508.0,502.0
498.0,504.0
507.0,513.0
504.0,501.0
491.0,504.0
497.0,503.0
501.0,503.0
503.0,501.0
509.0,487.0
515.0,495.0
500.0,497.0
503.0,495.0
517.0,494.0
520.0,501.0
516.0,503.0
510.0,509.0
507.0,506.0
516.0,513.0
511.0,510.0
516.0,513.0
501.0,505.0
501.0,510.0
498.0,503.0
489.0,491.0
483.0,501.0
490.0,502.0
497.0,488.0
506.0,499.0
518.0,502.0
520.0,506.0
523.0,505.0
518.0,498.0
529.0,501.0
530.0,506.0
523.0,509.0
520.0,518.0
515.0,509.0
513.0,503.0
510.0,501.0
501.0,507.0
495.0,503.0
504.0,497.0
504.0,494.0
493.0,498.0
498.0,489.0
497.0,495.0
507.0,497.0
519.0,504.0
517.0,501.0
540.0,515.0
535.0,514.0
527.0,507.0
514.0,507.0
502.0,509.0
494.0,508.0
487.0,503.0
491.0,506.0
490.0,506.0
502.0,499.0
495.0,503.0
510.0,493.0
508.0,491.0
506.0,496.0
518.0,500.0
520.0,509.0
517.0,515.0
517.0,517.0
528.0,519.0
521.0,507.0
521.0,508.0
511.0,496.0
510.0,508.0
508.0,494.0
502.0,499.0
496.0,500.0
507.0,496.0
500.0,492.0
495.0,495.0
498.0,488.0
523.0,494.0
527.0,497.0
521.0,502.0
535.0,508.0
529.0,517.0
513.0,528.0
505.0,524.0
492.0,519.0
493.0,510.0
498.0,500.0
519.0,507.0
525.0,500.0
518.0,493.0
510.0,499.0
499.0,493.0
486.0,493.0
497.0,494.0
492.0,494.0
510.0,498.0
531.0,510.0
531.0,512.0
531.0,517.0
530.0,520.0
518.0,519.0
521.0,524.0
522.0,518.0
512.0,516.0
512.0,491.0
508.0,487.0
481.0,491.0
480.0,488.0
474.0,490.0
480.0,493.0
494.0,511.0
493.0,500.0
507.0,500.0
524.0,502.0
529.0,501.0
533.0,507.0
528.0,511.0
522.0,506.0
514.0,502.0
505.0,504.0
516.0,497.0
498.0,504.0
495.0,502.0
499.0,481.0
493.0,484.0
491.0,474.0
496.0,491.0
511.0,495.0
513.0,491.0
515.0,502.0
520.0,501.0
522.0,513.0
516.0,512.0
513.0,519.0
510.0,515.0
504.0,512.0
502.0,505.0
490.0,509.0
500.0,499.0
503.0,494.0
496.0,491.0
483.0,495.0
483.0,501.0
500.0,499.0
508.0,506.0
508.0,509.0
531.0,514.0
544.0,515.0
540.0,519.0
538.0,517.0
526.0,519.0
502.0,512.0
485.0,510.0
473.0,500.0
487.0,491.0
502.0,491.0
504.0,497.0
503.0,491.0
495.0,491.0
499.0,493.0
502.0,500.0
508.0,508.0
519.0,507.0
530.0,514.0
531.0,511.0
528.0,517.0
512.0,509.0
513.0,515.0
501.0,503.0
502.0,500.0
506.0,501.0
503.0,503.0
507.0,500.0
500.0,490.0
490.0,502.0
489.0,493.0
495.0,493.0
500.0,494.0
516.0,496.0
533.0,499.0
534.0,508.0
519.0,519.0
520.0,521.0
530.0,509.0
526.0,508.0
519.0,501.0
502.0,510.0
504.0,503.0
489.0,507.0
505.0,494.0
501.0,493.0
485.0,489.0
500.0,484.0
515.0,499.0
515.0,497.0
512.0,510.0
520.0,513.0
523.0,513.0
517.0,512.0
527.0,512.0
530.0,511.0
528.0,505.0
526.0,503.0
521.0,501.0
521.0,522.0
520.0,519.0
523.0,510.0
491.0,500.0
487.0,478.0
473.0,466.0
494.0,499.0
503.0,505.0
511.0,497.0
524.0,491.0
522.0,504.0
519.0,513.0
521.0,522.0
510.0,504.0
508.0,497.0
500.0,507.0
505.0,514.0
499.0,502.0
484.0,502.0
487.0,483.0
483.0,474.0
488.0,484.0
493.0,494.0
515.0,493.0
514.0,492.0
529.0,513.0
526.0,513.0
527.0,516.0
518.0,513.0
513.0,514.0
508.0,504.0
513.0,510.0
502.0,505.0
517.0,502.0
525.0,498.0
501.0,499.0
499.0,493.0
487.0,495.0
477.0,495.0
492.0,487.0
486.0,501.0
499.0,507.0
516.0,506.0
527.0,494.0
540.0,497.0
555.0,496.0
566.0,498.0
562.0,516.0
540.0,526.0
503.0,509.0
488.0,501.0
482.0,488.0
484.0,489.0
491.0,475.0
488.0,493.0
482.0,498.0
505.0,519.0
514.0,510.0
517.0,494.0
519.0,504.0
497.0,519.0
494.0,525.0
519.0,524.0
522.0,527.0
518.0,515.0
510.0,488.0
507.0,474.0
495.0,497.0
507.0,502.0
488.0,496.0
483.0,487.0
486.0,494.0
506.0,489.0
514.0,491.0
516.0,501.0
505.0,507.0
514.0,510.0
527.0,515.0
505.0,516.0
506.0,528.0
505.0,522.0
509.0,533.0
523.0,519.0
529.0,510.0
519.0,498.0
498.0,488.0
491.0,466.0
473.0,471.0
447.0,508.0
478.0,515.0
502.0,521.0
532.0,496.0
529.0,477.0
507.0,500.0
515.0,500.0
503.0,492.0
490.0,501.0
507.0,496.0
513.0,511.0
525.0,519.0
528.0,510.0
543.0,496.0
534.0,500.0
497.0,490.0
488.0,470.0
471.0,488.0
506.0,504.0
513.0,498.0
524.0,507.0
537.0,518.0
525.0,516.0
521.0,524.0
514.0,522.0
511.0,511.0
519.0,508.0
513.0,504.0
514.0,499.0
500.0,497.0
486.0,492.0
485.0,489.0
491.0,489.0
490.0,491.0
500.0,496.0
510.0,503.0
507.0,504.0
525.0,516.0
521.0,509.0
530.0,508.0
523.0,507.0
521.0,509.0
511.0,510.0
508.0,504.0
500.0,504.0
514.0,498.0
514.0,503.0
511.0,493.0
496.0,489.0
480.0,488.0
458.0,487.0
488.0,504.0
525.0,513.0
543.0,528.0
558.0,528.0
520.0,505.0
505.0,500.0
487.0,506.0
493.0,522.0
501.0,487.0
520.0,487.0
536.0,507.0
548.0,513.0
536.0,515.0
514.0,514.0
475.0,503.0
473.0,488.0
480.0,494.0
475.0,487.0
495.0,497.0
512.0,505.0
538.0,505.0
544.0,502.0
511.0,514.0
509.0,513.0
503.0,511.0
505.0,512.0
512.0,501.0
515.0,502.0
503.0,504.0
482.0,503.0
506.0,495.0
509.0,497.0
514.0,495.0
528.0,496.0
548.0,511.0
567.0,535.0
571.0,533.0
548.0,527.0
490.0,500.0
479.0,487.0
468.0,486.0
453.0,490.0
466.0,501.0
514.0,510.0
519.0,492.0
504.0,497.0
480.0,508.0
498.0,493.0
500.0,479.0
504.0,469.0
488.0,479.0
471.0,493.0
464.0,498.0
491.0,505.0
549.0,519.0
555.0,516.0
561.0,507.0
533.0,511.0
524.0,519.0
525.0,517.0
516.0,520.0
523.0,518.0
514.0,501.0
511.0,467.0
527.0,478.0
514.0,494.0
493.0,488.0
482.0,493.0
485.0,518.0
491.0,515.0
511.0,506.0
533.0,519.0
528.0,525.0
507.0,525.0
520.0,535.0
522.0,496.0
525.0,472.0
502.0,487.0
477.0,509.0
491.0,516.0
496.0,487.0
478.0,502.0
480.0,490.0
512.0,517.0
522.0,499.0
505.0,448.0
516.0,461.0
533.0,513.0
514.0,528.0
474.0,504.0
467.0,503.0
476.0,501.0
514.0,501.0
532.0,515.0
522.0,506.0
503.0,508.0
497.0,492.0
496.0,495.0
492.0,496.0
502.0,496.0
509.0,504.0
513.0,501.0
534.0,502.0
538.0,507.0
552.0,516.0
553.0,503.0
538.0,509.0
522.0,508.0
516.0,500.0
532.0,510.0
519.0,510.0
496.0,527.0
483.0,528.0
474.0,502.0
452.0,483.0
434.0,476.0
464.0,509.0
474.0,497.0
509.0,481.0
531.0,502.0
572.0,506.0
588.0,517.0
516.0,512.0
474.0,519.0
488.0,517.0
508.0,494.0
536.0,475.0
546.0,471.0
526.0,482.0
487.0,493.0
477.0,496.0
481.0,515.0
532.0,528.0
556.0,498.0
553.0,476.0
538.0,477.0
512.0,517.0
488.0,557.0
509.0,539.0
493.0,499.0
465.0,489.0
438.0,493.0
452.0,499.0
510.0,502.0
559.0,508.0
589.0,512.0
546.0,510.0
528.0,525.0
449.0,534.0
464.0,528.0
527.0,493.0
535.0,433.0
508.0,474.0
482.0,579.0
527.0,538.0
513.0,530.0
523.0,513.0
553.0,500.0
550.0,473.0
532.0,486.0
541.0,498.0
569.0,485.0
536.0,488.0
482.0,477.0
463.0,470.0
474.0,473.0
456.0,494.0
489.0,524.0
530.0,526.0
537.0,504.0
518.0,481.0
510.0,505.0
512.0,565.0
486.0,592.0
494.0,521.0
546.0,469.0
496.0,485.0
504.0,491.0
543.0,535.0
501.0,546.0
501.0,501.0
492.0,464.0
493.0,462.0
484.0,478.0
506.0,502.0
518.0,519.0
561.0,507.0
511.0,475.0
502.0,484.0
509.0,527.0
485.0,527.0
501.0,511.0
529.0,434.0
535.0,440.0
543.0,505.0
495.0,517.0
430.0,539.0
419.0,536.0
477.0,512.0
545.0,493.0
577.0,486.0
521.0,479.0
491.0,518.0
489.0,573.0
501.0,590.0
489.0,532.0
483.0,414.0
483.0,443.0
454.0,517.0
528.0,547.0
548.0,546.0
612.0,505.0
618.0,443.0
503.0,471.0
499.0,520.0
554.0,485.0
509.0,499.0
488.0,500.0
547.0,468.0
539.0,489.0
499.0,527.0
492.0,544.0
437.0,544.0
439.0,529.0
454.0,497.0
450.0,526.0
538.0,560.0
603.0,495.0
611.0,483.0
587.0,533.0
534.0,584.0
427.0,519.0
432.0,396.0
484.0,407.0
496.0,493.0
494.0,504.0
499.0,473.0
543.0,514.0
546.0,543.0
569.0,497.0
595.0,464.0
550.0,443.0
516.0,464.0
471.0,526.0
409.0,600.0
375.0,613.0
402.0,539.0
492.0,404.0
544.0,423.0
601.0,499.0
615.0,519.0
552.0,473.0
477.0,446.0
451.0,514.0
437.0,515.0
443.0,458.0
457.0,500.0
503.0,526.0
460.0,495.0
533.0,500.0
558.0,489.0
519.0,547.0
456.0,534.0
487.0,504.0
542.0,474.0
524.0,478.0
473.0,482.0
419.0,475.0
410.0,486.0
485.0,527.0
528.0,534.0
580.0,531.0
590.0,528.0
546.0,518.0
452.0,553.0
461.0,554.0
526.0,540.0
568.0,497.0
575.0,462.0
618.0,511.0
588.0,545.0
502.0,495.0
518.0,480.0
394.0,500.0
332.0,508.0
423.0,458.0
512.0,495.0
540.0,526.0
540.0,473.0
522.0,480.0
492.0,505.0
448.0,510.0
457.0,517.0
465.0,488.0
493.0,489.0
516.0,495.0
476.0,486.0
458.0,519.0
474.0,584.0
469.0,583.0
534.0,535.0
491.0,502.0
524.0,467.0
563.0,480.0
545.0,486.0
556.0,451.0
575.0,477.0
606.0,490.0
589.0,506.0
539.0,511.0
485.0,461.0
495.0,463.0
425.0,495.0
385.0,498.0
427.0,480.0
467.0,488.0
506.0,495.0
447.0,563.0
493.0,589.0
511.0,564.0
501.0,500.0
594.0,496.0
534.0,499.0
449.0,509.0
491.0,556.0
558.0,513.0
566.0,457.0
549.0,489.0
608.0,509.0
520.0,471.0
380.0,433.0
420.0,435.0
482.0,468.0
536.0,477.0
549.0,479.0
510.0,498.0
487.0,518.0
534.0,523.0
581.0,552.0
550.0,557.0
544.0,522.0
469.0,522.0
449.0,531.0
493.0,492.0
487.0,468.0
443.0,496.0
454.0,486.0
503.0,460.0
508.0,475.0
504.0,507.0
531.0,533.0
505.0,521.0
547.0,479.0
532.0,560.0
498.0,625.0
546.0,547.0
574.0,448.0
574.0,489.0
494.0,482.0
515.0,461.0
497.0,467.0
529.0,481.0
497.0,486.0
446.0,483.0
425.0,501.0
458.0,506.0
491.0,496.0
517.0,484.0
515.0,487.0
540.0,483.0
551.0,479.0
458.0,495.0
368.0,506.0
436.0,503.0
534.0,518.0
529.0,537.0
542.0,530.0
530.0,486.0
504.0,509.0
471.0,512.0
440.0,488.0
462.0,450.0
505.0,474.0
469.0,487.0
477.0,514.0
544.0,512.0
642.0,500.0
627.0,546.0
533.0,623.0
464.0,601.0
509.0,514.0
526.0,483.0
496.0,503.0
468.0,436.0
495.0,451.0
532.0,454.0
556.0,467.0
564.0,477.0
527.0,496.0
562.0,498.0
565.0,516.0
531.0,516.0
579.0,487.0
454.0,502.0
444.0,532.0
473.0,600.0
498.0,620.0
515.0,525.0
492.0,440.0
491.0,432.0
483.0,472.0
483.0,511.0
477.0,528.0
484.0,504.0
475.0,456.0
430.0,481.0
451.0,496.0
497.0,492.0
478.0,482.0
544.0,493.0
530.0,504.0
546.0,493.0
554.0,506.0
549.0,519.0
495.0,512.0
527.0,507.0
510.0,494.0
532.0,471.0
496.0,479.0
537.0,524.0
507.0,546.0
449.0,537.0
399.0,454.0
456.0,443.0
510.0,489.0
527.0,505.0
535.0,529.0
533.0,543.0
517.0,519.0
571.0,490.0
596.0,519.0
554.0,517.0
589.0,479.0
503.0,510.0
382.0,504.0
497.0,471.0
540.0,443.0
547.0,489.0
496.0,530.0
480.0,527.0
435.0,494.0
469.0,546.0
544.0,547.0
597.0,492.0
616.0,440.0
539.0,513.0
447.0,534.0
482.0,546.0
483.0,517.0
465.0,497.0
505.0,513.0
493.0,487.0
495.0,476.0
493.0,502.0
427.0,484.0
479.0,492.0
479.0,498.0
452.0,514.0
422.0,513.0
492.0,486.0
593.0,507.0
630.0,529.0
594.0,556.0
577.0,559.0
541.0,473.0
474.0,470.0
484.0,492.0
513.0,494.0
462.0,497.0
453.0,515.0
496.0,506.0
519.0,486.0
518.0,486.0
520.0,515.0
499.0,517.0
511.0,513.0
550.0,513.0
548.0,503.0
543.0,499.0
477.0,482.0
448.0,503.0
398.0,495.0
479.0,483.0
562.0,493.0
570.0,509.0
610.0,506.0
578.0,504.0
492.0,482.0
417.0,486.0
489.0,514.0
509.0,495.0
537.0,491.0
487.0,503.0
490.0,529.0
529.0,532.0
553.0,515.0
593.0,502.0
607.0,541.0
583.0,545.0
500.0,484.0
520.0,480.0
473.0,514.0
449.0,486.0
480.0,494.0
488.0,512.0
545.0,490.0
474.0,483.0
417.0,462.0
499.0,486.0
511.0,507.0
517.0,522.0
502.0,511.0
489.0,495.0
525.0,499.0
500.0,516.0
454.0,521.0
444.0,495.0
469.0,472.0
527.0,491.0
559.0,507.0
545.0,510.0
513.0,492.0
525.0,492.0
564.0,483.0
606.0,496.0
516.0,495.0
475.0,498.0
500.0,510.0
521.0,501.0
532.0,507.0
490.0,513.0
523.0,512.0
551.0,525.0
492.0,529.0
501.0,492.0
541.0,476.0
555.0,477.0
555.0,546.0
535.0,574.0
458.0,497.0
470.0,428.0
461.0,485.0
479.0,494.0
487.0,488.0
463.0,513.0
461.0,520.0
513.0,497.0
557.0,520.0
584.0,558.0
569.0,569.0
477.0,499.0
479.0,480.0
502.0,436.0
494.0,460.0
485.0,484.0
514.0,508.0
506.0,519.0
498.0,513.0
507.0,477.0
503.0,484.0
503.0,524.0
505.0,539.0
492.0,517.0
492.0,486.0
491.0,485.0
522.0,505.0
562.0,492.0
588.0,510.0
584.0,524.0
503.0,542.0
447.0,519.0
466.0,480.0
461.0,469.0
485.0,471.0
538.0,475.0
586.0,486.0
544.0,507.0
484.0,517.0
492.0,525.0
511.0,531.0
515.0,530.0
458.0,535.0
535.0,528.0
588.0,493.0
531.0,522.0
503.0,464.0
468.0,468.0
491.0,468.0
476.0,481.0
508.0,500.0
530.0,524.0
599.0,514.0
663.0,500.0
635.0,487.0
523.0,511.0
473.0,509.0
509.0,512.0
485.0,516.0
458.0,515.0
494.0,530.0
501.0,504.0
457.0,460.0
466.0,492.0
478.0,511.0
465.0,482.0
489.0,469.0
496.0,496.0
476.0,509.0
475.0,494.0
535.0,496.0
536.0,516.0
520.0,527.0
502.0,494.0
462.0,501.0
489.0,516.0
497.0,508.0
498.0,519.0
494.0,515.0
546.0,495.0
590.0,523.0
553.0,534.0
517.0,464.0
545.0,479.0
596.0,549.0
569.0,531.0
512.0,423.0
471.0,458.0
450.0,527.0
481.0,520.0
481.0,515.0
522.0,518.0
527.0,504.0
530.0,492.0
473.0,493.0
487.0,494.0
484.0,495.0
464.0,492.0
499.0,494.0
536.0,483.0
533.0,502.0
538.0,520.0
558.0,535.0
562.0,526.0
521.0,493.0
505.0,481.0
511.0,499.0
487.0,511.0
500.0,518.0
500.0,523.0
482.0,524.0
478.0,526.0
495.0,515.0
501.0,499.0
504.0,503.0
498.0,505.0
481.0,458.0
486.0,463.0
501.0,478.0
472.0,493.0
537.0,505.0
568.0,530.0
545.0,541.0
523.0,527.0
519.0,503.0
536.0,493.0
533.0,463.0
529.0,487.0
515.0,482.0
494.0,497.0
484.0,499.0
504.0,523.0
483.0,541.0
487.0,501.0
516.0,463.0
536.0,477.0
511.0,505.0
536.0,521.0
555.0,509.0
552.0,492.0
473.0,503.0
538.0,507.0
493.0,505.0
492.0,514.0
505.0,500.0
527.0,497.0
500.0,489.0
471.0,496.0
407.0,495.0
394.0,496.0
489.0,496.0
538.0,506.0
627.0,523.0
682.0,517.0
710.0,511.0
564.0,512.0
462.0,497.0
481.0,486.0
430.0,508.0
491.0,536.0
477.0,560.0
501.0,549.0
507.0,479.0
509.0,431.0
484.0,487.0
445.0,495.0
480.0,485.0
489.0,496.0
489.0,494.0
478.0,513.0
509.0,518.0
523.0,521.0
510.0,493.0
500.0,507.0
545.0,521.0
533.0,523.0
520.0,535.0
510.0,533.0
446.0,483.0
406.0,476.0
412.0,482.0
469.0,466.0
536.0,501.0
550.0,500.0
535.0,480.0
516.0,490.0
514.0,505.0
543.0,510.0
576.0,513.0
589.0,518.0
586.0,498.0
555.0,505.0
495.0,516.0
465.0,509.0
473.0,494.0
499.0,509.0
502.0,532.0
504.0,525.0
498.0,481.0
480.0,458.0
502.0,470.0
500.0,477.0
500.0,501.0
515.0,532.0
527.0,561.0
522.0,507.0
520.0,491.0
505.0,516.0
495.0,502.0
488.0,487.0
505.0,497.0
517.0,487.0
495.0,475.0
501.0,489.0
503.0,490.0
551.0,487.0
550.0,494.0
489.0,510.0
492.0,507.0
497.0,493.0
448.0,505.0
495.0,516.0
536.0,519.0
545.0,540.0
543.0,532.0
543.0,510.0
520.0,508.0
486.0,484.0
437.0,513.0
478.0,510.0
509.0,482.0
530.0,432.0
555.0,507.0
537.0,505.0
522.0,493.0
557.0,499.0
519.0,500.0
477.0,499.0
511.0,509.0
522.0,497.0
540.0,506.0
502.0,509.0
507.0,511.0
532.0,509.0
495.0,501.0
494.0,488.0
515.0,504.0
492.0,496.0
487.0,486.0
526.0,507.0
520.0,500.0
526.0,478.0
490.0,477.0
479.0,503.0
503.0,510.0
550.0,516.0
546.0,512.0
518.0,521.0
457.0,538.0
440.0,537.0
501.0,532.0
515.0,508.0
522.0,472.0
497.0,503.0
477.0,488.0
490.0,469.0
481.0,491.0
495.0,504.0
524.0,517.0
529.0,504.0
536.0,492.0
538.0,465.0
550.0,503.0
557.0,511.0
539.0,498.0
515.0,505.0
491.0,514.0
447.0,506.0
483.0,502.0
493.0,505.0
472.0,489.0
461.0,476.0
502.0,486.0
502.0,489.0
502.0,492.0
524.0,496.0
516.0,505.0
505.0,511.0
512.0,519.0
546.0,511.0
554.0,502.0
503.0,507.0
516.0,511.0
527.0,514.0
502.0,522.0
478.0,527.0
488.0,505.0
488.0,501.0
501.0,510.0
520.0,516.0
536.0,478.0
518.0,472.0
492.0,467.0
449.0,483.0
462.0,493.0
532.0,504.0
540.0,511.0
538.0,531.0
518.0,548.0
517.0,527.0
509.0,495.0
519.0,479.0
524.0,481.0
535.0,500.0
532.0,517.0
545.0,487.0
520.0,476.0
505.0,477.0
494.0,511.0
491.0,501.0
512.0,500.0
527.0,510.0
546.0,534.0
482.0,545.0
451.0,514.0
447.0,492.0
488.0,507.0
563.0,483.0
575.0,486.0
548.0,512.0
495.0,474.0
510.0,487.0
535.0,488.0
516.0,493.0
494.0,499.0
516.0,503.0
520.0,500.0
535.0,506.0
567.0,518.0
583.0,512.0
527.0,496.0
539.0,492.0
555.0,486.0
502.0,481.0
418.0,492.0
442.0,506.0
458.0,510.0
486.0,519.0
512.0,514.0
502.0,505.0
495.0,504.0
499.0,507.0
508.0,491.0
518.0,501.0
514.0,517.0
515.0,524.0
530.0,523.0
535.0,533.0
529.0,528.0
512.0,504.0
451.0,489.0
486.0,499.0
478.0,495.0
486.0,489.0
496.0,483.0
486.0,487.0
471.0,489.0
517.0,489.0
557.0,487.0
553.0,495.0
534.0,503.0
531.0,524.0
561.0,520.0
552.0,507.0
527.0,511.0
506.0,540.0
521.0,498.0
511.0,493.0
476.0,499.0
499.0,491.0
507.0,488.0
494.0,493.0
489.0,497.0
511.0,500.0
509.0,491.0
510.0,487.0
490.0,510.0
480.0,516.0
515.0,502.0
527.0,499.0
554.0,500.0
541.0,510.0
533.0,517.0
496.0,514.0
517.0,493.0
525.0,487.0
513.0,498.0
501.0,508.0
491.0,489.0
497.0,484.0
507.0,485.0
483.0,490.0
472.0,494.0
505.0,497.0
539.0,500.0
541.0,514.0
521.0,527.0
513.0,532.0
514.0,518.0
498.0,512.0
501.0,484.0
511.0,490.0
499.0,512.0
477.0,502.0
485.0,494.0
499.0,485.0
491.0,489.0
485.0,493.0
533.0,500.0
539.0,505.0
530.0,501.0
470.0,517.0
488.0,517.0
514.0,506.0
568.0,507.0
564.0,523.0
556.0,496.0
551.0,495.0
535.0,506.0
511.0,506.0
512.0,486.0
526.0,492.0
504.0,485.0
439.0,491.0
443.0,495.0
478.0,510.0
512.0,508.0
530.0,509.0
532.0,513.0
521.0,513.0
516.0,524.0
521.0,528.0
532.0,489.0
521.0,480.0
562.0,505.0
552.0,489.0
499.0,490.0
487.0,509.0
490.0,514.0
500.0,501.0
503.0,493.0
493.0,475.0
472.0,492.0
459.0,514.0
491.0,507.0
525.0,508.0
550.0,509.0
543.0,511.0
485.0,512.0
524.0,524.0
526.0,499.0
511.0,478.0
496.0,504.0
501.0,511.0
501.0,504.0
498.0,487.0
498.0,479.0
496.0,490.0
502.0,498.0
507.0,506.0
521.0,509.0
531.0,513.0
513.0,497.0
505.0,511.0
527.0,520.0
522.0,513.0
487.0,499.0
486.0,510.0
506.0,501.0
509.0,494.0
510.0,485.0
518.0,484.0
507.0,483.0
497.0,481.0
504.0,495.0
505.0,502.0
519.0,520.0
520.0,526.0
521.0,521.0
519.0,498.0
502.0,502.0
506.0,501.0
508.0,512.0
513.0,513.0
511.0,501.0
498.0,486.0
504.0,490.0
499.0,495.0
495.0,491.0
506.0,482.0
499.0,494.0
486.0,507.0
494.0,515.0
506.0,520.0
517.0,512.0
527.0,490.0
525.0,480.0
527.0,500.0
514.0,525.0
503.0,516.0
507.0,506.0
519.0,506.0
527.0,499.0
547.0,498.0
545.0,500.0
519.0,475.0
497.0,482.0
475.0,496.0
470.0,506.0
493.0,498.0
522.0,485.0
522.0,500.0
491.0,512.0
501.0,511.0
531.0,509.0
568.0,505.0
551.0,510.0
537.0,507.0
521.0,502.0
513.0,500.0
499.0,502.0
480.0,502.0
486.0,492.0
483.0,491.0
480.0,491.0
485.0,502.0
488.0,507.0
514.0,505.0
500.0,504.0
530.0,511.0
524.0,512.0
526.0,512.0
506.0,515.0
478.0,494.0
514.0,490.0
518.0,499.0
543.0,503.0
519.0,494.0
507.0,481.0
522.0,491.0
523.0,491.0
500.0,493.0
491.0,493.0
502.0,512.0
515.0,519.0
529.0,516.0
529.0,516.0
521.0,516.0
514.0,513.0
505.0,508.0
491.0,494.0
492.0,496.0
491.0,495.0
487.0,501.0
485.0,500.0
483.0,495.0
499.0,490.0
507.0,483.0
506.0,498.0
519.0,504.0
528.0,510.0
522.0,505.0
520.0,507.0
521.0,515.0
519.0,502.0
507.0,507.0
511.0,508.0
503.0,504.0
499.0,501.0
503.0,496.0
505.0,492.0
485.0,496.0
502.0,493.0
502.0,490.0
502.0,496.0
515.0,498.0
518.0,499.0
525.0,513.0
533.0,515.0
528.0,519.0
525.0,514.0
511.0,509.0
517.0,506.0
508.0,507.0
500.0,505.0
511.0,498.0
508.0,504.0
504.0,506.0
500.0,499.0
501.0,482.0
504.0,492.0
500.0,501.0
501.0,491.0
520.0,500.0
517.0,504.0
531.0,515.0
536.0,508.0
525.0,503.0
514.0,511.0
510.0,514.0
506.0,511.0
512.0,505.0
506.0,492.0
502.0,483.0
501.0,495.0
503.0,490.0
498.0,485.0
486.0,499.0
501.0,500.0
505.0,509.0
520.0,519.0
526.0,519.0
531.0,508.0
531.0,506.0
523.0,505.0
522.0,506.0
508.0,513.0
503.0,507.0
509.0,494.0
520.0,499.0
514.0,498.0
514.0,486.0
511.0,492.0
506.0,488.0
490.0,496.0
488.0,498.0
495.0,501.0
505.0,504.0
524.0,514.0
541.0,511.0
550.0,517.0
543.0,510.0
508.0,507.0
512.0,507.0
521.0,510.0
533.0,507.0
522.0,496.0
520.0,488.0
511.0,494.0
508.0,491.0
503.0,490.0
508.0,497.0
501.0,500.0
497.0,501.0
503.0,507.0
509.0,501.0
505.0,514.0
519.0,515.0
532.0,511.0
520.0,511.0
510.0,500.0
514.0,504.0
497.0,507.0
508.0,498.0
501.0,487.0
505.0,487.0
500.0,490.0
506.0,495.0
508.0,499.0
518.0,504.0
526.0,516.0
529.0,513.0
524.0,522.0
513.0,512.0
518.0,518.0
501.0,504.0
498.0,513.0
506.0,510.0
510.0,499.0
503.0,497.0
495.0,502.0
501.0,498.0
496.0,498.0
503.0,490.0
503.0,497.0
513.0,503.0
515.0,506.0
520.0,513.0
522.0,510.0
524.0,517.0
516.0,517.0
516.0,510.0
510.0,507.0
505.0,500.0
508.0,504.0
504.0,497.0
507.0,500.0
506.0,497.0
503.0,490.0
495.0,492.0
503.0,494.0
500.0,496.0
507.0,500.0
514.0,502.0
522.0,511.0
526.0,513.0
528.0,516.0
518.0,511.0
516.0,509.0
511.0,504.0
507.0,506.0
507.0,503.0
507.0,496.0
500.0,503.0
506.0,495.0
499.0,486.0
494.0,490.0
502.0,489.0
501.0,490.0
512.0,504.0
522.0,509.0
526.0,514.0
522.0,513.0
521.0,512.0
518.0,514.0
506.0,506.0
501.0,514.0
503.0,499.0
506.0,501.0
500.0,500.0
503.0,501.0
498.0,487.0
494.0,494.0
497.0,496.0
506.0,496.0
509.0,497.0
515.0,507.0
518.0,503.0
525.0,511.0
521.0,513.0
516.0,508.0
510.0,500.0
511.0,507.0
504.0,494.0
497.0,507.0
496.0,504.0
505.0,499.0
503.0,491.0
496.0,495.0
500.0,494.0
502.0,494.0
505.0,498.0
514.0,497.0
517.0,509.0
519.0,512.0
522.0,512.0
522.0,515.0
514.0,515.0
510.0,508.0
518.0,510.0
517.0,507.0
514.0,507.0
518.0,504.0
511.0,494.0
507.0,505.0
492.0,499.0
489.0,492.0
476.0,499.0
509.0,490.0
517.0,504.0
514.0,509.0
513.0,509.0
520.0,512.0
523.0,515.0
516.0,513.0
510.0,505.0
499.0,512.0
503.0,503.0
499.0,499.0
504.0,498.0
484.0,501.0
498.0,494.0
490.0,490.0
498.0,477.0
504.0,494.0
499.0,501.0
514.0,507.0
515.0,511.0
521.0,515.0
514.0,511.0
507.0,516.0
509.0,510.0
511.0,506.0
508.0,507.0
504.0,505.0
507.0,492.0
485.0,501.0
507.0,495.0
498.0,490.0
493.0,497.0
498.0,485.0
498.0,489.0
509.0,505.0
518.0,509.0
522.0,512.0
520.0,517.0
521.0,515.0
517.0,509.0
508.0,510.0
505.0,506.0
499.0,508.0
502.0,498.0
500.0,501.0
499.0,491.0
494.0,498.0
497.0,492.0
497.0,491.0
501.0,492.0
505.0,499.0
511.0,505.0
513.0,505.0
523.0,512.0
524.0,516.0
518.0,511.0
511.0,506.0
509.0,501.0
512.0,506.0
504.0,502.0
494.0,504.0
499.0,492.0
501.0,496.0
495.0,498.0
497.0,486.0
500.0,490.0
502.0,498.0
500.0,497.0
516.0,507.0
512.0,503.0
521.0,512.0
517.0,511.0
519.0,513.0
516.0,513.0
507.0,509.0
502.0,504.0
508.0,503.0
503.0,500.0
502.0,500.0
494.0,496.0
500.0,493.0
499.0,492.0
498.0,488.0
502.0,492.0
508.0,503.0
518.0,509.0
522.0,507.0
523.0,514.0
515.0,512.0
511.0,507.0
511.0,513.0
503.0,504.0
503.0,498.0
504.0,503.0
504.0,500.0
497.0,501.0
505.0,491.0
503.0,491.0
500.0,478.0
499.0,497.0
503.0,498.0
505.0,500.0
524.0,509.0
525.0,513.0
523.0,517.0
514.0,515.0
516.0,516.0
513.0,510.0
507.0,509.0
507.0,502.0
501.0,506.0
510.0,498.0
502.0,486.0
497.0,499.0
503.0,494.0
495.0,498.0
499.0,481.0
516.0,502.0
508.0,498.0
519.0,513.0
520.0,514.0
521.0,515.0
511.0,510.0
508.0,511.0
501.0,512.0
503.0,501.0
503.0,505.0
502.0,498.0
503.0,497.0
504.0,487.0
504.0,500.0
504.0,495.0
509.0,494.0
509.0,495.0
510.0,500.0
508.0,505.0
514.0,511.0
506.0,513.0
515.0,503.0
520.0,516.0
515.0,511.0
509.0,508.0
504.0,497.0
505.0,502.0
499.0,499.0
493.0,498.0
492.0,494.0
482.0,499.0
494.0,494.0
499.0,494.0
506.0,501.0
506.0,499.0
520.0,509.0
529.0,514.0
526.0,511.0
521.0,507.0
520.0,513.0
508.0,509.0
505.0,506.0
501.0,497.0
503.0,502.0
490.0,503.0
492.0,500.0
487.0,497.0
492.0,485.0
493.0,496.0
499.0,494.0
509.0,500.0
505.0,501.0
523.0,510.0
519.0,508.0
518.0,512.0
519.0,518.0
515.0,511.0
504.0,510.0
505.0,501.0
507.0,501.0
506.0,500.0
499.0,501.0
499.0,493.0
497.0,488.0
490.0,495.0
499.0,488.0
503.0,501.0
506.0,500.0
513.0,498.0
527.0,511.0
526.0,515.0
524.0,515.0
517.0,508.0
516.0,513.0
513.0,508.0
501.0,493.0
497.0,502.0
504.0,498.0
497.0,504.0
498.0,486.0
501.0,492.0
498.0,482.0
501.0,489.0
508.0,490.0
514.0,500.0
523.0,508.0
527.0,515.0
521.0,512.0
519.0,508.0
513.0,509.0
513.0,507.0
499.0,511.0
510.0,503.0
503.0,502.0
508.0,499.0
502.0,501.0
507.0,494.0
498.0,496.0
492.0,496.0
496.0,492.0
491.0,498.0
516.0,506.0
520.0,511.0
523.0,514.0
520.0,511.0
522.0,514.0
520.0,515.0
511.0,511.0
505.0,497.0
507.0,505.0
505.0,494.0
502.0,502.0
501.0,495.0
496.0,495.0
497.0,491.0
505.0,493.0
506.0,500.0
507.0,503.0
524.0,508.0
528.0,503.0
530.0,514.0
530.0,517.0
528.0,516.0
506.0,511.0
494.0,510.0
507.0,506.0
504.0,497.0
507.0,502.0
496.0,503.0
506.0,492.0
491.0,498.0
499.0,494.0
499.0,498.0
507.0,499.0
501.0,503.0
516.0,508.0
522.0,514.0
531.0,504.0
522.0,515.0
518.0,514.0
507.0,511.0
499.0,507.0
498.0,509.0
505.0,502.0
506.0,496.0
504.0,499.0
505.0,495.0
499.0,496.0
498.0,493.0
501.0,500.0
512.0,497.0
516.0,505.0
525.0,512.0
528.0,516.0
526.0,520.0
517.0,510.0
512.0,509.0
508.0,508.0
508.0,510.0
498.0,505.0
504.0,499.0
502.0,502.0
503.0,491.0
488.0,494.0
495.0,494.0
503.0,490.0
500.0,500.0
508.0,505.0
520.0,511.0
522.0,509.0
525.0,516.0
516.0,512.0
512.0,509.0
509.0,511.0
510.0,507.0
504.0,495.0
507.0,501.0
502.0,503.0
511.0,497.0
504.0,498.0
499.0,492.0
487.0,487.0
500.0,493.0
510.0,500.0
516.0,509.0
514.0,503.0
525.0,515.0
525.0,517.0
518.0,511.0
519.0,507.0
512.0,510.0
506.0,501.0
499.0,509.0
503.0,502.0
507.0,499.0
502.0,488.0
499.0,501.0
501.0,498.0
500.0,492.0
509.0,491.0
516.0,501.0
517.0,502.0
529.0,511.0
521.0,518.0
519.0,518.0
514.0,515.0
515.0,516.0
510.0,508.0
508.0,505.0
501.0,505.0
506.0,504.0
506.0,497.0
496.0,501.0
501.0,497.0
501.0,485.0
506.0,494.0
510.0,498.0
512.0,502.0
519.0,506.0
521.0,507.0
523.0,509.0
516.0,516.0
513.0,514.0
512.0,513.0
507.0,507.0
503.0,504.0
493.0,506.0
503.0,494.0
507.0,496.0
500.0,491.0
500.0,492.0
489.0,497.0
495.0,501.0
503.0,497.0
511.0,501.0
521.0,516.0
525.0,514.0
522.0,517.0
521.0,507.0
515.0,511.0
512.0,509.0
506.0,507.0
496.0,508.0
502.0,494.0
506.0,498.0
499.0,502.0
498.0,491.0
500.0,494.0
498.0,494.0
507.0,497.0
514.0,502.0
513.0,500.0
522.0,515.0
529.0,519.0
525.0,514.0
526.0,519.0
523.0,517.0
510.0,504.0
492.0,506.0
503.0,504.0
507.0,501.0
503.0,502.0
502.0,493.0
500.0,495.0
500.0,492.0
499.0,490.0
503.0,488.0
512.0,503.0
519.0,503.0
524.0,514.0
531.0,520.0
529.0,516.0
526.0,514.0
515.0,510.0
505.0,506.0
500.0,499.0
502.0,499.0
506.0,499.0
502.0,498.0
503.0,494.0
496.0,498.0
502.0,489.0
502.0,485.0
507.0,499.0
517.0,503.0
528.0,505.0
532.0,514.0
527.0,515.0
520.0,508.0
517.0,510.0
512.0,509.0
497.0,505.0
493.0,505.0
493.0,505.0
496.0,501.0
493.0,500.0
494.0,500.0
493.0,484.0
486.0,496.0
505.0,488.0
505.0,501.0
518.0,507.0
517.0,506.0
527.0,512.0
518.0,513.0
512.0,504.0
510.0,504.0
513.0,512.0
502.0,513.0
504.0,496.0
505.0,495.0
496.0,499.0
500.0,495.0
489.0,496.0
497.0,495.0
503.0,492.0
510.0,498.0
518.0,504.0
523.0,509.0
526.0,509.0
529.0,515.0
512.0,512.0
516.0,516.0
511.0,509.0
505.0,505.0
502.0,491.0
508.0,502.0
509.0,500.0
490.0,503.0
485.0,492.0
503.0,493.0
504.0,493.0
508.0,497.0
512.0,500.0
512.0,506.0
510.0,506.0
516.0,506.0
526.0,511.0
524.0,516.0
517.0,511.0
508.0,505.0
499.0,512.0
503.0,507.0
493.0,504.0
503.0,495.0
492.0,501.0
503.0,496.0
501.0,493.0
499.0,495.0
505.0,495.0
515.0,502.0
512.0,504.0
521.0,510.0
521.0,509.0
523.0,512.0
520.0,517.0
516.0,513.0
509.0,514.0
503.0,504.0
507.0,504.0
504.0,504.0
501.0,501.0
504.0,498.0
494.0,497.0
506.0,492.0
502.0,488.0
507.0,504.0
513.0,505.0
522.0,508.0
524.0,512.0
528.0,516.0
523.0,510.0
524.0,515.0
520.0,514.0
503.0,507.0
509.0,505.0
500.0,506.0
504.0,497.0
506.0,497.0
504.0,491.0
504.0,492.0
502.0,493.0
508.0,494.0
505.0,495.0
509.0,500.0
513.0,507.0
514.0,513.0
521.0,514.0
513.0,501.0
515.0,515.0
509.0,515.0
502.0,502.0
507.0,502.0
501.0,504.0
502.0,493.0
509.0,496.0
489.0,496.0
497.0,490.0
500.0,495.0
504.0,495.0
506.0,494.0
520.0,505.0
527.0,513.0
528.0,515.0
526.0,516.0
517.0,519.0
513.0,510.0
501.0,503.0
504.0,498.0
505.0,502.0
502.0,496.0
505.0,499.0
500.0,489.0
503.0,493.0
499.0,492.0
491.0,499.0
499.0,497.0
513.0,500.0
519.0,504.0
519.0,505.0
521.0,512.0
521.0,509.0
517.0,513.0
505.0,507.0
516.0,507.0
511.0,499.0
505.0,500.0
507.0,495.0
507.0,497.0
492.0,501.0
496.0,487.0
502.0,494.0
501.0,498.0
507.0,491.0
522.0,505.0
528.0,510.0
525.0,511.0
520.0,511.0
518.0,514.0
515.0,506.0
507.0,516.0
503.0,512.0
507.0,498.0
507.0,502.0
496.0,505.0
490.0,506.0
497.0,495.0
499.0,492.0
499.0,489.0
508.0,496.0
506.0,503.0
517.0,500.0
524.0,516.0
527.0,518.0
525.0,518.0
522.0,516.0
517.0,514.0
507.0,510.0
498.0,492.0
505.0,506.0
505.0,501.0
503.0,500.0
501.0,492.0
506.0,494.0
503.0,491.0
499.0,500.0
509.0,500.0
513.0,504.0
524.0,509.0
529.0,506.0
531.0,517.0
526.0,516.0
525.0,518.0
515.0,507.0
515.0,500.0
508.0,499.0
510.0,502.0
507.0,500.0
499.0,504.0
501.0,489.0
491.0,500.0
501.0,491.0
502.0,498.0
514.0,499.0
506.0,497.0
523.0,510.0
528.0,510.0
524.0,516.0
527.0,518.0
515.0,514.0
514.0,509.0
503.0,507.0
509.0,501.0
508.0,496.0
509.0,497.0
497.0,502.0
502.0,496.0
502.0,489.0
503.0,478.0
510.0,498.0
515.0,497.0
523.0,506.0
522.0,514.0
527.0,515.0
527.0,516.0
518.0,510.0
504.0,509.0
495.0,507.0
492.0,500.0
486.0,508.0
490.0,503.0
493.0,501.0
491.0,491.0
492.0,487.0
492.0,495.0
489.0,497.0
499.0,490.0
514.0,503.0
519.0,507.0
525.0,515.0
527.0,519.0
517.0,516.0
514.0,510.0
517.0,516.0
515.0,509.0
498.0,508.0
498.0,499.0
504.0,503.0
496.0,504.0
503.0,495.0
493.0,496.0
493.0,497.0
503.0,497.0
508.0,501.0
513.0,509.0
515.0,509.0
525.0,516.0
522.0,515.0
519.0,513.0
516.0,511.0
503.0,516.0
503.0,508.0
510.0,502.0
490.0,505.0
502.0,496.0
496.0,500.0
495.0,488.0
492.0,498.0
490.0,500.0
505.0,498.0
516.0,502.0
516.0,502.0
520.0,504.0
519.0,510.0
519.0,513.0
518.0,513.0
518.0,512.0
507.0,493.0
501.0,509.0
499.0,501.0
504.0,494.0
506.0,497.0
501.0,496.0
499.0,486.0
491.0,498.0
500.0,487.0
503.0,495.0
514.0,502.0
520.0,507.0
519.0,511.0
519.0,507.0
518.0,513.0
505.0,510.0
516.0,508.0
503.0,507.0
503.0,498.0
506.0,501.0
496.0,505.0
502.0,489.0
498.0,497.0
492.0,493.0
503.0,492.0
503.0,497.0
508.0,500.0
510.0,499.0
523.0,508.0
521.0,510.0
523.0,514.0
520.0,516.0
517.0,516.0
511.0,502.0
492.0,507.0
503.0,500.0
507.0,499.0
496.0,500.0
501.0,488.0
500.0,494.0
495.0,496.0
493.0,498.0
506.0,499.0
515.0,502.0
509.0,498.0
523.0,512.0
519.0,514.0
523.0,517.0
518.0,516.0
511.0,509.0
506.0,504.0
501.0,509.0
498.0,499.0
506.0,498.0
514.0,497.0
503.0,500.0
505.0,492.0
501.0,489.0
498.0,493.0
497.0,493.0
510.0,502.0
523.0,511.0
529.0,509.0
527.0,513.0
516.0,515.0
511.0,507.0
516.0,507.0
511.0,504.0
508.0,494.0
504.0,501.0
502.0,498.0
483.0,497.0
484.0,495.0
482.0,496.0
496.0,489.0
504.0,491.0
508.0,501.0
516.0,506.0
521.0,505.0
525.0,514.0
522.0,515.0
514.0,509.0
517.0,509.0
511.0,510.0
509.0,507.0
502.0,510.0
503.0,500.0
502.0,494.0
498.0,498.0
497.0,489.0
499.0,490.0
498.0,485.0
505.0,498.0
517.0,502.0
513.0,508.0
524.0,512.0
525.0,509.0
524.0,515.0
514.0,515.0
516.0,516.0
509.0,508.0
499.0,510.0
505.0,496.0
509.0,499.0
500.0,500.0
502.0,490.0
503.0,492.0
499.0,494.0
506.0,492.0
510.0,497.0
509.0,496.0
514.0,503.0
522.0,515.0
526.0,514.0
520.0,513.0
524.0,517.0
515.0,507.0
513.0,508.0
511.0,505.0
503.0,505.0
504.0,501.0
508.0,493.0
497.0,498.0
498.0,486.0
491.0,495.0
502.0,489.0
508.0,494.0
516.0,504.0
523.0,511.0
519.0,507.0
522.0,514.0
514.0,507.0
505.0,511.0
506.0,517.0
501.0,509.0
497.0,508.0
504.0,497.0
504.0,493.0
500.0,501.0
497.0,496.0
501.0,483.0
495.0,495.0
510.0,497.0
513.0,500.0
511.0,508.0
520.0,504.0
522.0,517.0
520.0,517.0
509.0,508.0
512.0,518.0
510.0,504.0
508.0,501.0
507.0,502.0
504.0,502.0
496.0,501.0
501.0,491.0
505.0,491.0
503.0,496.0
507.0,493.0
509.0,499.0
512.0,504.0
521.0,509.0
526.0,518.0
525.0,517.0
520.0,515.0
511.0,513.0
512.0,512.0
507.0,511.0
502.0,511.0
501.0,496.0
501.0,500.0
506.0,497.0
500.0,497.0
502.0,492.0
500.0,490.0
507.0,499.0
512.0,501.0
522.0,506.0
521.0,505.0
525.0,515.0
520.0,513.0
520.0,516.0
516.0,510.0
514.0,508.0
500.0,512.0
501.0,494.0
504.0,500.0
500.0,494.0
501.0,496.0
500.0,492.0
504.0,490.0
498.0,497.0
508.0,492.0
517.0,497.0
527.0,509.0
526.0,505.0
514.0,506.0
526.0,516.0
529.0,511.0
512.0,508.0
519.0,499.0
513.0,504.0
498.0,507.0
502.0,493.0
491.0,502.0
496.0,495.0
503.0,490.0
493.0,497.0
506.0,493.0
513.0,497.0
521.0,500.0
521.0,505.0
524.0,515.0
531.0,520.0
523.0,515.0
515.0,515.0
503.0,510.0
500.0,515.0
502.0,507.0
502.0,499.0
506.0,499.0
502.0,492.0
497.0,494.0
498.0,494.0
505.0,493.0
502.0,498.0
511.0,506.0
522.0,506.0
524.0,512.0
521.0,512.0
526.0,519.0
522.0,515.0
520.0,514.0
515.0,509.0
514.0,504.0
504.0,506.0
508.0,501.0
496.0,505.0
505.0,489.0
493.0,491.0
495.0,497.0
500.0,490.0
500.0,495.0
509.0,498.0
517.0,507.0
522.0,507.0
532.0,515.0
527.0,514.0
527.0,512.0
520.0,514.0
509.0,501.0
501.0,503.0
506.0,500.0
505.0,497.0
498.0,492.0
503.0,495.0
500.0,494.0
500.0,491.0
506.0,495.0
499.0,491.0
515.0,505.0
520.0,506.0
522.0,513.0
530.0,521.0
524.0,516.0
519.0,515.0
513.0,513.0
509.0,510.0
511.0,503.0
508.0,496.0
507.0,501.0
508.0,497.0
508.0,494.0
492.0,499.0
504.0,496.0
504.0,497.0
496.0,491.0
510.0,498.0
519.0,506.0
527.0,512.0
522.0,509.0
525.0,510.0
513.0,507.0
504.0,506.0
501.0,510.0
505.0,507.0
501.0,498.0
503.0,490.0
507.0,495.0
493.0,497.0
500.0,481.0
499.0,490.0
497.0,495.0
510.0,505.0
515.0,507.0
515.0,509.0
519.0,516.0
525.0,517.0
520.0,519.0
518.0,512.0
511.0,513.0
509.0,505.0
497.0,507.0
505.0,499.0
502.0,497.0
505.0,495.0
489.0,496.0
499.0,493.0
494.0,498.0
513.0,498.0
514.0,506.0
519.0,511.0
522.0,506.0
519.0,509.0
523.0,514.0
518.0,511.0
515.0,509.0
508.0,511.0
514.0,504.0
499.0,505.0
509.0,500.0
501.0,500.0
490.0,489.0
499.0,492.0
495.0,487.0
498.0,480.0
510.0,501.0
512.0,504.0
522.0,509.0
519.0,510.0
518.0,509.0
522.0,514.0
512.0,508.0
508.0,497.0
506.0,500.0
508.0,503.0
501.0,505.0
503.0,496.0
507.0,495.0
497.0,498.0
502.0,495.0
503.0,493.0
501.0,494.0
508.0,505.0
518.0,508.0
522.0,514.0
531.0,517.0
514.0,514.0
513.0,510.0
511.0,512.0
504.0,509.0
506.0,508.0
508.0,501.0
501.0,504.0
499.0,503.0
490.0,495.0
496.0,486.0
506.0,492.0
505.0,493.0
511.0,500.0
510.0,502.0
515.0,508.0
518.0,507.0
523.0,511.0
522.0,517.0
519.0,515.0
512.0,511.0
506.0,505.0
505.0,501.0
507.0,499.0
510.0,498.0
497.0,501.0
500.0,490.0
500.0,491.0
497.0,483.0
501.0,496.0
504.0,487.0
517.0,507.0
524.0,512.0
525.0,510.0
523.0,511.0
522.0,513.0
517.0,516.0
508.0,505.0
500.0,511.0
504.0,496.0
513.0,500.0
507.0,499.0
505.0,491.0
507.0,492.0
502.0,488.0
503.0,492.0
504.0,496.0
504.0,494.0
510.0,505.0
526.0,512.0
528.0,516.0
515.0,512.0
512.0,507.0
506.0,508.0
510.0,507.0
501.0,505.0
503.0,495.0
502.0,500.0
503.0,498.0
499.0,489.0
502.0,492.0
492.0,495.0
505.0,493.0
507.0,499.0
505.0,502.0
514.0,501.0
522.0,515.0
525.0,517.0
519.0,515.0
511.0,507.0
512.0,506.0
506.0,504.0
506.0,500.0
505.0,500.0
507.0,498.0
504.0,498.0
492.0,493.0
499.0,491.0
503.0,486.0
507.0,494.0
513.0,501.0
509.0,507.0
517.0,507.0
522.0,511.0
524.0,510.0
522.0,515.0
520.0,515.0
515.0,506.0
505.0,499.0
500.0,500.0
504.0,502.0
503.0,503.0
505.0,496.0
497.0,496.0
499.0,489.0
503.0,493.0
501.0,496.0
516.0,502.0
520.0,505.0
519.0,505.0
526.0,514.0
525.0,515.0
524.0,511.0
522.0,512.0
513.0,505.0
501.0,502.0
499.0,501.0
505.0,499.0
497.0,499.0
491.0,501.0
493.0,494.0
499.0,482.0
497.0,497.0
509.0,500.0
514.0,502.0
519.0,512.0
524.0,507.0
516.0,510.0
523.0,515.0
522.0,514.0
512.0,506.0
509.0,506.0
505.0,494.0
509.0,500.0
500.0,502.0
502.0,500.0
501.0,488.0
504.0,488.0
501.0,496.0
505.0,486.0
508.0,492.0
515.0,500.0
526.0,510.0
527.0,510.0
526.0,512.0
524.0,513.0
516.0,504.0
513.0,513.0
508.0,496.0
504.0,504.0
502.0,503.0
501.0,491.0
499.0,494.0
498.0,493.0
489.0,495.0
499.0,494.0
504.0,495.0
511.0,502.0
520.0,502.0
531.0,512.0
533.0,513.0
528.0,513.0
529.0,517.0
519.0,503.0
517.0,506.0
515.0,506.0
506.0,492.0
504.0,504.0
506.0,496.0
499.0,496.0
483.0,495.0
498.0,487.0
492.0,479.0
502.0,498.0
507.0,499.0
519.0,507.0
516.0,506.0
519.0,512.0
517.0,510.0
512.0,508.0
504.0,507.0
504.0,504.0
497.0,506.0
496.0,504.0
500.0,500.0
496.0,500.0
492.0,500.0
494.0,495.0
507.0,491.0
510.0,494.0
508.0,498.0
512.0,500.0
517.0,506.0
513.0,509.0
519.0,514.0
509.0,506.0
509.0,498.0
506.0,514.0
507.0,497.0
508.0,502.0
494.0,503.0
503.0,496.0
499.0,496.0
499.0,491.0
499.0,489.0
505.0,488.0
505.0,497.0
510.0,499.0
513.0,506.0
527.0,512.0
528.0,516.0
524.0,514.0
518.0,511.0
516.0,513.0
507.0,515.0
497.0,508.0
508.0,499.0
498.0,504.0
501.0,492.0
503.0,495.0
488.0,499.0
502.0,494.0
505.0,494.0
506.0,495.0
516.0,503.0
524.0,510.0
528.0,510.0
515.0,512.0
524.0,514.0
520.0,512.0
514.0,513.0
499.0,512.0
500.0,509.0
500.0,505.0
504.0,491.0
498.0,502.0
499.0,485.0
497.0,495.0
508.0,492.0
497.0,488.0
496.0,495.0
505.0,504.0
507.0,507.0
515.0,509.0
525.0,516.0
518.0,515.0
518.0,517.0
510.0,508.0
501.0,510.0
499.0,508.0
500.0,503.0
502.0,500.0
504.0,488.0
506.0,495.0
501.0,488.0
502.0,498.0
512.0,499.0
517.0,496.0
516.0,506.0
512.0,511.0
519.0,519.0
526.0,517.0
527.0,515.0
516.0,510.0
516.0,504.0
515.0,505.0
513.0,502.0
509.0,500.0
502.0,501.0
499.0,491.0
492.0,491.0
494.0,494.0
497.0,487.0
506.0,500.0
510.0,500.0
518.0,508.0
515.0,506.0
516.0,508.0
514.0,507.0
513.0,506.0
507.0,510.0
507.0,514.0
510.0,506.0
506.0,503.0
501.0,500.0
511.0,495.0
490.0,500.0
500.0,494.0
499.0,491.0
503.0,503.0
508.0,506.0
513.0,507.0
518.0,514.0
528.0,519.0
525.0,507.0
515.0,508.0
516.0,516.0
503.0,522.0
506.0,500.0
507.0,489.0
504.0,490.0
504.0,494.0
501.0,496.0
499.0,487.0
496.0,495.0
494.0,496.0
501.0,497.0
511.0,495.0
509.0,500.0
524.0,512.0
526.0,515.0
524.0,511.0
519.0,514.0
508.0,508.0
500.0,509.0
498.0,508.0
503.0,503.0
505.0,497.0
509.0,491.0
501.0,497.0
510.0,491.0
502.0,488.0
498.0,493.0
510.0,494.0
514.0,499.0
519.0,507.0
528.0,513.0
529.0,516.0
523.0,517.0
520.0,516.0
513.0,514.0
513.0,510.0
507.0,506.0
499.0,506.0
501.0,490.0
505.0,501.0
500.0,497.0
502.0,492.0
499.0,491.0
497.0,500.0
505.0,501.0
509.0,498.0
524.0,510.0
522.0,512.0
520.0,512.0
520.0,507.0
510.0,509.0
511.0,511.0
499.0,499.0
496.0,487.0
500.0,499.0
501.0,497.0
505.0,492.0
506.0,492.0
498.0,486.0
511.0,492.0
523.0,491.0
524.0,502.0
521.0,505.0
520.0,510.0
525.0,517.0
526.0,516.0
530.0,514.0
527.0,516.0
525.0,506.0
513.0,500.0
500.0,492.0
503.0,494.0
508.0,496.0
501.0,496.0
496.0,488.0
509.0,491.0
504.0,488.0
512.0,502.0
511.0,505.0
517.0,510.0
517.0,512.0
522.0,517.0
525.0,518.0
525.0,512.0
512.0,508.0
509.0,510.0
509.0,497.0
508.0,495.0
506.0,491.0
509.0,496.0
498.0,497.0
500.0,485.0
492.0,497.0
509.0,494.0
511.0,499.0
521.0,507.0
527.0,511.0
532.0,505.0
526.0,511.0
519.0,513.0
512.0,514.0
500.0,511.0
501.0,504.0
515.0,502.0
512.0,500.0
505.0,501.0
503.0,498.0
500.0,488.0
501.0,488.0
504.0,489.0
499.0,496.0
516.0,499.0
521.0,504.0
523.0,507.0
531.0,520.0
518.0,517.0
506.0,518.0
512.0,515.0
506.0,509.0
489.0,509.0
495.0,502.0
494.0,491.0
506.0,497.0
508.0,496.0
503.0,497.0
505.0,491.0
505.0,498.0
513.0,500.0
517.0,507.0
525.0,510.0
526.0,511.0
531.0,518.0
526.0,517.0
527.0,514.0
520.0,504.0
504.0,509.0
508.0,503.0
498.0,509.0
502.0,503.0
497.0,502.0
500.0,491.0
498.0,483.0
501.0,493.0
510.0,495.0
503.0,499.0
507.0,500.0
522.0,511.0
523.0,514.0
525.0,515.0
521.0,516.0
515.0,512.0
501.0,504.0
503.0,495.0
497.0,495.0
497.0,493.0
495.0,491.0
498.0,495.0
507.0,490.0
494.0,491.0
503.0,493.0
509.0,494.0
509.0,495.0
518.0,505.0
523.0,510.0
538.0,519.0
524.0,510.0
528.0,516.0
515.0,509.0
499.0,504.0
493.0,503.0
494.0,492.0
488.0,504.0
500.0,497.0
499.0,495.0
502.0,495.0
503.0,490.0
498.0,499.0
506.0,499.0
515.0,509.0
518.0,511.0
519.0,517.0
512.0,521.0
521.0,512.0
528.0,509.0
510.0,501.0
505.0,504.0
504.0,498.0
507.0,501.0
510.0,496.0
505.0,495.0
507.0,495.0
505.0,499.0
500.0,495.0
495.0,499.0
500.0,501.0
504.0,507.0
511.0,510.0
515.0,511.0
525.0,516.0
529.0,515.0
518.0,506.0
523.0,509.0
518.0,505.0
518.0,501.0
516.0,495.0
517.0,497.0
500.0,498.0
493.0,488.0
495.0,495.0
492.0,496.0
510.0,493.0
524.0,502.0
518.0,503.0
530.0,512.0
527.0,518.0
526.0,517.0
518.0,515.0
515.0,506.0
509.0,509.0
500.0,502.0
511.0,500.0
516.0,497.0
525.0,496.0
516.0,495.0
504.0,496.0
486.0,502.0
498.0,495.0
500.0,475.0
509.0,495.0
512.0,503.0
524.0,523.0
524.0,521.0
520.0,522.0
518.0,520.0
509.0,505.0
504.0,499.0
500.0,507.0
495.0,505.0
501.0,498.0
505.0,500.0
496.0,485.0
496.0,485.0
497.0,484.0
502.0,497.0
504.0,505.0
511.0,501.0
521.0,503.0
529.0,512.0
523.0,506.0
519.0,509.0
516.0,508.0
509.0,509.0
512.0,502.0
509.0,504.0
505.0,492.0
505.0,485.0
500.0,494.0
488.0,487.0
489.0,487.0
500.0,502.0
496.0,509.0
505.0,513.0
517.0,512.0
529.0,516.0
525.0,510.0
522.0,498.0
520.0,510.0
515.0,519.0
517.0,508.0
503.0,497.0
502.0,494.0
501.0,494.0
502.0,493.0
510.0,490.0
502.0,490.0
507.0,491.0
503.0,490.0
510.0,501.0
518.0,499.0
518.0,498.0
525.0,518.0
526.0,514.0
522.0,513.0
512.0,506.0
514.0,504.0
512.0,512.0
518.0,504.0
508.0,499.0
508.0,505.0
500.0,500.0
497.0,496.0
482.0,494.0
489.0,483.0
509.0,499.0
515.0,492.0
523.0,505.0
529.0,517.0
522.0,519.0
510.0,514.0
515.0,515.0
516.0,513.0
514.0,508.0
499.0,510.0
492.0,501.0
500.0,505.0
500.0,493.0
498.0,490.0
504.0,493.0
491.0,500.0
503.0,489.0
506.0,501.0
516.0,505.0
522.0,509.0
523.0,511.0
521.0,514.0
518.0,504.0
511.0,511.0
501.0,507.0
502.0,511.0
492.0,504.0
487.0,505.0
478.0,504.0
490.0,500.0
504.0,495.0
501.0,497.0
515.0,482.0
515.0,496.0
519.0,496.0
520.0,506.0
532.0,511.0
532.0,513.0
534.0,518.0
535.0,517.0
527.0,512.0
516.0,512.0
514.0,507.0
514.0,504.0
510.0,504.0
499.0,506.0
499.0,496.0
496.0,484.0
491.0,484.0
490.0,489.0
501.0,494.0
506.0,495.0
520.0,504.0
533.0,501.0
539.0,514.0
524.0,503.0
521.0,510.0
516.0,512.0
516.0,504.0
493.0,503.0
490.0,501.0
500.0,505.0
488.0,511.0
485.0,503.0
492.0,500.0
498.0,494.0
502.0,487.0
510.0,498.0
511.0,502.0
523.0,510.0
523.0,515.0
525.0,516.0
521.0,513.0
518.0,504.0
504.0,510.0
504.0,505.0
496.0,508.0
498.0,504.0
483.0,494.0
481.0,491.0
485.0,492.0
495.0,495.0
492.0,495.0
496.0,499.0
521.0,504.0
519.0,505.0
529.0,506.0
528.0,508.0
528.0,500.0
525.0,505.0
521.0,502.0
517.0,505.0
505.0,510.0
509.0,490.0
512.0,500.0
502.0,497.0
499.0,490.0
488.0,489.0
487.0,485.0
486.0,494.0
500.0,495.0
516.0,500.0
522.0,509.0
534.0,512.0
529.0,504.0
526.0,509.0
517.0,511.0
516.0,513.0
513.0,511.0
506.0,510.0
511.0,493.0
512.0,499.0
519.0,503.0
525.0,491.0
522.0,491.0
513.0,488.0
504.0,480.0
501.0,488.0
494.0,499.0
507.0,512.0
505.0,516.0
502.0,512.0
497.0,515.0
501.0,509.0
507.0,509.0
511.0,507.0
498.0,498.0
496.0,501.0
505.0,500.0
506.0,500.0
502.0,486.0
497.0,499.0
511.0,494.0
511.0,496.0
517.0,500.0
520.0,501.0
530.0,511.0
534.0,510.0
532.0,513.0
493.0,507.0
503.0,513.0
497.0,503.0
519.0,506.0
509.0,503.0
504.0,499.0
490.0,502.0
496.0,494.0
494.0,493.0
485.0,496.0
490.0,498.0
511.0,500.0
507.0,496.0
521.0,500.0
524.0,507.0
530.0,521.0
522.0,518.0
514.0,511.0
508.0,509.0
503.0,516.0
506.0,491.0
507.0,492.0
505.0,490.0
504.0,491.0
494.0,500.0
505.0,497.0
497.0,515.0
498.0,499.0
499.0,505.0
496.0,498.0
525.0,496.0
528.0,503.0
525.0,506.0
525.0,510.0
527.0,511.0
512.0,507.0
512.0,504.0
536.0,505.0
534.0,503.0
518.0,495.0
507.0,492.0
494.0,485.0
489.0,491.0
486.0,493.0
501.0,504.0
477.0,520.0
502.0,521.0
519.0,520.0
529.0,506.0
502.0,507.0
516.0,508.0
524.0,509.0
515.0,510.0
517.0,498.0
517.0,499.0
518.0,495.0
500.0,501.0
472.0,491.0
457.0,493.0
469.0,492.0
477.0,502.0
497.0,510.0
529.0,505.0
527.0,498.0
543.0,501.0
527.0,510.0
506.0,510.0
509.0,511.0
511.0,506.0
501.0,492.0
494.0,499.0
501.0,497.0
509.0,505.0
513.0,507.0
504.0,487.0
505.0,458.0
504.0,466.0
504.0,483.0
516.0,498.0
528.0,510.0
526.0,507.0
525.0,513.0
510.0,514.0
515.0,510.0
514.0,508.0
515.0,510.0
504.0,516.0
508.0,508.0
503.0,502.0
504.0,496.0
493.0,498.0
493.0,491.0
483.0,489.0
486.0,490.0
496.0,493.0
504.0,496.0
513.0,505.0
531.0,497.0
545.0,499.0
541.0,500.0
530.0,503.0
522.0,512.0
516.0,520.0
508.0,523.0
491.0,506.0
482.0,506.0
493.0,500.0
505.0,501.0
491.0,502.0
494.0,489.0
490.0,500.0
494.0,501.0
507.0,504.0
521.0,509.0
527.0,505.0
527.0,504.0
509.0,504.0
510.0,510.0
511.0,510.0
506.0,506.0
498.0,501.0
498.0,498.0
492.0,497.0
499.0,497.0
497.0,495.0
496.0,491.0
492.0,490.0
507.0,487.0
513.0,492.0
526.0,502.0
546.0,510.0
556.0,512.0
546.0,515.0
530.0,506.0
532.0,507.0
515.0,501.0
532.0,505.0
513.0,499.0
475.0,502.0
488.0,507.0
497.0,512.0
487.0,508.0
496.0,501.0
505.0,498.0
504.0,507.0
499.0,491.0
499.0,493.0
500.0,508.0
507.0,508.0
512.0,504.0
538.0,542.0
560.0,521.0
558.0,504.0
558.0,517.0
527.0,508.0
500.0,497.0
473.0,495.0
482.0,485.0
466.0,503.0
473.0,500.0
521.0,491.0
556.0,490.0
530.0,516.0
503.0,518.0
514.0,501.0
523.0,502.0
517.0,504.0
518.0,510.0
529.0,510.0
513.0,496.0
510.0,489.0
521.0,509.0
547.0,508.0
533.0,507.0
498.0,484.0
495.0,477.0
513.0,481.0
511.0,493.0
505.0,485.0
482.0,498.0
495.0,501.0
516.0,507.0
510.0,507.0
513.0,513.0
506.0,504.0
500.0,504.0
503.0,509.0
508.0,510.0
515.0,506.0
507.0,499.0
516.0,496.0
501.0,499.0
508.0,496.0
499.0,490.0
516.0,489.0
519.0,492.0
508.0,498.0
496.0,499.0
509.0,507.0
510.0,521.0
509.0,522.0
500.0,513.0
501.0,512.0
511.0,504.0
523.0,502.0
505.0,511.0
495.0,499.0
494.0,490.0
496.0,491.0
507.0,509.0
498.0,527.0
512.0,494.0
493.0,478.0
474.0,488.0
494.0,494.0
515.0,496.0
523.0,529.0
527.0,523.0
509.0,520.0
505.0,517.0
512.0,514.0
538.0,511.0
544.0,496.0
538.0,489.0
527.0,488.0
518.0,491.0
506.0,498.0
514.0,491.0
526.0,509.0
526.0,513.0
513.0,508.0
528.0,491.0
493.0,497.0
466.0,499.0
487.0,505.0
522.0,511.0
523.0,514.0
529.0,512.0
521.0,511.0
512.0,505.0
509.0,498.0
519.0,478.0
501.0,477.0
482.0,489.0
494.0,476.0
466.0,488.0
465.0,505.0
485.0,507.0
510.0,530.0
520.0,529.0
533.0,516.0
536.0,509.0
519.0,509.0
488.0,511.0
520.0,529.0
520.0,535.0
523.0,525.0
514.0,470.0
515.0,458.0
518.0,479.0
532.0,497.0
535.0,509.0
539.0,518.0
520.0,506.0
527.0,498.0
519.0,471.0
497.0,493.0
502.0,518.0
525.0,526.0
529.0,516.0
519.0,505.0
493.0,506.0
485.0,507.0
452.0,502.0
464.0,495.0
499.0,499.0
517.0,493.0
495.0,493.0
495.0,487.0
479.0,491.0
500.0,507.0
516.0,510.0
528.0,517.0
524.0,509.0
518.0,509.0
511.0,507.0
507.0,508.0
487.0,508.0
487.0,518.0
498.0,532.0
496.0,538.0
493.0,511.0
507.0,475.0
503.0,475.0
537.0,512.0
528.0,483.0
529.0,449.0
519.0,478.0
538.0,530.0
547.0,524.0
530.0,524.0
513.0,518.0
517.0,528.0
479.0,530.0
495.0,506.0
496.0,460.0
510.0,489.0
502.0,495.0
518.0,496.0
510.0,502.0
505.0,513.0
501.0,483.0
476.0,492.0
467.0,496.0
497.0,514.0
509.0,516.0
519.0,509.0
547.0,493.0
549.0,503.0
549.0,495.0
530.0,493.0
488.0,513.0
516.0,511.0
530.0,509.0
513.0,479.0
501.0,461.0
497.0,466.0
504.0,489.0
506.0,505.0
471.0,523.0
445.0,527.0
439.0,514.0
475.0,518.0
543.0,554.0
563.0,549.0
563.0,485.0
571.0,464.0
544.0,488.0
488.0,498.0
454.0,497.0
454.0,499.0
474.0,503.0
502.0,509.0
558.0,482.0
570.0,472.0
558.0,490.0
502.0,540.0
503.0,526.0
524.0,498.0
536.0,504.0
547.0,491.0
522.0,517.0
551.0,533.0
558.0,535.0
492.0,517.0
460.0,485.0
438.0,474.0
546.0,510.0
529.0,502.0
490.0,504.0
474.0,468.0
475.0,436.0
475.0,474.0
522.0,543.0
530.0,539.0
561.0,551.0
527.0,545.0
504.0,543.0
530.0,537.0
495.0,504.0
493.0,452.0
523.0,498.0
503.0,517.0
494.0,486.0
485.0,461.0
481.0,475.0
504.0,494.0
510.0,504.0
510.0,509.0
519.0,510.0
512.0,475.0
512.0,467.0
534.0,493.0
520.0,516.0
524.0,518.0
497.0,529.0
524.0,556.0
540.0,561.0
573.0,522.0
559.0,484.0
494.0,451.0
442.0,460.0
435.0,481.0
452.0,504.0
437.0,540.0
461.0,568.0
493.0,524.0
526.0,486.0
537.0,519.0
516.0,575.0
516.0,538.0
510.0,459.0
483.0,384.0
487.0,461.0
517.0,501.0
503.0,479.0
530.0,475.0
529.0,460.0
504.0,493.0
500.0,518.0
516.0,517.0
514.0,529.0
502.0,519.0
526.0,500.0
517.0,488.0
500.0,486.0
528.0,511.0
529.0,515.0
522.0,514.0
522.0,504.0
475.0,525.0
467.0,523.0
438.0,545.0
497.0,532.0
504.0,459.0
540.0,449.0
565.0,481.0
578.0,483.0
596.0,484.0
565.0,535.0
560.0,639.0
484.0,681.0
425.0,594.0
408.0,408.0
408.0,420.0
462.0,496.0
517.0,481.0
531.0,448.0
557.0,477.0
532.0,490.0
543.0,482.0
528.0,481.0
504.0,469.0
505.0,481.0
495.0,490.0
489.0,489.0
485.0,492.0
480.0,501.0
500.0,511.0
555.0,510.0
610.0,522.0
564.0,535.0
533.0,540.0
453.0,514.0
477.0,480.0
501.0,523.0
514.0,526.0
458.0,490.0
445.0,474.0
439.0,527.0
500.0,551.0
535.0,541.0
528.0,484.0
585.0,496.0
565.0,517.0
535.0,535.0
544.0,512.0
547.0,508.0
608.0,524.0
593.0,477.0
543.0,494.0
550.0,517.0
494.0,476.0
436.0,417.0
437.0,486.0
375.0,497.0
409.0,490.0
453.0,476.0
474.0,471.0
475.0,482.0
523.0,510.0
595.0,522.0
557.0,542.0
543.0,527.0
527.0,555.0
506.0,552.0
455.0,548.0
481.0,469.0
526.0,424.0
554.0,458.0
528.0,486.0
494.0,517.0
468.0,516.0
441.0,493.0
468.0,503.0
544.0,495.0
584.0,480.0
554.0,484.0
516.0,505.0
484.0,534.0
485.0,533.0
498.0,506.0
511.0,467.0
523.0,505.0
562.0,506.0
558.0,491.0
561.0,484.0
525.0,502.0
472.0,541.0
463.0,552.0
449.0,524.0
454.0,457.0
472.0,473.0
476.0,437.0
486.0,501.0
482.0,546.0
479.0,549.0
463.0,498.0
468.0,461.0
478.0,481.0
501.0,491.0
529.0,508.0
532.0,550.0
546.0,551.0
512.0,483.0
510.0,444.0
533.0,516.0
562.0,537.0
584.0,476.0
529.0,442.0
471.0,480.0
508.0,503.0
515.0,508.0
538.0,505.0
526.0,511.0
559.0,534.0
545.0,547.0
496.0,520.0
496.0,480.0
469.0,494.0
496.0,517.0
455.0,532.0
411.0,510.0
389.0,465.0
386.0,459.0
418.0,509.0
477.0,512.0
598.0,527.0
585.0,557.0
612.0,551.0
576.0,505.0
535.0,503.0
553.0,528.0
601.0,474.0
568.0,486.0
539.0,490.0
502.0,475.0
513.0,496.0
493.0,521.0
438.0,518.0
425.0,508.0
463.0,461.0
483.0,484.0
400.0,495.0
416.0,490.0
519.0,514.0
555.0,548.0
511.0,526.0
497.0,493.0
530.0,502.0
564.0,518.0
580.0,502.0
571.0,498.0
522.0,521.0
480.0,536.0
465.0,468.0
487.0,457.0
494.0,476.0
528.0,485.0
549.0,508.0
561.0,529.0
575.0,493.0
527.0,521.0
479.0,570.0
402.0,531.0
393.0,476.0
460.0,482.0
515.0,497.0
556.0,480.0
558.0,490.0
539.0,525.0
526.0,512.0
509.0,478.0
457.0,464.0
467.0,479.0
466.0,482.0
489.0,490.0
513.0,511.0
546.0,529.0
537.0,544.0
532.0,539.0
503.0,530.0
488.0,496.0
491.0,510.0
486.0,485.0
503.0,497.0
534.0,513.0
542.0,498.0
536.0,497.0
515.0,486.0
445.0,493.0
508.0,513.0
521.0,509.0
506.0,508.0
530.0,578.0
523.0,552.0
517.0,449.0
469.0,462.0
442.0,510.0
445.0,493.0
472.0,495.0
506.0,492.0
567.0,528.0
495.0,561.0
482.0,526.0
533.0,427.0
530.0,474.0
541.0,509.0
541.0,502.0
552.0,498.0
611.0,487.0
572.0,489.0
517.0,495.0
406.0,499.0
391.0,526.0
499.0,525.0
491.0,495.0
483.0,510.0
477.0,524.0
508.0,501.0
525.0,472.0
540.0,493.0
548.0,497.0
544.0,487.0
597.0,488.0
597.0,505.0
511.0,520.0
442.0,491.0
462.0,481.0
508.0,528.0
532.0,538.0
601.0,533.0
628.0,492.0
569.0,496.0
473.0,554.0
428.0,545.0
355.0,460.0
429.0,462.0
499.0,489.0
451.0,531.0
448.0,512.0
476.0,492.0
561.0,482.0
611.0,490.0
570.0,495.0
528.0,512.0
514.0,522.0
517.0,514.0
529.0,476.0
530.0,505.0
476.0,524.0
453.0,516.0
484.0,497.0
484.0,499.0
482.0,523.0
492.0,548.0
468.0,512.0
470.0,445.0
468.0,454.0
483.0,503.0
508.0,497.0
557.0,499.0
576.0,512.0
566.0,500.0
553.0,504.0
531.0,508.0
495.0,512.0
508.0,520.0
548.0,553.0
523.0,535.0
528.0,479.0
504.0,444.0
496.0,474.0
443.0,477.0
485.0,485.0
497.0,503.0
488.0,496.0
485.0,512.0
492.0,520.0
499.0,531.0
531.0,524.0
512.0,517.0
479.0,501.0
474.0,518.0
496.0,548.0
505.0,546.0
488.0,470.0
485.0,463.0
459.0,505.0
452.0,517.0
444.0,507.0
452.0,488.0
502.0,485.0
573.0,500.0
604.0,476.0
633.0,505.0
586.0,520.0
602.0,527.0
559.0,537.0
503.0,529.0
504.0,475.0
515.0,480.0
469.0,468.0
462.0,480.0
497.0,489.0
515.0,488.0
499.0,497.0
491.0,510.0
520.0,550.0
525.0,509.0
587.0,455.0
535.0,460.0
545.0,529.0
588.0,540.0
537.0,522.0
500.0,498.0
410.0,518.0
419.0,540.0
465.0,499.0
510.0,461.0
546.0,479.0
485.0,492.0
549.0,488.0
533.0,481.0
538.0,488.0
563.0,508.0
548.0,520.0
551.0,529.0
576.0,494.0
518.0,511.0
504.0,511.0
473.0,509.0
510.0,531.0
460.0,555.0
449.0,577.0
457.0,528.0
469.0,459.0
513.0,449.0
483.0,452.0
478.0,476.0
548.0,484.0
547.0,492.0
544.0,505.0
460.0,527.0
452.0,534.0
524.0,500.0
578.0,490.0
542.0,507.0
507.0,495.0
501.0,486.0
489.0,485.0
487.0,507.0
515.0,523.0
514.0,509.0
511.0,505.0
465.0,493.0
464.0,506.0
499.0,503.0
505.0,510.0
511.0,504.0
516.0,506.0
517.0,507.0
517.0,501.0
527.0,504.0
523.0,518.0
526.0,511.0
520.0,502.0
491.0,498.0
473.0,520.0
498.0,487.0
522.0,470.0
550.0,508.0
540.0,537.0
532.0,493.0
495.0,467.0
507.0,494.0
510.0,501.0
554.0,484.0
507.0,507.0
480.0,533.0
496.0,524.0
507.0,504.0
499.0,480.0
475.0,478.0
467.0,496.0
476.0,490.0
486.0,511.0
520.0,546.0
558.0,525.0
544.0,475.0
494.0,458.0
513.0,482.0
498.0,477.0
521.0,483.0
544.0,498.0
557.0,518.0
510.0,518.0
505.0,522.0
490.0,505.0
519.0,499.0
482.0,511.0
502.0,508.0
512.0,500.0
475.0,491.0
493.0,485.0
525.0,485.0
581.0,502.0
553.0,506.0
561.0,531.0
475.0,521.0
512.0,496.0
566.0,498.0
551.0,512.0
549.0,526.0
515.0,520.0
497.0,511.0
504.0,506.0
493.0,505.0
492.0,498.0
507.0,481.0
487.0,486.0
494.0,537.0
478.0,530.0
478.0,479.0
486.0,497.0
482.0,507.0
492.0,493.0
495.0,495.0
492.0,499.0
489.0,515.0
480.0,520.0
524.0,518.0
543.0,501.0
552.0,503.0
552.0,501.0
567.0,504.0
545.0,487.0
535.0,492.0
506.0,489.0
455.0,497.0
403.0,506.0
418.0,482.0
494.0,495.0
527.0,500.0
523.0,515.0
541.0,520.0
570.0,520.0
574.0,522.0
542.0,519.0
520.0,511.0
509.0,497.0
465.0,518.0
456.0,529.0
486.0,501.0
485.0,461.0
482.0,466.0
481.0,488.0
486.0,501.0
513.0,499.0
515.0,487.0
528.0,505.0
541.0,530.0
520.0,535.0
503.0,528.0
528.0,528.0
586.0,532.0
597.0,542.0
536.0,557.0
489.0,518.0
492.0,464.0
483.0,453.0
478.0,479.0
504.0,483.0
516.0,455.0
503.0,486.0
467.0,491.0
485.0,483.0
512.0,487.0
530.0,497.0
563.0,509.0
548.0,520.0
529.0,506.0
525.0,516.0
482.0,512.0
435.0,516.0
489.0,478.0
490.0,469.0
505.0,483.0
493.0,481.0
509.0,478.0
538.0,484.0
537.0,489.0
532.0,489.0
501.0,504.0
542.0,510.0
520.0,512.0
540.0,524.0
518.0,516.0
495.0,507.0
510.0,504.0
538.0,507.0
535.0,528.0
520.0,543.0
473.0,514.0
424.0,461.0
418.0,467.0
446.0,477.0
478.0,505.0
502.0,509.0
552.0,503.0
579.0,508.0
590.0,514.0
583.0,511.0
609.0,498.0
604.0,520.0
553.0,515.0
416.0,511.0
340.0,503.0
416.0,501.0
477.0,482.0
538.0,488.0
566.0,492.0
538.0,487.0
511.0,494.0
477.0,488.0
459.0,499.0
530.0,518.0
576.0,507.0
594.0,495.0
550.0,541.0
493.0,579.0
482.0,544.0
490.0,467.0
481.0,486.0
504.0,487.0
520.0,490.0
506.0,491.0
462.0,489.0
470.0,482.0
486.0,485.0
489.0,481.0
501.0,483.0
509.0,494.0
514.0,503.0
523.0,525.0
530.0,553.0
507.0,545.0
495.0,493.0
491.0,490.0
508.0,502.0
509.0,498.0
504.0,485.0
511.0,487.0
529.0,501.0
549.0,491.0
556.0,482.0
541.0,494.0
520.0,527.0
447.0,545.0
419.0,520.0
481.0,478.0
510.0,500.0
530.0,516.0
520.0,494.0
515.0,492.0
514.0,507.0
532.0,511.0
527.0,503.0
512.0,509.0
502.0,510.0
483.0,507.0
504.0,492.0
515.0,469.0
508.0,490.0
475.0,488.0
473.0,511.0
458.0,509.0
492.0,491.0
496.0,480.0
533.0,506.0
531.0,505.0
520.0,503.0
521.0,510.0
545.0,508.0
554.0,516.0
540.0,523.0
526.0,502.0
503.0,472.0
473.0,470.0
404.0,496.0
414.0,491.0
503.0,499.0
559.0,506.0
578.0,509.0
522.0,500.0
492.0,503.0
518.0,494.0
539.0,503.0
504.0,505.0
606.0,517.0
657.0,523.0
646.0,528.0
631.0,519.0
527.0,499.0
375.0,470.0
359.0,486.0
437.0,488.0
471.0,497.0
507.0,510.0
508.0,510.0
515.0,511.0
525.0,517.0
517.0,527.0
512.0,519.0
515.0,510.0
512.0,506.0
496.0,508.0
489.0,502.0
483.0,499.0
476.0,500.0
493.0,505.0
502.0,513.0
473.0,502.0
481.0,475.0
498.0,486.0
525.0,493.0
545.0,504.0
550.0,515.0
551.0,491.0
549.0,502.0
508.0,506.0
472.0,512.0
491.0,513.0
501.0,514.0
518.0,509.0
518.0,515.0
517.0,496.0
523.0,486.0
505.0,472.0
486.0,475.0
472.0,490.0
442.0,496.0
468.0,500.0
481.0,526.0
492.0,516.0
550.0,489.0
555.0,502.0
538.0,511.0
520.0,508.0
482.0,524.0
504.0,501.0
496.0,485.0
496.0,500.0
531.0,522.0
556.0,491.0
500.0,486.0
488.0,486.0
488.0,485.0
486.0,487.0
478.0,496.0
493.0,518.0
500.0,511.0
511.0,516.0
527.0,514.0
538.0,515.0
581.0,507.0
550.0,507.0
507.0,504.0
505.0,501.0
549.0,501.0
544.0,507.0
510.0,495.0
503.0,496.0
477.0,499.0
478.0,496.0
481.0,501.0
478.0,496.0
488.0,507.0
521.0,516.0
537.0,519.0
591.0,515.0
567.0,520.0
509.0,527.0
494.0,506.0
492.0,484.0
513.0,505.0
489.0,526.0
498.0,509.0
510.0,492.0
462.0,470.0
438.0,469.0
486.0,484.0
573.0,482.0
585.0,504.0
533.0,502.0
555.0,500.0
568.0,512.0
559.0,527.0
469.0,515.0
481.0,523.0
485.0,501.0
488.0,500.0
553.0,501.0
551.0,510.0
558.0,481.0
508.0,489.0
464.0,488.0
495.0,516.0
483.0,521.0
481.0,510.0
500.0,498.0
505.0,531.0
511.0,509.0
500.0,473.0
503.0,504.0
528.0,517.0
524.0,506.0
514.0,509.0
518.0,500.0
507.0,497.0
469.0,502.0
473.0,497.0
497.0,495.0
506.0,496.0
510.0,497.0
509.0,496.0
523.0,493.0
533.0,499.0
536.0,513.0
529.0,514.0
536.0,512.0
523.0,515.0
498.0,524.0
491.0,524.0
480.0,512.0
486.0,490.0
478.0,476.0
500.0,470.0
547.0,483.0
550.0,500.0
513.0,513.0
499.0,488.0
496.0,484.0
507.0,517.0
523.0,535.0
541.0,527.0
513.0,494.0
503.0,487.0
504.0,502.0
482.0,502.0
496.0,505.0
509.0,499.0
510.0,492.0
507.0,492.0
516.0,495.0
516.0,495.0
518.0,489.0
517.0,494.0
460.0,504.0
433.0,503.0
478.0,493.0
501.0,515.0
539.0,530.0
575.0,531.0
564.0,493.0
547.0,488.0
529.0,503.0
502.0,504.0
475.0,508.0
457.0,487.0
475.0,504.0
493.0,494.0
488.0,486.0
491.0,493.0
506.0,503.0
512.0,510.0
504.0,507.0
493.0,519.0
520.0,531.0
551.0,527.0
554.0,492.0
552.0,477.0
550.0,489.0
469.0,521.0
453.0,518.0
502.0,493.0
507.0,501.0
524.0,493.0
522.0,486.0
491.0,496.0
430.0,500.0
412.0,496.0
422.0,491.0
534.0,496.0
584.0,503.0
623.0,513.0
587.0,523.0
552.0,516.0
540.0,521.0
530.0,529.0
537.0,523.0
523.0,504.0
526.0,487.0
525.0,498.0
546.0,492.0
559.0,492.0
552.0,495.0
480.0,500.0
430.0,501.0
465.0,500.0
492.0,494.0
511.0,503.0
516.0,516.0
514.0,520.0
514.0,506.0
509.0,520.0
500.0,518.0
506.0,503.0
507.0,502.0
496.0,507.0
485.0,502.0
490.0,501.0
506.0,475.0
509.0,477.0
506.0,489.0
497.0,490.0
501.0,498.0
519.0,500.0
528.0,505.0
526.0,515.0
523.0,510.0
521.0,506.0
508.0,505.0
489.0,511.0
488.0,502.0
505.0,508.0
492.0,501.0
488.0,491.0
496.0,484.0
485.0,492.0
500.0,491.0
500.0,491.0
501.0,494.0
508.0,512.0
521.0,516.0
515.0,514.0
501.0,517.0
529.0,515.0
526.0,521.0
510.0,511.0
499.0,507.0
501.0,490.0
534.0,490.0
529.0,489.0
517.0,491.0
478.0,488.0
489.0,483.0
508.0,487.0
522.0,497.0
518.0,499.0
524.0,519.0
526.0,531.0
532.0,516.0
526.0,502.0
519.0,502.0
499.0,499.0
511.0,504.0
527.0,498.0
527.0,501.0
518.0,504.0
523.0,494.0
504.0,492.0
483.0,486.0
477.0,489.0
504.0,477.0
497.0,496.0
529.0,510.0
521.0,505.0
508.0,507.0
522.0,512.0
522.0,516.0
511.0,507.0
508.0,505.0
508.0,508.0
506.0,499.0
497.0,499.0
491.0,502.0
496.0,498.0
496.0,494.0
497.0,489.0
482.0,496.0
497.0,490.0
522.0,493.0
517.0,494.0
529.0,503.0
524.0,503.0
509.0,523.0
509.0,519.0
516.0,519.0
535.0,512.0
564.0,506.0
552.0,499.0
537.0,495.0
508.0,497.0
472.0,494.0
452.0,500.0
476.0,495.0
491.0,501.0
502.0,494.0
501.0,503.0
504.0,506.0
499.0,510.0
493.0,510.0
493.0,515.0
491.0,507.0
503.0,498.0
504.0,504.0
526.0,502.0
538.0,504.0
540.0,490.0
521.0,493.0
517.0,490.0
505.0,491.0
516.0,498.0
509.0,505.0
508.0,495.0
517.0,490.0
516.0,503.0
528.0,508.0
522.0,512.0
524.0,508.0
529.0,506.0
516.0,510.0
503.0,511.0
506.0,503.0
500.0,502.0
499.0,505.0
502.0,506.0
502.0,508.0
486.0,502.0
482.0,496.0
498.0,501.0
507.0,502.0
511.0,500.0
519.0,510.0
516.0,505.0
520.0,497.0
524.0,507.0
516.0,516.0
516.0,516.0
495.0,516.0
481.0,504.0
473.0,488.0
475.0,489.0
500.0,493.0
519.0,490.0
518.0,477.0
538.0,489.0
524.0,491.0
514.0,492.0
520.0,506.0
532.0,507.0
539.0,509.0
541.0,518.0
524.0,505.0
511.0,510.0
513.0,498.0
503.0,499.0
501.0,496.0
481.0,500.0
457.0,509.0
452.0,495.0
444.0,493.0
468.0,489.0
503.0,502.0
555.0,499.0
555.0,501.0
552.0,505.0
556.0,514.0
547.0,510.0
548.0,506.0
543.0,516.0
543.0,513.0
518.0,515.0
507.0,506.0
501.0,501.0
502.0,500.0
495.0,496.0
482.0,495.0
478.0,493.0
504.0,489.0
525.0,493.0
547.0,495.0
551.0,503.0
550.0,511.0
544.0,512.0
532.0,516.0
504.0,505.0
482.0,508.0
481.0,507.0
491.0,501.0
487.0,495.0
484.0,502.0
492.0,496.0
490.0,487.0
491.0,495.0
497.0,485.0
506.0,496.0
507.0,493.0
511.0,499.0
507.0,501.0
512.0,503.0
516.0,510.0
512.0,505.0
507.0,506.0
508.0,509.0
507.0,510.0
507.0,502.0
501.0,494.0
493.0,501.0
505.0,496.0
504.0,495.0
493.0,496.0
498.0,491.0
502.0,493.0
509.0,493.0
518.0,504.0
525.0,505.0
526.0,512.0
517.0,514.0
513.0,507.0
515.0,507.0
509.0,511.0
515.0,505.0
512.0,499.0
507.0,500.0
505.0,497.0
507.0,490.0
503.0,484.0
507.0,489.0
506.0,485.0
512.0,494.0
511.0,504.0
520.0,503.0
521.0,513.0
526.0,518.0
525.0,518.0
520.0,515.0
511.0,511.0
502.0,513.0
506.0,500.0
508.0,507.0
498.0,504.0
506.0,499.0
507.0,496.0
504.0,489.0
496.0,488.0
507.0,493.0
509.0,497.0
512.0,497.0
518.0,500.0
533.0,511.0
526.0,516.0
521.0,515.0
523.0,514.0
511.0,504.0
509.0,503.0
508.0,505.0
508.0,502.0
505.0,500.0
507.0,498.0
494.0,501.0
498.0,486.0
495.0,488.0
512.0,496.0
520.0,499.0
522.0,501.0
534.0,510.0
524.0,509.0
530.0,515.0
535.0,512.0
521.0,507.0
506.0,509.0
508.0,505.0
502.0,500.0
500.0,496.0
493.0,501.0
483.0,499.0
488.0,486.0
486.0,491.0
484.0,495.0
500.0,492.0
504.0,503.0
515.0,506.0
530.0,516.0
529.0,510.0
533.0,518.0
525.0,515.0
509.0,506.0
503.0,508.0
495.0,510.0
511.0,502.0
520.0,493.0
511.0,498.0
502.0,485.0
498.0,491.0
495.0,495.0
487.0,500.0
493.0,493.0
508.0,499.0
519.0,508.0
527.0,511.0
524.0,514.0
524.0,517.0
520.0,509.0
514.0,511.0
506.0,510.0
490.0,507.0
493.0,508.0
501.0,501.0
496.0,504.0
484.0,499.0
500.0,487.0
501.0,491.0
502.0,492.0
509.0,500.0
517.0,506.0
516.0,508.0
521.0,516.0
506.0,512.0
506.0,510.0
513.0,509.0
507.0,501.0
515.0,503.0
523.0,492.0
519.0,504.0
513.0,509.0
513.0,501.0
500.0,496.0
501.0,497.0
503.0,496.0
510.0,492.0
513.0,501.0
519.0,505.0
524.0,510.0
519.0,510.0
526.0,520.0
523.0,519.0
516.0,513.0
509.0,503.0
500.0,507.0
497.0,511.0
495.0,504.0
497.0,496.0
501.0,494.0
500.0,495.0
490.0,499.0
502.0,486.0
506.0,493.0
511.0,504.0
522.0,508.0
521.0,506.0
529.0,517.0
514.0,511.0
510.0,508.0
512.0,512.0
504.0,508.0
500.0,503.0
496.0,503.0
503.0,504.0
504.0,493.0
507.0,494.0
497.0,497.0
498.0,488.0
501.0,488.0
506.0,500.0
517.0,508.0
518.0,505.0
530.0,519.0
526.0,514.0
521.0,514.0
517.0,516.0
504.0,509.0
501.0,503.0
496.0,502.0
492.0,505.0
501.0,498.0
498.0,496.0
498.0,487.0
502.0,493.0
499.0,482.0
502.0,489.0
511.0,502.0
509.0,506.0
515.0,504.0
522.0,517.0
522.0,514.0
525.0,517.0
521.0,508.0
525.0,512.0
519.0,509.0
517.0,503.0
507.0,501.0
498.0,495.0
491.0,486.0
491.0,487.0
495.0,488.0
503.0,493.0
507.0,497.0
511.0,500.0
525.0,510.0
524.0,515.0
519.0,511.0
521.0,516.0
523.0,516.0
518.0,512.0
511.0,499.0
503.0,496.0
498.0,500.0
497.0,494.0
489.0,501.0
489.0,488.0
489.0,499.0
503.0,492.0
501.0,497.0
501.0,498.0
513.0,504.0
526.0,511.0
528.0,508.0
531.0,513.0
529.0,516.0
525.0,512.0
520.0,510.0
505.0,508.0
496.0,504.0
501.0,500.0
496.0,502.0
492.0,490.0
490.0,486.0
498.0,492.0
493.0,492.0
493.0,493.0
506.0,500.0
517.0,503.0
528.0,511.0
525.0,509.0
523.0,511.0
519.0,519.0
514.0,509.0
511.0,514.0
509.0,500.0
511.0,502.0
507.0,499.0
500.0,502.0
497.0,500.0
491.0,494.0
496.0,488.0
500.0,492.0
504.0,496.0
511.0,504.0
519.0,510.0
521.0,509.0
522.0,515.0
523.0,517.0
515.0,515.0
512.0,517.0
517.0,510.0
508.0,500.0
512.0,505.0
503.0,491.0
500.0,494.0
494.0,484.0
498.0,491.0
492.0,495.0
505.0,495.0
506.0,499.0
521.0,505.0
530.0,513.0
522.0,511.0
527.0,517.0
522.0,516.0
519.0,513.0
514.0,509.0
507.0,505.0
496.0,507.0
502.0,503.0
502.0,500.0
501.0,496.0
500.0,492.0
495.0,494.0
505.0,491.0
506.0,501.0
507.0,500.0
522.0,507.0
524.0,507.0
527.0,507.0
521.0,516.0
518.0,516.0
515.0,511.0
509.0,506.0
510.0,505.0
497.0,508.0
500.0,504.0
499.0,499.0
503.0,490.0
500.0,489.0
494.0,495.0
504.0,488.0
510.0,499.0
516.0,507.0
531.0,504.0
532.0,511.0
525.0,511.0
524.0,509.0
522.0,514.0
511.0,512.0
503.0,510.0
498.0,504.0
500.0,500.0
497.0,490.0
495.0,497.0
488.0,498.0
490.0,493.0
501.0,490.0
505.0,493.0
513.0,502.0
516.0,503.0
522.0,506.0
528.0,517.0
525.0,515.0
522.0,511.0
519.0,509.0
517.0,512.0
507.0,512.0
498.0,507.0
506.0,500.0
508.0,499.0
497.0,499.0
500.0,495.0
495.0,499.0
498.0,493.0
502.0,488.0
503.0,496.0
518.0,506.0
525.0,515.0
526.0,513.0
523.0,511.0
527.0,515.0
514.0,508.0
502.0,504.0
510.0,503.0
514.0,500.0
505.0,500.0
506.0,492.0
502.0,492.0
503.0,494.0
509.0,484.0
509.0,485.0
511.0,495.0
512.0,506.0
513.0,502.0
520.0,516.0
518.0,512.0
519.0,514.0
515.0,512.0
500.0,513.0
508.0,501.0
508.0,502.0
507.0,492.0
505.0,499.0
491.0,503.0
493.0,496.0
496.0,492.0
499.0,487.0
492.0,497.0
504.0,502.0
516.0,507.0
518.0,509.0
523.0,508.0
519.0,511.0
515.0,509.0
519.0,512.0
506.0,500.0
502.0,505.0
504.0,506.0
504.0,502.0
508.0,502.0
504.0,482.0
509.0,492.0
503.0,477.0
495.0,496.0
501.0,487.0
513.0,493.0
517.0,508.0
524.0,509.0
522.0,516.0
523.0,514.0
514.0,506.0
510.0,512.0
512.0,507.0
500.0,509.0
502.0,505.0
507.0,498.0
506.0,497.0
504.0,494.0
496.0,495.0
485.0,492.0
490.0,497.0
513.0,500.0
509.0,500.0
527.0,513.0
531.0,517.0
527.0,516.0
523.0,514.0
509.0,511.0
507.0,515.0
507.0,507.0
502.0,501.0
506.0,494.0
501.0,492.0
501.0,486.0
502.0,495.0
503.0,492.0
494.0,495.0
497.0,497.0
508.0,501.0
518.0,506.0
520.0,514.0
525.0,510.0
525.0,516.0
520.0,515.0
512.0,512.0
506.0,506.0
502.0,509.0
500.0,505.0
511.0,492.0
506.0,492.0
489.0,502.0
491.0,500.0
495.0,494.0
500.0,489.0
503.0,495.0
505.0,500.0
512.0,506.0
519.0,511.0
525.0,514.0
526.0,509.0
519.0,516.0
519.0,513.0
505.0,503.0
508.0,505.0
507.0,497.0
494.0,505.0
490.0,502.0
498.0,496.0
496.0,493.0
488.0,499.0
495.0,498.0
498.0,496.0
510.0,497.0
515.0,508.0
521.0,508.0
524.0,519.0
519.0,516.0
510.0,512.0
503.0,501.0
511.0,502.0
496.0,507.0
509.0,502.0
511.0,498.0
506.0,483.0
501.0,489.0
498.0,494.0
494.0,496.0
507.0,493.0
508.0,498.0
514.0,509.0
519.0,510.0
526.0,509.0
523.0,513.0
522.0,511.0
513.0,505.0
503.0,515.0
498.0,511.0
502.0,504.0
513.0,499.0
502.0,489.0
492.0,500.0
494.0,495.0
501.0,492.0
500.0,481.0
505.0,496.0
510.0,497.0
518.0,510.0
519.0,510.0
525.0,512.0
521.0,511.0
515.0,509.0
515.0,517.0
508.0,508.0
501.0,511.0
499.0,506.0
497.0,504.0
495.0,500.0
500.0,494.0
495.0,495.0
493.0,496.0
502.0,496.0
505.0,487.0
507.0,501.0
520.0,509.0
523.0,507.0
526.0,515.0
521.0,514.0
517.0,512.0
509.0,517.0
504.0,510.0
501.0,506.0
491.0,504.0
506.0,499.0
504.0,498.0
507.0,493.0
503.0,492.0
494.0,496.0
504.0,495.0
510.0,500.0
514.0,500.0
520.0,510.0
513.0,508.0
515.0,517.0
513.0,515.0
516.0,514.0
511.0,503.0
506.0,510.0
505.0,501.0
507.0,498.0
501.0,502.0
504.0,498.0
499.0,495.0
492.0,498.0
497.0,496.0
505.0,489.0
508.0,500.0
515.0,507.0
530.0,512.0
533.0,514.0
531.0,517.0
516.0,508.0
516.0,517.0
505.0,505.0
499.0,497.0
488.0,509.0
496.0,503.0
500.0,497.0
501.0,496.0
490.0,497.0
500.0,490.0
509.0,493.0
502.0,487.0
513.0,505.0
512.0,500.0
522.0,512.0
516.0,511.0
512.0,509.0
512.0,511.0
508.0,509.0
505.0,506.0
504.0,502.0
499.0,494.0
498.0,497.0
494.0,504.0
493.0,497.0
493.0,496.0
496.0,489.0
504.0,496.0
509.0,494.0
507.0,497.0
518.0,509.0
519.0,514.0
519.0,514.0
510.0,509.0
511.0,513.0
514.0,509.0
501.0,512.0
499.0,506.0
507.0,500.0
507.0,499.0
504.0,489.0
499.0,490.0
500.0,483.0
498.0,496.0
507.0,498.0
512.0,496.0
516.0,508.0
517.0,507.0
523.0,515.0
518.0,507.0
510.0,508.0
509.0,514.0
507.0,511.0
499.0,508.0
493.0,506.0
504.0,499.0
503.0,495.0
500.0,495.0
499.0,492.0
493.0,496.0
489.0,497.0
507.0,497.0
511.0,505.0
518.0,506.0
525.0,514.0
524.0,517.0
514.0,510.0
515.0,513.0
507.0,506.0
499.0,507.0
500.0,506.0
502.0,509.0
507.0,501.0
502.0,496.0
501.0,494.0
498.0,493.0
500.0,492.0
503.0,489.0
510.0,500.0
515.0,502.0
518.0,511.0
527.0,516.0
524.0,511.0
512.0,511.0
502.0,515.0
507.0,518.0
495.0,508.0
507.0,500.0
495.0,504.0
509.0,498.0
507.0,496.0
498.0,498.0
506.0,486.0
503.0,497.0
493.0,497.0
502.0,494.0
521.0,507.0
527.0,516.0
523.0,513.0
527.0,513.0
522.0,515.0
510.0,508.0
506.0,504.0
507.0,505.0
496.0,500.0
492.0,505.0
500.0,490.0
494.0,499.0
497.0,491.0
500.0,492.0
500.0,495.0
500.0,497.0
510.0,502.0
519.0,508.0
525.0,515.0
519.0,516.0
518.0,515.0
520.0,514.0
513.0,507.0
496.0,507.0
509.0,503.0
504.0,494.0
504.0,500.0
511.0,496.0
500.0,495.0
501.0,487.0
495.0,497.0
503.0,493.0
507.0,499.0
518.0,502.0
521.0,507.0
524.0,511.0
524.0,516.0
522.0,516.0
511.0,511.0
510.0,513.0
506.0,510.0
501.0,506.0
507.0,500.0
507.0,498.0
503.0,496.0
501.0,492.0
496.0,494.0
507.0,492.0
508.0,496.0
512.0,501.0
514.0,504.0
526.0,509.0
530.0,511.0
529.0,513.0
529.0,512.0
514.0,517.0
503.0,509.0
499.0,506.0
492.0,499.0
500.0,502.0
498.0,494.0
489.0,495.0
497.0,494.0
494.0,495.0
505.0,494.0
502.0,494.0
515.0,501.0
514.0,508.0
523.0,507.0
524.0,518.0
522.0,518.0
516.0,510.0
508.0,505.0
508.0,508.0
501.0,511.0
498.0,506.0
508.0,499.0
505.0,498.0
505.0,494.0
500.0,495.0
500.0,492.0
499.0,499.0
512.0,502.0
517.0,504.0
524.0,509.0
524.0,516.0
523.0,509.0
522.0,514.0
513.0,514.0
514.0,504.0
501.0,511.0
497.0,510.0
499.0,508.0
506.0,499.0
511.0,496.0
506.0,493.0
504.0,493.0
507.0,493.0
507.0,500.0
506.0,501.0
524.0,508.0
523.0,513.0
523.0,512.0
518.0,515.0
522.0,517.0
514.0,507.0
513.0,512.0
507.0,499.0
501.0,504.0
503.0,505.0
495.0,505.0
498.0,491.0
496.0,487.0
503.0,492.0
507.0,493.0
511.0,500.0
516.0,505.0
524.0,505.0
527.0,515.0
523.0,514.0
518.0,515.0
512.0,511.0
514.0,511.0
511.0,508.0
497.0,509.0
497.0,507.0
494.0,508.0
491.0,503.0
495.0,497.0
497.0,492.0
496.0,496.0
504.0,494.0
512.0,501.0
520.0,506.0
528.0,509.0
524.0,505.0
529.0,517.0
523.0,512.0
518.0,510.0
508.0,515.0
503.0,510.0
506.0,505.0
513.0,496.0
510.0,497.0
509.0,496.0
500.0,495.0
498.0,496.0
502.0,496.0
502.0,495.0
514.0,497.0
523.0,506.0
528.0,510.0
522.0,514.0
525.0,513.0
518.0,505.0
518.0,513.0
514.0,502.0
505.0,509.0
509.0,501.0
510.0,499.0
506.0,493.0
506.0,495.0
507.0,492.0
494.0,490.0
505.0,486.0
507.0,503.0
512.0,495.0
520.0,509.0
520.0,509.0
525.0,513.0
524.0,516.0
520.0,512.0
518.0,512.0
515.0,507.0
508.0,502.0
505.0,497.0
506.0,503.0
506.0,496.0
504.0,493.0
505.0,491.0
497.0,494.0
496.0,497.0
506.0,491.0
511.0,501.0
517.0,499.0
524.0,515.0
522.0,514.0
520.0,516.0
519.0,512.0
515.0,508.0
513.0,505.0
509.0,504.0
513.0,500.0
500.0,502.0
504.0,495.0
494.0,493.0
487.0,494.0
499.0,492.0
498.0,497.0
507.0,500.0
517.0,497.0
524.0,509.0
519.0,512.0
524.0,514.0
522.0,519.0
518.0,508.0
503.0,511.0
506.0,508.0
503.0,490.0
504.0,497.0
502.0,490.0
500.0,488.0
498.0,487.0
500.0,491.0
507.0,492.0
511.0,498.0
512.0,502.0
515.0,507.0
527.0,512.0
521.0,510.0
524.0,515.0
514.0,511.0
512.0,509.0
515.0,506.0
510.0,504.0
511.0,501.0
511.0,498.0
509.0,496.0
504.0,494.0
493.0,495.0
483.0,493.0
496.0,496.0
507.0,492.0
511.0,502.0
516.0,508.0
530.0,513.0
531.0,513.0
515.0,501.0
518.0,508.0
514.0,505.0
507.0,499.0
508.0,506.0
507.0,502.0
507.0,497.0
501.0,503.0
497.0,490.0
502.0,492.0
504.0,496.0
506.0,490.0
506.0,502.0
516.0,507.0
528.0,512.0
527.0,510.0
517.0,508.0
520.0,515.0
516.0,515.0
499.0,500.0
504.0,504.0
506.0,502.0
507.0,499.0
499.0,501.0
504.0,490.0
504.0,492.0
500.0,483.0
505.0,493.0
508.0,496.0
513.0,505.0
512.0,503.0
518.0,514.0
518.0,517.0
514.0,514.0
509.0,511.0
509.0,506.0
511.0,508.0
504.0,510.0
516.0,502.0
510.0,496.0
499.0,500.0
497.0,494.0
495.0,491.0
487.0,497.0
507.0,494.0
511.0,499.0
515.0,501.0
520.0,507.0
527.0,512.0
529.0,516.0
520.0,507.0
516.0,512.0
514.0,507.0
513.0,506.0
510.0,502.0
511.0,501.0
509.0,498.0
503.0,494.0
500.0,489.0
494.0,490.0
499.0,494.0
502.0,492.0
507.0,502.0
520.0,508.0
523.0,504.0
527.0,514.0
523.0,514.0
513.0,510.0
520.0,516.0
511.0,509.0
504.0,505.0
507.0,501.0
506.0,498.0
502.0,493.0
500.0,489.0
500.0,490.0
500.0,492.0
505.0,492.0
507.0,493.0
513.0,499.0
519.0,505.0
527.0,513.0
523.0,508.0
518.0,507.0
512.0,507.0
513.0,504.0
508.0,502.0
506.0,497.0
504.0,501.0
498.0,505.0
503.0,496.0
505.0,493.0
502.0,490.0
502.0,492.0
502.0,490.0
510.0,496.0
515.0,500.0
522.0,509.0
527.0,515.0
525.0,515.0
517.0,509.0
518.0,512.0
504.0,512.0
507.0,503.0
503.0,503.0
507.0,499.0
501.0,504.0
497.0,493.0
502.0,495.0
499.0,485.0
501.0,489.0
503.0,493.0
509.0,501.0
518.0,494.0
525.0,505.0
518.0,505.0
517.0,507.0
518.0,508.0
510.0,506.0
509.0,511.0
514.0,505.0
499.0,505.0
496.0,506.0
496.0,500.0
496.0,498.0
491.0,494.0
499.0,493.0
498.0,492.0
508.0,499.0
509.0,498.0
522.0,508.0
527.0,508.0
521.0,512.0
518.0,510.0
512.0,508.0
515.0,512.0
515.0,506.0
508.0,494.0
511.0,499.0
501.0,501.0
488.0,496.0
495.0,498.0
490.0,495.0
499.0,481.0
504.0,489.0
504.0,504.0
515.0,503.0
522.0,511.0
525.0,512.0
522.0,517.0
525.0,516.0
520.0,505.0
518.0,510.0
512.0,508.0
509.0,500.0
504.0,504.0
508.0,502.0
510.0,496.0
495.0,486.0
495.0,491.0
498.0,487.0
509.0,496.0
515.0,502.0
511.0,505.0
525.0,510.0
522.0,506.0
521.0,513.0
521.0,515.0
517.0,512.0
510.0,510.0
505.0,503.0
507.0,499.0
504.0,493.0
502.0,500.0
499.0,497.0
496.0,491.0
501.0,489.0
496.0,498.0
506.0,499.0
509.0,501.0
525.0,511.0
520.0,507.0
524.0,518.0
515.0,513.0
521.0,517.0
505.0,510.0
509.0,505.0
503.0,495.0
503.0,496.0
502.0,491.0
506.0,497.0
500.0,497.0
505.0,496.0
502.0,483.0
503.0,490.0
505.0,497.0
511.0,498.0
521.0,511.0
529.0,518.0
528.0,517.0
524.0,515.0
517.0,512.0
509.0,506.0
504.0,508.0
497.0,510.0
502.0,501.0
503.0,499.0
503.0,494.0
498.0,493.0
494.0,496.0
496.0,496.0
502.0,490.0
512.0,498.0
520.0,508.0
529.0,513.0
523.0,509.0
522.0,510.0
525.0,512.0
518.0,514.0
513.0,508.0
503.0,498.0
504.0,500.0
506.0,498.0
504.0,496.0
499.0,497.0
493.0,496.0
493.0,494.0
505.0,492.0
508.0,496.0
514.0,501.0
517.0,501.0
530.0,513.0
522.0,508.0
522.0,515.0
517.0,514.0
516.0,512.0
511.0,508.0
503.0,505.0
511.0,501.0
509.0,500.0
506.0,498.0
495.0,499.0
492.0,494.0
502.0,492.0
503.0,495.0
505.0,500.0
515.0,506.0
521.0,516.0
523.0,508.0
520.0,515.0
519.0,516.0
519.0,513.0
510.0,505.0
508.0,503.0
499.0,505.0
507.0,503.0
508.0,500.0
507.0,499.0
501.0,494.0
494.0,496.0
498.0,484.0
508.0,498.0
507.0,503.0
517.0,507.0
523.0,508.0
528.0,517.0
526.0,515.0
525.0,511.0
514.0,516.0
520.0,508.0
509.0,512.0
514.0,497.0
506.0,503.0
502.0,502.0
505.0,497.0
501.0,493.0
494.0,497.0
487.0,493.0
494.0,491.0
506.0,501.0
522.0,506.0
528.0,514.0
519.0,512.0
521.0,514.0
522.0,515.0
512.0,513.0
514.0,508.0
508.0,507.0
507.0,501.0
504.0,493.0
501.0,492.0
501.0,496.0
492.0,496.0
501.0,487.0
494.0,496.0
501.0,499.0
506.0,504.0
517.0,508.0
524.0,510.0
524.0,518.0
523.0,516.0
514.0,512.0
508.0,511.0
509.0,505.0
504.0,502.0
502.0,492.0
504.0,501.0
492.0,502.0
494.0,497.0
488.0,497.0
505.0,492.0
497.0,492.0
505.0,498.0
519.0,508.0
523.0,509.0
527.0,512.0
516.0,511.0
515.0,513.0
512.0,512.0
506.0,503.0
507.0,504.0
508.0,493.0
504.0,498.0
503.0,497.0
501.0,489.0
500.0,483.0
500.0,492.0
500.0,485.0
507.0,496.0
517.0,503.0
515.0,506.0
523.0,506.0
525.0,512.0
525.0,517.0
524.0,514.0
517.0,512.0
516.0,507.0
513.0,503.0
507.0,500.0
511.0,498.0
501.0,497.0
492.0,498.0
501.0,490.0
500.0,492.0
494.0,500.0
510.0,493.0
518.0,500.0
522.0,509.0
524.0,514.0
530.0,516.0
522.0,513.0
515.0,509.0
508.0,516.0
510.0,503.0
504.0,495.0
502.0,494.0
502.0,493.0
503.0,496.0
500.0,492.0
501.0,491.0
494.0,494.0
502.0,497.0
503.0,499.0
512.0,507.0
517.0,513.0
526.0,509.0
518.0,514.0
516.0,515.0
515.0,514.0
507.0,500.0
505.0,505.0
504.0,503.0
505.0,497.0
504.0,492.0
504.0,491.0
508.0,491.0
500.0,499.0
507.0,490.0
510.0,498.0
517.0,504.0
522.0,507.0
532.0,513.0
527.0,512.0
519.0,508.0
515.0,508.0
514.0,504.0
509.0,505.0
507.0,501.0
508.0,500.0
508.0,498.0
505.0,500.0
499.0,496.0
502.0,490.0
500.0,490.0
501.0,499.0
509.0,491.0
510.0,498.0
521.0,509.0
525.0,511.0
526.0,516.0
520.0,514.0
515.0,514.0
507.0,512.0
506.0,498.0
509.0,502.0
503.0,504.0
501.0,491.0
495.0,491.0
504.0,492.0
501.0,492.0
503.0,492.0
505.0,498.0
510.0,498.0
523.0,508.0
525.0,508.0
521.0,513.0
521.0,511.0
515.0,514.0
508.0,515.0
503.0,513.0
508.0,502.0
505.0,500.0
505.0,500.0
506.0,503.0
504.0,497.0
501.0,492.0
493.0,491.0
502.0,492.0
508.0,499.0
514.0,501.0
516.0,509.0
526.0,513.0
520.0,511.0
521.0,506.0
517.0,514.0
514.0,512.0
511.0,506.0
506.0,500.0
508.0,501.0
502.0,492.0
499.0,503.0
503.0,493.0
499.0,491.0
494.0,496.0
503.0,485.0
508.0,494.0
512.0,497.0
523.0,511.0
524.0,514.0
525.0,520.0
520.0,514.0
510.0,509.0
516.0,509.0
510.0,505.0
507.0,499.0
507.0,501.0
504.0,493.0
501.0,496.0
499.0,487.0
501.0,485.0
506.0,489.0
506.0,497.0
513.0,501.0
519.0,509.0
528.0,514.0
523.0,515.0
526.0,517.0
522.0,515.0
511.0,511.0
513.0,508.0
501.0,511.0
509.0,502.0
505.0,495.0
503.0,493.0
505.0,496.0
501.0,493.0
494.0,497.0
498.0,497.0
507.0,499.0
509.0,499.0
522.0,509.0
529.0,506.0
526.0,516.0
524.0,515.0
520.0,513.0
514.0,511.0
506.0,510.0
498.0,506.0
505.0,502.0
502.0,499.0
496.0,500.0
494.0,498.0
494.0,498.0
503.0,492.0
503.0,491.0
510.0,499.0
517.0,504.0
522.0,508.0
525.0,513.0
526.0,516.0
518.0,514.0
508.0,506.0
509.0,512.0
500.0,508.0
506.0,503.0
505.0,500.0
499.0,497.0
501.0,488.0
495.0,480.0
488.0,483.0
488.0,496.0
500.0,489.0
511.0,500.0
521.0,505.0
527.0,511.0
528.0,516.0
526.0,515.0
521.0,516.0
516.0,508.0
504.0,508.0
509.0,500.0
509.0,501.0
508.0,499.0
505.0,499.0
499.0,495.0
496.0,495.0
497.0,493.0
502.0,493.0
509.0,497.0
517.0,502.0
522.0,506.0
521.0,508.0
516.0,509.0
519.0,515.0
518.0,507.0
514.0,513.0
501.0,508.0
499.0,501.0
502.0,495.0
496.0,497.0
501.0,495.0
493.0,496.0
500.0,490.0
497.0,487.0
496.0,490.0
507.0,492.0
514.0,503.0
518.0,502.0
526.0,516.0
524.0,515.0
521.0,513.0
517.0,512.0
511.0,504.0
507.0,494.0
504.0,502.0
508.0,499.0
503.0,498.0
501.0,496.0
495.0,496.0
492.0,491.0
494.0,497.0
507.0,494.0
508.0,490.0
512.0,509.0
516.0,507.0
526.0,516.0
523.0,516.0
519.0,514.0
506.0,515.0
510.0,508.0
497.0,510.0
510.0,502.0
507.0,500.0
500.0,493.0
501.0,494.0
504.0,492.0
503.0,493.0
502.0,488.0
511.0,499.0
506.0,497.0
519.0,509.0
525.0,508.0
525.0,515.0
511.0,508.0
510.0,506.0
511.0,506.0
511.0,511.0
511.0,503.0
505.0,503.0
503.0,493.0
509.0,494.0
503.0,489.0
505.0,492.0
496.0,494.0
504.0,494.0
507.0,502.0
519.0,507.0
523.0,510.0
529.0,516.0
520.0,512.0
519.0,505.0
511.0,511.0
512.0,509.0
507.0,508.0
503.0,501.0
508.0,498.0
501.0,504.0
505.0,496.0
502.0,493.0
501.0,489.0
497.0,497.0
507.0,494.0
512.0,493.0
525.0,500.0
517.0,511.0
527.0,516.0
517.0,515.0
514.0,509.0
516.0,511.0
508.0,511.0
511.0,507.0
508.0,494.0
499.0,502.0
503.0,491.0
502.0,494.0
494.0,493.0
492.0,496.0
504.0,494.0
512.0,500.0
515.0,501.0
519.0,509.0
523.0,516.0
522.0,516.0
526.0,515.0
520.0,515.0
518.0,510.0
504.0,512.0
510.0,503.0
502.0,504.0
506.0,503.0
503.0,497.0
493.0,498.0
501.0,491.0
501.0,491.0
502.0,489.0
510.0,497.0
508.0,498.0
523.0,512.0
522.0,516.0
526.0,509.0
522.0,518.0
513.0,510.0
511.0,510.0
495.0,508.0
510.0,501.0
507.0,499.0
502.0,491.0
496.0,499.0
501.0,493.0
500.0,491.0
492.0,496.0
506.0,493.0
505.0,499.0
516.0,500.0
523.0,509.0
520.0,513.0
521.0,514.0
512.0,509.0
514.0,513.0
505.0,503.0
499.0,497.0
505.0,501.0
500.0,493.0
495.0,502.0
508.0,493.0
500.0,485.0
505.0,487.0
508.0,495.0
514.0,499.0
518.0,503.0
523.0,504.0
525.0,506.0
528.0,508.0
524.0,516.0
516.0,507.0
515.0,509.0
515.0,506.0
507.0,504.0
507.0,505.0
508.0,498.0
502.0,488.0
499.0,498.0
493.0,496.0
498.0,495.0
502.0,485.0
501.0,501.0
516.0,504.0
522.0,512.0
525.0,513.0
516.0,509.0
525.0,515.0
517.0,510.0
512.0,501.0
503.0,511.0
505.0,505.0
506.0,503.0
496.0,494.0
493.0,500.0
495.0,492.0
490.0,487.0
490.0,483.0
487.0,497.0
502.0,503.0
512.0,506.0
527.0,511.0
529.0,516.0
533.0,519.0
525.0,512.0
521.0,508.0
515.0,504.0
509.0,501.0
503.0,507.0
507.0,498.0
490.0,501.0
506.0,494.0
500.0,483.0
499.0,489.0
503.0,495.0
512.0,499.0
517.0,503.0
518.0,510.0
530.0,511.0
528.0,516.0
516.0,509.0
509.0,516.0
507.0,510.0
512.0,507.0
504.0,495.0
501.0,503.0
501.0,497.0
496.0,496.0
491.0,498.0
498.0,491.0
500.0,490.0
499.0,487.0
506.0,497.0
519.0,495.0
520.0,507.0
528.0,512.0
529.0,513.0
523.0,506.0
523.0,515.0
512.0,503.0
508.0,505.0
498.0,507.0
509.0,499.0
508.0,503.0
497.0,501.0
501.0,499.0
492.0,499.0
506.0,493.0
505.0,499.0
509.0,507.0
511.0,510.0
522.0,516.0
518.0,509.0
524.0,516.0
518.0,508.0
519.0,518.0
512.0,504.0
507.0,507.0
508.0,504.0
506.0,493.0
509.0,496.0
498.0,498.0
502.0,491.0
490.0,498.0
495.0,490.0
501.0,492.0
502.0,496.0
516.0,512.0
517.0,514.0
524.0,511.0
523.0,517.0
515.0,510.0
505.0,504.0
507.0,506.0
502.0,495.0
498.0,501.0
512.0,499.0
506.0,490.0
494.0,500.0
501.0,494.0
499.0,493.0
500.0,489.0
506.0,502.0
519.0,501.0
528.0,515.0
529.0,515.0
528.0,514.0
527.0,519.0
519.0,509.0
515.0,510.0
505.0,502.0
500.0,507.0
507.0,502.0
505.0,492.0
499.0,499.0
493.0,494.0
499.0,492.0
497.0,489.0
504.0,491.0
512.0,506.0
520.0,506.0
529.0,509.0
531.0,514.0
524.0,516.0
523.0,517.0
513.0,514.0
508.0,505.0
508.0,507.0
500.0,504.0
500.0,494.0
500.0,497.0
489.0,501.0
491.0,490.0
484.0,496.0
502.0,494.0
509.0,494.0
514.0,492.0
516.0,503.0
519.0,506.0
525.0,509.0
520.0,512.0
516.0,514.0
513.0,513.0
507.0,505.0
501.0,491.0
496.0,504.0
504.0,498.0
499.0,497.0
496.0,501.0
502.0,491.0
504.0,493.0
509.0,484.0
516.0,497.0
509.0,504.0
519.0,509.0
522.0,511.0
527.0,511.0
522.0,511.0
519.0,512.0
506.0,510.0
498.0,512.0
498.0,503.0
497.0,495.0
494.0,503.0
510.0,500.0
506.0,491.0
491.0,497.0
501.0,488.0
501.0,490.0
513.0,500.0
519.0,506.0
522.0,509.0
529.0,515.0
533.0,517.0
524.0,513.0
520.0,507.0
513.0,506.0
508.0,498.0
513.0,501.0
500.0,502.0
504.0,489.0
501.0,491.0
492.0,496.0
495.0,496.0
500.0,495.0
503.0,496.0
514.0,506.0
523.0,502.0
523.0,507.0
523.0,505.0
524.0,512.0
523.0,507.0
517.0,510.0
501.0,501.0
488.0,504.0
496.0,499.0
501.0,505.0
488.0,509.0
497.0,496.0
500.0,492.0
506.0,494.0
497.0,497.0
511.0,497.0
522.0,510.0
527.0,509.0
528.0,513.0
526.0,518.0
517.0,514.0
514.0,511.0
517.0,500.0
512.0,502.0
519.0,502.0
512.0,499.0
511.0,499.0
508.0,498.0
510.0,496.0
508.0,492.0
506.0,487.0
507.0,492.0
509.0,494.0
522.0,508.0
524.0,513.0
522.0,513.0
525.0,517.0
518.0,511.0
512.0,515.0
516.0,510.0
501.0,498.0
506.0,498.0
496.0,504.0
495.0,502.0
507.0,496.0
504.0,493.0
501.0,491.0
503.0,495.0
503.0,499.0
506.0,499.0
515.0,507.0
526.0,511.0
524.0,516.0
524.0,515.0
522.0,514.0
517.0,515.0
522.0,507.0
510.0,498.0
510.0,502.0
494.0,494.0
492.0,500.0
501.0,495.0
496.0,493.0
499.0,492.0
501.0,488.0
507.0,493.0
510.0,506.0
519.0,511.0
526.0,521.0
520.0,512.0
521.0,517.0
516.0,505.0
499.0,508.0
495.0,511.0
488.0,510.0
502.0,500.0
499.0,498.0
500.0,488.0
501.0,492.0
503.0,492.0
504.0,488.0
511.0,497.0
515.0,496.0
518.0,501.0
526.0,510.0
528.0,513.0
521.0,514.0
521.0,516.0
512.0,508.0
505.0,510.0
510.0,504.0
505.0,496.0
503.0,494.0
495.0,498.0
490.0,499.0
496.0,492.0
499.0,488.0
501.0,490.0
494.0,493.0
511.0,496.0
521.0,507.0
521.0,507.0
527.0,523.0
523.0,519.0
512.0,509.0
513.0,511.0
511.0,504.0
501.0,502.0
507.0,503.0
509.0,494.0
499.0,502.0
500.0,497.0
495.0,495.0
488.0,498.0
507.0,497.0
509.0,493.0
520.0,510.0
526.0,510.0
531.0,514.0
516.0,509.0
518.0,522.0
505.0,511.0
489.0,504.0
494.0,508.0
489.0,506.0
501.0,500.0
502.0,497.0
503.0,504.0
513.0,494.0
505.0,498.0
514.0,493.0
516.0,492.0
508.0,505.0
519.0,503.0
522.0,506.0
532.0,514.0
530.0,514.0
528.0,512.0
527.0,514.0
527.0,509.0
522.0,502.0
511.0,500.0
495.0,493.0
499.0,495.0
484.0,501.0
484.0,486.0
476.0,499.0
495.0,494.0
507.0,498.0
516.0,507.0
516.0,508.0
533.0,516.0
526.0,518.0
529.0,520.0
526.0,505.0
518.0,506.0
498.0,511.0
486.0,514.0
500.0,512.0
496.0,503.0
497.0,505.0
499.0,506.0
495.0,491.0
500.0,471.0
515.0,483.0
493.0,490.0
498.0,501.0
492.0,499.0
508.0,508.0
506.0,516.0
504.0,519.0
524.0,517.0
549.0,509.0
534.0,503.0
519.0,506.0
513.0,497.0
501.0,503.0
516.0,496.0
508.0,491.0
507.0,498.0
500.0,499.0
502.0,503.0
509.0,504.0
506.0,507.0
518.0,510.0
515.0,509.0
512.0,512.0
517.0,519.0
514.0,513.0
507.0,521.0
508.0,502.0
501.0,499.0
505.0,498.0
508.0,493.0
512.0,502.0
509.0,488.0
514.0,488.0
512.0,488.0
526.0,502.0
522.0,507.0
525.0,510.0
525.0,520.0
514.0,511.0
509.0,513.0
501.0,504.0
485.0,505.0
496.0,504.0
496.0,501.0
496.0,504.0
488.0,507.0
500.0,497.0
495.0,487.0
499.0,487.0
494.0,488.0
497.0,494.0
510.0,504.0
516.0,506.0
523.0,509.0
524.0,515.0
520.0,511.0
515.0,511.0
502.0,507.0
502.0,510.0
494.0,499.0
487.0,508.0
500.0,503.0
515.0,485.0
505.0,500.0
502.0,492.0
511.0,498.0
512.0,488.0
510.0,492.0
503.0,484.0
507.0,498.0
524.0,499.0
533.0,515.0
540.0,523.0
515.0,526.0
515.0,527.0
514.0,513.0
507.0,497.0
499.0,493.0
510.0,492.0
502.0,489.0
485.0,492.0
490.0,479.0
481.0,490.0
484.0,485.0
487.0,492.0
502.0,505.0
512.0,508.0
535.0,509.0
537.0,520.0
540.0,523.0
539.0,516.0
535.0,506.0
524.0,510.0
520.0,499.0
511.0,492.0
508.0,498.0
518.0,488.0
528.0,496.0
515.0,493.0
493.0,506.0
507.0,503.0
518.0,504.0
528.0,510.0
523.0,503.0
519.0,508.0
523.0,514.0
510.0,515.0
503.0,516.0
505.0,509.0
514.0,506.0
525.0,500.0
522.0,494.0
528.0,497.0
527.0,504.0
526.0,487.0
507.0,481.0
525.0,480.0
513.0,495.0
478.0,495.0
502.0,506.0
514.0,509.0
514.0,504.0
514.0,507.0
516.0,505.0
511.0,502.0
501.0,493.0
503.0,496.0
504.0,493.0
485.0,495.0
489.0,496.0
493.0,508.0
499.0,508.0
495.0,508.0
507.0,505.0
518.0,512.0
528.0,515.0
526.0,518.0
532.0,513.0
529.0,519.0
529.0,513.0
524.0,501.0
516.0,512.0
515.0,516.0
515.0,505.0
507.0,493.0
494.0,497.0
498.0,500.0
504.0,496.0
504.0,496.0
492.0,502.0
510.0,501.0
520.0,502.0
520.0,508.0
523.0,511.0
517.0,512.0
512.0,516.0
505.0,515.0
518.0,506.0
514.0,515.0
506.0,515.0
510.0,500.0
507.0,510.0
506.0,497.0
501.0,485.0
508.0,480.0
520.0,473.0
534.0,485.0
531.0,500.0
544.0,498.0
546.0,498.0
516.0,504.0
497.0,512.0
500.0,511.0
481.0,505.0
495.0,516.0
497.0,516.0
479.0,507.0
485.0,490.0
497.0,493.0
487.0,508.0
508.0,516.0
504.0,500.0
488.0,502.0
505.0,505.0
526.0,509.0
516.0,510.0
522.0,513.0
519.0,514.0
513.0,511.0
527.0,508.0
514.0,511.0
508.0,510.0
509.0,496.0
504.0,499.0
496.0,512.0
493.0,523.0
495.0,519.0
494.0,512.0
500.0,495.0
503.0,489.0
507.0,486.0
521.0,492.0
536.0,498.0
551.0,483.0
549.0,480.0
533.0,521.0
521.0,533.0
502.0,525.0
478.0,516.0
501.0,507.0
508.0,503.0
500.0,492.0
502.0,502.0
520.0,499.0
506.0,487.0
492.0,482.0
496.0,470.0
492.0,493.0
501.0,502.0
503.0,514.0
509.0,515.0
503.0,515.0
508.0,511.0
500.0,507.0
503.0,512.0
520.0,518.0
499.0,515.0
514.0,501.0
507.0,491.0
497.0,492.0
501.0,498.0
497.0,497.0
503.0,487.0
492.0,494.0
492.0,493.0
503.0,500.0
517.0,503.0
527.0,510.0
539.0,525.0
545.0,533.0
516.0,523.0
501.0,505.0
524.0,495.0
490.0,510.0
461.0,516.0
449.0,506.0
473.0,482.0
491.0,484.0
517.0,496.0
540.0,490.0
555.0,506.0
560.0,503.0
554.0,521.0
560.0,504.0
563.0,499.0
568.0,509.0
565.0,507.0
534.0,517.0
492.0,535.0
484.0,519.0
480.0,499.0
484.0,480.0
493.0,466.0
457.0,507.0
447.0,513.0
473.0,498.0
474.0,498.0
502.0,499.0
494.0,505.0
527.0,502.0
523.0,507.0
518.0,509.0
520.0,487.0
505.0,481.0
497.0,500.0
502.0,516.0
514.0,500.0
516.0,507.0
525.0,535.0
530.0,537.0
538.0,508.0
535.0,482.0
550.0,491.0
544.0,503.0
507.0,489.0
486.0,495.0
498.0,516.0
513.0,529.0
522.0,552.0
515.0,565.0
509.0,544.0
508.0,506.0
496.0,481.0
493.0,483.0
494.0,484.0
547.0,481.0
558.0,498.0
556.0,495.0
533.0,478.0
480.0,481.0
455.0,515.0
458.0,526.0
481.0,516.0
507.0,478.0
528.0,455.0
536.0,520.0
548.0,524.0
543.0,514.0
496.0,520.0
486.0,520.0
476.0,511.0
473.0,496.0
463.0,488.0
498.0,476.0
492.0,488.0
474.0,503.0
503.0,484.0
528.0,493.0
546.0,494.0
522.0,523.0
502.0,550.0
498.0,561.0
507.0,523.0
518.0,482.0
532.0,455.0
557.0,484.0
545.0,529.0
517.0,548.0
523.0,529.0
484.0,505.0
455.0,473.0
500.0,480.0
513.0,481.0
517.0,515.0
540.0,545.0
543.0,537.0
570.0,477.0
555.0,437.0
535.0,492.0
502.0,495.0
483.0,511.0
514.0,507.0
510.0,510.0
461.0,512.0
457.0,519.0
456.0,515.0
461.0,480.0
473.0,471.0
505.0,471.0
536.0,505.0
538.0,515.0
553.0,496.0
551.0,471.0
543.0,498.0
554.0,525.0
543.0,528.0
468.0,503.0
477.0,518.0
467.0,529.0
463.0,504.0
525.0,497.0
558.0,517.0
536.0,524.0
489.0,507.0
484.0,507.0
501.0,516.0
496.0,503.0
501.0,421.0
522.0,451.0
529.0,476.0
539.0,519.0
509.0,535.0
486.0,529.0
492.0,512.0
502.0,523.0
474.0,536.0
470.0,520.0
475.0,457.0
506.0,460.0
573.0,505.0
565.0,496.0
561.0,481.0
618.0,488.0
599.0,534.0
551.0,532.0
419.0,501.0
403.0,447.0
477.0,462.0
490.0,513.0
517.0,520.0
527.0,527.0
511.0,524.0
479.0,515.0
431.0,502.0
466.0,517.0
531.0,514.0
543.0,498.0
502.0,471.0
460.0,452.0
484.0,483.0
473.0,489.0
489.0,498.0
529.0,546.0
540.0,586.0
544.0,541.0
557.0,466.0
580.0,469.0
511.0,506.0
475.0,477.0
419.0,503.0
422.0,516.0
534.0,493.0
616.0,486.0
617.0,479.0
580.0,495.0
488.0,485.0
480.0,484.0
486.0,507.0
497.0,503.0
538.0,499.0
540.0,533.0
551.0,546.0
489.0,519.0
503.0,484.0
530.0,497.0
518.0,529.0
503.0,580.0
489.0,588.0
478.0,534.0
484.0,450.0
469.0,450.0
518.0,494.0
504.0,473.0
481.0,493.0
474.0,504.0
505.0,497.0
507.0,467.0
572.0,490.0
632.0,523.0
600.0,519.0
516.0,510.0
485.0,513.0
481.0,488.0
451.0,449.0
537.0,507.0
558.0,565.0
498.0,566.0
458.0,501.0
452.0,443.0
475.0,536.0
514.0,551.0
533.0,520.0
472.0,474.0
478.0,472.0
513.0,483.0
509.0,466.0
504.0,471.0
510.0,499.0
500.0,497.0
513.0,517.0
504.0,530.0
517.0,506.0
543.0,512.0
510.0,494.0
492.0,514.0
505.0,563.0
478.0,524.0
486.0,494.0
490.0,448.0
533.0,491.0
564.0,511.0
550.0,512.0
533.0,494.0
533.0,479.0
476.0,480.0
508.0,503.0
541.0,517.0
492.0,565.0
420.0,573.0
430.0,513.0
485.0,438.0
476.0,499.0
489.0,516.0
514.0,466.0
503.0,479.0
529.0,566.0
561.0,588.0
598.0,539.0
541.0,461.0
501.0,501.0
516.0,486.0
476.0,485.0
451.0,526.0
454.0,526.0
461.0,515.0
496.0,467.0
536.0,485.0
512.0,512.0
523.0,516.0
483.0,497.0
459.0,476.0
485.0,484.0
496.0,512.0
566.0,534.0
564.0,559.0
559.0,520.0
558.0,513.0
569.0,478.0
604.0,458.0
586.0,480.0
625.0,557.0
519.0,567.0
372.0,553.0
440.0,486.0
416.0,435.0
439.0,424.0
457.0,441.0
441.0,471.0
444.0,494.0
451.0,532.0
499.0,509.0
544.0,471.0
546.0,494.0
579.0,514.0
568.0,533.0
598.0,557.0
609.0,528.0
513.0,485.0
443.0,487.0
445.0,467.0
491.0,477.0
483.0,483.0
446.0,486.0
422.0,493.0
460.0,494.0
482.0,496.0
511.0,512.0
551.0,520.0
612.0,535.0
580.0,552.0
567.0,544.0
515.0,516.0
462.0,503.0
492.0,486.0
552.0,492.0
564.0,539.0
604.0,548.0
580.0,506.0
490.0,471.0
379.0,525.0
361.0,494.0
491.0,461.0
566.0,536.0
548.0,564.0
463.0,500.0
434.0,474.0
466.0,488.0
477.0,494.0
406.0,520.0
398.0,483.0
492.0,536.0
597.0,547.0
597.0,522.0
641.0,447.0
635.0,460.0
589.0,508.0
551.0,517.0
520.0,473.0
495.0,476.0
462.0,489.0
510.0,515.0
503.0,483.0
474.0,497.0
501.0,515.0
571.0,501.0
533.0,494.0
454.0,493.0
507.0,493.0
476.0,504.0
412.0,503.0
402.0,489.0
405.0,528.0
466.0,573.0
500.0,560.0
515.0,476.0
534.0,463.0
532.0,480.0
551.0,484.0
532.0,504.0
487.0,499.0
478.0,493.0
468.0,527.0
462.0,554.0
475.0,527.0
525.0,452.0
549.0,475.0
580.0,515.0
569.0,555.0
533.0,569.0
557.0,494.0
598.0,439.0
622.0,435.0
637.0,461.0
596.0,522.0
453.0,514.0
332.0,526.0
432.0,531.0
514.0,512.0
555.0,517.0
539.0,503.0
522.0,506.0
471.0,523.0
459.0,501.0
469.0,489.0
449.0,468.0
418.0,472.0
450.0,489.0
504.0,495.0
518.0,499.0
520.0,505.0
517.0,522.0
540.0,534.0
513.0,565.0
440.0,529.0
431.0,490.0
463.0,463.0
506.0,511.0
544.0,520.0
592.0,488.0
539.0,460.0
546.0,451.0
543.0,479.0
549.0,472.0
554.0,495.0
489.0,506.0
456.0,530.0
483.0,553.0
535.0,559.0
573.0,507.0
563.0,469.0
459.0,500.0
471.0,509.0
525.0,509.0
488.0,502.0
482.0,500.0
519.0,500.0
559.0,505.0
567.0,509.0
583.0,520.0
568.0,520.0
512.0,510.0
389.0,494.0
423.0,528.0
476.0,525.0
494.0,462.0
539.0,471.0
589.0,479.0
545.0,489.0
531.0,497.0
521.0,533.0
477.0,527.0
493.0,485.0
506.0,514.0
538.0,569.0
493.0,531.0
454.0,458.0
434.0,408.0
490.0,440.0
475.0,510.0
476.0,494.0
515.0,502.0
555.0,498.0
575.0,509.0
607.0,524.0
533.0,507.0
529.0,510.0
499.0,510.0
532.0,503.0
498.0,489.0
374.0,488.0
402.0,491.0
439.0,495.0
466.0,492.0
494.0,506.0
523.0,494.0
542.0,490.0
536.0,520.0
534.0,528.0
569.0,518.0
570.0,518.0
556.0,541.0
536.0,540.0
532.0,531.0
484.0,480.0
457.0,473.0
464.0,488.0
531.0,494.0
570.0,498.0
519.0,517.0
530.0,523.0
495.0,509.0
502.0,505.0
576.0,481.0
584.0,474.0
538.0,454.0
455.0,470.0
431.0,483.0
512.0,500.0
545.0,495.0
533.0,515.0
529.0,524.0
539.0,530.0
528.0,518.0
478.0,498.0
468.0,502.0
442.0,502.0
432.0,469.0
459.0,462.0
494.0,502.0
512.0,493.0
569.0,511.0
574.0,524.0
497.0,533.0
512.0,536.0
547.0,547.0
530.0,525.0
529.0,503.0
529.0,478.0
508.0,487.0
511.0,508.0
540.0,522.0
526.0,513.0
483.0,485.0
474.0,471.0
493.0,494.0
466.0,510.0
524.0,498.0
561.0,506.0
491.0,524.0
448.0,494.0
519.0,530.0
565.0,531.0
545.0,539.0
505.0,483.0
447.0,455.0
472.0,455.0
508.0,498.0
520.0,518.0
509.0,529.0
507.0,524.0
471.0,477.0
499.0,449.0
487.0,485.0
468.0,495.0
499.0,503.0
464.0,497.0
466.0,494.0
475.0,485.0
520.0,497.0
518.0,502.0
536.0,504.0
539.0,523.0
583.0,515.0
574.0,505.0
563.0,504.0
566.0,490.0
568.0,503.0
583.0,503.0
596.0,510.0
586.0,509.0
543.0,488.0
479.0,491.0
441.0,529.0
388.0,555.0
407.0,511.0
445.0,485.0
441.0,549.0
478.0,527.0
508.0,457.0
507.0,472.0
522.0,514.0
541.0,491.0
526.0,478.0
494.0,472.0
421.0,492.0
469.0,515.0
536.0,535.0
591.0,527.0
639.0,544.0
620.0,511.0
599.0,475.0
519.0,513.0
496.0,516.0
426.0,503.0
432.0,478.0
455.0,479.0
519.0,482.0
524.0,479.0
442.0,475.0
451.0,482.0
516.0,485.0
507.0,488.0
513.0,518.0
517.0,524.0
522.0,533.0
519.0,516.0
512.0,512.0
501.0,501.0
516.0,529.0
493.0,528.0
476.0,480.0
487.0,484.0
500.0,469.0
503.0,469.0
495.0,508.0
531.0,567.0
496.0,579.0
465.0,472.0
486.0,445.0
490.0,487.0
538.0,496.0
560.0,506.0
563.0,512.0
542.0,516.0
534.0,510.0
495.0,504.0
498.0,504.0
490.0,530.0
484.0,532.0
499.0,487.0
487.0,492.0
518.0,439.0
545.0,473.0
532.0,475.0
496.0,490.0
483.0,495.0
539.0,515.0
555.0,520.0
545.0,511.0
564.0,518.0
560.0,516.0
539.0,521.0
414.0,527.0
439.0,514.0
461.0,487.0
480.0,495.0
465.0,502.0
472.0,490.0
512.0,504.0
552.0,481.0
554.0,489.0
551.0,492.0
520.0,504.0
527.0,508.0
492.0,521.0
498.0,537.0
532.0,560.0
530.0,547.0
532.0,471.0
515.0,453.0
506.0,498.0
505.0,495.0
547.0,491.0
549.0,489.0
504.0,498.0
473.0,497.0
479.0,479.0
494.0,476.0
519.0,491.0
552.0,500.0
577.0,514.0
555.0,521.0
504.0,522.0
519.0,516.0
495.0,520.0
471.0,528.0
467.0,507.0
412.0,499.0
437.0,503.0
481.0,514.0
517.0,529.0
544.0,498.0
518.0,448.0
467.0,476.0
501.0,516.0
543.0,521.0
550.0,531.0
550.0,551.0
538.0,555.0
541.0,545.0
535.0,477.0
509.0,475.0
511.0,504.0
470.0,501.0
472.0,499.0
476.0,499.0
495.0,469.0
498.0,470.0
530.0,492.0
545.0,488.0
528.0,481.0
526.0,497.0
498.0,487.0
487.0,497.0
495.0,506.0
502.0,508.0
513.0,508.0
535.0,517.0
541.0,538.0
529.0,527.0
488.0,502.0
513.0,520.0
514.0,503.0
509.0,464.0
513.0,487.0
487.0,502.0
531.0,460.0
555.0,481.0
524.0,504.0
482.0,513.0
483.0,517.0
517.0,509.0
509.0,502.0
520.0,506.0
539.0,506.0
531.0,509.0
526.0,512.0
429.0,523.0
471.0,498.0
504.0,481.0
495.0,498.0
490.0,499.0
501.0,497.0
487.0,514.0
455.0,501.0
453.0,491.0
483.0,478.0
541.0,495.0
584.0,502.0
570.0,492.0
546.0,496.0
493.0,505.0
454.0,509.0
498.0,504.0
494.0,508.0
530.0,510.0
513.0,504.0
453.0,495.0
446.0,500.0
485.0,503.0
570.0,520.0
575.0,525.0
561.0,518.0
545.0,496.0
541.0,488.0
535.0,498.0
529.0,505.0
589.0,510.0
558.0,516.0
532.0,520.0
487.0,516.0
449.0,480.0
394.0,486.0
420.0,491.0
475.0,499.0
508.0,496.0
532.0,526.0
556.0,538.0
524.0,507.0
520.0,468.0
504.0,489.0
509.0,498.0
524.0,510.0
528.0,516.0
508.0,508.0
500.0,518.0
496.0,506.0
514.0,498.0
537.0,500.0
543.0,498.0
556.0,500.0
524.0,495.0
519.0,502.0
517.0,497.0
498.0,512.0
423.0,521.0
456.0,513.0
526.0,472.0
536.0,484.0
525.0,503.0
540.0,513.0
551.0,522.0
526.0,547.0
492.0,543.0
465.0,523.0
507.0,473.0
508.0,471.0
504.0,482.0
501.0,490.0
500.0,495.0
504.0,480.0
483.0,479.0
491.0,489.0
516.0,525.0
539.0,526.0
551.0,508.0
544.0,524.0
505.0,590.0
469.0,544.0
483.0,453.0
492.0,447.0
535.0,501.0
513.0,523.0
459.0,521.0
468.0,453.0
519.0,452.0
535.0,466.0
553.0,481.0
524.0,499.0
499.0,507.0
525.0,506.0
532.0,515.0
525.0,513.0
512.0,515.0
480.0,513.0
457.0,507.0
454.0,504.0
512.0,509.0
550.0,498.0
602.0,497.0
590.0,490.0
552.0,480.0
464.0,484.0
404.0,484.0
440.0,508.0
476.0,510.0
531.0,521.0
548.0,512.0
585.0,513.0
539.0,506.0
544.0,512.0
481.0,509.0
492.0,487.0
527.0,498.0
518.0,488.0
495.0,498.0
466.0,499.0
449.0,500.0
469.0,499.0
515.0,504.0
504.0,493.0
525.0,493.0
528.0,507.0
549.0,530.0
538.0,546.0
534.0,521.0
507.0,499.0
501.0,502.0
523.0,511.0
551.0,495.0
550.0,477.0
516.0,488.0
484.0,490.0
457.0,491.0
476.0,493.0
505.0,488.0
529.0,488.0
506.0,516.0
515.0,510.0
541.0,485.0
517.0,485.0
471.0,505.0
483.0,509.0
494.0,513.0
494.0,515.0
509.0,511.0
507.0,515.0
506.0,510.0
514.0,496.0
527.0,514.0
521.0,511.0
508.0,503.0
498.0,482.0
488.0,497.0
511.0,497.0
516.0,502.0
514.0,505.0
528.0,516.0
531.0,516.0
534.0,513.0
533.0,510.0
528.0,514.0
498.0,519.0
468.0,520.0
491.0,504.0
503.0,489.0
477.0,493.0
533.0,493.0
531.0,487.0
513.0,482.0
496.0,485.0
531.0,498.0
569.0,504.0
556.0,510.0
488.0,513.0
473.0,522.0
458.0,520.0
473.0,507.0
471.0,510.0
520.0,503.0
528.0,494.0
513.0,505.0
505.0,492.0
479.0,499.0
498.0,488.0
495.0,483.0
494.0,489.0
534.0,492.0
544.0,490.0
549.0,507.0
514.0,508.0
451.0,513.0
477.0,516.0
522.0,511.0
521.0,511.0
535.0,509.0
536.0,511.0
509.0,504.0
528.0,493.0
512.0,497.0
502.0,508.0
500.0,484.0
502.0,497.0
491.0,506.0
469.0,503.0
458.0,476.0
494.0,498.0
499.0,505.0
513.0,511.0
527.0,525.0
536.0,518.0
542.0,510.0
553.0,494.0
553.0,505.0
591.0,503.0
538.0,497.0
508.0,498.0
513.0,496.0
512.0,495.0
508.0,501.0
530.0,486.0
484.0,493.0
455.0,498.0
421.0,513.0
399.0,509.0
498.0,519.0
549.0,538.0
536.0,510.0
536.0,496.0
543.0,498.0
526.0,497.0
529.0,490.0
528.0,494.0
534.0,488.0
529.0,491.0
519.0,501.0
502.0,500.0
504.0,513.0
518.0,501.0
520.0,494.0
520.0,502.0
512.0,501.0
476.0,516.0
423.0,512.0
472.0,514.0
545.0,498.0
555.0,512.0
541.0,511.0
540.0,514.0
516.0,501.0
489.0,476.0
485.0,495.0
481.0,497.0
478.0,490.0
483.0,486.0
503.0,494.0
498.0,500.0
487.0,508.0
495.0,512.0
505.0,516.0
540.0,528.0
533.0,531.0
523.0,513.0
523.0,494.0
532.0,513.0
509.0,505.0
485.0,453.0
485.0,475.0
487.0,496.0
498.0,490.0
506.0,490.0
521.0,485.0
539.0,493.0
538.0,498.0
519.0,509.0
470.0,512.0
500.0,501.0
518.0,509.0
502.0,510.0
503.0,508.0
500.0,510.0
493.0,516.0
487.0,499.0
498.0,497.0
496.0,491.0
499.0,483.0
503.0,488.0
508.0,496.0
500.0,499.0
507.0,506.0
524.0,512.0
529.0,509.0
525.0,509.0
541.0,497.0
529.0,507.0
531.0,492.0
499.0,515.0
491.0,507.0
496.0,499.0
483.0,502.0
499.0,492.0
499.0,481.0
508.0,493.0
503.0,483.0
507.0,493.0
524.0,499.0
531.0,506.0
534.0,512.0
528.0,510.0
520.0,513.0
502.0,501.0
496.0,501.0
470.0,503.0
484.0,502.0
499.0,506.0
492.0,507.0
520.0,480.0
530.0,485.0
527.0,492.0
540.0,486.0
554.0,487.0
531.0,492.0
510.0,500.0
501.0,499.0
505.0,511.0
478.0,512.0
482.0,515.0
529.0,511.0
537.0,518.0
521.0,522.0
516.0,506.0
518.0,499.0
517.0,497.0
512.0,489.0
508.0,489.0
503.0,482.0
490.0,484.0
511.0,484.0
508.0,496.0
512.0,507.0
520.0,516.0
509.0,508.0
512.0,505.0
508.0,512.0
497.0,513.0
499.0,512.0
493.0,508.0
512.0,506.0
507.0,501.0
507.0,504.0
503.0,502.0
498.0,489.0
511.0,483.0
515.0,492.0
505.0,503.0
507.0,504.0
522.0,509.0
532.0,511.0
527.0,514.0
520.0,514.0
510.0,512.0
507.0,502.0
504.0,509.0
509.0,505.0
502.0,500.0
502.0,482.0
502.0,485.0
500.0,487.0
501.0,495.0
492.0,490.0
501.0,485.0
506.0,493.0
512.0,504.0
520.0,510.0
524.0,514.0
530.0,518.0
529.0,507.0
514.0,517.0
512.0,511.0
504.0,506.0
503.0,499.0
494.0,492.0
498.0,491.0
496.0,496.0
496.0,489.0
500.0,493.0
499.0,495.0
502.0,497.0
513.0,498.0
517.0,507.0
518.0,510.0
528.0,522.0
521.0,521.0
511.0,505.0
511.0,510.0
504.0,501.0
504.0,498.0
502.0,503.0
501.0,502.0
515.0,504.0
515.0,497.0
509.0,497.0
515.0,487.0
515.0,497.0
514.0,501.0
509.0,506.0
507.0,508.0
519.0,515.0
520.0,515.0
510.0,515.0
514.0,511.0
510.0,507.0
510.0,507.0
504.0,495.0
511.0,494.0
506.0,488.0
497.0,490.0
483.0,489.0
467.0,488.0
466.0,494.0
487.0,501.0
527.0,501.0
534.0,505.0
525.0,503.0
530.0,511.0
522.0,508.0
524.0,511.0
515.0,508.0
509.0,517.0
504.0,503.0
511.0,504.0
525.0,500.0
524.0,490.0
519.0,496.0
508.0,498.0
507.0,479.0
521.0,490.0
520.0,500.0
526.0,505.0
530.0,509.0
526.0,509.0
519.0,506.0
508.0,506.0
506.0,496.0
518.0,498.0
532.0,515.0
517.0,511.0
508.0,503.0
500.0,501.0
492.0,507.0
492.0,500.0
493.0,494.0
495.0,493.0
501.0,494.0
502.0,499.0
508.0,499.0
515.0,509.0
523.0,508.0
520.0,513.0
519.0,515.0
519.0,515.0
514.0,507.0
509.0,506.0
507.0,505.0
503.0,506.0
505.0,500.0
505.0,497.0
499.0,496.0
495.0,493.0
499.0,494.0
504.0,495.0
504.0,493.0
510.0,506.0
516.0,505.0
529.0,513.0
522.0,509.0
528.0,512.0
521.0,518.0
516.0,505.0
509.0,503.0
501.0,506.0
505.0,494.0
501.0,505.0
508.0,495.0
502.0,491.0
491.0,496.0
496.0,496.0
506.0,487.0
510.0,500.0
514.0,507.0
518.0,509.0
533.0,516.0
527.0,515.0
523.0,513.0
518.0,511.0
512.0,510.0
503.0,508.0
495.0,507.0
495.0,505.0
496.0,502.0
495.0,497.0
498.0,489.0
496.0,496.0
498.0,495.0
508.0,493.0
511.0,497.0
511.0,504.0
524.0,508.0
515.0,511.0
527.0,519.0
521.0,515.0
510.0,514.0
495.0,510.0
491.0,506.0
500.0,504.0
502.0,498.0
510.0,496.0
512.0,494.0
510.0,491.0
498.0,499.0
504.0,494.0
502.0,498.0
513.0,502.0
523.0,510.0
531.0,509.0
535.0,515.0
525.0,512.0
515.0,513.0
503.0,513.0
489.0,510.0
486.0,506.0
506.0,501.0
509.0,498.0
517.0,495.0
516.0,492.0
515.0,486.0
516.0,495.0
520.0,492.0
512.0,504.0
518.0,504.0
519.0,508.0
514.0,517.0
504.0,513.0
507.0,519.0
506.0,515.0
512.0,507.0
502.0,501.0
490.0,507.0
498.0,505.0
496.0,491.0
500.0,485.0
500.0,485.0
503.0,491.0
506.0,493.0
500.0,490.0
509.0,505.0
519.0,507.0
519.0,512.0
524.0,517.0
521.0,518.0
522.0,517.0
510.0,510.0
503.0,504.0
503.0,503.0
505.0,501.0
505.0,499.0
504.0,497.0
502.0,496.0
496.0,496.0
497.0,488.0
492.0,502.0
510.0,503.0
520.0,505.0
518.0,507.0
526.0,515.0
518.0,508.0
519.0,514.0
514.0,512.0
507.0,503.0
502.0,508.0
496.0,508.0
504.0,500.0
508.0,498.0
506.0,496.0
492.0,500.0
494.0,491.0
503.0,493.0
507.0,495.0
509.0,500.0
522.0,507.0
526.0,514.0
526.0,515.0
522.0,517.0
516.0,515.0
511.0,514.0
498.0,511.0
502.0,506.0
495.0,509.0
505.0,494.0
502.0,490.0
502.0,487.0
498.0,490.0
491.0,495.0
497.0,492.0
499.0,488.0
515.0,500.0
515.0,506.0
526.0,514.0
527.0,506.0
520.0,506.0
519.0,507.0
511.0,514.0
506.0,502.0
501.0,507.0
499.0,508.0
496.0,506.0
498.0,502.0
498.0,493.0
496.0,486.0
499.0,491.0
488.0,495.0
494.0,494.0
500.0,500.0
515.0,507.0
522.0,507.0
524.0,505.0
517.0,512.0
514.0,508.0
507.0,518.0
510.0,511.0
503.0,508.0
503.0,505.0
499.0,502.0
502.0,498.0
499.0,491.0
494.0,486.0
500.0,495.0
509.0,502.0
513.0,502.0
519.0,506.0
524.0,513.0
527.0,513.0
524.0,517.0
515.0,508.0
516.0,518.0
509.0,513.0
497.0,509.0
508.0,501.0
507.0,502.0
507.0,497.0
507.0,494.0
502.0,491.0
497.0,485.0
492.0,500.0
505.0,497.0
513.0,504.0
528.0,509.0
538.0,513.0
538.0,507.0
540.0,516.0
527.0,516.0
510.0,518.0
496.0,507.0
496.0,498.0
493.0,505.0
494.0,494.0
500.0,493.0
495.0,495.0
494.0,491.0
491.0,490.0
492.0,489.0
504.0,497.0
512.0,507.0
514.0,504.0
527.0,517.0
525.0,514.0
525.0,516.0
521.0,503.0
510.0,509.0
507.0,509.0
508.0,508.0
503.0,499.0
494.0,502.0
499.0,499.0
506.0,492.0
501.0,491.0
505.0,489.0
501.0,496.0
499.0,492.0
510.0,505.0
520.0,512.0
515.0,501.0
514.0,512.0
519.0,517.0
508.0,508.0
502.0,510.0
476.0,508.0
484.0,494.0
490.0,499.0
480.0,500.0
500.0,494.0
504.0,496.0
511.0,497.0
521.0,494.0
515.0,500.0
516.0,502.0
513.0,505.0
527.0,507.0
532.0,517.0
531.0,515.0
521.0,509.0
518.0,506.0
513.0,502.0
507.0,502.0
505.0,500.0
505.0,499.0
502.0,493.0
500.0,489.0
500.0,487.0
500.0,479.0
508.0,494.0
510.0,500.0
516.0,506.0
518.0,502.0
525.0,514.0
517.0,509.0
517.0,503.0
515.0,517.0
509.0,509.0
499.0,508.0
502.0,502.0
497.0,495.0
488.0,506.0
497.0,497.0
499.0,493.0
500.0,494.0
499.0,487.0
511.0,499.0
509.0,496.0
514.0,502.0
518.0,511.0
521.0,510.0
520.0,514.0
521.0,516.0
511.0,508.0
500.0,515.0
508.0,505.0
503.0,496.0
504.0,493.0
497.0,503.0
498.0,499.0
492.0,497.0
496.0,495.0
494.0,493.0
495.0,501.0
508.0,496.0
520.0,511.0
518.0,509.0
527.0,518.0
523.0,511.0
513.0,511.0
513.0,511.0
504.0,503.0
502.0,504.0
507.0,500.0
509.0,498.0
501.0,498.0
502.0,495.0
491.0,497.0
491.0,490.0
506.0,495.0
505.0,503.0
513.0,500.0
517.0,502.0
531.0,510.0
534.0,518.0
526.0,506.0
529.0,517.0
517.0,510.0
516.0,507.0
506.0,505.0
494.0,505.0
492.0,499.0
493.0,492.0
482.0,499.0
486.0,496.0
496.0,490.0
498.0,481.0
501.0,503.0
507.0,508.0
518.0,513.0
518.0,510.0
522.0,518.0
518.0,515.0
516.0,516.0
512.0,510.0
501.0,513.0
514.0,502.0
512.0,501.0
509.0,501.0
502.0,486.0
500.0,495.0
502.0,494.0
498.0,501.0
506.0,500.0
510.0,504.0
516.0,507.0
516.0,515.0
519.0,518.0
515.0,516.0
514.0,517.0
509.0,506.0
510.0,509.0
500.0,511.0
500.0,508.0
495.0,505.0
491.0,501.0
497.0,499.0
498.0,492.0
498.0,495.0
501.0,495.0
508.0,492.0
510.0,507.0
522.0,511.0
517.0,507.0
521.0,517.0
524.0,514.0
516.0,509.0
516.0,509.0
511.0,506.0
504.0,503.0
506.0,501.0
505.0,497.0
506.0,490.0
504.0,495.0
502.0,493.0
499.0,496.0
502.0,498.0
508.0,503.0
514.0,494.0
524.0,505.0
528.0,518.0
530.0,516.0
521.0,515.0
509.0,511.0
508.0,503.0
507.0,502.0
488.0,511.0
492.0,506.0
497.0,500.0
491.0,500.0
494.0,491.0
498.0,486.0
502.0,487.0
499.0,498.0
514.0,502.0
515.0,500.0
531.0,513.0
521.0,510.0
516.0,512.0
525.0,514.0
514.0,510.0
509.0,502.0
509.0,504.0
507.0,506.0
504.0,495.0
501.0,491.0
493.0,490.0
487.0,491.0
479.0,497.0
490.0,486.0
501.0,504.0
509.0,505.0
516.0,510.0
528.0,514.0
525.0,510.0
526.0,513.0
526.0,506.0
525.0,512.0
519.0,507.0
510.0,506.0
511.0,500.0
502.0,505.0
499.0,503.0
506.0,495.0
497.0,496.0
501.0,494.0
501.0,491.0
511.0,502.0
517.0,508.0
524.0,511.0
526.0,519.0
519.0,515.0
516.0,514.0
517.0,515.0
512.0,509.0
505.0,490.0
506.0,503.0
512.0,495.0
511.0,505.0
507.0,498.0
504.0,488.0
504.0,492.0
502.0,493.0
492.0,500.0
505.0,503.0
520.0,507.0
525.0,510.0
525.0,518.0
524.0,521.0
524.0,514.0
515.0,513.0
508.0,506.0
498.0,507.0
502.0,501.0
508.0,499.0
496.0,502.0
490.0,495.0
491.0,497.0
497.0,492.0
502.0,487.0
509.0,487.0
