CH1,CH2
504.0,510.0
502.0,506.0
505.0,506.0
500.0,498.0
493.0,505.0
504.0,500.0
502.0,499.0
501.0,502.0
503.0,501.0
508.0,492.0
510.0,503.0
510.0,504.0
514.0,509.0
521.0,510.0
520.0,510.0
518.0,508.0
513.0,508.0
510.0,509.0
514.0,501.0
522.0,505.0
511.0,498.0
508.0,504.0
513.0,499.0
498.0,499.0
488.0,496.0
495.0,496.0
497.0,503.0
508.0,499.0
512.0,501.0
521.0,502.0
527.0,511.0
522.0,506.0
511.0,508.0
513.0,505.0
507.0,510.0
505.0,505.0
505.0,495.0
503.0,506.0
503.0,502.0
500.0,494.0
496.0,497.0
500.0,494.0
498.0,499.0
508.0,495.0
515.0,505.0
518.0,506.0
519.0,510.0
521.0,512.0
523.0,510.0
514.0,504.0
515.0,508.0
501.0,510.0
515.0,503.0
508.0,507.0
512.0,501.0
509.0,499.0
501.0,499.0
497.0,500.0
507.0,495.0
512.0,496.0
506.0,501.0
518.0,501.0
525.0,506.0
523.0,512.0
523.0,508.0
523.0,513.0
516.0,506.0
506.0,514.0
510.0,504.0
505.0,495.0
497.0,509.0
505.0,502.0
502.0,501.0
508.0,502.0
504.0,497.0
499.0,499.0
509.0,499.0
517.0,504.0
525.0,506.0
519.0,510.0
526.0,512.0
519.0,506.0
517.0,505.0
515.0,511.0
506.0,503.0
500.0,502.0
503.0,503.0
491.0,509.0
503.0,500.0
501.0,503.0
500.0,497.0
496.0,492.0
503.0,504.0
507.0,494.0
514.0,503.0
522.0,509.0
525.0,511.0
526.0,506.0
523.0,511.0
519.0,508.0
496.0,510.0
497.0,509.0
490.0,510.0
500.0,505.0
508.0,501.0
512.0,500.0
505.0,499.0
506.0,497.0
510.0,495.0
513.0,502.0
513.0,505.0
515.0,507.0
517.0,506.0
522.0,511.0
517.0,508.0
514.0,509.0
517.0,509.0
521.0,508.0
502.0,512.0
512.0,503.0
506.0,503.0
501.0,492.0
501.0,494.0
499.0,493.0
500.0,503.0
496.0,500.0
506.0,495.0
507.0,498.0
518.0,502.0
528.0,505.0
525.0,510.0
516.0,509.0
516.0,506.0
515.0,509.0
505.0,514.0
510.0,505.0
503.0,499.0
499.0,506.0
511.0,499.0
503.0,499.0
492.0,503.0
499.0,488.0
502.0,492.0
510.0,502.0
513.0,505.0
524.0,508.0
525.0,503.0
526.0,507.0
512.0,507.0
531.0,510.0
520.0,505.0
507.0,511.0
511.0,507.0
509.0,502.0
500.0,494.0
491.0,498.0
494.0,498.0
495.0,502.0
502.0,494.0
507.0,496.0
512.0,499.0
518.0,508.0
525.0,511.0
525.0,508.0
524.0,509.0
519.0,508.0
516.0,507.0
509.0,504.0
508.0,510.0
505.0,495.0
497.0,510.0
507.0,500.0
501.0,500.0
495.0,488.0
501.0,495.0
504.0,497.0
508.0,494.0
517.0,501.0
520.0,500.0
521.0,505.0
521.0,503.0
520.0,507.0
514.0,507.0
512.0,511.0
506.0,506.0
500.0,497.0
499.0,508.0
505.0,502.0
505.0,501.0
501.0,500.0
486.0,502.0
512.0,494.0
511.0,493.0
515.0,499.0
519.0,502.0
518.0,509.0
519.0,510.0
519.0,505.0
515.0,505.0
517.0,504.0
504.0,514.0
502.0,514.0
505.0,502.0
506.0,497.0
505.0,499.0
492.0,497.0
501.0,489.0
499.0,499.0
502.0,498.0
509.0,492.0
515.0,503.0
520.0,503.0
524.0,507.0
530.0,510.0
527.0,508.0
529.0,506.0
513.0,507.0
508.0,503.0
501.0,504.0
496.0,506.0
496.0,508.0
499.0,501.0
492.0,499.0
493.0,490.0
495.0,498.0
491.0,494.0
507.0,498.0
509.0,501.0
520.0,505.0
525.0,502.0
520.0,503.0
524.0,509.0
522.0,515.0
514.0,511.0
504.0,510.0
510.0,504.0
505.0,505.0
508.0,504.0
511.0,502.0
501.0,497.0
503.0,496.0
498.0,493.0
503.0,494.0
505.0,500.0
514.0,505.0
520.0,509.0
528.0,511.0
522.0,509.0
515.0,503.0
515.0,506.0
511.0,504.0
512.0,500.0
505.0,499.0
503.0,496.0
499.0,496.0
494.0,499.0
489.0,491.0
496.0,496.0
501.0,497.0
516.0,497.0
522.0,502.0
511.0,497.0
526.0,511.0
529.0,510.0
519.0,513.0
511.0,505.0
513.0,510.0
506.0,499.0
503.0,497.0
501.0,498.0
496.0,504.0
492.0,505.0
502.0,496.0
497.0,488.0
506.0,495.0
501.0,498.0
508.0,498.0
511.0,495.0
516.0,504.0
519.0,506.0
524.0,510.0
521.0,509.0
518.0,512.0
514.0,509.0
512.0,501.0
500.0,509.0
497.0,509.0
505.0,502.0
502.0,502.0
501.0,493.0
501.0,492.0
495.0,492.0
499.0,493.0
507.0,501.0
512.0,505.0
521.0,502.0
525.0,511.0
518.0,513.0
513.0,511.0
502.0,505.0
504.0,503.0
494.0,513.0
503.0,509.0
506.0,504.0
505.0,501.0
509.0,492.0
511.0,494.0
505.0,500.0
511.0,499.0
513.0,489.0
518.0,504.0
517.0,506.0
524.0,513.0
531.0,512.0
523.0,510.0
515.0,510.0
511.0,511.0
505.0,502.0
505.0,504.0
501.0,509.0
503.0,506.0
503.0,502.0
505.0,503.0
508.0,501.0
514.0,491.0
512.0,496.0
515.0,500.0
507.0,499.0
519.0,504.0
523.0,514.0
527.0,511.0
523.0,510.0
516.0,512.0
515.0,510.0
510.0,505.0
506.0,499.0
508.0,504.0
496.0,508.0
508.0,504.0
509.0,497.0
499.0,502.0
500.0,500.0
507.0,497.0
510.0,501.0
516.0,505.0
522.0,508.0
521.0,512.0
510.0,507.0
510.0,507.0
521.0,507.0
513.0,506.0
508.0,505.0
504.0,504.0
504.0,503.0
499.0,507.0
499.0,506.0
502.0,494.0
505.0,497.0
500.0,502.0
500.0,492.0
517.0,500.0
520.0,507.0
521.0,497.0
526.0,513.0
517.0,509.0
514.0,504.0
510.0,512.0
507.0,507.0
501.0,507.0
492.0,512.0
502.0,495.0
508.0,505.0
498.0,505.0
510.0,487.0
498.0,502.0
506.0,500.0
513.0,501.0
513.0,501.0
525.0,507.0
522.0,511.0
523.0,509.0
521.0,508.0
519.0,509.0
512.0,509.0
499.0,513.0
499.0,499.0
502.0,506.0
497.0,505.0
491.0,504.0
501.0,490.0
490.0,500.0
502.0,495.0
502.0,497.0
505.0,492.0
515.0,502.0
520.0,508.0
529.0,508.0
527.0,508.0
527.0,509.0
520.0,508.0
509.0,509.0
492.0,504.0
485.0,509.0
497.0,503.0
493.0,494.0
498.0,495.0
497.0,487.0
503.0,496.0
510.0,495.0
514.0,498.0
519.0,502.0
521.0,499.0
530.0,500.0
525.0,505.0
515.0,505.0
512.0,506.0
501.0,502.0
494.0,507.0
496.0,500.0
499.0,508.0
513.0,497.0
505.0,497.0
503.0,498.0
492.0,494.0
492.0,498.0
500.0,498.0
510.0,492.0
517.0,510.0
529.0,507.0
536.0,511.0
527.0,498.0
530.0,514.0
519.0,508.0
498.0,502.0
493.0,511.0
501.0,502.0
501.0,504.0
503.0,505.0
499.0,503.0
505.0,488.0
495.0,500.0
501.0,499.0
508.0,492.0
512.0,500.0
522.0,505.0
532.0,507.0
526.0,509.0
526.0,509.0
520.0,508.0
518.0,506.0
513.0,512.0
509.0,503.0
506.0,501.0
505.0,500.0
499.0,493.0
496.0,492.0
509.0,496.0
503.0,497.0
502.0,496.0
505.0,499.0
510.0,501.0
520.0,506.0
512.0,503.0
520.0,513.0
518.0,509.0
509.0,505.0
513.0,509.0
507.0,514.0
503.0,505.0
495.0,509.0
498.0,506.0
499.0,502.0
495.0,503.0
497.0,498.0
499.0,482.0
498.0,501.0
506.0,501.0
511.0,495.0
514.0,505.0
525.0,510.0
525.0,509.0
522.0,510.0
517.0,509.0
510.0,500.0
507.0,506.0
502.0,509.0
505.0,504.0
507.0,501.0
505.0,503.0
489.0,502.0
496.0,490.0
495.0,499.0
502.0,490.0
501.0,497.0
513.0,498.0
523.0,509.0
523.0,508.0
525.0,512.0
516.0,507.0
517.0,512.0
517.0,506.0
507.0,496.0
507.0,503.0
505.0,498.0
501.0,503.0
487.0,500.0
499.0,495.0
493.0,497.0
493.0,494.0
507.0,501.0
511.0,503.0
510.0,502.0
527.0,509.0
518.0,505.0
519.0,510.0
517.0,512.0
512.0,509.0
504.0,491.0
509.0,506.0
496.0,509.0
496.0,506.0
490.0,506.0
500.0,497.0
487.0,500.0
489.0,495.0
496.0,498.0
507.0,499.0
513.0,507.0
523.0,510.0
519.0,506.0
525.0,513.0
524.0,511.0
521.0,508.0
515.0,508.0
509.0,504.0
505.0,508.0
498.0,507.0
499.0,509.0
505.0,492.0
508.0,499.0
498.0,488.0
497.0,490.0
513.0,490.0
519.0,501.0
526.0,503.0
529.0,502.0
539.0,508.0
527.0,511.0
523.0,508.0
518.0,501.0
511.0,508.0
492.0,515.0
496.0,508.0
505.0,502.0
505.0,500.0
505.0,498.0
495.0,494.0
506.0,496.0
502.0,501.0
512.0,497.0
512.0,496.0
517.0,505.0
520.0,507.0
517.0,510.0
520.0,512.0
515.0,515.0
503.0,503.0
510.0,507.0
499.0,508.0
502.0,504.0
515.0,501.0
507.0,499.0
498.0,496.0
497.0,503.0
497.0,488.0
501.0,491.0
501.0,501.0
515.0,506.0
525.0,508.0
521.0,505.0
515.0,511.0
513.0,503.0
512.0,509.0
507.0,511.0
504.0,511.0
503.0,508.0
519.0,502.0
512.0,497.0
506.0,495.0
504.0,497.0
497.0,500.0
496.0,495.0
502.0,491.0
512.0,504.0
520.0,505.0
528.0,509.0
532.0,506.0
524.0,508.0
514.0,504.0
521.0,510.0
519.0,506.0
518.0,506.0
512.0,510.0
506.0,499.0
507.0,501.0
500.0,499.0
510.0,493.0
506.0,495.0
511.0,494.0
512.0,496.0
505.0,492.0
523.0,506.0
521.0,497.0
518.0,499.0
521.0,506.0
520.0,506.0
516.0,503.0
514.0,514.0
511.0,511.0
502.0,499.0
488.0,507.0
493.0,507.0
494.0,499.0
507.0,496.0
505.0,490.0
502.0,493.0
509.0,503.0
517.0,505.0
514.0,506.0
512.0,503.0
515.0,508.0
515.0,513.0
514.0,510.0
509.0,510.0
504.0,494.0
507.0,507.0
505.0,495.0
505.0,500.0
506.0,499.0
498.0,498.0
494.0,497.0
492.0,493.0
492.0,494.0
514.0,503.0
522.0,509.0
527.0,508.0
528.0,509.0
536.0,509.0
531.0,513.0
526.0,513.0
522.0,506.0
512.0,500.0
503.0,508.0
499.0,506.0
501.0,498.0
502.0,496.0
493.0,490.0
497.0,498.0
501.0,496.0
513.0,497.0
514.0,503.0
517.0,507.0
514.0,508.0
526.0,513.0
524.0,511.0
523.0,502.0
511.0,503.0
508.0,496.0
515.0,508.0
508.0,514.0
512.0,505.0
506.0,505.0
499.0,499.0
504.0,496.0
487.0,500.0
491.0,493.0
508.0,498.0
508.0,498.0
514.0,508.0
517.0,510.0
521.0,510.0
521.0,508.0
522.0,512.0
517.0,512.0
511.0,499.0
511.0,504.0
499.0,501.0
498.0,501.0
502.0,496.0
496.0,495.0
501.0,501.0
514.0,488.0
523.0,499.0
527.0,501.0
529.0,508.0
519.0,505.0
519.0,509.0
510.0,511.0
505.0,504.0
509.0,509.0
515.0,504.0
511.0,504.0
513.0,504.0
511.0,504.0
506.0,503.0
501.0,504.0
510.0,498.0
509.0,486.0
498.0,497.0
512.0,497.0
512.0,501.0
526.0,508.0
527.0,505.0
512.0,503.0
512.0,510.0
517.0,509.0
505.0,504.0
490.0,507.0
492.0,498.0
498.0,503.0
501.0,500.0
497.0,499.0
495.0,495.0
502.0,496.0
501.0,490.0
503.0,494.0
503.0,495.0
520.0,504.0
524.0,510.0
523.0,507.0
519.0,505.0
521.0,508.0
516.0,511.0
498.0,498.0
498.0,508.0
507.0,510.0
535.0,506.0
540.0,504.0
530.0,497.0
521.0,502.0
479.0,503.0
464.0,497.0
466.0,492.0
498.0,504.0
508.0,502.0
518.0,502.0
528.0,501.0
522.0,506.0
505.0,502.0
505.0,510.0
513.0,511.0
515.0,517.0
520.0,502.0
525.0,507.0
519.0,513.0
513.0,507.0
487.0,499.0
479.0,497.0
498.0,498.0
511.0,500.0
510.0,497.0
513.0,497.0
521.0,510.0
521.0,517.0
502.0,513.0
508.0,510.0
507.0,504.0
505.0,506.0
514.0,497.0
522.0,506.0
507.0,506.0
516.0,511.0
512.0,504.0
510.0,499.0
505.0,499.0
505.0,498.0
488.0,497.0
513.0,509.0
521.0,507.0
522.0,506.0
510.0,497.0
515.0,497.0
525.0,504.0
509.0,495.0
495.0,506.0
503.0,503.0
521.0,514.0
510.0,507.0
495.0,511.0
502.0,501.0
494.0,503.0
492.0,498.0
504.0,499.0
521.0,500.0
538.0,497.0
529.0,496.0
517.0,501.0
517.0,492.0
514.0,493.0
497.0,498.0
506.0,506.0
480.0,507.0
494.0,508.0
500.0,511.0
510.0,518.0
506.0,510.0
511.0,509.0
514.0,510.0
511.0,514.0
515.0,497.0
529.0,501.0
535.0,495.0
522.0,498.0
519.0,492.0
509.0,491.0
488.0,487.0
495.0,493.0
500.0,491.0
501.0,491.0
495.0,505.0
498.0,516.0
500.0,509.0
495.0,522.0
497.0,517.0
490.0,513.0
501.0,500.0
509.0,502.0
519.0,501.0
525.0,493.0
522.0,494.0
521.0,490.0
517.0,486.0
514.0,490.0
516.0,492.0
513.0,494.0
509.0,498.0
504.0,510.0
500.0,523.0
501.0,528.0
485.0,533.0
497.0,530.0
502.0,521.0
508.0,504.0
517.0,480.0
525.0,494.0
520.0,502.0
507.0,503.0
495.0,494.0
522.0,485.0
516.0,481.0
495.0,473.0
503.0,497.0
490.0,509.0
493.0,512.0
507.0,521.0
528.0,523.0
521.0,513.0
511.0,516.0
521.0,513.0
520.0,500.0
520.0,504.0
516.0,498.0
519.0,488.0
540.0,495.0
543.0,484.0
547.0,492.0
536.0,487.0
503.0,498.0
500.0,504.0
514.0,506.0
521.0,516.0
502.0,515.0
459.0,524.0
488.0,514.0
490.0,517.0
517.0,513.0
532.0,505.0
528.0,496.0
534.0,496.0
522.0,492.0
503.0,491.0
506.0,483.0
502.0,497.0
498.0,494.0
495.0,498.0
504.0,499.0
508.0,493.0
518.0,502.0
529.0,512.0
530.0,515.0
531.0,519.0
523.0,511.0
525.0,516.0
516.0,511.0
509.0,501.0
511.0,505.0
501.0,507.0
512.0,499.0
500.0,492.0
494.0,492.0
494.0,493.0
493.0,490.0
506.0,498.0
504.0,499.0
520.0,508.0
528.0,515.0
531.0,516.0
518.0,514.0
508.0,505.0
504.0,510.0
507.0,503.0
509.0,510.0
507.0,501.0
508.0,493.0
511.0,501.0
508.0,492.0
503.0,487.0
497.0,493.0
503.0,488.0
507.0,500.0
519.0,509.0
517.0,513.0
524.0,518.0
534.0,520.0
526.0,516.0
523.0,512.0
510.0,503.0
512.0,502.0
506.0,500.0
503.0,502.0
501.0,495.0
498.0,500.0
509.0,494.0
508.0,493.0
507.0,491.0
509.0,494.0
512.0,501.0
526.0,507.0
529.0,505.0
526.0,510.0
523.0,510.0
522.0,505.0
525.0,512.0
522.0,511.0
507.0,504.0
492.0,506.0
498.0,503.0
492.0,500.0
492.0,493.0
491.0,498.0
487.0,497.0
504.0,489.0
512.0,501.0
521.0,502.0
517.0,506.0
516.0,511.0
519.0,511.0
520.0,514.0
515.0,517.0
509.0,513.0
504.0,502.0
503.0,499.0
509.0,502.0
503.0,487.0
500.0,501.0
501.0,496.0
499.0,491.0
499.0,489.0
501.0,493.0
507.0,499.0
519.0,507.0
520.0,504.0
527.0,511.0
523.0,514.0
513.0,511.0
520.0,512.0
500.0,509.0
504.0,505.0
503.0,499.0
507.0,501.0
503.0,487.0
502.0,489.0
496.0,498.0
493.0,488.0
501.0,493.0
505.0,496.0
512.0,494.0
521.0,505.0
524.0,510.0
522.0,512.0
516.0,501.0
515.0,510.0
507.0,514.0
507.0,517.0
507.0,507.0
510.0,504.0
506.0,504.0
505.0,493.0
507.0,497.0
506.0,487.0
504.0,501.0
498.0,499.0
511.0,505.0
516.0,503.0
518.0,511.0
522.0,513.0
527.0,515.0
512.0,512.0
512.0,507.0
513.0,517.0
512.0,506.0
506.0,499.0
498.0,504.0
506.0,493.0
501.0,499.0
494.0,485.0
491.0,494.0
493.0,497.0
499.0,497.0
509.0,503.0
529.0,502.0
533.0,508.0
528.0,516.0
524.0,514.0
517.0,509.0
505.0,510.0
506.0,501.0
496.0,509.0
510.0,504.0
497.0,507.0
501.0,500.0
502.0,491.0
502.0,496.0
499.0,491.0
501.0,495.0
503.0,499.0
501.0,503.0
507.0,504.0
521.0,507.0
522.0,513.0
522.0,506.0
517.0,510.0
516.0,512.0
514.0,502.0
510.0,500.0
516.0,503.0
498.0,509.0
502.0,498.0
505.0,499.0
502.0,497.0
502.0,494.0
510.0,496.0
509.0,495.0
516.0,504.0
516.0,499.0
521.0,510.0
523.0,515.0
513.0,513.0
501.0,504.0
501.0,510.0
497.0,502.0
495.0,504.0
494.0,505.0
506.0,495.0
506.0,497.0
507.0,494.0
509.0,491.0
486.0,497.0
507.0,492.0
511.0,499.0
508.0,498.0
517.0,507.0
519.0,512.0
519.0,521.0
513.0,516.0
521.0,506.0
522.0,509.0
521.0,504.0
518.0,502.0
515.0,500.0
499.0,504.0
504.0,495.0
489.0,489.0
492.0,493.0
500.0,493.0
507.0,499.0
511.0,495.0
523.0,506.0
527.0,510.0
527.0,512.0
523.0,512.0
510.0,505.0
506.0,511.0
503.0,509.0
502.0,499.0
504.0,503.0
503.0,498.0
502.0,492.0
500.0,489.0
489.0,489.0
489.0,488.0
506.0,495.0
499.0,502.0
513.0,507.0
517.0,508.0
526.0,513.0
527.0,514.0
522.0,513.0
517.0,511.0
515.0,508.0
510.0,505.0
505.0,504.0
503.0,504.0
499.0,504.0
501.0,503.0
509.0,494.0
503.0,494.0
509.0,487.0
506.0,499.0
501.0,497.0
500.0,503.0
503.0,510.0
520.0,512.0
522.0,513.0
518.0,511.0
523.0,503.0
509.0,514.0
503.0,501.0
491.0,503.0
499.0,503.0
499.0,502.0
506.0,494.0
502.0,491.0
500.0,492.0
509.0,492.0
512.0,494.0
512.0,499.0
525.0,506.0
527.0,511.0
526.0,511.0
523.0,512.0
517.0,511.0
512.0,507.0
505.0,506.0
510.0,500.0
506.0,494.0
515.0,500.0
500.0,499.0
484.0,503.0
488.0,491.0
479.0,502.0
500.0,496.0
508.0,503.0
510.0,496.0
527.0,509.0
521.0,514.0
523.0,515.0
512.0,510.0
517.0,510.0
502.0,509.0
502.0,510.0
498.0,507.0
505.0,499.0
510.0,499.0
510.0,497.0
504.0,494.0
505.0,494.0
502.0,487.0
505.0,496.0
515.0,500.0
523.0,503.0
530.0,504.0
523.0,514.0
515.0,515.0
511.0,510.0
513.0,515.0
504.0,506.0
499.0,504.0
496.0,504.0
502.0,500.0
496.0,500.0
497.0,496.0
497.0,476.0
499.0,496.0
504.0,493.0
510.0,495.0
513.0,504.0
516.0,501.0
521.0,508.0
522.0,516.0
524.0,505.0
528.0,512.0
519.0,512.0
505.0,504.0
502.0,508.0
506.0,503.0
509.0,499.0
506.0,497.0
510.0,491.0
499.0,499.0
502.0,489.0
497.0,497.0
506.0,502.0
513.0,503.0
523.0,508.0
525.0,513.0
523.0,512.0
510.0,506.0
505.0,502.0
509.0,512.0
507.0,504.0
501.0,493.0
497.0,504.0
502.0,498.0
501.0,487.0
488.0,499.0
496.0,495.0
489.0,499.0
501.0,495.0
514.0,502.0
523.0,503.0
525.0,508.0
529.0,511.0
521.0,503.0
517.0,510.0
520.0,501.0
506.0,505.0
507.0,511.0
523.0,511.0
520.0,505.0
508.0,499.0
494.0,504.0
491.0,501.0
478.0,500.0
490.0,493.0
496.0,500.0
506.0,502.0
514.0,502.0
523.0,503.0
525.0,512.0
514.0,510.0
519.0,517.0
508.0,517.0
510.0,514.0
501.0,511.0
509.0,492.0
501.0,493.0
502.0,496.0
499.0,491.0
492.0,494.0
496.0,494.0
502.0,477.0
510.0,499.0
522.0,498.0
533.0,509.0
523.0,513.0
522.0,505.0
523.0,515.0
513.0,510.0
508.0,508.0
497.0,501.0
494.0,504.0
514.0,491.0
521.0,498.0
514.0,495.0
505.0,500.0
494.0,501.0
509.0,485.0
505.0,496.0
510.0,500.0
523.0,507.0
523.0,513.0
523.0,514.0
518.0,509.0
530.0,514.0
531.0,512.0
511.0,505.0
505.0,511.0
507.0,495.0
506.0,495.0
504.0,501.0
505.0,493.0
488.0,491.0
490.0,496.0
501.0,492.0
500.0,494.0
519.0,503.0
533.0,513.0
546.0,517.0
539.0,517.0
517.0,506.0
514.0,513.0
508.0,510.0
512.0,507.0
499.0,504.0
503.0,501.0
492.0,501.0
506.0,500.0
500.0,498.0
496.0,486.0
498.0,491.0
487.0,498.0
505.0,496.0
508.0,503.0
518.0,511.0
517.0,506.0
525.0,514.0
522.0,511.0
512.0,507.0
505.0,504.0
493.0,512.0
495.0,499.0
501.0,501.0
503.0,502.0
517.0,493.0
516.0,495.0
515.0,491.0
511.0,495.0
501.0,502.0
504.0,503.0
513.0,506.0
521.0,512.0
518.0,510.0
516.0,515.0
513.0,511.0
505.0,510.0
512.0,503.0
508.0,506.0
503.0,500.0
508.0,498.0
499.0,503.0
508.0,500.0
502.0,487.0
503.0,490.0
496.0,490.0
503.0,494.0
510.0,497.0
518.0,507.0
515.0,509.0
519.0,515.0
511.0,509.0
512.0,515.0
507.0,505.0
509.0,503.0
504.0,504.0
507.0,506.0
502.0,496.0
508.0,490.0
501.0,501.0
485.0,502.0
498.0,497.0
500.0,489.0
503.0,497.0
510.0,500.0
522.0,506.0
526.0,514.0
525.0,515.0
520.0,514.0
517.0,506.0
507.0,504.0
500.0,506.0
506.0,501.0
511.0,492.0
512.0,499.0
507.0,496.0
494.0,491.0
496.0,492.0
491.0,497.0
508.0,491.0
515.0,504.0
521.0,505.0
523.0,505.0
522.0,511.0
522.0,510.0
523.0,509.0
515.0,501.0
510.0,505.0
500.0,503.0
502.0,502.0
498.0,502.0
495.0,504.0
506.0,488.0
506.0,494.0
495.0,501.0
499.0,501.0
507.0,500.0
515.0,496.0
512.0,500.0
518.0,502.0
516.0,505.0
523.0,513.0
515.0,505.0
514.0,506.0
509.0,503.0
506.0,502.0
499.0,512.0
502.0,492.0
500.0,497.0
496.0,485.0
488.0,499.0
496.0,499.0
510.0,496.0
510.0,495.0
520.0,499.0
520.0,499.0
526.0,507.0
531.0,511.0
517.0,509.0
514.0,516.0
515.0,518.0
510.0,504.0
512.0,505.0
500.0,504.0
506.0,497.0
496.0,496.0
503.0,496.0
503.0,492.0
502.0,485.0
521.0,496.0
524.0,500.0
525.0,506.0
526.0,513.0
530.0,515.0
519.0,514.0
524.0,509.0
512.0,507.0
500.0,510.0
498.0,503.0
497.0,495.0
497.0,504.0
501.0,490.0
499.0,499.0
508.0,493.0
503.0,494.0
509.0,494.0
512.0,498.0
520.0,497.0
522.0,508.0
522.0,507.0
522.0,515.0
512.0,506.0
506.0,513.0
504.0,503.0
524.0,502.0
519.0,503.0
498.0,507.0
503.0,490.0
505.0,496.0
500.0,492.0
495.0,494.0
500.0,495.0
505.0,495.0
509.0,500.0
510.0,500.0
523.0,509.0
528.0,512.0
519.0,510.0
527.0,510.0
522.0,515.0
500.0,502.0
502.0,505.0
506.0,509.0
504.0,506.0
513.0,491.0
505.0,503.0
506.0,495.0
500.0,490.0
486.0,499.0
494.0,497.0
493.0,497.0
511.0,511.0
519.0,515.0
510.0,513.0
511.0,505.0
508.0,507.0
501.0,507.0
487.0,507.0
493.0,502.0
491.0,500.0
501.0,498.0
499.0,489.0
496.0,500.0
516.0,502.0
517.0,500.0
519.0,490.0
521.0,504.0
528.0,507.0
528.0,511.0
536.0,518.0
534.0,507.0
528.0,508.0
516.0,512.0
515.0,516.0
510.0,511.0
507.0,501.0
506.0,486.0
499.0,504.0
500.0,495.0
501.0,500.0
500.0,487.0
490.0,487.0
500.0,485.0
503.0,496.0
518.0,501.0
522.0,502.0
519.0,503.0
518.0,509.0
512.0,513.0
503.0,503.0
508.0,504.0
515.0,508.0
522.0,503.0
498.0,511.0
510.0,507.0
506.0,500.0
482.0,506.0
487.0,491.0
493.0,498.0
497.0,491.0
497.0,488.0
515.0,508.0
523.0,510.0
529.0,517.0
536.0,519.0
531.0,514.0
506.0,511.0
505.0,508.0
496.0,497.0
494.0,500.0
499.0,499.0
497.0,499.0
510.0,495.0
509.0,491.0
497.0,484.0
501.0,484.0
512.0,494.0
518.0,498.0
519.0,498.0
518.0,515.0
514.0,510.0
505.0,515.0
506.0,510.0
497.0,515.0
493.0,508.0
494.0,505.0
512.0,502.0
512.0,501.0
509.0,496.0
511.0,496.0
510.0,494.0
496.0,498.0
508.0,493.0
513.0,499.0
516.0,504.0
523.0,511.0
527.0,510.0
524.0,513.0
516.0,512.0
514.0,511.0
508.0,507.0
493.0,510.0
496.0,499.0
504.0,502.0
511.0,484.0
516.0,499.0
515.0,494.0
509.0,493.0
510.0,499.0
495.0,493.0
494.0,502.0
509.0,507.0
503.0,504.0
507.0,507.0
508.0,509.0
515.0,508.0
506.0,503.0
508.0,501.0
508.0,502.0
515.0,507.0
512.0,508.0
518.0,490.0
517.0,491.0
502.0,488.0
492.0,486.0
510.0,495.0
504.0,503.0
500.0,505.0
512.0,508.0
513.0,515.0
520.0,515.0
521.0,512.0
516.0,514.0
502.0,510.0
507.0,498.0
501.0,501.0
524.0,498.0
532.0,496.0
529.0,490.0
507.0,483.0
493.0,487.0
492.0,482.0
485.0,497.0
492.0,501.0
513.0,513.0
525.0,514.0
525.0,518.0
523.0,511.0
527.0,513.0
514.0,517.0
501.0,504.0
498.0,493.0
500.0,496.0
494.0,504.0
496.0,501.0
494.0,496.0
482.0,492.0
465.0,495.0
483.0,485.0
504.0,502.0
507.0,503.0
517.0,501.0
517.0,506.0
526.0,497.0
511.0,502.0
524.0,506.0
541.0,501.0
523.0,508.0
507.0,510.0
512.0,501.0
510.0,503.0
512.0,497.0
497.0,494.0
483.0,497.0
485.0,493.0
484.0,503.0
503.0,493.0
529.0,505.0
545.0,507.0
536.0,518.0
512.0,514.0
522.0,515.0
524.0,506.0
524.0,509.0
513.0,501.0
504.0,506.0
503.0,504.0
481.0,502.0
486.0,484.0
485.0,488.0
499.0,497.0
509.0,494.0
517.0,497.0
520.0,495.0
528.0,508.0
536.0,506.0
538.0,505.0
528.0,520.0
510.0,508.0
492.0,503.0
485.0,515.0
482.0,522.0
496.0,510.0
509.0,495.0
521.0,480.0
529.0,486.0
529.0,488.0
506.0,489.0
509.0,489.0
480.0,498.0
480.0,498.0
494.0,507.0
519.0,508.0
557.0,512.0
564.0,502.0
558.0,504.0
554.0,512.0
538.0,517.0
498.0,512.0
488.0,508.0
501.0,506.0
494.0,501.0
502.0,488.0
507.0,492.0
499.0,488.0
476.0,492.0
492.0,489.0
502.0,503.0
519.0,519.0
520.0,522.0
516.0,513.0
506.0,506.0
520.0,501.0
505.0,497.0
499.0,502.0
495.0,507.0
500.0,505.0
499.0,507.0
498.0,507.0
496.0,502.0
491.0,496.0
500.0,483.0
502.0,487.0
495.0,501.0
508.0,508.0
527.0,509.0
523.0,513.0
514.0,516.0
513.0,511.0
504.0,507.0
506.0,508.0
502.0,492.0
491.0,502.0
502.0,487.0
508.0,492.0
509.0,496.0
515.0,490.0
521.0,499.0
507.0,480.0
499.0,492.0
496.0,497.0
502.0,519.0
512.0,524.0
504.0,516.0
515.0,516.0
515.0,499.0
509.0,497.0
516.0,501.0
529.0,507.0
543.0,500.0
535.0,510.0
521.0,508.0
501.0,491.0
505.0,501.0
511.0,500.0
505.0,501.0
523.0,495.0
542.0,498.0
541.0,502.0
540.0,520.0
528.0,524.0
493.0,526.0
470.0,517.0
506.0,498.0
494.0,482.0
468.0,481.0
460.0,478.0
453.0,503.0
485.0,498.0
486.0,505.0
501.0,490.0
515.0,494.0
512.0,496.0
509.0,501.0
521.0,503.0
532.0,500.0
530.0,507.0
515.0,513.0
521.0,516.0
509.0,509.0
507.0,506.0
499.0,505.0
505.0,508.0
519.0,499.0
520.0,505.0
510.0,503.0
512.0,488.0
509.0,497.0
518.0,488.0
506.0,502.0
503.0,501.0
515.0,510.0
527.0,511.0
529.0,513.0
528.0,514.0
517.0,517.0
497.0,499.0
499.0,503.0
500.0,494.0
502.0,498.0
495.0,492.0
493.0,491.0
477.0,499.0
491.0,497.0
490.0,486.0
505.0,483.0
525.0,489.0
569.0,499.0
588.0,511.0
576.0,513.0
533.0,513.0
482.0,514.0
475.0,517.0
499.0,510.0
496.0,510.0
517.0,500.0
523.0,488.0
524.0,498.0
517.0,510.0
500.0,529.0
505.0,505.0
494.0,500.0
486.0,472.0
461.0,456.0
469.0,490.0
494.0,510.0
517.0,514.0
520.0,512.0
531.0,509.0
529.0,507.0
528.0,500.0
520.0,498.0
516.0,502.0
519.0,494.0
519.0,486.0
501.0,492.0
473.0,489.0
455.0,504.0
488.0,504.0
515.0,505.0
545.0,502.0
538.0,505.0
516.0,511.0
505.0,510.0
522.0,510.0
523.0,503.0
520.0,504.0
516.0,502.0
516.0,514.0
515.0,515.0
503.0,506.0
502.0,502.0
497.0,495.0
489.0,496.0
496.0,490.0
500.0,491.0
501.0,505.0
522.0,500.0
529.0,513.0
543.0,525.0
530.0,518.0
537.0,504.0
532.0,505.0
516.0,517.0
531.0,534.0
517.0,530.0
504.0,515.0
457.0,494.0
464.0,446.0
497.0,464.0
486.0,504.0
478.0,509.0
498.0,506.0
526.0,517.0
532.0,522.0
536.0,511.0
554.0,488.0
539.0,475.0
526.0,490.0
470.0,495.0
461.0,514.0
489.0,511.0
498.0,502.0
508.0,505.0
516.0,505.0
513.0,494.0
516.0,508.0
534.0,501.0
545.0,503.0
551.0,501.0
545.0,487.0
524.0,496.0
519.0,506.0
526.0,514.0
517.0,515.0
472.0,503.0
457.0,500.0
462.0,503.0
478.0,511.0
499.0,510.0
494.0,500.0
490.0,484.0
481.0,491.0
492.0,489.0
528.0,490.0
552.0,493.0
552.0,498.0
521.0,513.0
530.0,510.0
535.0,502.0
542.0,514.0
540.0,502.0
537.0,525.0
517.0,526.0
488.0,494.0
483.0,489.0
489.0,495.0
501.0,497.0
509.0,485.0
501.0,489.0
502.0,491.0
506.0,492.0
503.0,489.0
510.0,494.0
519.0,506.0
529.0,511.0
501.0,515.0
498.0,520.0
543.0,515.0
530.0,511.0
521.0,512.0
504.0,504.0
507.0,496.0
499.0,500.0
492.0,494.0
479.0,499.0
499.0,501.0
506.0,497.0
514.0,500.0
540.0,498.0
557.0,496.0
532.0,496.0
493.0,510.0
490.0,517.0
481.0,514.0
488.0,518.0
473.0,505.0
461.0,515.0
474.0,531.0
472.0,537.0
509.0,514.0
531.0,494.0
515.0,473.0
535.0,463.0
518.0,503.0
499.0,499.0
500.0,501.0
528.0,486.0
566.0,502.0
586.0,547.0
597.0,537.0
565.0,520.0
520.0,482.0
502.0,475.0
484.0,523.0
467.0,519.0
495.0,500.0
486.0,495.0
491.0,487.0
504.0,489.0
516.0,485.0
516.0,508.0
510.0,506.0
495.0,498.0
466.0,538.0
494.0,560.0
501.0,529.0
491.0,484.0
522.0,501.0
564.0,526.0
580.0,535.0
575.0,530.0
533.0,512.0
489.0,486.0
481.0,470.0
469.0,454.0
428.0,467.0
486.0,482.0
519.0,499.0
514.0,506.0
516.0,512.0
515.0,519.0
532.0,495.0
558.0,494.0
525.0,487.0
519.0,507.0
503.0,516.0
512.0,507.0
506.0,510.0
502.0,515.0
499.0,501.0
484.0,468.0
475.0,475.0
466.0,514.0
480.0,527.0
520.0,499.0
569.0,482.0
546.0,485.0
509.0,518.0
490.0,508.0
515.0,486.0
490.0,524.0
472.0,548.0
475.0,519.0
494.0,482.0
506.0,471.0
517.0,478.0
518.0,502.0
488.0,504.0
470.0,525.0
480.0,535.0
511.0,520.0
553.0,478.0
591.0,446.0
622.0,486.0
597.0,510.0
570.0,516.0
523.0,509.0
471.0,512.0
475.0,523.0
486.0,506.0
486.0,500.0
487.0,518.0
472.0,510.0
513.0,509.0
497.0,497.0
466.0,506.0
517.0,479.0
551.0,483.0
563.0,494.0
549.0,500.0
524.0,525.0
493.0,521.0
447.0,500.0
453.0,475.0
518.0,482.0
606.0,464.0
650.0,506.0
553.0,519.0
449.0,542.0
411.0,537.0
477.0,478.0
517.0,486.0
532.0,522.0
525.0,516.0
571.0,535.0
550.0,535.0
452.0,515.0
413.0,515.0
463.0,523.0
488.0,535.0
493.0,509.0
535.0,496.0
545.0,486.0
530.0,511.0
570.0,492.0
545.0,510.0
546.0,536.0
554.0,537.0
496.0,488.0
463.0,422.0
511.0,449.0
583.0,476.0
580.0,494.0
651.0,488.0
564.0,488.0
485.0,480.0
465.0,530.0
439.0,542.0
459.0,537.0
471.0,528.0
472.0,511.0
537.0,472.0
514.0,448.0
460.0,494.0
369.0,497.0
381.0,483.0
464.0,481.0
508.0,518.0
495.0,490.0
506.0,477.0
506.0,468.0
506.0,501.0
542.0,498.0
514.0,509.0
518.0,527.0
546.0,568.0
505.0,560.0
467.0,505.0
497.0,471.0
522.0,448.0
514.0,472.0
450.0,471.0
492.0,498.0
513.0,530.0
533.0,555.0
537.0,552.0
522.0,484.0
527.0,469.0
472.0,500.0
499.0,537.0
459.0,545.0
421.0,471.0
487.0,483.0
508.0,574.0
521.0,603.0
496.0,489.0
495.0,405.0
483.0,464.0
524.0,489.0
586.0,474.0
630.0,476.0
615.0,486.0
624.0,551.0
546.0,574.0
438.0,529.0
412.0,496.0
480.0,498.0
572.0,474.0
603.0,482.0
555.0,513.0
395.0,489.0
428.0,473.0
494.0,475.0
484.0,484.0
465.0,491.0
458.0,499.0
465.0,492.0
441.0,474.0
488.0,489.0
551.0,502.0
628.0,524.0
548.0,572.0
590.0,610.0
517.0,593.0
459.0,460.0
444.0,452.0
464.0,462.0
450.0,488.0
482.0,492.0
451.0,481.0
486.0,493.0
522.0,520.0
512.0,499.0
533.0,501.0
588.0,492.0
571.0,487.0
580.0,490.0
554.0,537.0
543.0,538.0
498.0,508.0
467.0,474.0
469.0,486.0
536.0,496.0
579.0,509.0
567.0,527.0
410.0,539.0
453.0,538.0
512.0,482.0
505.0,490.0
451.0,445.0
474.0,485.0
465.0,521.0
407.0,482.0
408.0,458.0
443.0,462.0
440.0,482.0
502.0,518.0
549.0,542.0
563.0,522.0
555.0,521.0
543.0,569.0
533.0,594.0
531.0,562.0
467.0,445.0
478.0,398.0
492.0,481.0
529.0,517.0
548.0,501.0
471.0,504.0
519.0,510.0
537.0,444.0
578.0,455.0
549.0,510.0
545.0,511.0
506.0,508.0
455.0,509.0
399.0,523.0
424.0,526.0
448.0,501.0
522.0,464.0
541.0,481.0
525.0,485.0
558.0,491.0
617.0,482.0
615.0,509.0
612.0,560.0
513.0,645.0
430.0,580.0
452.0,449.0
418.0,436.0
422.0,472.0
395.0,442.0
521.0,488.0
528.0,515.0
509.0,511.0
436.0,488.0
477.0,484.0
562.0,497.0
594.0,505.0
580.0,511.0
432.0,506.0
462.0,503.0
506.0,483.0
567.0,482.0
581.0,524.0
539.0,576.0
497.0,501.0
549.0,454.0
558.0,470.0
570.0,499.0
547.0,513.0
415.0,578.0
431.0,575.0
509.0,475.0
504.0,419.0
460.0,517.0
401.0,504.0
429.0,478.0
491.0,471.0
539.0,479.0
561.0,486.0
534.0,528.0
480.0,541.0
459.0,506.0
454.0,490.0
593.0,514.0
645.0,526.0
562.0,509.0
559.0,494.0
542.0,473.0
561.0,514.0
531.0,560.0
572.0,568.0
484.0,494.0
456.0,446.0
458.0,449.0
438.0,488.0
486.0,529.0
444.0,550.0
441.0,498.0
495.0,485.0
495.0,506.0
521.0,554.0
542.0,620.0
491.0,569.0
452.0,415.0
471.0,423.0
510.0,470.0
535.0,473.0
551.0,462.0
550.0,477.0
491.0,475.0
517.0,477.0
520.0,489.0
536.0,506.0
551.0,525.0
547.0,537.0
541.0,522.0
513.0,480.0
442.0,489.0
410.0,518.0
459.0,483.0
525.0,476.0
551.0,487.0
445.0,538.0
445.0,585.0
549.0,575.0
589.0,484.0
591.0,402.0
535.0,465.0
432.0,513.0
441.0,487.0
502.0,481.0
509.0,501.0
512.0,512.0
502.0,529.0
511.0,536.0
525.0,531.0
533.0,503.0
545.0,548.0
545.0,561.0
464.0,442.0
516.0,426.0
573.0,496.0
560.0,481.0
496.0,492.0
472.0,504.0
449.0,517.0
496.0,543.0
506.0,535.0
484.0,469.0
522.0,467.0
590.0,506.0
556.0,499.0
587.0,502.0
560.0,502.0
439.0,477.0
495.0,485.0
492.0,502.0
462.0,489.0
438.0,479.0
462.0,489.0
474.0,510.0
424.0,505.0
391.0,515.0
437.0,529.0
529.0,544.0
573.0,540.0
626.0,501.0
579.0,476.0
549.0,502.0
569.0,502.0
568.0,498.0
540.0,505.0
501.0,516.0
462.0,538.0
479.0,501.0
484.0,460.0
516.0,512.0
560.0,547.0
568.0,523.0
561.0,478.0
571.0,496.0
479.0,481.0
462.0,501.0
509.0,521.0
508.0,514.0
491.0,489.0
405.0,505.0
444.0,503.0
477.0,505.0
467.0,492.0
489.0,524.0
522.0,492.0
571.0,455.0
616.0,498.0
574.0,532.0
510.0,505.0
543.0,503.0
527.0,497.0
546.0,490.0
453.0,504.0
431.0,500.0
460.0,505.0
508.0,506.0
488.0,503.0
503.0,515.0
413.0,493.0
377.0,468.0
458.0,482.0
560.0,484.0
610.0,499.0
599.0,526.0
552.0,550.0
525.0,559.0
506.0,501.0
490.0,498.0
501.0,532.0
491.0,479.0
471.0,474.0
479.0,540.0
475.0,502.0
482.0,480.0
491.0,436.0
501.0,474.0
521.0,501.0
525.0,503.0
518.0,471.0
516.0,461.0
535.0,506.0
579.0,517.0
589.0,523.0
616.0,505.0
527.0,522.0
468.0,554.0
477.0,572.0
503.0,524.0
581.0,472.0
614.0,436.0
616.0,484.0
443.0,490.0
354.0,487.0
395.0,500.0
436.0,465.0
484.0,475.0
507.0,488.0
515.0,497.0
585.0,509.0
547.0,541.0
513.0,560.0
463.0,531.0
399.0,479.0
478.0,495.0
422.0,478.0
465.0,478.0
520.0,492.0
535.0,511.0
509.0,499.0
453.0,520.0
452.0,481.0
455.0,496.0
482.0,510.0
533.0,503.0
599.0,513.0
623.0,538.0
648.0,508.0
593.0,473.0
564.0,499.0
520.0,526.0
446.0,510.0
461.0,521.0
487.0,511.0
483.0,515.0
493.0,474.0
489.0,460.0
493.0,473.0
477.0,485.0
464.0,485.0
504.0,502.0
552.0,518.0
601.0,516.0
652.0,508.0
628.0,510.0
562.0,527.0
408.0,523.0
456.0,520.0
502.0,561.0
465.0,576.0
477.0,541.0
509.0,461.0
508.0,479.0
483.0,480.0
482.0,481.0
499.0,473.0
519.0,471.0
506.0,518.0
514.0,534.0
520.0,504.0
524.0,471.0
495.0,503.0
469.0,511.0
474.0,516.0
471.0,519.0
518.0,501.0
533.0,490.0
562.0,499.0
544.0,499.0
495.0,483.0
470.0,485.0
478.0,504.0
464.0,496.0
487.0,503.0
515.0,518.0
533.0,515.0
588.0,507.0
569.0,519.0
547.0,523.0
512.0,523.0
506.0,488.0
500.0,497.0
471.0,509.0
408.0,506.0
421.0,483.0
473.0,465.0
530.0,471.0
536.0,526.0
554.0,560.0
567.0,547.0
594.0,501.0
613.0,477.0
586.0,475.0
492.0,505.0
464.0,506.0
489.0,506.0
603.0,508.0
655.0,526.0
625.0,532.0
523.0,539.0
426.0,489.0
298.0,449.0
400.0,503.0
422.0,531.0
444.0,528.0
476.0,495.0
493.0,464.0
506.0,472.0
554.0,483.0
559.0,487.0
530.0,544.0
550.0,556.0
623.0,539.0
604.0,500.0
516.0,481.0
380.0,456.0
457.0,478.0
472.0,485.0
482.0,485.0
471.0,496.0
457.0,505.0
478.0,503.0
487.0,503.0
507.0,502.0
527.0,516.0
529.0,517.0
559.0,505.0
565.0,505.0
520.0,480.0
497.0,502.0
565.0,509.0
574.0,535.0
512.0,534.0
477.0,505.0
459.0,467.0
516.0,480.0
572.0,480.0
589.0,481.0
530.0,472.0
516.0,491.0
476.0,510.0
439.0,489.0
427.0,499.0
516.0,509.0
524.0,506.0
530.0,520.0
551.0,514.0
554.0,506.0
500.0,507.0
441.0,515.0
434.0,523.0
435.0,499.0
464.0,489.0
511.0,510.0
549.0,519.0
582.0,486.0
562.0,491.0
511.0,521.0
479.0,502.0
496.0,496.0
543.0,511.0
553.0,492.0
547.0,494.0
532.0,506.0
496.0,508.0
474.0,500.0
413.0,500.0
417.0,519.0
506.0,510.0
525.0,496.0
475.0,487.0
488.0,458.0
543.0,478.0
567.0,479.0
518.0,496.0
479.0,507.0
451.0,509.0
488.0,511.0
510.0,506.0
529.0,516.0
503.0,515.0
514.0,515.0
538.0,517.0
530.0,540.0
561.0,525.0
564.0,473.0
520.0,467.0
535.0,487.0
634.0,490.0
581.0,511.0
572.0,514.0
555.0,463.0
535.0,468.0
483.0,499.0
456.0,522.0
449.0,556.0
424.0,553.0
445.0,477.0
451.0,464.0
427.0,516.0
500.0,495.0
613.0,508.0
547.0,507.0
461.0,465.0
409.0,459.0
445.0,505.0
492.0,510.0
521.0,508.0
536.0,504.0
535.0,510.0
484.0,513.0
483.0,519.0
491.0,519.0
503.0,528.0
521.0,531.0
545.0,527.0
533.0,493.0
521.0,479.0
509.0,496.0
481.0,502.0
416.0,505.0
455.0,498.0
486.0,490.0
526.0,483.0
539.0,489.0
538.0,504.0
503.0,515.0
548.0,519.0
575.0,539.0
543.0,520.0
565.0,492.0
571.0,503.0
590.0,529.0
541.0,582.0
450.0,544.0
390.0,424.0
471.0,428.0
496.0,495.0
508.0,471.0
499.0,477.0
502.0,501.0
489.0,523.0
454.0,508.0
480.0,497.0
506.0,527.0
505.0,533.0
501.0,507.0
510.0,475.0
539.0,499.0
562.0,518.0
548.0,525.0
526.0,515.0
498.0,476.0
484.0,472.0
576.0,483.0
601.0,489.0
555.0,504.0
403.0,522.0
399.0,506.0
425.0,477.0
516.0,499.0
532.0,516.0
496.0,514.0
515.0,506.0
463.0,502.0
451.0,507.0
487.0,503.0
509.0,517.0
534.0,508.0
554.0,492.0
536.0,463.0
524.0,486.0
513.0,492.0
493.0,503.0
434.0,523.0
420.0,527.0
428.0,504.0
470.0,493.0
503.0,493.0
572.0,524.0
620.0,529.0
620.0,532.0
587.0,468.0
574.0,494.0
554.0,501.0
566.0,495.0
554.0,514.0
514.0,513.0
507.0,527.0
493.0,514.0
486.0,472.0
405.0,467.0
406.0,514.0
518.0,526.0
532.0,510.0
529.0,495.0
549.0,504.0
542.0,502.0
501.0,496.0
524.0,524.0
528.0,506.0
482.0,468.0
418.0,479.0
406.0,496.0
451.0,483.0
543.0,491.0
642.0,512.0
654.0,510.0
553.0,498.0
529.0,492.0
557.0,507.0
480.0,520.0
442.0,542.0
486.0,524.0
506.0,512.0
504.0,514.0
517.0,477.0
469.0,491.0
431.0,492.0
447.0,489.0
465.0,496.0
525.0,507.0
577.0,507.0
593.0,475.0
581.0,474.0
549.0,501.0
532.0,527.0
510.0,520.0
465.0,512.0
463.0,509.0
453.0,501.0
416.0,487.0
476.0,506.0
546.0,495.0
543.0,476.0
545.0,514.0
532.0,527.0
500.0,519.0
511.0,500.0
517.0,509.0
495.0,521.0
495.0,483.0
528.0,498.0
540.0,496.0
528.0,508.0
499.0,527.0
437.0,517.0
459.0,507.0
496.0,484.0
527.0,509.0
532.0,505.0
524.0,486.0
494.0,474.0
494.0,493.0
507.0,491.0
521.0,491.0
535.0,497.0
534.0,503.0
523.0,495.0
542.0,503.0
565.0,499.0
562.0,503.0
491.0,509.0
462.0,526.0
475.0,531.0
483.0,510.0
497.0,485.0
489.0,469.0
473.0,488.0
437.0,490.0
435.0,503.0
477.0,499.0
522.0,493.0
546.0,490.0
565.0,502.0
604.0,506.0
637.0,506.0
606.0,510.0
505.0,513.0
416.0,511.0
426.0,524.0
510.0,526.0
534.0,485.0
490.0,494.0
456.0,491.0
411.0,485.0
421.0,474.0
560.0,485.0
597.0,484.0
587.0,482.0
544.0,488.0
528.0,501.0
505.0,516.0
504.0,526.0
513.0,514.0
517.0,511.0
565.0,517.0
568.0,526.0
540.0,515.0
454.0,510.0
392.0,497.0
423.0,491.0
480.0,491.0
490.0,488.0
554.0,496.0
558.0,498.0
515.0,490.0
480.0,496.0
503.0,501.0
518.0,502.0
522.0,509.0
519.0,516.0
515.0,516.0
522.0,522.0
514.0,531.0
520.0,512.0
494.0,506.0
491.0,493.0
492.0,500.0
487.0,501.0
500.0,477.0
481.0,470.0
462.0,501.0
484.0,488.0
526.0,494.0
545.0,509.0
533.0,499.0
516.0,523.0
515.0,551.0
522.0,546.0
524.0,508.0
510.0,490.0
528.0,499.0
521.0,479.0
508.0,495.0
482.0,492.0
464.0,490.0
461.0,477.0
473.0,477.0
499.0,491.0
534.0,505.0
545.0,517.0
555.0,527.0
544.0,519.0
503.0,494.0
472.0,508.0
482.0,506.0
503.0,503.0
510.0,499.0
502.0,502.0
491.0,499.0
480.0,502.0
494.0,499.0
502.0,499.0
507.0,474.0
533.0,482.0
527.0,479.0
538.0,489.0
550.0,509.0
562.0,518.0
567.0,516.0
540.0,521.0
490.0,514.0
468.0,506.0
488.0,509.0
509.0,501.0
526.0,502.0
473.0,504.0
500.0,496.0
493.0,500.0
503.0,481.0
504.0,476.0
508.0,494.0
507.0,497.0
502.0,509.0
501.0,510.0
533.0,518.0
571.0,495.0
550.0,506.0
500.0,508.0
441.0,501.0
465.0,504.0
492.0,499.0
505.0,490.0
511.0,495.0
539.0,501.0
516.0,507.0
540.0,502.0
532.0,492.0
523.0,490.0
537.0,503.0
545.0,505.0
528.0,510.0
492.0,507.0
512.0,515.0
534.0,510.0
535.0,505.0
547.0,499.0
475.0,501.0
490.0,503.0
505.0,498.0
498.0,495.0
497.0,494.0
499.0,487.0
505.0,486.0
515.0,487.0
511.0,494.0
521.0,496.0
524.0,504.0
501.0,510.0
467.0,505.0
487.0,504.0
523.0,511.0
535.0,512.0
530.0,503.0
506.0,501.0
505.0,511.0
516.0,519.0
511.0,496.0
505.0,465.0
495.0,497.0
505.0,505.0
516.0,484.0
538.0,464.0
529.0,497.0
529.0,500.0
527.0,503.0
524.0,512.0
503.0,514.0
502.0,511.0
499.0,515.0
500.0,504.0
488.0,506.0
491.0,499.0
502.0,490.0
504.0,494.0
499.0,495.0
487.0,493.0
497.0,490.0
501.0,501.0
513.0,504.0
520.0,516.0
515.0,513.0
521.0,501.0
520.0,509.0
517.0,514.0
507.0,507.0
514.0,506.0
500.0,504.0
507.0,498.0
504.0,498.0
506.0,502.0
499.0,510.0
498.0,504.0
506.0,493.0
504.0,481.0
510.0,489.0
496.0,504.0
490.0,503.0
500.0,512.0
504.0,505.0
519.0,507.0
533.0,505.0
540.0,504.0
522.0,499.0
513.0,506.0
510.0,517.0
520.0,507.0
518.0,488.0
512.0,490.0
506.0,499.0
488.0,496.0
489.0,490.0
481.0,503.0
474.0,505.0
492.0,508.0
511.0,506.0
561.0,513.0
550.0,515.0
533.0,512.0
521.0,513.0
518.0,497.0
525.0,501.0
521.0,498.0
503.0,499.0
498.0,495.0
499.0,496.0
511.0,494.0
513.0,495.0
535.0,498.0
531.0,500.0
506.0,502.0
484.0,510.0
492.0,515.0
511.0,516.0
522.0,509.0
531.0,508.0
538.0,505.0
534.0,497.0
527.0,501.0
527.0,498.0
525.0,492.0
517.0,495.0
492.0,501.0
468.0,500.0
463.0,496.0
490.0,496.0
531.0,496.0
583.0,511.0
603.0,512.0
566.0,512.0
552.0,517.0
532.0,512.0
520.0,510.0
499.0,517.0
497.0,506.0
498.0,502.0
491.0,499.0
482.0,494.0
480.0,490.0
486.0,494.0
485.0,497.0
498.0,497.0
508.0,501.0
506.0,504.0
508.0,503.0
519.0,509.0
518.0,506.0
508.0,506.0
503.0,506.0
497.0,509.0
498.0,507.0
493.0,509.0
497.0,507.0
498.0,489.0
500.0,495.0
496.0,486.0
487.0,499.0
502.0,493.0
510.0,498.0
513.0,499.0
524.0,507.0
526.0,511.0
525.0,513.0
519.0,514.0
507.0,509.0
513.0,510.0
512.0,506.0
499.0,507.0
505.0,499.0
511.0,498.0
499.0,501.0
505.0,492.0
502.0,488.0
498.0,493.0
511.0,492.0
506.0,496.0
517.0,499.0
522.0,503.0
519.0,511.0
524.0,515.0
519.0,513.0
516.0,512.0
510.0,506.0
507.0,499.0
510.0,499.0
500.0,507.0
504.0,493.0
507.0,495.0
496.0,498.0
504.0,491.0
504.0,494.0
504.0,501.0
512.0,500.0
515.0,504.0
528.0,510.0
527.0,508.0
525.0,514.0
516.0,507.0
514.0,505.0
512.0,510.0
506.0,500.0
510.0,502.0
503.0,504.0
499.0,493.0
506.0,495.0
500.0,482.0
494.0,496.0
508.0,493.0
503.0,484.0
517.0,502.0
523.0,506.0
522.0,512.0
524.0,517.0
517.0,505.0
512.0,504.0
512.0,509.0
506.0,509.0
509.0,504.0
499.0,506.0
493.0,501.0
500.0,496.0
495.0,495.0
491.0,494.0
493.0,487.0
507.0,494.0
512.0,497.0
525.0,505.0
534.0,509.0
540.0,506.0
529.0,512.0
522.0,516.0
515.0,511.0
511.0,513.0
502.0,509.0
493.0,505.0
480.0,506.0
482.0,504.0
499.0,497.0
489.0,497.0
506.0,495.0
505.0,497.0
515.0,500.0
518.0,497.0
526.0,502.0
535.0,510.0
534.0,513.0
530.0,514.0
522.0,514.0
523.0,514.0
502.0,513.0
499.0,501.0
496.0,494.0
496.0,503.0
498.0,500.0
495.0,502.0
500.0,488.0
493.0,499.0
515.0,492.0
522.0,497.0
527.0,506.0
527.0,508.0
527.0,505.0
522.0,511.0
516.0,506.0
521.0,507.0
508.0,507.0
495.0,508.0
500.0,495.0
508.0,500.0
508.0,502.0
502.0,494.0
508.0,493.0
500.0,487.0
503.0,498.0
512.0,496.0
514.0,499.0
518.0,507.0
515.0,510.0
521.0,519.0
519.0,513.0
522.0,513.0
507.0,510.0
508.0,506.0
503.0,499.0
502.0,499.0
502.0,501.0
503.0,492.0
500.0,499.0
506.0,496.0
505.0,489.0
499.0,498.0
510.0,497.0
510.0,493.0
512.0,510.0
516.0,513.0
524.0,515.0
520.0,513.0
517.0,514.0
514.0,511.0
499.0,504.0
501.0,502.0
500.0,505.0
502.0,494.0
501.0,499.0
500.0,495.0
490.0,496.0
494.0,497.0
506.0,496.0
513.0,500.0
512.0,508.0
514.0,503.0
522.0,510.0
524.0,515.0
520.0,511.0
519.0,514.0
507.0,504.0
506.0,502.0
495.0,510.0
497.0,503.0
503.0,494.0
502.0,498.0
488.0,502.0
495.0,487.0
495.0,493.0
506.0,500.0
506.0,498.0
513.0,507.0
510.0,511.0
523.0,516.0
520.0,511.0
518.0,513.0
518.0,509.0
517.0,504.0
510.0,506.0
503.0,507.0
509.0,501.0
499.0,506.0
504.0,501.0
498.0,493.0
501.0,491.0
515.0,492.0
511.0,498.0
520.0,501.0
524.0,506.0
524.0,511.0
526.0,516.0
506.0,511.0
515.0,512.0
510.0,514.0
505.0,509.0
495.0,506.0
495.0,497.0
500.0,498.0
500.0,496.0
498.0,490.0
497.0,495.0
488.0,496.0
499.0,492.0
503.0,500.0
512.0,496.0
520.0,507.0
522.0,505.0
518.0,513.0
519.0,514.0
519.0,510.0
511.0,513.0
508.0,505.0
491.0,509.0
492.0,506.0
494.0,499.0
497.0,489.0
501.0,492.0
488.0,497.0
498.0,493.0
495.0,500.0
507.0,494.0
516.0,507.0
513.0,506.0
517.0,514.0
516.0,509.0
517.0,515.0
515.0,517.0
506.0,510.0
499.0,512.0
502.0,503.0
506.0,503.0
498.0,503.0
496.0,491.0
503.0,491.0
498.0,492.0
497.0,499.0
509.0,493.0
516.0,503.0
516.0,508.0
515.0,512.0
510.0,514.0
517.0,513.0
515.0,517.0
511.0,512.0
508.0,510.0
508.0,500.0
507.0,497.0
499.0,504.0
499.0,500.0
499.0,488.0
496.0,488.0
503.0,491.0
496.0,492.0
502.0,499.0
509.0,497.0
520.0,506.0
532.0,515.0
527.0,519.0
519.0,510.0
518.0,508.0
516.0,510.0
504.0,499.0
506.0,502.0
497.0,504.0
500.0,489.0
497.0,496.0
493.0,500.0
504.0,491.0
509.0,491.0
506.0,495.0
506.0,499.0
518.0,505.0
521.0,512.0
527.0,515.0
525.0,517.0
519.0,517.0
511.0,513.0
509.0,504.0
502.0,506.0
509.0,505.0
502.0,499.0
499.0,498.0
502.0,493.0
498.0,495.0
513.0,492.0
495.0,495.0
512.0,497.0
515.0,501.0
516.0,503.0
519.0,511.0
515.0,514.0
520.0,516.0
507.0,512.0
506.0,511.0
508.0,507.0
494.0,510.0
491.0,499.0
504.0,500.0
499.0,491.0
501.0,497.0
498.0,493.0
491.0,492.0
500.0,495.0
506.0,501.0
507.0,501.0
521.0,511.0
525.0,510.0
523.0,513.0
516.0,516.0
509.0,510.0
508.0,509.0
507.0,503.0
506.0,489.0
507.0,501.0
501.0,499.0
495.0,499.0
490.0,501.0
492.0,476.0
495.0,479.0
508.0,491.0
512.0,500.0
509.0,505.0
521.0,506.0
521.0,513.0
523.0,515.0
512.0,513.0
503.0,510.0
502.0,507.0
504.0,505.0
507.0,503.0
510.0,500.0
515.0,497.0
505.0,499.0
505.0,484.0
498.0,496.0
506.0,489.0
507.0,493.0
515.0,503.0
522.0,508.0
523.0,507.0
526.0,510.0
512.0,512.0
514.0,510.0
497.0,505.0
504.0,510.0
494.0,507.0
500.0,495.0
501.0,497.0
502.0,496.0
493.0,497.0
501.0,492.0
502.0,492.0
501.0,489.0
503.0,497.0
512.0,501.0
520.0,510.0
523.0,517.0
523.0,514.0
512.0,513.0
512.0,509.0
517.0,508.0
511.0,505.0
507.0,505.0
500.0,506.0
507.0,494.0
503.0,495.0
493.0,494.0
496.0,499.0
495.0,496.0
504.0,488.0
514.0,495.0
509.0,500.0
524.0,510.0
524.0,513.0
524.0,514.0
518.0,512.0
512.0,510.0
511.0,506.0
504.0,499.0
503.0,497.0
504.0,490.0
501.0,495.0
502.0,497.0
498.0,492.0
498.0,491.0
495.0,498.0
509.0,498.0
511.0,500.0
525.0,511.0
523.0,505.0
522.0,501.0
517.0,510.0
519.0,511.0
512.0,516.0
507.0,514.0
502.0,504.0
503.0,494.0
510.0,498.0
495.0,505.0
503.0,489.0
500.0,491.0
495.0,489.0
499.0,491.0
509.0,498.0
517.0,504.0
522.0,509.0
528.0,517.0
525.0,514.0
520.0,518.0
515.0,509.0
506.0,509.0
496.0,510.0
510.0,505.0
510.0,499.0
511.0,493.0
509.0,497.0
494.0,498.0
494.0,493.0
489.0,486.0
499.0,499.0
509.0,491.0
513.0,503.0
522.0,509.0
525.0,514.0
519.0,514.0
515.0,510.0
515.0,510.0
512.0,498.0
503.0,507.0
495.0,502.0
504.0,498.0
502.0,499.0
488.0,502.0
494.0,487.0
503.0,491.0
490.0,499.0
504.0,502.0
505.0,495.0
517.0,508.0
522.0,509.0
526.0,518.0
525.0,519.0
514.0,513.0
505.0,508.0
500.0,511.0
497.0,506.0
499.0,501.0
495.0,499.0
487.0,500.0
490.0,497.0
496.0,486.0
504.0,495.0
516.0,495.0
518.0,497.0
526.0,507.0
530.0,514.0
529.0,503.0
529.0,515.0
522.0,514.0
522.0,512.0
517.0,500.0
507.0,512.0
505.0,508.0
507.0,505.0
508.0,503.0
507.0,496.0
494.0,498.0
495.0,490.0
495.0,490.0
500.0,497.0
514.0,495.0
520.0,510.0
524.0,506.0
523.0,514.0
518.0,512.0
516.0,507.0
515.0,504.0
502.0,506.0
506.0,497.0
506.0,498.0
506.0,500.0
501.0,499.0
503.0,498.0
499.0,496.0
491.0,495.0
499.0,489.0
505.0,490.0
507.0,499.0
515.0,502.0
520.0,510.0
526.0,514.0
519.0,508.0
516.0,508.0
510.0,505.0
497.0,511.0
494.0,510.0
493.0,509.0
502.0,490.0
504.0,496.0
493.0,500.0
498.0,492.0
498.0,486.0
509.0,494.0
507.0,494.0
515.0,505.0
523.0,509.0
529.0,513.0
517.0,509.0
519.0,511.0
519.0,516.0
504.0,506.0
503.0,496.0
507.0,502.0
488.0,508.0
502.0,491.0
503.0,499.0
502.0,492.0
497.0,486.0
496.0,489.0
501.0,493.0
503.0,501.0
520.0,507.0
520.0,507.0
521.0,508.0
522.0,510.0
520.0,513.0
515.0,515.0
515.0,507.0
506.0,506.0
505.0,495.0
501.0,505.0
504.0,499.0
497.0,497.0
498.0,479.0
495.0,489.0
494.0,497.0
507.0,497.0
504.0,501.0
516.0,505.0
515.0,503.0
528.0,511.0
523.0,514.0
519.0,514.0
510.0,512.0
510.0,504.0
504.0,504.0
503.0,498.0
494.0,505.0
496.0,497.0
503.0,494.0
496.0,497.0
503.0,492.0
504.0,494.0
506.0,493.0
519.0,504.0
515.0,505.0
526.0,515.0
525.0,515.0
514.0,512.0
512.0,505.0
510.0,501.0
508.0,503.0
506.0,501.0
507.0,495.0
515.0,497.0
505.0,492.0
501.0,493.0
496.0,486.0
483.0,489.0
496.0,496.0
487.0,497.0
502.0,505.0
529.0,511.0
527.0,511.0
522.0,513.0
521.0,510.0
521.0,502.0
515.0,515.0
518.0,504.0
521.0,499.0
507.0,503.0
502.0,489.0
497.0,487.0
489.0,496.0
482.0,494.0
499.0,492.0
500.0,492.0
511.0,503.0
517.0,505.0
518.0,512.0
514.0,508.0
512.0,512.0
516.0,510.0
510.0,504.0
506.0,508.0
501.0,496.0
504.0,503.0
504.0,493.0
501.0,498.0
505.0,495.0
495.0,497.0
498.0,497.0
499.0,499.0
511.0,497.0
520.0,505.0
526.0,511.0
532.0,517.0
525.0,517.0
519.0,511.0
511.0,511.0
503.0,514.0
501.0,506.0
505.0,505.0
505.0,498.0
500.0,497.0
500.0,498.0
496.0,485.0
496.0,499.0
503.0,488.0
507.0,499.0
512.0,501.0
512.0,505.0
515.0,505.0
518.0,512.0
522.0,514.0
517.0,515.0
514.0,511.0
509.0,511.0
495.0,503.0
501.0,496.0
507.0,501.0
492.0,503.0
500.0,491.0
495.0,493.0
501.0,488.0
495.0,496.0
501.0,494.0
515.0,503.0
519.0,511.0
527.0,511.0
528.0,515.0
519.0,513.0
513.0,510.0
507.0,512.0
509.0,505.0
501.0,497.0
506.0,502.0
501.0,501.0
502.0,492.0
496.0,497.0
497.0,488.0
498.0,488.0
505.0,495.0
508.0,501.0
515.0,497.0
523.0,506.0
526.0,514.0
516.0,513.0
515.0,510.0
509.0,506.0
506.0,511.0
503.0,507.0
505.0,492.0
512.0,499.0
504.0,497.0
505.0,496.0
504.0,490.0
497.0,494.0
498.0,499.0
509.0,498.0
504.0,496.0
516.0,505.0
524.0,507.0
517.0,508.0
518.0,511.0
512.0,507.0
512.0,514.0
506.0,505.0
502.0,510.0
503.0,493.0
509.0,499.0
499.0,501.0
503.0,485.0
499.0,493.0
502.0,493.0
507.0,493.0
513.0,500.0
518.0,504.0
516.0,509.0
526.0,514.0
519.0,512.0
515.0,506.0
511.0,505.0
513.0,510.0
507.0,508.0
508.0,503.0
498.0,506.0
506.0,503.0
496.0,499.0
503.0,499.0
490.0,497.0
499.0,494.0
503.0,489.0
508.0,499.0
516.0,502.0
522.0,511.0
530.0,508.0
522.0,514.0
518.0,515.0
518.0,505.0
505.0,506.0
514.0,503.0
505.0,505.0
508.0,498.0
507.0,500.0
500.0,499.0
499.0,488.0
495.0,493.0
494.0,495.0
505.0,496.0
511.0,502.0
512.0,502.0
522.0,513.0
524.0,516.0
518.0,514.0
512.0,513.0
502.0,508.0
504.0,501.0
505.0,507.0
504.0,503.0
502.0,502.0
508.0,498.0
498.0,491.0
503.0,493.0
504.0,497.0
512.0,498.0
517.0,496.0
526.0,510.0
529.0,513.0
533.0,512.0
518.0,514.0
505.0,515.0
506.0,501.0
493.0,512.0
496.0,500.0
503.0,502.0
489.0,506.0
487.0,505.0
496.0,494.0
495.0,495.0
499.0,494.0
498.0,493.0
501.0,501.0
508.0,507.0
514.0,506.0
526.0,511.0
531.0,513.0
529.0,508.0
525.0,514.0
518.0,505.0
513.0,503.0
499.0,509.0
506.0,502.0
511.0,500.0
502.0,497.0
504.0,496.0
492.0,491.0
502.0,491.0
500.0,498.0
500.0,490.0
511.0,501.0
519.0,505.0
526.0,516.0
522.0,515.0
517.0,510.0
510.0,504.0
512.0,511.0
497.0,514.0
496.0,511.0
502.0,501.0
503.0,495.0
509.0,497.0
497.0,500.0
499.0,487.0
501.0,493.0
502.0,497.0
505.0,492.0
516.0,502.0
509.0,505.0
527.0,518.0
527.0,515.0
519.0,514.0
514.0,515.0
513.0,508.0
504.0,509.0
505.0,506.0
508.0,496.0
508.0,491.0
505.0,496.0
489.0,497.0
484.0,496.0
497.0,494.0
500.0,498.0
512.0,502.0
514.0,502.0
514.0,510.0
525.0,516.0
520.0,515.0
511.0,508.0
513.0,507.0
510.0,508.0
504.0,507.0
500.0,504.0
500.0,497.0
509.0,497.0
498.0,499.0
504.0,492.0
498.0,486.0
500.0,496.0
509.0,499.0
505.0,500.0
512.0,503.0
526.0,511.0
526.0,514.0
523.0,514.0
522.0,513.0
515.0,512.0
507.0,496.0
503.0,493.0
508.0,502.0
498.0,503.0
503.0,491.0
504.0,494.0
491.0,496.0
502.0,492.0
507.0,493.0
507.0,494.0
510.0,503.0
511.0,507.0
531.0,513.0
529.0,515.0
523.0,512.0
519.0,507.0
509.0,516.0
503.0,508.0
499.0,504.0
506.0,498.0
509.0,497.0
502.0,502.0
502.0,485.0
494.0,498.0
495.0,495.0
508.0,496.0
514.0,493.0
517.0,506.0
517.0,514.0
522.0,517.0
524.0,518.0
516.0,513.0
518.0,512.0
511.0,507.0
500.0,501.0
504.0,505.0
505.0,500.0
499.0,495.0
501.0,497.0
500.0,492.0
498.0,487.0
502.0,493.0
500.0,490.0
512.0,502.0
514.0,502.0
522.0,513.0
527.0,516.0
523.0,517.0
519.0,507.0
513.0,511.0
510.0,504.0
507.0,508.0
504.0,503.0
507.0,497.0
509.0,495.0
500.0,489.0
503.0,492.0
501.0,489.0
506.0,494.0
502.0,500.0
512.0,502.0
529.0,507.0
534.0,515.0
528.0,514.0
520.0,515.0
509.0,513.0
503.0,507.0
502.0,507.0
505.0,498.0
508.0,501.0
510.0,498.0
502.0,501.0
505.0,494.0
498.0,485.0
497.0,484.0
499.0,491.0
510.0,500.0
512.0,505.0
521.0,505.0
525.0,516.0
524.0,517.0
520.0,513.0
506.0,506.0
508.0,509.0
514.0,504.0
509.0,503.0
499.0,505.0
504.0,503.0
501.0,484.0
496.0,495.0
499.0,495.0
493.0,498.0
505.0,500.0
508.0,503.0
512.0,504.0
525.0,514.0
525.0,516.0
521.0,516.0
516.0,514.0
510.0,510.0
510.0,508.0
507.0,509.0
509.0,502.0
497.0,505.0
499.0,501.0
503.0,497.0
491.0,497.0
496.0,497.0
502.0,496.0
499.0,495.0
510.0,501.0
521.0,506.0
526.0,510.0
519.0,515.0
515.0,513.0
512.0,509.0
513.0,509.0
505.0,506.0
498.0,508.0
504.0,506.0
503.0,497.0
502.0,494.0
495.0,498.0
506.0,491.0
505.0,494.0
507.0,496.0
509.0,502.0
518.0,508.0
519.0,511.0
527.0,517.0
521.0,517.0
512.0,511.0
504.0,509.0
507.0,507.0
498.0,505.0
501.0,495.0
509.0,499.0
501.0,495.0
503.0,496.0
497.0,487.0
497.0,492.0
501.0,495.0
508.0,499.0
511.0,501.0
516.0,509.0
525.0,514.0
525.0,514.0
527.0,516.0
521.0,514.0
512.0,502.0
505.0,504.0
502.0,498.0
505.0,498.0
496.0,504.0
501.0,488.0
504.0,494.0
500.0,495.0
501.0,494.0
504.0,495.0
508.0,493.0
522.0,505.0
525.0,509.0
520.0,509.0
520.0,508.0
516.0,513.0
512.0,516.0
510.0,516.0
509.0,506.0
498.0,508.0
504.0,496.0
506.0,499.0
492.0,504.0
497.0,490.0
490.0,498.0
502.0,495.0
513.0,497.0
511.0,494.0
520.0,511.0
523.0,513.0
529.0,511.0
523.0,514.0
518.0,517.0
515.0,511.0
507.0,511.0
504.0,506.0
503.0,506.0
508.0,496.0
499.0,502.0
501.0,488.0
503.0,493.0
497.0,486.0
497.0,490.0
510.0,499.0
515.0,501.0
520.0,508.0
524.0,507.0
520.0,508.0
522.0,513.0
512.0,506.0
512.0,512.0
513.0,506.0
504.0,499.0
505.0,498.0
508.0,499.0
498.0,496.0
504.0,494.0
496.0,495.0
505.0,487.0
503.0,498.0
511.0,499.0
517.0,504.0
525.0,512.0
522.0,512.0
512.0,511.0
517.0,515.0
514.0,515.0
515.0,507.0
511.0,502.0
515.0,498.0
511.0,507.0
513.0,507.0
513.0,497.0
512.0,496.0
508.0,491.0
507.0,494.0
501.0,498.0
502.0,502.0
514.0,507.0
519.0,504.0
520.0,511.0
522.0,515.0
520.0,514.0
511.0,506.0
500.0,507.0
511.0,505.0
507.0,502.0
507.0,500.0
496.0,501.0
499.0,486.0
505.0,492.0
505.0,491.0
506.0,495.0
506.0,501.0
517.0,508.0
521.0,511.0
525.0,512.0
522.0,512.0
520.0,509.0
516.0,510.0
517.0,510.0
506.0,505.0
508.0,505.0
499.0,506.0
507.0,497.0
505.0,499.0
502.0,495.0
497.0,489.0
497.0,495.0
505.0,483.0
509.0,500.0
517.0,505.0
521.0,512.0
527.0,514.0
524.0,514.0
521.0,513.0
516.0,510.0
509.0,510.0
501.0,512.0
505.0,506.0
511.0,501.0
509.0,498.0
498.0,499.0
500.0,490.0
502.0,492.0
503.0,493.0
502.0,496.0
514.0,502.0
518.0,499.0
521.0,509.0
528.0,514.0
524.0,513.0
520.0,512.0
510.0,513.0
509.0,510.0
505.0,509.0
501.0,497.0
504.0,496.0
506.0,497.0
503.0,494.0
499.0,493.0
505.0,493.0
505.0,493.0
508.0,500.0
504.0,491.0
518.0,502.0
526.0,514.0
518.0,510.0
520.0,512.0
517.0,505.0
514.0,516.0
496.0,504.0
510.0,503.0
513.0,503.0
502.0,505.0
503.0,496.0
503.0,494.0
483.0,493.0
496.0,493.0
502.0,490.0
506.0,504.0
521.0,507.0
524.0,512.0
530.0,514.0
526.0,514.0
520.0,512.0
509.0,506.0
504.0,505.0
502.0,506.0
504.0,491.0
505.0,493.0
508.0,499.0
502.0,501.0
504.0,487.0
499.0,499.0
503.0,487.0
503.0,498.0
511.0,506.0
516.0,506.0
521.0,514.0
519.0,518.0
514.0,513.0
512.0,512.0
514.0,510.0
510.0,505.0
513.0,504.0
499.0,509.0
506.0,495.0
509.0,497.0
504.0,496.0
486.0,491.0
507.0,492.0
510.0,494.0
506.0,500.0
518.0,504.0
526.0,508.0
531.0,515.0
540.0,517.0
535.0,506.0
527.0,509.0
516.0,512.0
490.0,512.0
495.0,509.0
498.0,499.0
508.0,497.0
498.0,492.0
504.0,492.0
496.0,498.0
497.0,494.0
491.0,494.0
514.0,500.0
515.0,498.0
520.0,502.0
523.0,512.0
524.0,516.0
519.0,513.0
518.0,510.0
506.0,502.0
499.0,509.0
505.0,495.0
500.0,504.0
503.0,497.0
504.0,489.0
501.0,493.0
491.0,489.0
500.0,486.0
498.0,498.0
512.0,504.0
521.0,509.0
525.0,510.0
525.0,514.0
521.0,516.0
514.0,504.0
507.0,515.0
507.0,502.0
502.0,504.0
502.0,493.0
496.0,503.0
508.0,497.0
499.0,497.0
496.0,489.0
497.0,487.0
503.0,495.0
500.0,496.0
514.0,499.0
525.0,514.0
528.0,514.0
526.0,516.0
518.0,516.0
509.0,512.0
507.0,505.0
505.0,499.0
507.0,501.0
503.0,507.0
504.0,491.0
506.0,495.0
498.0,494.0
496.0,494.0
499.0,493.0
498.0,501.0
512.0,504.0
514.0,497.0
524.0,509.0
522.0,507.0
521.0,510.0
519.0,506.0
512.0,500.0
511.0,498.0
506.0,508.0
508.0,503.0
496.0,507.0
502.0,496.0
504.0,495.0
499.0,495.0
498.0,493.0
501.0,486.0
501.0,495.0
512.0,501.0
519.0,507.0
518.0,509.0
529.0,517.0
528.0,519.0
522.0,513.0
513.0,512.0
501.0,510.0
499.0,498.0
501.0,504.0
496.0,502.0
502.0,495.0
491.0,499.0
500.0,495.0
497.0,496.0
496.0,500.0
506.0,501.0
512.0,501.0
524.0,508.0
525.0,510.0
525.0,513.0
521.0,516.0
516.0,513.0
511.0,506.0
512.0,505.0
501.0,507.0
506.0,493.0
509.0,497.0
500.0,500.0
502.0,493.0
491.0,493.0
500.0,490.0
508.0,497.0
512.0,498.0
520.0,510.0
519.0,507.0
519.0,514.0
522.0,515.0
511.0,512.0
508.0,514.0
505.0,509.0
494.0,507.0
498.0,498.0
500.0,496.0
498.0,492.0
501.0,494.0
489.0,498.0
506.0,492.0
501.0,486.0
508.0,495.0
513.0,503.0
528.0,510.0
527.0,509.0
527.0,516.0
525.0,513.0
522.0,513.0
519.0,510.0
508.0,509.0
501.0,502.0
508.0,497.0
509.0,500.0
504.0,490.0
502.0,495.0
500.0,486.0
493.0,496.0
505.0,490.0
509.0,491.0
514.0,503.0
511.0,505.0
525.0,516.0
523.0,511.0
519.0,514.0
520.0,511.0
515.0,509.0
509.0,505.0
502.0,510.0
499.0,506.0
498.0,504.0
502.0,489.0
506.0,493.0
491.0,497.0
496.0,497.0
501.0,491.0
504.0,502.0
513.0,494.0
520.0,511.0
518.0,514.0
517.0,510.0
514.0,514.0
514.0,512.0
511.0,504.0
507.0,508.0
499.0,506.0
504.0,493.0
505.0,497.0
505.0,492.0
505.0,493.0
488.0,492.0
505.0,494.0
503.0,492.0
508.0,507.0
518.0,513.0
520.0,511.0
519.0,511.0
518.0,511.0
516.0,512.0
509.0,510.0
510.0,507.0
504.0,504.0
505.0,505.0
506.0,499.0
499.0,497.0
498.0,493.0
496.0,492.0
493.0,487.0
498.0,494.0
505.0,500.0
512.0,505.0
521.0,509.0
525.0,514.0
523.0,514.0
521.0,514.0
517.0,511.0
512.0,500.0
498.0,510.0
504.0,501.0
497.0,505.0
501.0,495.0
503.0,496.0
492.0,495.0
493.0,490.0
496.0,493.0
505.0,497.0
507.0,498.0
520.0,507.0
517.0,508.0
515.0,509.0
518.0,511.0
516.0,512.0
509.0,513.0
501.0,514.0
498.0,510.0
499.0,500.0
502.0,501.0
498.0,501.0
492.0,494.0
498.0,489.0
506.0,494.0
517.0,493.0
514.0,497.0
519.0,504.0
518.0,504.0
515.0,511.0
506.0,514.0
500.0,508.0
508.0,515.0
500.0,503.0
502.0,499.0
494.0,506.0
494.0,504.0
504.0,497.0
502.0,504.0
507.0,492.0
502.0,499.0
510.0,496.0
507.0,499.0
504.0,493.0
506.0,506.0
518.0,515.0
524.0,511.0
524.0,511.0
522.0,513.0
516.0,510.0
504.0,505.0
497.0,504.0
497.0,497.0
495.0,499.0
497.0,498.0
495.0,497.0
491.0,497.0
492.0,491.0
493.0,488.0
497.0,493.0
507.0,502.0
511.0,506.0
512.0,512.0
517.0,512.0
513.0,510.0
515.0,511.0
506.0,504.0
503.0,508.0
492.0,509.0
495.0,509.0
491.0,506.0
501.0,501.0
493.0,493.0
500.0,494.0
496.0,498.0
501.0,492.0
506.0,496.0
512.0,502.0
513.0,508.0
519.0,508.0
525.0,516.0
525.0,515.0
517.0,513.0
514.0,511.0
498.0,502.0
497.0,501.0
498.0,494.0
501.0,501.0
507.0,497.0
499.0,495.0
495.0,495.0
496.0,489.0
504.0,498.0
508.0,496.0
520.0,503.0
522.0,512.0
526.0,513.0
519.0,503.0
513.0,506.0
520.0,512.0
508.0,513.0
503.0,505.0
504.0,496.0
508.0,499.0
506.0,499.0
500.0,502.0
499.0,492.0
496.0,495.0
508.0,494.0
509.0,499.0
511.0,506.0
515.0,501.0
521.0,513.0
517.0,508.0
508.0,515.0
503.0,506.0
506.0,512.0
493.0,510.0
500.0,502.0
500.0,493.0
502.0,494.0
509.0,491.0
512.0,493.0
513.0,491.0
503.0,495.0
509.0,496.0
505.0,499.0
500.0,503.0
514.0,508.0
517.0,513.0
525.0,518.0
526.0,514.0
519.0,511.0
511.0,504.0
504.0,507.0
500.0,498.0
499.0,493.0
500.0,498.0
502.0,496.0
498.0,494.0
483.0,494.0
503.0,493.0
502.0,494.0
507.0,497.0
511.0,501.0
518.0,510.0
525.0,514.0
516.0,510.0
520.0,516.0
518.0,510.0
512.0,501.0
508.0,500.0
509.0,500.0
514.0,498.0
510.0,496.0
497.0,499.0
500.0,491.0
502.0,497.0
488.0,501.0
501.0,499.0
506.0,506.0
520.0,509.0
523.0,508.0
524.0,509.0
521.0,508.0
509.0,515.0
500.0,509.0
505.0,507.0
505.0,506.0
509.0,501.0
498.0,499.0
509.0,496.0
498.0,497.0
499.0,486.0
502.0,494.0
506.0,493.0
500.0,499.0
518.0,502.0
521.0,506.0
519.0,505.0
517.0,506.0
518.0,510.0
517.0,508.0
509.0,499.0
497.0,506.0
503.0,491.0
503.0,496.0
497.0,504.0
500.0,492.0
500.0,501.0
499.0,494.0
496.0,498.0
508.0,496.0
515.0,500.0
511.0,505.0
522.0,506.0
521.0,513.0
525.0,520.0
523.0,520.0
512.0,512.0
511.0,516.0
497.0,517.0
495.0,503.0
490.0,493.0
488.0,498.0
499.0,492.0
505.0,499.0
499.0,494.0
504.0,482.0
508.0,484.0
515.0,499.0
523.0,502.0
529.0,516.0
528.0,511.0
527.0,510.0
517.0,511.0
507.0,513.0
500.0,512.0
504.0,499.0
504.0,492.0
506.0,499.0
506.0,490.0
506.0,494.0
495.0,492.0
501.0,484.0
494.0,500.0
507.0,500.0
517.0,497.0
519.0,510.0
521.0,506.0
526.0,515.0
518.0,512.0
508.0,511.0
504.0,506.0
501.0,498.0
504.0,503.0
503.0,501.0
505.0,495.0
493.0,504.0
501.0,487.0
505.0,490.0
505.0,487.0
508.0,494.0
504.0,503.0
516.0,501.0
524.0,511.0
523.0,508.0
520.0,508.0
511.0,507.0
519.0,514.0
503.0,511.0
509.0,509.0
510.0,503.0
509.0,498.0
507.0,498.0
504.0,495.0
495.0,497.0
499.0,481.0
500.0,490.0
506.0,493.0
516.0,504.0
508.0,508.0
527.0,513.0
523.0,513.0
512.0,509.0
513.0,513.0
506.0,515.0
508.0,507.0
508.0,501.0
502.0,500.0
502.0,504.0
502.0,494.0
491.0,494.0
500.0,494.0
496.0,498.0
502.0,491.0
510.0,500.0
515.0,505.0
523.0,510.0
519.0,505.0
524.0,513.0
521.0,510.0
523.0,517.0
515.0,509.0
512.0,508.0
498.0,510.0
502.0,504.0
495.0,501.0
500.0,496.0
503.0,494.0
500.0,491.0
494.0,496.0
506.0,490.0
506.0,504.0
518.0,505.0
520.0,509.0
529.0,516.0
525.0,515.0
519.0,511.0
511.0,513.0
506.0,510.0
499.0,508.0
505.0,502.0
501.0,499.0
502.0,498.0
499.0,495.0
495.0,486.0
494.0,495.0
502.0,493.0
518.0,493.0
524.0,499.0
531.0,497.0
537.0,507.0
537.0,506.0
541.0,514.0
516.0,514.0
503.0,518.0
495.0,502.0
495.0,507.0
503.0,502.0
503.0,499.0
502.0,499.0
492.0,501.0
506.0,491.0
505.0,495.0
510.0,501.0
513.0,502.0
517.0,508.0
518.0,509.0
532.0,510.0
535.0,512.0
514.0,506.0
519.0,513.0
507.0,507.0
500.0,505.0
497.0,492.0
494.0,503.0
490.0,504.0
497.0,497.0
498.0,495.0
496.0,494.0
502.0,493.0
505.0,496.0
507.0,500.0
516.0,507.0
520.0,513.0
523.0,516.0
515.0,509.0
511.0,503.0
507.0,507.0
505.0,508.0
504.0,504.0
504.0,502.0
499.0,505.0
508.0,493.0
500.0,486.0
500.0,491.0
488.0,496.0
500.0,486.0
511.0,497.0
518.0,502.0
514.0,500.0
527.0,514.0
521.0,509.0
518.0,513.0
515.0,514.0
514.0,506.0
506.0,497.0
504.0,495.0
507.0,501.0
509.0,500.0
500.0,502.0
498.0,490.0
503.0,494.0
499.0,493.0
503.0,496.0
508.0,499.0
508.0,499.0
522.0,509.0
517.0,514.0
519.0,510.0
517.0,510.0
509.0,512.0
505.0,514.0
509.0,506.0
498.0,508.0
499.0,508.0
501.0,502.0
496.0,495.0
496.0,488.0
500.0,494.0
507.0,494.0
505.0,496.0
501.0,499.0
516.0,510.0
520.0,506.0
523.0,517.0
526.0,516.0
522.0,516.0
515.0,514.0
519.0,508.0
503.0,497.0
507.0,499.0
502.0,500.0
496.0,497.0
494.0,502.0
497.0,497.0
501.0,494.0
493.0,498.0
509.0,495.0
521.0,496.0
520.0,507.0
522.0,505.0
521.0,513.0
517.0,513.0
510.0,507.0
503.0,504.0
504.0,503.0
504.0,496.0
512.0,503.0
510.0,501.0
505.0,498.0
502.0,483.0
504.0,494.0
502.0,485.0
507.0,496.0
505.0,496.0
510.0,502.0
517.0,506.0
522.0,509.0
530.0,520.0
529.0,514.0
529.0,512.0
516.0,508.0
518.0,499.0
510.0,497.0
507.0,494.0
509.0,495.0
504.0,498.0
496.0,502.0
486.0,495.0
487.0,496.0
497.0,499.0
511.0,498.0
507.0,509.0
519.0,515.0
516.0,515.0
515.0,515.0
515.0,516.0
512.0,512.0
509.0,512.0
526.0,504.0
525.0,501.0
517.0,499.0
497.0,501.0
513.0,496.0
498.0,490.0
493.0,493.0
492.0,493.0
500.0,491.0
509.0,504.0
513.0,506.0
518.0,509.0
515.0,506.0
517.0,506.0
513.0,505.0
513.0,519.0
506.0,511.0
502.0,507.0
508.0,501.0
507.0,502.0
506.0,496.0
496.0,498.0
501.0,492.0
502.0,494.0
511.0,490.0
519.0,501.0
523.0,508.0
528.0,504.0
530.0,520.0
522.0,518.0
514.0,509.0
507.0,517.0
501.0,518.0
506.0,511.0
509.0,505.0
501.0,505.0
496.0,495.0
498.0,488.0
501.0,492.0
498.0,494.0
492.0,494.0
510.0,492.0
517.0,501.0
519.0,505.0
525.0,511.0
518.0,515.0
517.0,516.0
515.0,515.0
509.0,507.0
509.0,509.0
506.0,506.0
512.0,506.0
512.0,494.0
514.0,498.0
506.0,496.0
503.0,492.0
493.0,489.0
490.0,496.0
502.0,497.0
508.0,503.0
523.0,509.0
523.0,500.0
524.0,509.0
522.0,510.0
522.0,515.0
519.0,511.0
512.0,506.0
506.0,506.0
510.0,501.0
504.0,493.0
504.0,497.0
503.0,497.0
503.0,492.0
502.0,497.0
502.0,493.0
507.0,502.0
513.0,501.0
525.0,510.0
523.0,514.0
526.0,516.0
525.0,516.0
515.0,515.0
508.0,512.0
509.0,505.0
505.0,501.0
506.0,501.0
502.0,489.0
491.0,497.0
498.0,489.0
499.0,485.0
507.0,480.0
512.0,494.0
519.0,497.0
524.0,504.0
528.0,516.0
523.0,524.0
520.0,511.0
511.0,514.0
503.0,510.0
498.0,507.0
503.0,505.0
503.0,504.0
493.0,506.0
496.0,493.0
493.0,495.0
495.0,493.0
493.0,492.0
498.0,491.0
504.0,497.0
511.0,500.0
534.0,517.0
538.0,510.0
537.0,523.0
526.0,522.0
521.0,516.0
504.0,508.0
498.0,507.0
500.0,499.0
496.0,500.0
511.0,493.0
505.0,499.0
510.0,491.0
511.0,494.0
505.0,506.0
524.0,504.0
522.0,504.0
517.0,509.0
511.0,501.0
496.0,499.0
504.0,517.0
515.0,529.0
515.0,522.0
515.0,522.0
502.0,522.0
507.0,486.0
523.0,478.0
511.0,477.0
509.0,487.0
495.0,486.0
492.0,487.0
506.0,487.0
508.0,486.0
513.0,495.0
525.0,502.0
526.0,507.0
532.0,513.0
543.0,514.0
537.0,520.0
527.0,515.0
507.0,518.0
506.0,496.0
488.0,506.0
485.0,506.0
495.0,491.0
505.0,492.0
501.0,486.0
501.0,484.0
507.0,493.0
516.0,500.0
520.0,501.0
528.0,507.0
526.0,508.0
528.0,511.0
514.0,512.0
510.0,510.0
509.0,509.0
506.0,510.0
508.0,503.0
500.0,505.0
505.0,507.0
498.0,499.0
501.0,491.0
503.0,491.0
495.0,493.0
502.0,496.0
510.0,504.0
516.0,504.0
524.0,514.0
524.0,519.0
521.0,515.0
519.0,506.0
519.0,506.0
517.0,507.0
507.0,510.0
508.0,497.0
506.0,504.0
504.0,492.0
501.0,497.0
500.0,491.0
503.0,490.0
503.0,494.0
509.0,493.0
511.0,494.0
521.0,508.0
520.0,506.0
523.0,511.0
525.0,511.0
528.0,514.0
525.0,509.0
520.0,501.0
528.0,504.0
496.0,511.0
496.0,496.0
496.0,498.0
488.0,487.0
485.0,498.0
494.0,500.0
502.0,504.0
521.0,510.0
525.0,511.0
537.0,506.0
535.0,505.0
533.0,511.0
509.0,502.0
502.0,515.0
480.0,513.0
488.0,511.0
488.0,510.0
500.0,492.0
500.0,487.0
500.0,489.0
497.0,496.0
509.0,493.0
504.0,496.0
525.0,494.0
536.0,497.0
549.0,502.0
561.0,513.0
558.0,516.0
490.0,515.0
490.0,511.0
504.0,510.0
513.0,505.0
518.0,501.0
510.0,502.0
509.0,506.0
508.0,496.0
504.0,500.0
479.0,487.0
485.0,494.0
509.0,492.0
510.0,500.0
515.0,503.0
519.0,520.0
515.0,516.0
518.0,522.0
518.0,499.0
514.0,511.0
518.0,512.0
505.0,509.0
491.0,501.0
507.0,506.0
526.0,505.0
533.0,492.0
528.0,482.0
532.0,480.0
486.0,480.0
456.0,488.0
494.0,495.0
513.0,507.0
508.0,508.0
514.0,515.0
518.0,505.0
524.0,501.0
515.0,507.0
509.0,502.0
485.0,506.0
475.0,507.0
496.0,506.0
493.0,504.0
499.0,489.0
490.0,477.0
482.0,478.0
483.0,482.0
492.0,499.0
502.0,510.0
513.0,507.0
528.0,516.0
540.0,526.0
543.0,511.0
525.0,503.0
519.0,508.0
508.0,509.0
507.0,496.0
500.0,507.0
507.0,502.0
490.0,504.0
503.0,506.0
513.0,486.0
506.0,485.0
516.0,484.0
517.0,492.0
520.0,493.0
520.0,506.0
517.0,515.0
517.0,521.0
525.0,519.0
513.0,508.0
507.0,509.0
509.0,498.0
509.0,505.0
502.0,497.0
492.0,496.0
510.0,495.0
496.0,488.0
502.0,493.0
510.0,496.0
497.0,491.0
506.0,501.0
511.0,508.0
508.0,513.0
515.0,511.0
518.0,515.0
525.0,512.0
520.0,510.0
511.0,507.0
495.0,505.0
503.0,504.0
499.0,500.0
502.0,502.0
503.0,496.0
502.0,483.0
507.0,487.0
515.0,486.0
519.0,492.0
523.0,499.0
514.0,503.0
519.0,516.0
531.0,522.0
521.0,515.0
540.0,510.0
546.0,510.0
534.0,504.0
511.0,507.0
479.0,497.0
488.0,506.0
495.0,505.0
496.0,512.0
499.0,489.0
497.0,469.0
520.0,483.0
541.0,501.0
546.0,505.0
555.0,506.0
535.0,510.0
544.0,519.0
537.0,521.0
512.0,511.0
482.0,511.0
480.0,500.0
466.0,500.0
443.0,499.0
439.0,491.0
460.0,485.0
487.0,489.0
492.0,496.0
544.0,501.0
542.0,516.0
550.0,502.0
539.0,504.0
537.0,506.0
542.0,510.0
528.0,506.0
464.0,491.0
477.0,508.0
506.0,526.0
517.0,528.0
523.0,508.0
509.0,499.0
512.0,476.0
510.0,469.0
513.0,471.0
507.0,480.0
510.0,490.0
518.0,515.0
510.0,499.0
505.0,499.0
517.0,513.0
538.0,513.0
534.0,515.0
530.0,509.0
514.0,506.0
510.0,500.0
504.0,506.0
500.0,501.0
498.0,496.0
502.0,498.0
505.0,500.0
499.0,494.0
494.0,496.0
508.0,495.0
503.0,489.0
504.0,492.0
500.0,502.0
503.0,510.0
508.0,503.0
502.0,493.0
507.0,509.0
524.0,516.0
528.0,515.0
519.0,504.0
513.0,492.0
517.0,500.0
507.0,507.0
499.0,515.0
502.0,508.0
507.0,500.0
506.0,497.0
522.0,502.0
530.0,512.0
536.0,512.0
530.0,519.0
524.0,519.0
513.0,513.0
500.0,500.0
507.0,503.0
506.0,496.0
502.0,496.0
498.0,504.0
510.0,490.0
517.0,499.0
512.0,494.0
533.0,493.0
527.0,492.0
508.0,499.0
506.0,503.0
451.0,515.0
461.0,531.0
518.0,523.0
517.0,518.0
526.0,494.0
547.0,484.0
575.0,508.0
571.0,506.0
529.0,506.0
474.0,499.0
480.0,489.0
467.0,501.0
484.0,496.0
488.0,501.0
492.0,473.0
491.0,486.0
502.0,487.0
528.0,487.0
529.0,525.0
511.0,518.0
510.0,509.0
507.0,524.0
517.0,512.0
533.0,502.0
530.0,501.0
527.0,514.0
514.0,509.0
496.0,503.0
498.0,498.0
517.0,494.0
514.0,504.0
526.0,509.0
535.0,495.0
544.0,483.0
510.0,491.0
504.0,500.0
529.0,517.0
500.0,515.0
512.0,509.0
523.0,515.0
534.0,518.0
521.0,520.0
539.0,497.0
545.0,488.0
510.0,472.0
491.0,490.0
473.0,485.0
463.0,482.0
498.0,509.0
523.0,527.0
528.0,518.0
532.0,503.0
520.0,491.0
479.0,520.0
507.0,513.0
526.0,520.0
520.0,512.0
512.0,499.0
498.0,503.0
490.0,497.0
481.0,486.0
474.0,490.0
496.0,482.0
502.0,488.0
508.0,495.0
518.0,502.0
516.0,492.0
499.0,489.0
497.0,486.0
509.0,532.0
533.0,526.0
537.0,515.0
521.0,525.0
526.0,508.0
538.0,501.0
549.0,506.0
547.0,517.0
505.0,521.0
489.0,514.0
470.0,499.0
508.0,497.0
502.0,510.0
511.0,524.0
493.0,515.0
464.0,499.0
475.0,502.0
480.0,508.0
494.0,494.0
499.0,514.0
511.0,516.0
563.0,509.0
567.0,485.0
576.0,488.0
539.0,492.0
489.0,487.0
476.0,490.0
455.0,498.0
481.0,499.0
503.0,509.0
501.0,485.0
517.0,478.0
513.0,487.0
509.0,504.0
517.0,506.0
514.0,509.0
483.0,511.0
533.0,510.0
547.0,507.0
563.0,506.0
567.0,507.0
554.0,518.0
508.0,497.0
477.0,492.0
495.0,476.0
524.0,533.0
510.0,530.0
549.0,513.0
506.0,483.0
459.0,492.0
448.0,509.0
473.0,501.0
524.0,507.0
528.0,512.0
492.0,513.0
517.0,507.0
523.0,496.0
506.0,502.0
504.0,496.0
515.0,517.0
553.0,549.0
547.0,538.0
533.0,491.0
477.0,454.0
498.0,468.0
508.0,479.0
498.0,500.0
503.0,521.0
520.0,512.0
525.0,507.0
558.0,500.0
535.0,521.0
512.0,529.0
535.0,521.0
498.0,515.0
470.0,479.0
500.0,460.0
511.0,504.0
510.0,524.0
511.0,496.0
482.0,441.0
475.0,482.0
472.0,529.0
490.0,524.0
508.0,516.0
543.0,561.0
537.0,580.0
515.0,522.0
476.0,493.0
503.0,481.0
511.0,474.0
490.0,494.0
497.0,500.0
518.0,480.0
585.0,465.0
548.0,477.0
453.0,508.0
443.0,491.0
491.0,502.0
551.0,503.0
547.0,512.0
532.0,533.0
499.0,505.0
452.0,480.0
442.0,518.0
512.0,580.0
483.0,540.0
514.0,482.0
538.0,426.0
496.0,490.0
499.0,507.0
534.0,497.0
523.0,507.0
543.0,476.0
527.0,470.0
472.0,503.0
488.0,514.0
494.0,498.0
488.0,496.0
526.0,495.0
531.0,502.0
561.0,498.0
554.0,507.0
502.0,507.0
477.0,510.0
459.0,495.0
566.0,489.0
633.0,515.0
644.0,521.0
600.0,496.0
492.0,499.0
390.0,544.0
343.0,574.0
308.0,516.0
397.0,461.0
498.0,452.0
588.0,472.0
612.0,517.0
551.0,515.0
451.0,553.0
457.0,538.0
495.0,516.0
557.0,497.0
606.0,513.0
677.0,534.0
667.0,510.0
578.0,502.0
520.0,445.0
447.0,454.0
440.0,519.0
389.0,507.0
353.0,509.0
475.0,519.0
564.0,473.0
651.0,503.0
612.0,543.0
515.0,543.0
477.0,530.0
465.0,456.0
401.0,461.0
311.0,478.0
430.0,463.0
529.0,446.0
563.0,476.0
563.0,503.0
546.0,514.0
559.0,521.0
507.0,514.0
478.0,510.0
492.0,511.0
489.0,501.0
473.0,514.0
448.0,522.0
486.0,535.0
518.0,535.0
468.0,516.0
455.0,526.0
496.0,481.0
529.0,478.0
548.0,491.0
558.0,536.0
523.0,526.0
564.0,511.0
566.0,578.0
548.0,582.0
517.0,492.0
487.0,441.0
469.0,472.0
475.0,456.0
492.0,473.0
490.0,491.0
455.0,490.0
474.0,507.0
510.0,492.0
507.0,489.0
499.0,484.0
540.0,504.0
529.0,519.0
494.0,502.0
452.0,512.0
497.0,517.0
515.0,502.0
537.0,483.0
533.0,488.0
506.0,498.0
507.0,524.0
497.0,523.0
487.0,488.0
473.0,463.0
449.0,494.0
425.0,526.0
474.0,534.0
496.0,514.0
559.0,465.0
567.0,497.0
551.0,519.0
531.0,559.0
516.0,562.0
526.0,622.0
563.0,640.0
487.0,452.0
588.0,385.0
653.0,419.0
636.0,467.0
630.0,490.0
554.0,492.0
444.0,500.0
395.0,509.0
452.0,490.0
427.0,493.0
455.0,527.0
505.0,505.0
525.0,479.0
509.0,494.0
487.0,514.0
457.0,507.0
382.0,478.0
448.0,492.0
508.0,512.0
485.0,501.0
476.0,504.0
521.0,523.0
526.0,503.0
534.0,493.0
538.0,499.0
573.0,515.0
585.0,530.0
558.0,531.0
537.0,498.0
502.0,514.0
497.0,553.0
538.0,504.0
556.0,449.0
549.0,472.0
540.0,484.0
507.0,489.0
457.0,499.0
407.0,494.0
389.0,489.0
464.0,521.0
548.0,542.0
580.0,527.0
559.0,454.0
446.0,436.0
447.0,497.0
452.0,534.0
508.0,547.0
526.0,501.0
517.0,476.0
545.0,509.0
504.0,533.0
488.0,557.0
473.0,535.0
470.0,460.0
471.0,449.0
466.0,503.0
543.0,505.0
593.0,510.0
562.0,505.0
544.0,525.0
526.0,513.0
451.0,462.0
474.0,496.0
520.0,514.0
525.0,521.0
596.0,523.0
605.0,530.0
574.0,503.0
440.0,519.0
421.0,493.0
397.0,477.0
434.0,478.0
497.0,495.0
496.0,500.0
504.0,516.0
527.0,508.0
539.0,527.0
548.0,514.0
544.0,478.0
522.0,481.0
500.0,497.0
452.0,501.0
478.0,530.0
498.0,526.0
510.0,485.0
494.0,488.0
502.0,505.0
514.0,531.0
507.0,539.0
527.0,495.0
530.0,457.0
513.0,476.0
486.0,496.0
507.0,487.0
530.0,513.0
544.0,509.0
551.0,488.0
569.0,499.0
458.0,519.0
480.0,497.0
534.0,505.0
546.0,503.0
541.0,502.0
546.0,507.0
539.0,514.0
487.0,511.0
485.0,489.0
501.0,503.0
562.0,507.0
531.0,512.0
510.0,524.0
465.0,535.0
514.0,506.0
553.0,459.0
585.0,479.0
608.0,530.0
567.0,539.0
435.0,515.0
364.0,486.0
384.0,497.0
444.0,488.0
468.0,470.0
528.0,487.0
533.0,509.0
527.0,536.0
452.0,498.0
411.0,471.0
477.0,433.0
556.0,476.0
582.0,507.0
622.0,513.0
631.0,516.0
543.0,521.0
420.0,507.0
467.0,523.0
489.0,542.0
490.0,520.0
482.0,478.0
511.0,480.0
508.0,485.0
494.0,507.0
470.0,477.0
454.0,468.0
500.0,484.0
506.0,500.0
506.0,509.0
517.0,514.0
521.0,510.0
512.0,512.0
514.0,508.0
535.0,518.0
536.0,537.0
524.0,571.0
515.0,527.0
530.0,455.0
532.0,478.0
494.0,491.0
465.0,479.0
492.0,488.0
464.0,493.0
452.0,485.0
448.0,495.0
488.0,513.0
515.0,514.0
541.0,504.0
539.0,518.0
517.0,524.0
525.0,517.0
532.0,528.0
518.0,535.0
505.0,526.0
496.0,476.0
485.0,477.0
498.0,450.0
496.0,469.0
490.0,479.0
507.0,511.0
538.0,524.0
566.0,502.0
567.0,477.0
531.0,506.0
474.0,515.0
431.0,518.0
500.0,513.0
518.0,513.0
562.0,506.0
548.0,481.0
436.0,495.0
438.0,510.0
462.0,507.0
443.0,483.0
503.0,495.0
542.0,506.0
557.0,466.0
544.0,491.0
574.0,538.0
565.0,552.0
571.0,521.0
614.0,468.0
565.0,499.0
564.0,524.0
512.0,523.0
471.0,511.0
487.0,491.0
534.0,474.0
595.0,482.0
537.0,516.0
486.0,515.0
476.0,462.0
440.0,471.0
380.0,499.0
416.0,489.0
442.0,492.0
478.0,507.0
489.0,505.0
483.0,508.0
490.0,500.0
472.0,504.0
491.0,505.0
494.0,508.0
491.0,500.0
510.0,498.0
528.0,505.0
546.0,501.0
587.0,473.0
621.0,478.0
631.0,503.0
615.0,514.0
529.0,506.0
475.0,512.0
421.0,550.0
480.0,498.0
490.0,476.0
522.0,492.0
534.0,500.0
531.0,523.0
522.0,530.0
538.0,526.0
519.0,563.0
458.0,546.0
410.0,515.0
461.0,448.0
498.0,411.0
499.0,490.0
534.0,490.0
526.0,494.0
544.0,508.0
544.0,526.0
523.0,492.0
503.0,488.0
454.0,508.0
483.0,483.0
499.0,488.0
515.0,504.0
499.0,518.0
469.0,511.0
471.0,484.0
492.0,489.0
486.0,509.0
498.0,515.0
494.0,507.0
504.0,499.0
542.0,515.0
547.0,520.0
567.0,527.0
564.0,504.0
525.0,510.0
466.0,536.0
462.0,520.0
454.0,492.0
457.0,508.0
495.0,543.0
539.0,521.0
544.0,436.0
576.0,485.0
538.0,464.0
490.0,467.0
441.0,494.0
455.0,523.0
451.0,557.0
484.0,532.0
571.0,510.0
598.0,490.0
500.0,490.0
530.0,508.0
566.0,494.0
616.0,495.0
629.0,497.0
486.0,494.0
401.0,488.0
394.0,491.0
351.0,494.0
430.0,502.0
476.0,499.0
555.0,502.0
588.0,500.0
628.0,514.0
606.0,529.0
580.0,549.0
603.0,537.0
540.0,512.0
558.0,481.0
507.0,482.0
503.0,482.0
464.0,484.0
476.0,490.0
558.0,487.0
487.0,493.0
481.0,509.0
499.0,504.0
496.0,498.0
505.0,505.0
521.0,526.0
519.0,532.0
520.0,527.0
520.0,504.0
535.0,516.0
525.0,495.0
509.0,486.0
474.0,490.0
438.0,487.0
513.0,484.0
523.0,497.0
529.0,495.0
551.0,495.0
563.0,505.0
556.0,517.0
505.0,529.0
457.0,506.0
519.0,514.0
538.0,503.0
538.0,494.0
529.0,540.0
481.0,494.0
438.0,498.0
474.0,510.0
476.0,531.0
501.0,520.0
519.0,493.0
483.0,447.0
484.0,501.0
483.0,500.0
490.0,468.0
487.0,489.0
491.0,534.0
496.0,515.0
489.0,492.0
525.0,500.0
570.0,506.0
552.0,479.0
560.0,499.0
530.0,516.0
514.0,502.0
502.0,480.0
494.0,480.0
464.0,495.0
455.0,480.0
478.0,475.0
496.0,481.0
501.0,493.0
526.0,512.0
557.0,519.0
595.0,554.0
540.0,572.0
470.0,505.0
488.0,455.0
473.0,477.0
483.0,499.0
552.0,482.0
501.0,496.0
503.0,502.0
496.0,495.0
521.0,493.0
568.0,499.0
496.0,514.0
433.0,498.0
457.0,502.0
560.0,528.0
631.0,524.0
635.0,498.0
584.0,489.0
459.0,492.0
501.0,505.0
480.0,520.0
453.0,521.0
474.0,503.0
479.0,482.0
497.0,477.0
518.0,496.0
478.0,513.0
433.0,510.0
425.0,477.0
459.0,486.0
511.0,496.0
565.0,517.0
652.0,522.0
651.0,528.0
584.0,529.0
525.0,517.0
488.0,505.0
534.0,487.0
519.0,501.0
539.0,507.0
510.0,539.0
464.0,543.0
455.0,527.0
528.0,447.0
550.0,461.0
518.0,482.0
501.0,489.0
479.0,516.0
421.0,494.0
441.0,464.0
455.0,511.0
461.0,524.0
521.0,516.0
556.0,515.0
544.0,512.0
519.0,512.0
540.0,492.0
530.0,497.0
511.0,496.0
532.0,497.0
510.0,495.0
487.0,530.0
494.0,534.0
499.0,478.0
511.0,443.0
542.0,511.0
564.0,494.0
584.0,490.0
589.0,515.0
585.0,510.0
522.0,494.0
413.0,492.0
453.0,535.0
488.0,538.0
452.0,510.0
467.0,491.0
477.0,512.0
476.0,456.0
487.0,472.0
497.0,483.0
512.0,495.0
528.0,508.0
542.0,517.0
519.0,501.0
508.0,502.0
494.0,512.0
464.0,518.0
470.0,512.0
455.0,510.0
494.0,503.0
507.0,494.0
532.0,483.0
486.0,499.0
465.0,495.0
476.0,490.0
523.0,494.0
553.0,494.0
569.0,500.0
535.0,502.0
518.0,510.0
478.0,509.0
479.0,514.0
531.0,524.0
536.0,524.0
537.0,543.0
588.0,518.0
576.0,515.0
540.0,502.0
541.0,488.0
501.0,458.0
446.0,494.0
468.0,498.0
420.0,486.0
454.0,494.0
507.0,503.0
466.0,509.0
479.0,522.0
483.0,530.0
497.0,500.0
503.0,485.0
528.0,490.0
534.0,506.0
560.0,501.0
557.0,508.0
542.0,528.0
569.0,505.0
561.0,493.0
528.0,492.0
490.0,496.0
484.0,520.0
508.0,512.0
550.0,481.0
553.0,493.0
545.0,503.0
533.0,502.0
527.0,527.0
501.0,531.0
527.0,510.0
488.0,461.0
484.0,487.0
458.0,494.0
447.0,508.0
494.0,501.0
523.0,487.0
517.0,489.0
486.0,503.0
496.0,502.0
518.0,539.0
517.0,529.0
536.0,486.0
534.0,479.0
519.0,508.0
514.0,499.0
525.0,495.0
508.0,501.0
505.0,516.0
503.0,518.0
511.0,507.0
528.0,496.0
490.0,488.0
481.0,485.0
491.0,480.0
525.0,495.0
521.0,505.0
484.0,516.0
472.0,517.0
496.0,529.0
515.0,519.0
511.0,498.0
499.0,487.0
490.0,511.0
487.0,502.0
494.0,495.0
477.0,483.0
482.0,499.0
505.0,493.0
481.0,492.0
532.0,490.0
573.0,511.0
535.0,531.0
592.0,524.0
606.0,497.0
537.0,486.0
518.0,491.0
501.0,496.0
479.0,505.0
482.0,503.0
494.0,496.0
490.0,499.0
481.0,509.0
491.0,506.0
494.0,507.0
486.0,508.0
516.0,514.0
533.0,482.0
517.0,456.0
501.0,506.0
535.0,523.0
534.0,534.0
519.0,518.0
493.0,495.0
508.0,509.0
477.0,516.0
504.0,503.0
520.0,492.0
562.0,508.0
611.0,483.0
596.0,484.0
582.0,491.0
587.0,476.0
543.0,487.0
417.0,498.0
493.0,505.0
527.0,502.0
467.0,503.0
432.0,521.0
447.0,528.0
453.0,501.0
503.0,479.0
521.0,511.0
517.0,517.0
517.0,517.0
515.0,514.0
500.0,486.0
519.0,489.0
520.0,497.0
529.0,498.0
514.0,504.0
512.0,515.0
570.0,506.0
577.0,494.0
561.0,492.0
544.0,505.0
460.0,509.0
447.0,531.0
533.0,535.0
534.0,520.0
538.0,509.0
512.0,484.0
476.0,512.0
489.0,535.0
470.0,547.0
431.0,475.0
452.0,409.0
501.0,449.0
518.0,495.0
487.0,500.0
502.0,508.0
506.0,514.0
514.0,515.0
514.0,523.0
510.0,513.0
512.0,506.0
534.0,508.0
524.0,498.0
522.0,520.0
520.0,530.0
519.0,499.0
471.0,468.0
485.0,487.0
495.0,486.0
490.0,494.0
516.0,499.0
497.0,506.0
500.0,520.0
515.0,529.0
513.0,519.0
523.0,500.0
492.0,497.0
457.0,508.0
458.0,504.0
433.0,513.0
494.0,502.0
524.0,487.0
553.0,490.0
526.0,496.0
518.0,491.0
532.0,486.0
521.0,498.0
567.0,515.0
587.0,509.0
584.0,507.0
604.0,515.0
529.0,519.0
480.0,491.0
504.0,499.0
530.0,516.0
537.0,505.0
516.0,491.0
480.0,488.0
426.0,484.0
417.0,508.0
443.0,528.0
427.0,514.0
463.0,491.0
534.0,500.0
556.0,493.0
541.0,480.0
537.0,490.0
542.0,506.0
548.0,529.0
549.0,522.0
482.0,515.0
467.0,506.0
450.0,510.0
481.0,503.0
529.0,516.0
558.0,511.0
524.0,477.0
545.0,482.0
544.0,489.0
571.0,500.0
580.0,493.0
555.0,504.0
476.0,514.0
498.0,512.0
491.0,516.0
472.0,512.0
498.0,522.0
462.0,512.0
468.0,494.0
527.0,514.0
512.0,501.0
501.0,476.0
505.0,484.0
501.0,495.0
474.0,488.0
442.0,500.0
477.0,508.0
519.0,517.0
519.0,528.0
519.0,519.0
526.0,515.0
506.0,504.0
501.0,530.0
512.0,542.0
493.0,498.0
494.0,469.0
498.0,485.0
501.0,498.0
504.0,500.0
510.0,499.0
496.0,495.0
492.0,480.0
489.0,477.0
498.0,478.0
500.0,488.0
491.0,505.0
497.0,525.0
496.0,548.0
505.0,520.0
509.0,464.0
530.0,492.0
531.0,500.0
527.0,506.0
517.0,510.0
502.0,505.0
495.0,469.0
531.0,486.0
548.0,491.0
543.0,492.0
534.0,498.0
561.0,509.0
525.0,518.0
532.0,519.0
535.0,510.0
516.0,510.0
479.0,514.0
442.0,520.0
467.0,515.0
481.0,498.0
538.0,490.0
529.0,505.0
521.0,499.0
522.0,500.0
523.0,482.0
522.0,495.0
521.0,485.0
523.0,498.0
536.0,505.0
535.0,510.0
517.0,507.0
531.0,514.0
550.0,522.0
516.0,515.0
504.0,520.0
469.0,510.0
451.0,511.0
487.0,523.0
483.0,508.0
488.0,485.0
493.0,480.0
491.0,511.0
502.0,496.0
508.0,513.0
507.0,497.0
503.0,473.0
498.0,494.0
500.0,509.0
507.0,511.0
500.0,512.0
501.0,513.0
501.0,509.0
469.0,511.0
457.0,490.0
452.0,502.0
470.0,495.0
529.0,485.0
572.0,493.0
557.0,515.0
546.0,500.0
531.0,485.0
513.0,499.0
507.0,491.0
511.0,501.0
527.0,511.0
536.0,508.0
563.0,513.0
587.0,509.0
582.0,513.0
594.0,517.0
581.0,508.0
530.0,491.0
484.0,497.0
463.0,493.0
450.0,495.0
463.0,496.0
474.0,495.0
488.0,497.0
493.0,502.0
512.0,508.0
518.0,507.0
535.0,514.0
527.0,511.0
532.0,512.0
524.0,512.0
507.0,516.0
501.0,508.0
491.0,500.0
502.0,495.0
509.0,498.0
512.0,498.0
510.0,493.0
503.0,500.0
512.0,491.0
508.0,488.0
506.0,502.0
501.0,499.0
512.0,510.0
509.0,510.0
503.0,509.0
508.0,502.0
505.0,508.0
505.0,510.0
493.0,510.0
502.0,500.0
498.0,491.0
491.0,503.0
498.0,494.0
493.0,486.0
497.0,497.0
502.0,498.0
507.0,496.0
513.0,494.0
524.0,492.0
525.0,498.0
524.0,501.0
515.0,510.0
521.0,514.0
513.0,507.0
505.0,508.0
498.0,509.0
506.0,502.0
507.0,501.0
511.0,499.0
504.0,483.0
500.0,489.0
500.0,496.0
494.0,495.0
509.0,499.0
518.0,507.0
522.0,511.0
527.0,515.0
524.0,506.0
517.0,508.0
514.0,497.0
510.0,502.0
504.0,508.0
506.0,503.0
499.0,504.0
504.0,489.0
496.0,496.0
494.0,495.0
506.0,490.0
500.0,489.0
518.0,500.0
523.0,505.0
521.0,512.0
524.0,515.0
524.0,515.0
518.0,504.0
515.0,512.0
505.0,508.0
503.0,513.0
492.0,493.0
498.0,500.0
508.0,502.0
501.0,489.0
514.0,497.0
514.0,491.0
510.0,491.0
516.0,492.0
513.0,497.0
508.0,505.0
513.0,508.0
522.0,513.0
538.0,516.0
548.0,510.0
542.0,507.0
536.0,510.0
534.0,507.0
533.0,502.0
533.0,501.0
527.0,500.0
508.0,490.0
515.0,500.0
526.0,494.0
505.0,493.0
484.0,493.0
474.0,490.0
477.0,496.0
490.0,500.0
523.0,510.0
547.0,511.0
549.0,507.0
540.0,510.0
543.0,506.0
531.0,512.0
529.0,506.0
523.0,507.0
521.0,501.0
509.0,496.0
509.0,494.0
494.0,496.0
492.0,484.0
492.0,487.0
490.0,499.0
502.0,505.0
507.0,502.0
521.0,514.0
517.0,509.0
518.0,511.0
502.0,511.0
493.0,498.0
494.0,497.0
486.0,494.0
479.0,498.0
496.0,488.0
497.0,501.0
491.0,507.0
503.0,497.0
508.0,496.0
511.0,500.0
513.0,506.0
521.0,505.0
521.0,513.0
522.0,518.0
524.0,521.0
522.0,512.0
500.0,504.0
509.0,508.0
498.0,511.0
507.0,502.0
503.0,493.0
495.0,500.0
500.0,496.0
499.0,493.0
501.0,493.0
503.0,496.0
509.0,499.0
510.0,496.0
523.0,515.0
525.0,516.0
522.0,510.0
524.0,518.0
511.0,513.0
508.0,505.0
504.0,497.0
504.0,508.0
511.0,500.0
498.0,493.0
499.0,497.0
505.0,491.0
503.0,485.0
505.0,490.0
504.0,500.0
510.0,504.0
518.0,510.0
521.0,509.0
519.0,510.0
526.0,504.0
522.0,513.0
515.0,512.0
503.0,503.0
508.0,504.0
506.0,499.0
504.0,493.0
504.0,496.0
495.0,498.0
495.0,497.0
494.0,492.0
501.0,492.0
513.0,500.0
514.0,504.0
519.0,505.0
525.0,511.0
525.0,511.0
521.0,515.0
516.0,507.0
507.0,501.0
514.0,497.0
512.0,502.0
504.0,499.0
497.0,502.0
496.0,487.0
492.0,492.0
485.0,495.0
493.0,490.0
505.0,488.0
513.0,502.0
521.0,504.0
526.0,508.0
529.0,515.0
520.0,509.0
513.0,511.0
511.0,506.0
516.0,503.0
509.0,509.0
521.0,497.0
520.0,502.0
513.0,498.0
499.0,500.0
494.0,493.0
487.0,493.0
483.0,497.0
502.0,500.0
520.0,508.0
524.0,515.0
532.0,522.0
533.0,520.0
529.0,518.0
529.0,516.0
526.0,518.0
513.0,509.0
505.0,514.0
504.0,508.0
488.0,508.0
488.0,495.0
486.0,494.0
485.0,498.0
493.0,496.0
481.0,502.0
497.0,503.0
509.0,505.0
520.0,517.0
526.0,514.0
544.0,523.0
539.0,518.0
531.0,515.0
516.0,514.0
509.0,511.0
496.0,498.0
491.0,508.0
492.0,498.0
491.0,495.0
492.0,506.0
498.0,503.0
501.0,498.0
503.0,499.0
500.0,508.0
507.0,510.0
513.0,514.0
515.0,519.0
516.0,518.0
527.0,516.0
524.0,511.0
514.0,503.0
509.0,499.0
510.0,504.0
508.0,499.0
503.0,503.0
510.0,496.0
505.0,494.0
501.0,498.0
499.0,498.0
501.0,503.0
511.0,507.0
518.0,510.0
528.0,514.0
519.0,509.0
522.0,516.0
511.0,511.0
509.0,514.0
514.0,508.0
512.0,505.0
508.0,502.0
496.0,503.0
497.0,491.0
496.0,502.0
496.0,497.0
496.0,487.0
500.0,494.0
506.0,497.0
515.0,499.0
520.0,509.0
522.0,506.0
524.0,515.0
513.0,507.0
517.0,510.0
510.0,512.0
502.0,508.0
502.0,499.0
495.0,509.0
507.0,500.0
503.0,497.0
495.0,487.0
490.0,490.0
501.0,493.0
507.0,495.0
505.0,504.0
518.0,508.0
520.0,508.0
523.0,508.0
520.0,518.0
516.0,511.0
510.0,514.0
506.0,509.0
515.0,505.0
496.0,509.0
512.0,500.0
506.0,493.0
515.0,494.0
504.0,498.0
503.0,497.0
510.0,494.0
507.0,498.0
511.0,505.0
512.0,504.0
515.0,509.0
513.0,511.0
521.0,512.0
517.0,516.0
505.0,509.0
497.0,505.0
500.0,496.0
492.0,508.0
505.0,502.0
503.0,497.0
495.0,492.0
499.0,495.0
492.0,489.0
504.0,495.0
502.0,500.0
508.0,507.0
515.0,506.0
518.0,513.0
524.0,518.0
521.0,511.0
520.0,511.0
514.0,506.0
503.0,506.0
503.0,507.0
501.0,503.0
496.0,503.0
507.0,496.0
499.0,488.0
495.0,492.0
483.0,499.0
495.0,498.0
506.0,503.0
512.0,505.0
511.0,507.0
513.0,519.0
507.0,520.0
499.0,513.0
508.0,515.0
502.0,505.0
495.0,512.0
507.0,504.0
507.0,503.0
507.0,503.0
518.0,490.0
510.0,499.0
507.0,496.0
510.0,496.0
503.0,500.0
509.0,506.0
511.0,496.0
516.0,509.0
516.0,512.0
514.0,514.0
515.0,509.0
505.0,509.0
501.0,508.0
503.0,507.0
509.0,502.0
506.0,493.0
493.0,501.0
506.0,497.0
501.0,495.0
503.0,489.0
511.0,501.0
517.0,498.0
515.0,499.0
525.0,508.0
527.0,512.0
524.0,517.0
523.0,506.0
521.0,512.0
518.0,506.0
511.0,506.0
506.0,494.0
509.0,510.0
516.0,500.0
511.0,501.0
506.0,491.0
508.0,492.0
511.0,495.0
507.0,498.0
498.0,500.0
502.0,505.0
515.0,511.0
512.0,511.0
511.0,514.0
511.0,514.0
500.0,509.0
502.0,507.0
499.0,497.0
493.0,506.0
495.0,503.0
497.0,501.0
504.0,499.0
499.0,497.0
502.0,496.0
497.0,498.0
511.0,497.0
508.0,501.0
507.0,508.0
517.0,509.0
520.0,512.0
518.0,516.0
513.0,510.0
510.0,515.0
509.0,505.0
497.0,505.0
499.0,497.0
498.0,497.0
494.0,500.0
500.0,493.0
502.0,490.0
497.0,494.0
507.0,493.0
513.0,498.0
522.0,505.0
522.0,510.0
526.0,514.0
523.0,516.0
512.0,513.0
516.0,498.0
502.0,510.0
498.0,504.0
506.0,501.0
503.0,497.0
500.0,500.0
499.0,491.0
491.0,500.0
498.0,493.0
497.0,498.0
502.0,496.0
510.0,499.0
513.0,504.0
524.0,507.0
526.0,516.0
524.0,509.0
523.0,513.0
520.0,510.0
504.0,509.0
503.0,503.0
492.0,506.0
495.0,497.0
503.0,497.0
499.0,493.0
492.0,496.0
503.0,490.0
493.0,489.0
502.0,501.0
509.0,497.0
517.0,504.0
520.0,509.0
522.0,513.0
523.0,513.0
518.0,514.0
509.0,514.0
506.0,501.0
504.0,507.0
502.0,495.0
497.0,498.0
498.0,500.0
504.0,494.0
502.0,496.0
504.0,491.0
499.0,493.0
504.0,493.0
514.0,503.0
526.0,506.0
535.0,514.0
532.0,513.0
526.0,514.0
521.0,509.0
511.0,514.0
501.0,500.0
493.0,500.0
504.0,501.0
497.0,494.0
494.0,501.0
500.0,494.0
497.0,493.0
501.0,488.0
493.0,494.0
507.0,500.0
510.0,498.0
519.0,512.0
539.0,517.0
543.0,516.0
528.0,514.0
518.0,510.0
510.0,498.0
506.0,506.0
489.0,504.0
492.0,492.0
496.0,493.0
496.0,492.0
496.0,496.0
500.0,494.0
501.0,492.0
507.0,496.0
514.0,504.0
523.0,510.0
530.0,515.0
532.0,515.0
520.0,510.0
517.0,513.0
503.0,510.0
507.0,505.0
505.0,502.0
502.0,496.0
504.0,497.0
505.0,493.0
497.0,494.0
498.0,493.0
506.0,492.0
506.0,491.0
519.0,499.0
526.0,504.0
520.0,503.0
526.0,508.0
527.0,514.0
517.0,512.0
508.0,507.0
503.0,500.0
499.0,511.0
507.0,502.0
504.0,498.0
503.0,491.0
498.0,493.0
498.0,495.0
498.0,490.0
490.0,496.0
500.0,499.0
511.0,499.0
519.0,505.0
525.0,505.0
531.0,515.0
524.0,513.0
521.0,512.0
514.0,508.0
511.0,510.0
498.0,502.0
499.0,507.0
505.0,493.0
495.0,492.0
496.0,501.0
498.0,488.0
496.0,489.0
503.0,494.0
509.0,500.0
508.0,496.0
521.0,502.0
518.0,507.0
522.0,510.0
523.0,514.0
516.0,516.0
510.0,504.0
508.0,506.0
507.0,503.0
504.0,496.0
496.0,507.0
500.0,491.0
492.0,498.0
501.0,492.0
500.0,491.0
505.0,495.0
511.0,494.0
517.0,501.0
523.0,515.0
526.0,515.0
524.0,516.0
519.0,512.0
523.0,516.0
515.0,510.0
513.0,507.0
507.0,497.0
496.0,505.0
495.0,492.0
498.0,496.0
487.0,494.0
494.0,490.0
495.0,487.0
493.0,491.0
513.0,500.0
510.0,500.0
523.0,512.0
524.0,516.0
517.0,511.0
521.0,512.0
514.0,517.0
507.0,493.0
503.0,497.0
506.0,502.0
503.0,494.0
496.0,502.0
500.0,497.0
500.0,496.0
490.0,494.0
494.0,501.0
507.0,497.0
507.0,504.0
517.0,505.0
519.0,514.0
520.0,510.0
521.0,514.0
516.0,513.0
510.0,516.0
499.0,514.0
497.0,507.0
509.0,500.0
500.0,491.0
502.0,498.0
500.0,497.0
506.0,492.0
504.0,494.0
510.0,497.0
513.0,494.0
508.0,504.0
520.0,511.0
523.0,515.0
521.0,517.0
505.0,506.0
511.0,512.0
509.0,504.0
508.0,505.0
503.0,506.0
499.0,499.0
502.0,492.0
505.0,496.0
501.0,494.0
496.0,487.0
498.0,488.0
496.0,499.0
504.0,501.0
517.0,503.0
525.0,512.0
517.0,510.0
523.0,511.0
523.0,515.0
516.0,519.0
505.0,503.0
499.0,510.0
506.0,500.0
499.0,507.0
504.0,499.0
499.0,497.0
500.0,493.0
504.0,490.0
505.0,493.0
503.0,494.0
518.0,504.0
523.0,511.0
527.0,512.0
530.0,515.0
522.0,515.0
509.0,511.0
510.0,496.0
500.0,511.0
508.0,505.0
504.0,498.0
494.0,501.0
504.0,496.0
497.0,485.0
491.0,495.0
502.0,492.0
503.0,498.0
509.0,498.0
514.0,504.0
523.0,510.0
520.0,514.0
524.0,514.0
523.0,515.0
522.0,513.0
509.0,509.0
514.0,504.0
505.0,506.0
500.0,503.0
502.0,500.0
504.0,496.0
500.0,492.0
495.0,487.0
499.0,497.0
505.0,493.0
511.0,490.0
521.0,498.0
523.0,511.0
540.0,515.0
537.0,515.0
526.0,513.0
525.0,512.0
513.0,506.0
506.0,505.0
501.0,496.0
502.0,498.0
499.0,489.0
495.0,496.0
493.0,487.0
487.0,487.0
493.0,496.0
506.0,499.0
519.0,503.0
521.0,509.0
524.0,515.0
515.0,512.0
520.0,509.0
517.0,512.0
513.0,512.0
507.0,505.0
504.0,504.0
507.0,498.0
509.0,497.0
501.0,488.0
503.0,493.0
499.0,489.0
500.0,488.0
502.0,487.0
514.0,503.0
515.0,505.0
519.0,506.0
522.0,509.0
526.0,512.0
518.0,515.0
514.0,514.0
509.0,501.0
501.0,508.0
508.0,496.0
502.0,505.0
508.0,494.0
506.0,495.0
502.0,496.0
504.0,492.0
494.0,495.0
509.0,496.0
516.0,495.0
519.0,508.0
527.0,509.0
524.0,510.0
518.0,514.0
515.0,515.0
508.0,503.0
506.0,510.0
509.0,501.0
506.0,505.0
507.0,497.0
503.0,490.0
492.0,493.0
489.0,499.0
495.0,493.0
495.0,501.0
504.0,500.0
516.0,504.0
528.0,510.0
523.0,509.0
527.0,512.0
523.0,511.0
522.0,510.0
504.0,512.0
507.0,502.0
504.0,506.0
506.0,499.0
499.0,495.0
505.0,495.0
498.0,496.0
505.0,492.0
503.0,498.0
499.0,497.0
514.0,502.0
511.0,505.0
530.0,512.0
527.0,516.0
524.0,516.0
519.0,510.0
506.0,509.0
511.0,510.0
502.0,508.0
506.0,502.0
506.0,495.0
495.0,500.0
496.0,499.0
492.0,497.0
490.0,495.0
503.0,496.0
500.0,497.0
507.0,498.0
511.0,505.0
519.0,510.0
535.0,517.0
533.0,516.0
526.0,514.0
521.0,510.0
499.0,512.0
498.0,503.0
490.0,503.0
493.0,501.0
501.0,493.0
498.0,496.0
497.0,488.0
499.0,487.0
498.0,484.0
502.0,503.0
507.0,503.0
519.0,509.0
524.0,514.0
522.0,509.0
520.0,515.0
517.0,513.0
508.0,501.0
507.0,504.0
500.0,506.0
507.0,501.0
505.0,496.0
503.0,497.0
496.0,489.0
487.0,500.0
493.0,496.0
504.0,500.0
511.0,496.0
514.0,508.0
524.0,506.0
525.0,511.0
522.0,515.0
506.0,510.0
509.0,515.0
514.0,509.0
507.0,508.0
502.0,499.0
502.0,504.0
504.0,501.0
509.0,494.0
504.0,492.0
500.0,486.0
501.0,492.0
499.0,502.0
508.0,503.0
517.0,501.0
526.0,513.0
529.0,517.0
521.0,515.0
520.0,506.0
502.0,506.0
508.0,508.0
499.0,507.0
505.0,500.0
507.0,501.0
490.0,502.0
502.0,495.0
492.0,488.0
480.0,491.0
499.0,496.0
509.0,494.0
511.0,498.0
523.0,511.0
527.0,516.0
524.0,513.0
519.0,510.0
521.0,512.0
511.0,511.0
512.0,499.0
508.0,500.0
510.0,502.0
513.0,499.0
507.0,492.0
499.0,488.0
481.0,495.0
487.0,486.0
499.0,497.0
508.0,501.0
519.0,505.0
523.0,506.0
525.0,514.0
521.0,511.0
518.0,512.0
509.0,505.0
510.0,509.0
504.0,503.0
508.0,499.0
497.0,498.0
498.0,503.0
498.0,497.0
492.0,500.0
495.0,495.0
501.0,495.0
508.0,492.0
513.0,502.0
521.0,508.0
525.0,510.0
530.0,515.0
516.0,505.0
516.0,512.0
509.0,507.0
509.0,509.0
495.0,510.0
508.0,502.0
508.0,498.0
510.0,496.0
504.0,490.0
503.0,488.0
505.0,491.0
502.0,491.0
502.0,493.0
518.0,505.0
523.0,508.0
523.0,513.0
526.0,519.0
516.0,512.0
509.0,505.0
521.0,507.0
514.0,502.0
518.0,502.0
512.0,497.0
511.0,502.0
507.0,495.0
494.0,484.0
485.0,496.0
491.0,493.0
504.0,498.0
503.0,498.0
513.0,508.0
520.0,514.0
524.0,514.0
522.0,516.0
512.0,506.0
508.0,511.0
500.0,512.0
506.0,503.0
500.0,506.0
506.0,494.0
505.0,501.0
503.0,501.0
496.0,498.0
496.0,495.0
502.0,493.0
505.0,495.0
510.0,506.0
518.0,508.0
523.0,512.0
522.0,501.0
522.0,513.0
518.0,514.0
509.0,508.0
505.0,505.0
507.0,502.0
504.0,505.0
501.0,502.0
506.0,496.0
503.0,493.0
501.0,493.0
504.0,492.0
507.0,487.0
506.0,500.0
512.0,500.0
511.0,506.0
522.0,512.0
522.0,515.0
516.0,509.0
513.0,507.0
511.0,510.0
508.0,496.0
507.0,498.0
502.0,502.0
506.0,497.0
502.0,492.0
503.0,490.0
494.0,489.0
505.0,492.0
510.0,495.0
511.0,506.0
521.0,505.0
523.0,509.0
525.0,515.0
518.0,514.0
516.0,506.0
515.0,515.0
516.0,507.0
495.0,513.0
506.0,503.0
499.0,504.0
510.0,497.0
506.0,492.0
508.0,486.0
504.0,483.0
508.0,493.0
511.0,499.0
509.0,504.0
509.0,502.0
520.0,514.0
520.0,519.0
510.0,509.0
517.0,511.0
516.0,509.0
502.0,515.0
507.0,510.0
515.0,500.0
510.0,498.0
509.0,499.0
502.0,490.0
498.0,491.0
496.0,493.0
507.0,495.0
509.0,500.0
508.0,498.0
514.0,504.0
523.0,513.0
514.0,510.0
521.0,514.0
513.0,510.0
507.0,512.0
505.0,507.0
507.0,502.0
507.0,500.0
507.0,501.0
506.0,500.0
499.0,496.0
496.0,488.0
494.0,498.0
499.0,495.0
510.0,501.0
516.0,507.0
523.0,510.0
522.0,514.0
515.0,512.0
518.0,512.0
508.0,507.0
506.0,513.0
504.0,497.0
506.0,506.0
507.0,498.0
503.0,489.0
499.0,497.0
502.0,491.0
501.0,489.0
505.0,493.0
502.0,500.0
512.0,506.0
519.0,507.0
537.0,512.0
535.0,517.0
533.0,515.0
533.0,513.0
521.0,511.0
501.0,508.0
490.0,495.0
497.0,499.0
494.0,501.0
500.0,497.0
498.0,489.0
499.0,494.0
497.0,494.0
498.0,498.0
503.0,500.0
511.0,494.0
519.0,508.0
520.0,511.0
522.0,516.0
512.0,511.0
517.0,510.0
509.0,508.0
507.0,507.0
505.0,496.0
503.0,497.0
502.0,491.0
503.0,492.0
500.0,485.0
507.0,491.0
502.0,490.0
506.0,492.0
514.0,507.0
516.0,505.0
523.0,505.0
526.0,514.0
516.0,513.0
523.0,513.0
513.0,510.0
505.0,499.0
504.0,495.0
504.0,496.0
498.0,505.0
502.0,501.0
501.0,496.0
492.0,497.0
485.0,495.0
492.0,500.0
503.0,499.0
513.0,504.0
515.0,508.0
523.0,508.0
521.0,509.0
527.0,515.0
522.0,514.0
515.0,506.0
507.0,504.0
502.0,488.0
504.0,496.0
505.0,497.0
508.0,494.0
503.0,495.0
503.0,492.0
500.0,484.0
506.0,494.0
512.0,500.0
513.0,500.0
529.0,509.0
527.0,514.0
524.0,508.0
515.0,510.0
513.0,509.0
505.0,509.0
503.0,507.0
508.0,501.0
510.0,499.0
513.0,498.0
507.0,497.0
496.0,497.0
496.0,486.0
494.0,496.0
507.0,502.0
510.0,502.0
513.0,500.0
519.0,507.0
526.0,513.0
525.0,501.0
522.0,513.0
517.0,506.0
513.0,509.0
510.0,506.0
511.0,501.0
509.0,497.0
498.0,490.0
494.0,497.0
492.0,496.0
486.0,494.0
502.0,494.0
507.0,496.0
512.0,491.0
533.0,497.0
539.0,511.0
535.0,518.0
528.0,517.0
517.0,507.0
512.0,513.0
496.0,512.0
494.0,502.0
495.0,504.0
506.0,498.0
502.0,499.0
498.0,497.0
491.0,498.0
494.0,485.0
490.0,491.0
508.0,499.0
514.0,502.0
517.0,505.0
525.0,513.0
520.0,513.0
521.0,512.0
512.0,514.0
512.0,508.0
493.0,505.0
498.0,510.0
511.0,499.0
507.0,493.0
507.0,492.0
505.0,490.0
500.0,486.0
502.0,492.0
512.0,497.0
515.0,502.0
522.0,508.0
527.0,511.0
523.0,511.0
522.0,514.0
516.0,508.0
516.0,512.0
499.0,509.0
503.0,501.0
502.0,509.0
501.0,505.0
502.0,503.0
501.0,488.0
502.0,496.0
507.0,492.0
493.0,497.0
512.0,500.0
514.0,497.0
522.0,511.0
524.0,519.0
519.0,508.0
503.0,510.0
516.0,513.0
499.0,512.0
508.0,507.0
504.0,505.0
506.0,493.0
501.0,497.0
508.0,493.0
496.0,490.0
495.0,490.0
498.0,490.0
497.0,500.0
511.0,500.0
517.0,504.0
521.0,504.0
528.0,515.0
521.0,510.0
518.0,509.0
507.0,509.0
513.0,510.0
506.0,500.0
506.0,500.0
509.0,506.0
514.0,498.0
511.0,497.0
499.0,499.0
498.0,491.0
489.0,497.0
494.0,490.0
501.0,502.0
509.0,505.0
529.0,515.0
523.0,514.0
527.0,515.0
518.0,510.0
521.0,512.0
518.0,506.0
509.0,499.0
503.0,509.0
499.0,504.0
490.0,500.0
491.0,501.0
489.0,498.0
498.0,485.0
498.0,499.0
510.0,498.0
508.0,504.0
525.0,509.0
529.0,512.0
522.0,517.0
522.0,509.0
520.0,515.0
509.0,512.0
503.0,497.0
503.0,502.0
504.0,494.0
502.0,491.0
504.0,496.0
503.0,492.0
499.0,490.0
501.0,495.0
503.0,488.0
506.0,498.0
517.0,502.0
523.0,505.0
522.0,500.0
528.0,512.0
522.0,515.0
519.0,511.0
512.0,508.0
509.0,504.0
506.0,504.0
510.0,500.0
507.0,501.0
504.0,488.0
502.0,487.0
503.0,492.0
502.0,493.0
494.0,494.0
515.0,502.0
525.0,506.0
528.0,506.0
530.0,513.0
524.0,509.0
514.0,514.0
506.0,505.0
501.0,511.0
501.0,504.0
509.0,502.0
502.0,501.0
504.0,498.0
503.0,493.0
504.0,490.0
503.0,491.0
496.0,496.0
501.0,502.0
517.0,501.0
521.0,510.0
526.0,515.0
520.0,511.0
524.0,518.0
516.0,515.0
511.0,505.0
511.0,506.0
506.0,506.0
503.0,496.0
502.0,502.0
500.0,499.0
501.0,493.0
497.0,493.0
499.0,488.0
496.0,492.0
514.0,495.0
511.0,498.0
520.0,509.0
529.0,505.0
519.0,514.0
520.0,513.0
516.0,516.0
504.0,515.0
504.0,509.0
499.0,506.0
503.0,504.0
500.0,501.0
506.0,494.0
504.0,492.0
507.0,490.0
507.0,494.0
508.0,492.0
508.0,505.0
516.0,502.0
521.0,510.0
527.0,515.0
531.0,516.0
528.0,515.0
520.0,513.0
517.0,507.0
512.0,505.0
502.0,495.0
495.0,505.0
499.0,496.0
500.0,494.0
500.0,491.0
489.0,498.0
504.0,496.0
502.0,493.0
515.0,506.0
518.0,505.0
525.0,515.0
523.0,517.0
519.0,509.0
519.0,513.0
509.0,511.0
503.0,510.0
495.0,505.0
501.0,499.0
494.0,505.0
495.0,501.0
503.0,494.0
502.0,493.0
502.0,487.0
508.0,495.0
512.0,506.0
519.0,507.0
525.0,513.0
522.0,509.0
523.0,516.0
519.0,514.0
516.0,517.0
512.0,503.0
497.0,512.0
514.0,503.0
510.0,501.0
506.0,499.0
498.0,497.0
502.0,493.0
496.0,485.0
502.0,498.0
505.0,497.0
507.0,496.0
520.0,508.0
523.0,514.0
523.0,515.0
518.0,512.0
519.0,512.0
509.0,502.0
513.0,506.0
503.0,498.0
502.0,502.0
498.0,496.0
489.0,499.0
497.0,497.0
493.0,491.0
504.0,491.0
504.0,494.0
508.0,500.0
517.0,510.0
526.0,505.0
527.0,512.0
530.0,514.0
519.0,512.0
512.0,507.0
507.0,511.0
499.0,513.0
504.0,504.0
509.0,501.0
508.0,502.0
495.0,504.0
502.0,491.0
498.0,487.0
496.0,495.0
509.0,495.0
510.0,501.0
517.0,508.0
524.0,511.0
531.0,517.0
530.0,517.0
522.0,511.0
525.0,514.0
515.0,513.0
510.0,505.0
500.0,506.0
499.0,496.0
492.0,502.0
503.0,495.0
499.0,493.0
493.0,496.0
499.0,496.0
507.0,499.0
516.0,497.0
520.0,508.0
522.0,508.0
527.0,516.0
517.0,510.0
516.0,509.0
516.0,509.0
513.0,506.0
508.0,499.0
505.0,496.0
497.0,505.0
493.0,495.0
501.0,488.0
502.0,490.0
501.0,495.0
501.0,496.0
515.0,499.0
522.0,507.0
514.0,501.0
522.0,515.0
517.0,508.0
524.0,515.0
520.0,513.0
510.0,505.0
507.0,506.0
496.0,509.0
510.0,504.0
513.0,499.0
508.0,496.0
506.0,496.0
491.0,496.0
496.0,484.0
503.0,500.0
504.0,499.0
510.0,502.0
519.0,510.0
519.0,512.0
525.0,518.0
518.0,512.0
506.0,501.0
513.0,501.0
506.0,505.0
504.0,500.0
506.0,494.0
506.0,501.0
506.0,496.0
509.0,491.0
502.0,492.0
505.0,494.0
507.0,498.0
514.0,502.0
514.0,502.0
521.0,507.0
526.0,517.0
519.0,515.0
516.0,510.0
513.0,506.0
509.0,511.0
507.0,504.0
504.0,500.0
498.0,498.0
495.0,501.0
499.0,498.0
501.0,485.0
500.0,497.0
504.0,498.0
509.0,503.0
516.0,508.0
513.0,507.0
521.0,509.0
523.0,510.0
522.0,519.0
517.0,514.0
512.0,511.0
509.0,506.0
511.0,500.0
492.0,505.0
501.0,504.0
499.0,500.0
499.0,495.0
497.0,496.0
505.0,493.0
494.0,496.0
513.0,507.0
516.0,508.0
522.0,513.0
519.0,509.0
525.0,519.0
515.0,512.0
514.0,513.0
511.0,507.0
497.0,510.0
498.0,507.0
501.0,503.0
496.0,504.0
497.0,498.0
503.0,492.0
490.0,499.0
501.0,492.0
506.0,500.0
516.0,508.0
519.0,507.0
527.0,509.0
526.0,515.0
513.0,512.0
520.0,514.0
521.0,513.0
518.0,507.0
515.0,503.0
512.0,494.0
497.0,498.0
499.0,496.0
487.0,498.0
490.0,491.0
489.0,496.0
503.0,494.0
503.0,502.0
515.0,503.0
522.0,507.0
522.0,514.0
523.0,518.0
513.0,512.0
517.0,514.0
510.0,512.0
509.0,501.0
507.0,507.0
506.0,505.0
508.0,503.0
505.0,498.0
498.0,488.0
493.0,493.0
490.0,502.0
504.0,490.0
500.0,499.0
510.0,501.0
523.0,512.0
528.0,518.0
523.0,512.0
515.0,517.0
515.0,512.0
502.0,505.0
505.0,508.0
501.0,507.0
510.0,500.0
499.0,489.0
498.0,486.0
498.0,484.0
503.0,487.0
503.0,491.0
503.0,491.0
515.0,496.0
518.0,509.0
526.0,514.0
515.0,514.0
521.0,516.0
511.0,509.0
513.0,510.0
509.0,507.0
507.0,504.0
510.0,500.0
509.0,499.0
510.0,497.0
506.0,495.0
492.0,494.0
501.0,491.0
490.0,492.0
496.0,503.0
516.0,509.0
523.0,510.0
514.0,511.0
523.0,514.0
513.0,511.0
515.0,514.0
510.0,508.0
505.0,508.0
495.0,507.0
497.0,507.0
504.0,495.0
503.0,492.0
504.0,498.0
497.0,498.0
495.0,497.0
502.0,491.0
505.0,496.0
516.0,506.0
523.0,508.0
523.0,516.0
519.0,511.0
517.0,518.0
513.0,510.0
508.0,511.0
494.0,510.0
502.0,506.0
502.0,501.0
502.0,492.0
500.0,489.0
497.0,488.0
501.0,496.0
497.0,497.0
503.0,496.0
510.0,499.0
520.0,512.0
521.0,515.0
525.0,514.0
518.0,507.0
526.0,508.0
519.0,511.0
513.0,506.0
505.0,506.0
505.0,503.0
494.0,504.0
496.0,496.0
492.0,490.0
494.0,489.0
493.0,496.0
499.0,497.0
507.0,497.0
515.0,506.0
523.0,506.0
524.0,514.0
511.0,511.0
513.0,513.0
508.0,498.0
507.0,510.0
500.0,508.0
505.0,504.0
502.0,504.0
501.0,505.0
493.0,502.0
491.0,495.0
498.0,493.0
498.0,491.0
505.0,485.0
513.0,502.0
519.0,501.0
520.0,508.0
525.0,507.0
528.0,516.0
521.0,515.0
515.0,499.0
502.0,504.0
501.0,509.0
505.0,498.0
508.0,496.0
503.0,503.0
494.0,498.0
491.0,501.0
488.0,487.0
506.0,493.0
514.0,500.0
518.0,503.0
523.0,511.0
519.0,515.0
517.0,511.0
520.0,515.0
506.0,508.0
503.0,507.0
507.0,505.0
510.0,503.0
503.0,496.0
505.0,497.0
501.0,495.0
496.0,494.0
489.0,491.0
506.0,489.0
500.0,494.0
506.0,500.0
510.0,501.0
519.0,510.0
522.0,507.0
528.0,519.0
514.0,508.0
510.0,507.0
512.0,508.0
509.0,505.0
509.0,501.0
505.0,501.0
502.0,487.0
501.0,487.0
501.0,488.0
498.0,480.0
495.0,495.0
507.0,489.0
513.0,501.0
520.0,509.0
527.0,513.0
527.0,519.0
522.0,514.0
519.0,508.0
512.0,506.0
508.0,509.0
504.0,498.0
504.0,496.0
504.0,494.0
505.0,498.0
508.0,493.0
497.0,497.0
503.0,485.0
498.0,490.0
507.0,500.0
511.0,503.0
524.0,510.0
525.0,518.0
521.0,510.0
516.0,512.0
515.0,510.0
510.0,505.0
510.0,507.0
515.0,503.0
507.0,501.0
505.0,499.0
503.0,497.0
493.0,497.0
496.0,490.0
503.0,494.0
512.0,494.0
521.0,492.0
516.0,501.0
524.0,510.0
521.0,513.0
516.0,511.0
512.0,509.0
512.0,512.0
507.0,504.0
504.0,501.0
507.0,499.0
503.0,508.0
496.0,501.0
498.0,498.0
502.0,492.0
494.0,496.0
502.0,496.0
509.0,494.0
511.0,503.0
520.0,506.0
522.0,511.0
528.0,512.0
523.0,515.0
513.0,510.0
516.0,503.0
509.0,511.0
508.0,493.0
505.0,502.0
496.0,503.0
498.0,499.0
504.0,494.0
498.0,492.0
498.0,489.0
506.0,495.0
509.0,500.0
515.0,501.0
516.0,503.0
520.0,513.0
519.0,517.0
514.0,511.0
519.0,513.0
510.0,507.0
505.0,501.0
505.0,504.0
505.0,501.0
506.0,498.0
505.0,496.0
501.0,492.0
501.0,492.0
502.0,491.0
505.0,496.0
509.0,498.0
513.0,501.0
519.0,504.0
524.0,518.0
517.0,511.0
521.0,517.0
508.0,511.0
508.0,513.0
497.0,512.0
504.0,502.0
502.0,503.0
501.0,500.0
509.0,494.0
503.0,492.0
502.0,492.0
509.0,492.0
513.0,497.0
508.0,498.0
518.0,505.0
526.0,506.0
532.0,513.0
519.0,507.0
517.0,513.0
513.0,511.0
506.0,507.0
494.0,508.0
501.0,503.0
503.0,502.0
503.0,497.0
504.0,493.0
504.0,490.0
501.0,488.0
503.0,495.0
509.0,496.0
514.0,506.0
523.0,510.0
521.0,507.0
520.0,509.0
521.0,512.0
519.0,512.0
517.0,508.0
506.0,504.0
497.0,507.0
507.0,500.0
499.0,495.0
509.0,494.0
501.0,493.0
500.0,483.0
505.0,492.0
509.0,492.0
506.0,493.0
515.0,506.0
516.0,506.0
527.0,514.0
520.0,511.0
517.0,514.0
511.0,510.0
510.0,508.0
503.0,505.0
496.0,503.0
487.0,506.0
502.0,498.0
495.0,498.0
505.0,491.0
507.0,483.0
513.0,493.0
515.0,500.0
522.0,501.0
525.0,505.0
529.0,514.0
518.0,515.0
510.0,512.0
516.0,509.0
510.0,513.0
504.0,503.0
502.0,504.0
506.0,501.0
493.0,504.0
501.0,492.0
500.0,493.0
489.0,497.0
492.0,500.0
484.0,498.0
503.0,491.0
516.0,500.0
523.0,510.0
525.0,511.0
521.0,516.0
515.0,513.0
519.0,513.0
503.0,511.0
511.0,505.0
501.0,502.0
509.0,501.0
500.0,503.0
504.0,497.0
492.0,498.0
500.0,492.0
497.0,497.0
508.0,496.0
512.0,501.0
512.0,501.0
526.0,511.0
525.0,511.0
524.0,513.0
521.0,505.0
515.0,515.0
512.0,511.0
506.0,501.0
507.0,503.0
506.0,501.0
504.0,493.0
494.0,502.0
498.0,491.0
494.0,495.0
503.0,491.0
507.0,497.0
516.0,503.0
519.0,509.0
524.0,512.0
523.0,517.0
514.0,510.0
519.0,514.0
507.0,514.0
502.0,510.0
499.0,508.0
506.0,496.0
503.0,496.0
497.0,501.0
505.0,493.0
500.0,488.0
504.0,491.0
498.0,494.0
513.0,499.0
520.0,505.0
522.0,507.0
523.0,509.0
519.0,508.0
515.0,508.0
517.0,507.0
513.0,506.0
508.0,507.0
502.0,501.0
498.0,505.0
505.0,499.0
495.0,496.0
498.0,498.0
494.0,496.0
502.0,488.0
500.0,490.0
508.0,504.0
519.0,507.0
525.0,511.0
529.0,516.0
520.0,510.0
522.0,511.0
505.0,509.0
511.0,510.0
502.0,509.0
506.0,499.0
507.0,497.0
500.0,501.0
494.0,486.0
491.0,484.0
495.0,491.0
499.0,499.0
505.0,494.0
515.0,504.0
524.0,509.0
523.0,507.0
523.0,517.0
523.0,516.0
520.0,516.0
512.0,504.0
503.0,514.0
505.0,498.0
509.0,501.0
502.0,503.0
511.0,490.0
505.0,497.0
507.0,489.0
510.0,486.0
504.0,495.0
496.0,499.0
502.0,501.0
520.0,514.0
521.0,512.0
518.0,517.0
519.0,518.0
514.0,512.0
502.0,518.0
502.0,517.0
504.0,492.0
506.0,487.0
510.0,497.0
501.0,500.0
508.0,493.0
501.0,488.0
502.0,499.0
499.0,497.0
502.0,490.0
521.0,503.0
520.0,502.0
525.0,519.0
523.0,519.0
518.0,524.0
510.0,520.0
504.0,510.0
502.0,497.0
509.0,491.0
511.0,495.0
509.0,500.0
508.0,487.0
499.0,497.0
504.0,489.0
499.0,485.0
499.0,494.0
509.0,505.0
514.0,509.0
526.0,504.0
527.0,514.0
521.0,515.0
516.0,519.0
503.0,513.0
506.0,512.0
496.0,504.0
503.0,495.0
502.0,493.0
503.0,495.0
501.0,493.0
485.0,499.0
494.0,494.0
498.0,493.0
505.0,498.0
518.0,505.0
527.0,511.0
525.0,507.0
518.0,514.0
518.0,508.0
520.0,513.0
511.0,500.0
502.0,505.0
506.0,499.0
512.0,493.0
503.0,502.0
508.0,491.0
504.0,494.0
502.0,484.0
500.0,489.0
498.0,492.0
499.0,499.0
510.0,507.0
521.0,509.0
520.0,512.0
524.0,522.0
520.0,522.0
514.0,511.0
508.0,500.0
507.0,511.0
508.0,506.0
505.0,503.0
510.0,497.0
499.0,496.0
490.0,495.0
490.0,497.0
494.0,498.0
506.0,498.0
511.0,501.0
520.0,508.0
523.0,509.0
522.0,510.0
521.0,513.0
519.0,511.0
517.0,508.0
506.0,511.0
514.0,501.0
506.0,505.0
508.0,496.0
502.0,498.0
487.0,496.0
485.0,487.0
487.0,496.0
503.0,499.0
502.0,498.0
516.0,503.0
526.0,506.0
528.0,517.0
527.0,521.0
517.0,510.0
523.0,513.0
513.0,506.0
508.0,502.0
509.0,503.0
509.0,493.0
499.0,502.0
508.0,494.0
503.0,492.0
491.0,494.0
495.0,484.0
505.0,498.0
511.0,499.0
514.0,502.0
520.0,510.0
522.0,514.0
518.0,506.0
518.0,502.0
508.0,515.0
504.0,506.0
500.0,506.0
507.0,500.0
494.0,507.0
503.0,502.0
507.0,511.0
503.0,500.0
500.0,486.0
502.0,490.0
509.0,508.0
525.0,501.0
527.0,502.0
524.0,502.0
531.0,505.0
530.0,502.0
511.0,503.0
508.0,509.0
514.0,513.0
499.0,507.0
503.0,507.0
504.0,503.0
503.0,499.0
501.0,494.0
501.0,495.0
504.0,495.0
499.0,497.0
504.0,498.0
508.0,500.0
517.0,513.0
523.0,517.0
517.0,517.0
518.0,518.0
521.0,520.0
519.0,515.0
511.0,515.0
501.0,500.0
503.0,488.0
501.0,497.0
496.0,496.0
497.0,492.0
493.0,479.0
501.0,486.0
503.0,494.0
511.0,505.0
516.0,509.0
514.0,510.0
519.0,503.0
517.0,504.0
503.0,508.0
504.0,511.0
505.0,510.0
507.0,502.0
504.0,496.0
499.0,503.0
505.0,497.0
490.0,495.0
500.0,490.0
496.0,491.0
500.0,496.0
502.0,493.0
511.0,506.0
523.0,514.0
525.0,514.0
523.0,515.0
516.0,514.0
515.0,516.0
510.0,516.0
499.0,513.0
503.0,502.0
495.0,505.0
495.0,497.0
498.0,493.0
491.0,498.0
496.0,493.0
501.0,494.0
507.0,497.0
516.0,501.0
520.0,510.0
528.0,511.0
542.0,515.0
538.0,511.0
526.0,507.0
519.0,517.0
514.0,498.0
503.0,510.0
496.0,510.0
491.0,497.0
496.0,492.0
505.0,492.0
488.0,497.0
505.0,490.0
503.0,487.0
504.0,491.0
510.0,493.0
514.0,502.0
521.0,513.0
525.0,515.0
517.0,515.0
519.0,511.0
511.0,507.0
500.0,507.0
505.0,498.0
501.0,499.0
511.0,492.0
509.0,498.0
510.0,501.0
507.0,498.0
508.0,492.0
508.0,498.0
510.0,500.0
506.0,501.0
503.0,508.0
513.0,511.0
514.0,512.0
522.0,518.0
518.0,514.0
514.0,508.0
501.0,510.0
508.0,500.0
508.0,502.0
497.0,494.0
502.0,498.0
503.0,487.0
497.0,496.0
501.0,491.0
500.0,491.0
512.0,500.0
513.0,495.0
529.0,510.0
532.0,516.0
525.0,512.0
521.0,514.0
511.0,506.0
507.0,513.0
505.0,498.0
507.0,505.0
506.0,499.0
498.0,502.0
500.0,498.0
492.0,493.0
502.0,487.0
504.0,490.0
506.0,489.0
517.0,502.0
526.0,506.0
519.0,507.0
519.0,511.0
516.0,510.0
514.0,508.0
507.0,511.0
512.0,509.0
505.0,505.0
488.0,507.0
506.0,501.0
504.0,498.0
497.0,491.0
500.0,495.0
492.0,493.0
510.0,491.0
515.0,492.0
513.0,497.0
525.0,501.0
526.0,509.0
526.0,525.0
519.0,528.0
513.0,528.0
493.0,520.0
499.0,510.0
492.0,514.0
495.0,510.0
500.0,498.0
499.0,500.0
498.0,481.0
492.0,492.0
493.0,493.0
509.0,491.0
518.0,505.0
518.0,512.0
527.0,516.0
526.0,506.0
527.0,511.0
520.0,511.0
519.0,506.0
515.0,505.0
503.0,506.0
503.0,502.0
500.0,503.0
503.0,491.0
491.0,499.0
496.0,488.0
496.0,484.0
499.0,496.0
505.0,500.0
508.0,503.0
518.0,508.0
528.0,505.0
527.0,514.0
519.0,514.0
517.0,512.0
517.0,510.0
508.0,509.0
507.0,496.0
510.0,504.0
497.0,503.0
503.0,499.0
496.0,496.0
483.0,494.0
498.0,493.0
504.0,493.0
507.0,504.0
518.0,506.0
525.0,510.0
531.0,515.0
527.0,518.0
521.0,519.0
510.0,515.0
507.0,513.0
511.0,501.0
513.0,506.0
504.0,497.0
506.0,499.0
506.0,492.0
505.0,490.0
499.0,482.0
502.0,489.0
508.0,495.0
519.0,501.0
517.0,499.0
518.0,515.0
518.0,514.0
527.0,511.0
523.0,510.0
520.0,509.0
512.0,512.0
512.0,505.0
512.0,506.0
502.0,509.0
506.0,491.0
506.0,496.0
500.0,484.0
495.0,492.0
501.0,492.0
502.0,496.0
512.0,503.0
526.0,506.0
531.0,520.0
532.0,516.0
521.0,509.0
525.0,515.0
516.0,517.0
512.0,506.0
506.0,502.0
502.0,508.0
495.0,503.0
495.0,497.0
499.0,493.0
487.0,498.0
498.0,492.0
497.0,496.0
510.0,500.0
513.0,507.0
521.0,518.0
529.0,518.0
526.0,523.0
515.0,506.0
509.0,497.0
509.0,510.0
501.0,514.0
496.0,514.0
506.0,510.0
508.0,499.0
503.0,485.0
501.0,488.0
491.0,496.0
500.0,497.0
507.0,497.0
509.0,493.0
519.0,493.0
527.0,500.0
528.0,507.0
524.0,513.0
507.0,501.0
501.0,511.0
499.0,505.0
495.0,504.0
490.0,492.0
500.0,497.0
492.0,498.0
500.0,498.0
500.0,487.0
503.0,492.0
505.0,495.0
515.0,495.0
524.0,513.0
522.0,512.0
522.0,513.0
527.0,509.0
526.0,512.0
522.0,515.0
517.0,509.0
504.0,502.0
489.0,510.0
510.0,494.0
513.0,496.0
510.0,494.0
508.0,489.0
506.0,499.0
509.0,495.0
512.0,493.0
516.0,499.0
517.0,491.0
526.0,505.0
520.0,515.0
509.0,512.0
512.0,515.0
503.0,510.0
501.0,509.0
482.0,508.0
488.0,507.0
498.0,497.0
499.0,497.0
501.0,487.0
504.0,489.0
508.0,487.0
494.0,503.0
528.0,502.0
547.0,505.0
553.0,513.0
545.0,512.0
535.0,512.0
536.0,515.0
535.0,512.0
517.0,506.0
520.0,509.0
505.0,509.0
515.0,492.0
515.0,500.0
510.0,496.0
496.0,501.0
501.0,491.0
491.0,488.0
483.0,495.0
494.0,494.0
506.0,503.0
517.0,500.0
527.0,509.0
523.0,511.0
525.0,515.0
527.0,512.0
521.0,512.0
511.0,509.0
514.0,495.0
519.0,504.0
497.0,496.0
506.0,491.0
495.0,498.0
495.0,495.0
484.0,492.0
487.0,495.0
502.0,505.0
510.0,509.0
512.0,512.0
515.0,510.0
523.0,504.0
515.0,498.0
517.0,502.0
505.0,501.0
504.0,494.0
496.0,503.0
499.0,485.0
500.0,494.0
495.0,493.0
498.0,489.0
509.0,491.0
505.0,496.0
509.0,502.0
510.0,498.0
520.0,506.0
506.0,507.0
510.0,514.0
515.0,513.0
509.0,517.0
497.0,518.0
491.0,511.0
493.0,514.0
499.0,506.0
499.0,500.0
507.0,494.0
499.0,495.0
506.0,492.0
507.0,495.0
509.0,487.0
514.0,492.0
520.0,500.0
521.0,504.0
519.0,510.0
511.0,520.0
511.0,513.0
509.0,514.0
490.0,519.0
494.0,506.0
504.0,506.0
503.0,510.0
507.0,494.0
522.0,494.0
507.0,497.0
517.0,492.0
518.0,484.0
511.0,498.0
518.0,497.0
526.0,501.0
529.0,503.0
526.0,512.0
525.0,516.0
522.0,518.0
514.0,518.0
507.0,509.0
499.0,509.0
502.0,505.0
505.0,493.0
510.0,503.0
503.0,506.0
510.0,500.0
498.0,475.0
501.0,483.0
507.0,497.0
509.0,505.0
522.0,507.0
522.0,496.0
515.0,514.0
513.0,509.0
510.0,515.0
506.0,513.0
509.0,507.0
519.0,495.0
507.0,499.0
511.0,500.0
513.0,496.0
520.0,489.0
513.0,494.0
516.0,493.0
513.0,493.0
511.0,509.0
505.0,502.0
523.0,506.0
523.0,507.0
529.0,515.0
517.0,514.0
494.0,508.0
500.0,505.0
508.0,509.0
508.0,497.0
520.0,497.0
506.0,497.0
500.0,489.0
497.0,491.0
485.0,492.0
482.0,491.0
484.0,490.0
499.0,503.0
508.0,504.0
516.0,516.0
524.0,518.0
516.0,511.0
510.0,510.0
503.0,506.0
512.0,498.0
519.0,506.0
527.0,498.0
526.0,506.0
527.0,502.0
525.0,495.0
526.0,491.0
515.0,487.0
516.0,500.0
506.0,504.0
489.0,491.0
480.0,505.0
503.0,515.0
516.0,516.0
517.0,517.0
515.0,515.0
523.0,514.0
509.0,510.0
496.0,507.0
498.0,504.0
505.0,505.0
508.0,501.0
510.0,491.0
517.0,483.0
504.0,498.0
514.0,493.0
509.0,492.0
513.0,494.0
518.0,507.0
514.0,517.0
523.0,511.0
523.0,516.0
521.0,517.0
504.0,505.0
502.0,506.0
498.0,499.0
502.0,504.0
500.0,508.0
504.0,503.0
524.0,497.0
515.0,497.0
506.0,497.0
516.0,502.0
528.0,504.0
526.0,494.0
538.0,506.0
531.0,513.0
531.0,504.0
521.0,510.0
500.0,506.0
506.0,512.0
504.0,511.0
501.0,493.0
496.0,496.0
469.0,510.0
484.0,502.0
471.0,503.0
480.0,483.0
493.0,481.0
497.0,491.0
484.0,498.0
492.0,505.0
497.0,509.0
502.0,516.0
512.0,512.0
522.0,511.0
532.0,505.0
556.0,498.0
564.0,500.0
542.0,505.0
524.0,501.0
501.0,498.0
483.0,487.0
495.0,503.0
532.0,487.0
553.0,494.0
547.0,507.0
533.0,499.0
511.0,495.0
518.0,498.0
511.0,506.0
513.0,524.0
519.0,536.0
507.0,534.0
482.0,519.0
476.0,508.0
485.0,494.0
491.0,474.0
501.0,481.0
510.0,505.0
531.0,486.0
536.0,472.0
520.0,491.0
501.0,494.0
507.0,492.0
495.0,504.0
502.0,514.0
526.0,515.0
523.0,522.0
525.0,513.0
510.0,499.0
469.0,494.0
458.0,496.0
497.0,501.0
517.0,509.0
533.0,492.0
516.0,475.0
523.0,484.0
527.0,484.0
530.0,491.0
506.0,488.0
511.0,506.0
518.0,521.0
517.0,528.0
514.0,519.0
511.0,520.0
518.0,515.0
516.0,508.0
519.0,501.0
530.0,500.0
523.0,494.0
517.0,494.0
527.0,495.0
529.0,494.0
530.0,502.0
500.0,494.0
486.0,493.0
515.0,500.0
514.0,502.0
497.0,512.0
479.0,524.0
480.0,521.0
498.0,518.0
523.0,490.0
538.0,503.0
511.0,517.0
456.0,506.0
453.0,500.0
486.0,486.0
511.0,484.0
503.0,488.0
494.0,493.0
505.0,499.0
517.0,500.0
522.0,486.0
535.0,488.0
561.0,537.0
561.0,538.0
540.0,527.0
500.0,508.0
495.0,499.0
528.0,499.0
524.0,503.0
488.0,523.0
495.0,512.0
526.0,486.0
537.0,473.0
528.0,485.0
547.0,490.0
523.0,475.0
481.0,497.0
496.0,516.0
493.0,520.0
513.0,514.0
525.0,511.0
552.0,509.0
496.0,509.0
474.0,523.0
468.0,524.0
490.0,480.0
508.0,467.0
462.0,486.0
475.0,471.0
475.0,488.0
470.0,493.0
472.0,496.0
500.0,501.0
513.0,492.0
517.0,507.0
496.0,512.0
553.0,528.0
564.0,543.0
537.0,517.0
489.0,519.0
471.0,519.0
464.0,508.0
488.0,488.0
532.0,487.0
581.0,514.0
565.0,486.0
535.0,474.0
545.0,473.0
507.0,492.0
493.0,498.0
500.0,497.0
518.0,496.0
540.0,501.0
568.0,515.0
568.0,513.0
536.0,510.0
499.0,527.0
465.0,517.0
449.0,491.0
505.0,449.0
515.0,496.0
503.0,533.0
495.0,520.0
500.0,486.0
490.0,471.0
482.0,482.0
462.0,498.0
452.0,511.0
466.0,521.0
477.0,522.0
539.0,513.0
537.0,502.0
557.0,511.0
561.0,508.0
504.0,501.0
502.0,502.0
512.0,499.0
527.0,491.0
483.0,521.0
471.0,529.0
523.0,496.0
542.0,451.0
539.0,482.0
530.0,520.0
533.0,517.0
557.0,505.0
577.0,494.0
547.0,506.0
531.0,505.0
489.0,515.0
457.0,510.0
463.0,502.0
491.0,505.0
496.0,513.0
528.0,529.0
522.0,478.0
503.0,473.0
500.0,488.0
482.0,465.0
496.0,470.0
535.0,520.0
552.0,549.0
542.0,530.0
518.0,520.0
465.0,487.0
466.0,485.0
466.0,531.0
459.0,562.0
456.0,523.0
438.0,447.0
428.0,435.0
473.0,496.0
507.0,494.0
573.0,507.0
567.0,497.0
562.0,504.0
555.0,499.0
593.0,500.0
622.0,507.0
620.0,491.0
545.0,504.0
435.0,542.0
448.0,563.0
494.0,532.0
547.0,496.0
562.0,480.0
526.0,494.0
534.0,501.0
528.0,462.0
481.0,489.0
476.0,513.0
494.0,541.0
532.0,564.0
512.0,490.0
497.0,465.0
512.0,482.0
427.0,499.0
410.0,499.0
410.0,483.0
519.0,516.0
575.0,536.0
590.0,567.0
614.0,565.0
543.0,477.0
446.0,420.0
439.0,484.0
451.0,485.0
470.0,464.0
501.0,474.0
516.0,488.0
528.0,497.0
527.0,498.0
544.0,518.0
537.0,529.0
486.0,556.0
485.0,516.0
510.0,463.0
529.0,478.0
537.0,544.0
521.0,554.0
499.0,547.0
501.0,480.0
494.0,471.0
498.0,503.0
506.0,477.0
511.0,438.0
535.0,476.0
541.0,556.0
552.0,529.0
511.0,500.0
536.0,509.0
506.0,499.0
496.0,485.0
598.0,509.0
546.0,531.0
448.0,553.0
426.0,550.0
440.0,479.0
506.0,468.0
513.0,474.0
481.0,491.0
482.0,496.0
488.0,464.0
490.0,477.0
505.0,525.0
488.0,523.0
503.0,516.0
550.0,527.0
552.0,512.0
576.0,488.0
582.0,470.0
558.0,511.0
520.0,522.0
489.0,572.0
467.0,524.0
501.0,435.0
545.0,504.0
532.0,504.0
495.0,451.0
444.0,489.0
468.0,495.0
490.0,500.0
530.0,520.0
580.0,514.0
613.0,527.0
482.0,572.0
428.0,547.0
417.0,484.0
435.0,458.0
471.0,513.0
469.0,532.0
505.0,497.0
464.0,493.0
490.0,468.0
498.0,459.0
488.0,475.0
490.0,518.0
516.0,507.0
547.0,510.0
545.0,520.0
496.0,496.0
479.0,479.0
511.0,498.0
522.0,509.0
582.0,509.0
640.0,510.0
650.0,465.0
630.0,479.0
595.0,490.0
500.0,469.0
375.0,504.0
400.0,508.0
406.0,514.0
389.0,566.0
439.0,550.0
511.0,465.0
535.0,489.0
491.0,555.0
493.0,557.0
510.0,517.0
513.0,477.0
478.0,492.0
470.0,505.0
466.0,510.0
440.0,529.0
413.0,521.0
423.0,477.0
442.0,437.0
486.0,487.0
568.0,495.0
580.0,499.0
593.0,505.0
569.0,524.0
578.0,532.0
609.0,522.0
621.0,539.0
612.0,538.0
564.0,556.0
514.0,539.0
458.0,490.0
489.0,434.0
518.0,439.0
506.0,443.0
512.0,454.0
505.0,463.0
420.0,474.0
468.0,495.0
480.0,534.0
460.0,552.0
485.0,520.0
479.0,481.0
492.0,512.0
488.0,546.0
498.0,537.0
508.0,520.0
519.0,483.0
502.0,489.0
481.0,492.0
492.0,526.0
500.0,507.0
476.0,468.0
426.0,455.0
448.0,504.0
487.0,524.0
537.0,521.0
551.0,489.0
540.0,495.0
619.0,512.0
624.0,523.0
574.0,550.0
549.0,588.0
558.0,566.0
531.0,520.0
534.0,455.0
552.0,419.0
545.0,435.0
507.0,504.0
395.0,486.0
421.0,442.0
507.0,458.0
548.0,491.0
573.0,476.0
549.0,500.0
443.0,541.0
331.0,563.0
423.0,525.0
449.0,499.0
442.0,535.0
406.0,509.0
446.0,504.0
471.0,479.0
489.0,479.0
545.0,487.0
653.0,500.0
596.0,501.0
545.0,521.0
612.0,552.0
633.0,572.0
565.0,548.0
541.0,444.0
430.0,486.0
389.0,490.0
432.0,488.0
451.0,504.0
482.0,493.0
519.0,504.0
590.0,531.0
537.0,527.0
494.0,477.0
503.0,474.0
485.0,512.0
487.0,539.0
514.0,519.0
538.0,514.0
510.0,565.0
455.0,519.0
467.0,474.0
493.0,459.0
499.0,478.0
519.0,474.0
523.0,521.0
531.0,551.0
598.0,509.0
563.0,446.0
575.0,449.0
557.0,500.0
489.0,490.0
436.0,504.0
453.0,503.0
458.0,505.0
503.0,495.0
520.0,491.0
529.0,512.0
521.0,529.0
502.0,529.0
500.0,467.0
479.0,472.0
460.0,484.0
481.0,498.0
483.0,503.0
571.0,495.0
553.0,483.0
507.0,493.0
488.0,497.0
486.0,521.0
518.0,514.0
538.0,488.0
498.0,479.0
501.0,501.0
512.0,502.0
465.0,524.0
514.0,535.0
505.0,514.0
560.0,510.0
565.0,532.0
551.0,530.0
526.0,521.0
522.0,447.0
480.0,434.0
423.0,476.0
411.0,497.0
368.0,497.0
498.0,493.0
566.0,500.0
559.0,503.0
557.0,504.0
506.0,504.0
505.0,508.0
549.0,514.0
528.0,508.0
514.0,497.0
495.0,493.0
491.0,493.0
552.0,511.0
542.0,490.0
490.0,497.0
479.0,503.0
510.0,483.0
530.0,504.0
518.0,501.0
588.0,484.0
581.0,499.0
545.0,499.0
518.0,496.0
488.0,519.0
416.0,526.0
461.0,547.0
507.0,582.0
533.0,561.0
518.0,457.0
481.0,442.0
496.0,490.0
550.0,492.0
565.0,497.0
610.0,508.0
486.0,500.0
460.0,487.0
476.0,487.0
482.0,509.0
475.0,530.0
477.0,508.0
484.0,488.0
492.0,490.0
495.0,509.0
486.0,516.0
488.0,525.0
493.0,526.0
504.0,496.0
495.0,429.0
508.0,464.0
496.0,504.0
523.0,493.0
527.0,555.0
542.0,597.0
538.0,493.0
507.0,435.0
499.0,484.0
529.0,502.0
552.0,502.0
543.0,515.0
513.0,513.0
492.0,484.0
494.0,491.0
454.0,485.0
486.0,489.0
481.0,496.0
513.0,485.0
526.0,488.0
522.0,497.0
458.0,504.0
487.0,520.0
519.0,524.0
522.0,501.0
513.0,531.0
488.0,516.0
445.0,486.0
411.0,466.0
461.0,488.0
525.0,494.0
562.0,483.0
554.0,491.0
553.0,491.0
535.0,508.0
529.0,494.0
507.0,499.0
487.0,500.0
526.0,497.0
520.0,508.0
527.0,505.0
499.0,503.0
529.0,515.0
564.0,541.0
526.0,526.0
506.0,500.0
479.0,524.0
489.0,503.0
527.0,456.0
530.0,494.0
534.0,504.0
517.0,492.0
527.0,486.0
501.0,514.0
534.0,520.0
469.0,507.0
461.0,513.0
483.0,525.0
511.0,543.0
565.0,515.0
553.0,469.0
478.0,471.0
510.0,495.0
478.0,521.0
512.0,517.0
498.0,497.0
511.0,470.0
511.0,483.0
543.0,512.0
542.0,505.0
572.0,481.0
506.0,504.0
481.0,578.0
457.0,597.0
500.0,536.0
545.0,411.0
568.0,439.0
575.0,485.0
500.0,501.0
459.0,490.0
448.0,504.0
510.0,497.0
523.0,478.0
513.0,507.0
492.0,525.0
425.0,495.0
433.0,483.0
491.0,488.0
515.0,502.0
522.0,505.0
541.0,510.0
553.0,529.0
527.0,538.0
570.0,501.0
585.0,476.0
514.0,480.0
484.0,510.0
477.0,524.0
449.0,515.0
458.0,490.0
496.0,483.0
496.0,492.0
508.0,487.0
508.0,498.0
480.0,509.0
502.0,498.0
545.0,492.0
565.0,502.0
577.0,506.0
557.0,520.0
501.0,529.0
484.0,515.0
500.0,495.0
517.0,497.0
500.0,515.0
510.0,521.0
485.0,501.0
480.0,493.0
477.0,482.0
498.0,474.0
500.0,484.0
509.0,497.0
523.0,523.0
519.0,531.0
535.0,523.0
497.0,479.0
464.0,500.0
507.0,503.0
518.0,513.0
531.0,502.0
558.0,529.0
566.0,538.0
506.0,576.0
472.0,564.0
459.0,481.0
449.0,412.0
462.0,448.0
557.0,485.0
593.0,491.0
490.0,489.0
474.0,494.0
509.0,505.0
522.0,508.0
495.0,503.0
505.0,499.0
507.0,496.0
500.0,511.0
491.0,511.0
468.0,504.0
510.0,506.0
502.0,500.0
470.0,461.0
465.0,470.0
442.0,483.0
444.0,490.0
542.0,503.0
551.0,513.0
614.0,514.0
650.0,515.0
605.0,536.0
525.0,552.0
461.0,517.0
486.0,491.0
514.0,528.0
599.0,464.0
566.0,462.0
464.0,473.0
486.0,469.0
507.0,467.0
523.0,508.0
497.0,519.0
501.0,507.0
526.0,504.0
554.0,506.0
561.0,515.0
543.0,517.0
475.0,510.0
433.0,506.0
402.0,494.0
440.0,502.0
489.0,513.0
520.0,519.0
524.0,512.0
519.0,541.0
521.0,524.0
544.0,458.0
553.0,449.0
533.0,495.0
467.0,499.0
508.0,505.0
537.0,494.0
505.0,505.0
507.0,516.0
536.0,515.0
522.0,510.0
518.0,518.0
505.0,514.0
482.0,502.0
469.0,505.0
450.0,504.0
466.0,506.0
522.0,512.0
517.0,509.0
515.0,488.0
541.0,464.0
526.0,464.0
520.0,514.0
545.0,515.0
540.0,513.0
534.0,506.0
530.0,507.0
509.0,499.0
488.0,487.0
497.0,503.0
493.0,518.0
497.0,525.0
509.0,498.0
510.0,483.0
503.0,493.0
487.0,502.0
441.0,516.0
439.0,502.0
511.0,504.0
533.0,507.0
539.0,518.0
518.0,500.0
529.0,500.0
556.0,528.0
566.0,558.0
525.0,515.0
494.0,456.0
510.0,487.0
532.0,480.0
502.0,488.0
525.0,492.0
496.0,499.0
515.0,492.0
480.0,491.0
490.0,494.0
510.0,512.0
545.0,507.0
524.0,511.0
496.0,512.0
511.0,517.0
473.0,496.0
474.0,510.0
478.0,514.0
485.0,525.0
529.0,576.0
535.0,515.0
491.0,426.0
468.0,440.0
449.0,482.0
428.0,494.0
530.0,502.0
585.0,506.0
564.0,502.0
571.0,503.0
542.0,504.0
512.0,514.0
516.0,510.0
527.0,521.0
585.0,509.0
592.0,503.0
585.0,526.0
570.0,523.0
508.0,503.0
430.0,491.0
399.0,515.0
469.0,535.0
485.0,489.0
491.0,468.0
471.0,478.0
465.0,503.0
520.0,514.0
566.0,499.0
541.0,504.0
491.0,497.0
468.0,506.0
470.0,507.0
494.0,496.0
489.0,497.0
487.0,478.0
503.0,520.0
511.0,517.0
507.0,486.0
508.0,502.0
502.0,554.0
506.0,535.0
503.0,476.0
471.0,443.0
492.0,489.0
522.0,505.0
527.0,506.0
543.0,506.0
528.0,505.0
512.0,509.0
508.0,498.0
484.0,496.0
457.0,499.0
488.0,493.0
538.0,471.0
528.0,490.0
519.0,509.0
461.0,520.0
455.0,511.0
530.0,506.0
571.0,516.0
605.0,511.0
593.0,497.0
535.0,506.0
467.0,507.0
465.0,502.0
478.0,510.0
482.0,526.0
451.0,497.0
480.0,472.0
486.0,468.0
481.0,499.0
526.0,514.0
547.0,498.0
541.0,487.0
506.0,488.0
529.0,496.0
543.0,513.0
538.0,521.0
520.0,503.0
531.0,500.0
490.0,512.0
466.0,498.0
498.0,493.0
495.0,502.0
480.0,497.0
475.0,490.0
498.0,494.0
491.0,509.0
506.0,517.0
528.0,516.0
514.0,497.0
538.0,491.0
553.0,503.0
535.0,504.0
526.0,502.0
533.0,506.0
534.0,513.0
539.0,515.0
554.0,507.0
558.0,514.0
521.0,526.0
508.0,518.0
496.0,512.0
523.0,483.0
510.0,483.0
493.0,478.0
441.0,502.0
451.0,522.0
478.0,527.0
478.0,488.0
524.0,488.0
488.0,509.0
489.0,508.0
469.0,485.0
539.0,497.0
599.0,501.0
590.0,491.0
537.0,481.0
475.0,489.0
485.0,494.0
481.0,488.0
506.0,488.0
518.0,487.0
531.0,490.0
492.0,530.0
486.0,556.0
505.0,525.0
515.0,504.0
523.0,500.0
501.0,510.0
497.0,507.0
518.0,494.0
520.0,501.0
533.0,503.0
543.0,501.0
519.0,513.0
473.0,506.0
479.0,514.0
489.0,517.0
493.0,498.0
497.0,480.0
517.0,495.0
553.0,506.0
528.0,520.0
505.0,510.0
489.0,521.0
487.0,517.0
502.0,497.0
504.0,496.0
504.0,495.0
508.0,497.0
499.0,521.0
510.0,527.0
474.0,515.0
474.0,457.0
467.0,479.0
479.0,497.0
531.0,504.0
536.0,502.0
554.0,509.0
559.0,510.0
529.0,501.0
516.0,505.0
487.0,507.0
500.0,497.0
513.0,501.0
527.0,522.0
521.0,531.0
524.0,488.0
479.0,491.0
465.0,485.0
467.0,486.0
466.0,495.0
492.0,503.0
492.0,528.0
488.0,545.0
509.0,522.0
520.0,498.0
551.0,501.0
584.0,495.0
565.0,491.0
464.0,499.0
472.0,501.0
491.0,494.0
515.0,497.0
529.0,502.0
541.0,504.0
563.0,506.0
540.0,522.0
469.0,513.0
481.0,488.0
510.0,482.0
527.0,495.0
497.0,499.0
484.0,509.0
475.0,501.0
498.0,505.0
526.0,503.0
542.0,506.0
567.0,500.0
545.0,505.0
541.0,491.0
532.0,481.0
513.0,482.0
443.0,477.0
478.0,499.0
498.0,510.0
523.0,495.0
548.0,533.0
561.0,505.0
548.0,504.0
577.0,524.0
528.0,534.0
518.0,499.0
509.0,481.0
519.0,496.0
533.0,518.0
506.0,511.0
478.0,489.0
443.0,484.0
456.0,513.0
495.0,508.0
492.0,493.0
479.0,487.0
528.0,503.0
493.0,506.0
524.0,523.0
527.0,525.0
522.0,528.0
499.0,503.0
494.0,486.0
491.0,495.0
480.0,495.0
482.0,501.0
473.0,504.0
475.0,506.0
482.0,514.0
506.0,489.0
538.0,484.0
554.0,485.0
542.0,505.0
509.0,515.0
494.0,517.0
511.0,509.0
538.0,505.0
534.0,517.0
485.0,519.0
449.0,517.0
452.0,493.0
463.0,476.0
489.0,487.0
509.0,505.0
527.0,490.0
557.0,488.0
568.0,490.0
585.0,497.0
555.0,501.0
513.0,510.0
457.0,511.0
