CH1,CH2
507.0,498.0
504.0,496.0
498.0,508.0
510.0,497.0
503.0,496.0
500.0,487.0
505.0,492.0
503.0,495.0
506.0,491.0
515.0,503.0
522.0,508.0
527.0,515.0
524.0,517.0
518.0,510.0
520.0,513.0
513.0,510.0
509.0,513.0
509.0,504.0
503.0,494.0
501.0,502.0
503.0,496.0
496.0,498.0
496.0,497.0
501.0,492.0
505.0,499.0
505.0,499.0
516.0,505.0
518.0,504.0
520.0,511.0
520.0,512.0
519.0,511.0
524.0,512.0
522.0,508.0
518.0,505.0
510.0,499.0
502.0,504.0
494.0,506.0
502.0,496.0
493.0,491.0
485.0,494.0
502.0,492.0
506.0,497.0
513.0,500.0
519.0,508.0
521.0,510.0
518.0,508.0
520.0,516.0
509.0,513.0
513.0,503.0
514.0,510.0
504.0,495.0
503.0,497.0
497.0,504.0
494.0,502.0
499.0,500.0
498.0,496.0
495.0,496.0
490.0,499.0
505.0,498.0
508.0,495.0
517.0,504.0
519.0,513.0
520.0,516.0
518.0,511.0
520.0,515.0
508.0,505.0
507.0,498.0
506.0,501.0
509.0,500.0
506.0,494.0
496.0,500.0
501.0,497.0
505.0,490.0
506.0,486.0
499.0,493.0
514.0,501.0
515.0,508.0
524.0,503.0
531.0,518.0
524.0,517.0
522.0,508.0
518.0,514.0
514.0,507.0
507.0,495.0
493.0,507.0
503.0,501.0
501.0,497.0
496.0,494.0
488.0,498.0
499.0,493.0
502.0,487.0
506.0,490.0
510.0,501.0
508.0,504.0
522.0,510.0
527.0,517.0
520.0,514.0
520.0,513.0
516.0,512.0
503.0,514.0
504.0,504.0
504.0,497.0
507.0,497.0
505.0,496.0
499.0,498.0
490.0,493.0
497.0,488.0
503.0,494.0
504.0,503.0
517.0,508.0
518.0,504.0
526.0,508.0
528.0,516.0
526.0,517.0
516.0,511.0
512.0,511.0
508.0,509.0
505.0,505.0
503.0,499.0
504.0,500.0
505.0,497.0
508.0,495.0
501.0,495.0
500.0,495.0
509.0,496.0
507.0,500.0
518.0,506.0
533.0,513.0
536.0,520.0
521.0,508.0
524.0,510.0
518.0,512.0
510.0,495.0
498.0,507.0
499.0,503.0
502.0,503.0
492.0,501.0
505.0,495.0
501.0,492.0
496.0,488.0
499.0,489.0
504.0,493.0
505.0,497.0
520.0,507.0
519.0,507.0
528.0,517.0
523.0,516.0
519.0,518.0
514.0,506.0
517.0,508.0
510.0,504.0
504.0,508.0
504.0,502.0
502.0,499.0
505.0,497.0
504.0,491.0
506.0,490.0
503.0,497.0
512.0,500.0
508.0,500.0
519.0,504.0
527.0,515.0
526.0,517.0
516.0,513.0
512.0,505.0
510.0,502.0
506.0,499.0
505.0,502.0
506.0,499.0
509.0,499.0
503.0,492.0
500.0,488.0
498.0,492.0
501.0,490.0
504.0,487.0
506.0,496.0
516.0,503.0
526.0,510.0
528.0,512.0
521.0,515.0
517.0,507.0
518.0,511.0
512.0,509.0
503.0,505.0
492.0,506.0
506.0,498.0
503.0,497.0
499.0,499.0
498.0,496.0
496.0,498.0
506.0,491.0
507.0,498.0
512.0,507.0
516.0,507.0
521.0,511.0
529.0,516.0
514.0,510.0
511.0,512.0
509.0,514.0
510.0,506.0
507.0,502.0
503.0,493.0
509.0,497.0
499.0,499.0
505.0,494.0
499.0,493.0
503.0,489.0
505.0,488.0
512.0,501.0
517.0,503.0
520.0,508.0
524.0,514.0
519.0,513.0
522.0,514.0
515.0,515.0
515.0,509.0
510.0,499.0
514.0,496.0
518.0,500.0
508.0,490.0
501.0,499.0
494.0,497.0
502.0,495.0
504.0,489.0
510.0,495.0
510.0,497.0
515.0,502.0
510.0,510.0
516.0,510.0
506.0,514.0
515.0,513.0
508.0,509.0
502.0,509.0
504.0,495.0
505.0,498.0
504.0,502.0
501.0,500.0
504.0,495.0
496.0,493.0
495.0,491.0
495.0,494.0
500.0,497.0
507.0,494.0
522.0,502.0
524.0,512.0
517.0,511.0
521.0,514.0
514.0,512.0
518.0,512.0
502.0,503.0
502.0,510.0
507.0,504.0
502.0,499.0
498.0,498.0
496.0,497.0
504.0,494.0
497.0,500.0
487.0,498.0
509.0,494.0
512.0,503.0
518.0,505.0
526.0,513.0
516.0,513.0
519.0,517.0
518.0,514.0
506.0,516.0
508.0,502.0
506.0,492.0
504.0,505.0
505.0,498.0
501.0,494.0
497.0,498.0
495.0,496.0
492.0,494.0
504.0,499.0
509.0,497.0
520.0,509.0
522.0,508.0
525.0,515.0
519.0,514.0
517.0,507.0
511.0,513.0
508.0,504.0
502.0,504.0
510.0,504.0
508.0,504.0
509.0,498.0
503.0,493.0
496.0,497.0
500.0,492.0
497.0,496.0
506.0,496.0
506.0,499.0
524.0,508.0
522.0,513.0
527.0,518.0
523.0,518.0
516.0,517.0
496.0,510.0
508.0,511.0
506.0,504.0
504.0,506.0
509.0,500.0
507.0,496.0
494.0,499.0
504.0,492.0
494.0,494.0
490.0,494.0
518.0,497.0
530.0,505.0
532.0,511.0
531.0,507.0
526.0,512.0
514.0,513.0
511.0,513.0
501.0,508.0
494.0,514.0
506.0,502.0
502.0,505.0
507.0,499.0
502.0,490.0
492.0,498.0
490.0,496.0
499.0,488.0
498.0,490.0
515.0,501.0
513.0,499.0
525.0,512.0
527.0,518.0
522.0,515.0
513.0,506.0
517.0,507.0
513.0,506.0
508.0,505.0
507.0,499.0
507.0,503.0
512.0,497.0
506.0,496.0
503.0,490.0
502.0,490.0
502.0,486.0
499.0,490.0
502.0,494.0
514.0,504.0
523.0,513.0
521.0,511.0
519.0,514.0
511.0,507.0
510.0,506.0
510.0,499.0
506.0,504.0
506.0,494.0
505.0,488.0
505.0,489.0
503.0,490.0
495.0,494.0
491.0,498.0
499.0,486.0
511.0,500.0
518.0,504.0
518.0,501.0
519.0,509.0
514.0,511.0
522.0,514.0
512.0,505.0
508.0,515.0
506.0,500.0
504.0,507.0
505.0,501.0
509.0,496.0
504.0,486.0
500.0,489.0
503.0,488.0
505.0,490.0
505.0,495.0
515.0,499.0
521.0,505.0
534.0,507.0
530.0,510.0
524.0,513.0
511.0,512.0
507.0,512.0
506.0,510.0
501.0,499.0
501.0,508.0
505.0,500.0
502.0,491.0
499.0,490.0
496.0,498.0
498.0,493.0
504.0,493.0
508.0,499.0
513.0,495.0
515.0,499.0
524.0,511.0
518.0,514.0
521.0,513.0
516.0,517.0
518.0,513.0
513.0,500.0
508.0,504.0
506.0,503.0
506.0,491.0
499.0,501.0
503.0,495.0
501.0,492.0
498.0,495.0
501.0,495.0
501.0,492.0
516.0,502.0
517.0,503.0
519.0,515.0
520.0,513.0
514.0,513.0
517.0,510.0
507.0,516.0
505.0,510.0
507.0,507.0
504.0,498.0
501.0,496.0
503.0,503.0
503.0,498.0
498.0,494.0
495.0,494.0
505.0,496.0
510.0,501.0
513.0,502.0
532.0,513.0
529.0,514.0
529.0,517.0
529.0,515.0
515.0,513.0
498.0,507.0
484.0,511.0
487.0,506.0
498.0,493.0
502.0,497.0
503.0,491.0
489.0,497.0
493.0,497.0
504.0,492.0
514.0,499.0
510.0,503.0
512.0,505.0
524.0,514.0
520.0,519.0
518.0,516.0
518.0,514.0
511.0,508.0
509.0,505.0
505.0,503.0
506.0,499.0
503.0,501.0
502.0,493.0
500.0,489.0
496.0,493.0
499.0,486.0
504.0,493.0
508.0,499.0
515.0,507.0
518.0,506.0
528.0,510.0
524.0,512.0
523.0,511.0
517.0,512.0
518.0,509.0
506.0,506.0
505.0,500.0
506.0,503.0
506.0,502.0
499.0,494.0
506.0,493.0
499.0,491.0
499.0,495.0
506.0,495.0
513.0,502.0
511.0,504.0
519.0,513.0
521.0,512.0
520.0,509.0
517.0,510.0
508.0,510.0
508.0,505.0
503.0,507.0
500.0,499.0
498.0,505.0
505.0,498.0
501.0,493.0
486.0,490.0
501.0,492.0
500.0,487.0
507.0,496.0
512.0,501.0
521.0,508.0
522.0,508.0
523.0,501.0
522.0,514.0
518.0,509.0
518.0,512.0
507.0,510.0
503.0,505.0
506.0,496.0
504.0,502.0
497.0,501.0
505.0,493.0
497.0,485.0
499.0,490.0
504.0,497.0
502.0,496.0
510.0,506.0
520.0,506.0
523.0,512.0
526.0,515.0
522.0,512.0
522.0,513.0
517.0,505.0
505.0,507.0
511.0,502.0
500.0,499.0
478.0,503.0
496.0,494.0
492.0,496.0
494.0,498.0
497.0,489.0
499.0,494.0
504.0,493.0
517.0,508.0
520.0,508.0
520.0,514.0
519.0,515.0
511.0,514.0
513.0,514.0
509.0,511.0
504.0,505.0
512.0,502.0
508.0,501.0
502.0,494.0
501.0,496.0
497.0,498.0
500.0,490.0
502.0,496.0
508.0,498.0
514.0,500.0
521.0,505.0
523.0,512.0
523.0,516.0
520.0,510.0
523.0,510.0
512.0,504.0
515.0,505.0
513.0,500.0
518.0,501.0
512.0,496.0
506.0,497.0
495.0,494.0
493.0,492.0
491.0,493.0
497.0,492.0
508.0,501.0
515.0,505.0
514.0,507.0
523.0,513.0
521.0,504.0
519.0,517.0
511.0,512.0
511.0,509.0
509.0,503.0
501.0,509.0
507.0,498.0
503.0,491.0
501.0,499.0
494.0,497.0
491.0,497.0
503.0,492.0
506.0,494.0
510.0,506.0
519.0,506.0
521.0,505.0
525.0,518.0
520.0,510.0
519.0,510.0
516.0,514.0
500.0,511.0
500.0,507.0
509.0,502.0
506.0,495.0
501.0,501.0
508.0,494.0
502.0,494.0
502.0,492.0
502.0,489.0
503.0,490.0
511.0,497.0
513.0,503.0
527.0,514.0
529.0,515.0
519.0,513.0
521.0,514.0
516.0,512.0
510.0,502.0
502.0,508.0
511.0,506.0
510.0,503.0
510.0,502.0
500.0,489.0
495.0,497.0
491.0,491.0
506.0,494.0
503.0,492.0
515.0,507.0
519.0,507.0
527.0,515.0
528.0,515.0
523.0,516.0
515.0,508.0
510.0,516.0
509.0,513.0
506.0,495.0
507.0,500.0
497.0,507.0
488.0,493.0
492.0,489.0
488.0,492.0
500.0,487.0
504.0,494.0
512.0,502.0
517.0,504.0
523.0,514.0
533.0,513.0
531.0,515.0
527.0,515.0
520.0,509.0
514.0,506.0
505.0,505.0
500.0,503.0
494.0,501.0
493.0,500.0
494.0,500.0
499.0,492.0
497.0,486.0
500.0,491.0
509.0,499.0
520.0,506.0
526.0,509.0
526.0,509.0
518.0,515.0
502.0,508.0
507.0,509.0
505.0,514.0
505.0,512.0
505.0,498.0
506.0,502.0
514.0,489.0
513.0,494.0
499.0,498.0
495.0,492.0
506.0,489.0
504.0,497.0
514.0,497.0
521.0,497.0
528.0,502.0
531.0,508.0
524.0,506.0
522.0,507.0
522.0,510.0
514.0,505.0
511.0,507.0
514.0,498.0
498.0,509.0
495.0,496.0
490.0,501.0
493.0,490.0
491.0,497.0
507.0,493.0
503.0,500.0
512.0,494.0
524.0,509.0
523.0,507.0
524.0,511.0
519.0,513.0
515.0,515.0
513.0,511.0
496.0,504.0
500.0,510.0
509.0,502.0
508.0,499.0
504.0,496.0
503.0,484.0
502.0,493.0
508.0,491.0
501.0,496.0
507.0,497.0
507.0,501.0
519.0,508.0
528.0,513.0
530.0,516.0
523.0,515.0
518.0,515.0
514.0,511.0
504.0,505.0
500.0,506.0
505.0,498.0
504.0,496.0
504.0,494.0
493.0,489.0
493.0,495.0
489.0,497.0
498.0,502.0
504.0,499.0
516.0,503.0
525.0,510.0
530.0,518.0
512.0,510.0
492.0,508.0
504.0,509.0
502.0,504.0
494.0,505.0
501.0,506.0
500.0,506.0
494.0,501.0
498.0,499.0
502.0,494.0
503.0,491.0
508.0,490.0
514.0,497.0
517.0,496.0
532.0,499.0
535.0,506.0
527.0,518.0
523.0,518.0
519.0,518.0
509.0,503.0
512.0,506.0
506.0,506.0
505.0,504.0
498.0,508.0
506.0,502.0
491.0,498.0
484.0,494.0
475.0,497.0
493.0,494.0
508.0,496.0
508.0,499.0
511.0,509.0
534.0,518.0
542.0,516.0
541.0,515.0
528.0,515.0
511.0,515.0
508.0,513.0
500.0,505.0
502.0,507.0
506.0,497.0
504.0,495.0
503.0,493.0
482.0,496.0
518.0,491.0
512.0,499.0
515.0,503.0
520.0,504.0
527.0,512.0
526.0,507.0
531.0,517.0
519.0,510.0
515.0,515.0
511.0,512.0
510.0,505.0
508.0,503.0
509.0,504.0
493.0,502.0
502.0,501.0
488.0,497.0
506.0,492.0
507.0,495.0
514.0,500.0
517.0,502.0
522.0,505.0
527.0,511.0
523.0,517.0
520.0,519.0
512.0,519.0
504.0,515.0
504.0,509.0
505.0,504.0
504.0,504.0
489.0,506.0
495.0,494.0
500.0,494.0
490.0,497.0
498.0,492.0
498.0,490.0
507.0,497.0
516.0,502.0
522.0,507.0
533.0,519.0
528.0,513.0
523.0,508.0
520.0,513.0
501.0,517.0
499.0,503.0
499.0,498.0
482.0,504.0
494.0,502.0
502.0,492.0
495.0,491.0
494.0,480.0
494.0,496.0
510.0,492.0
506.0,496.0
522.0,505.0
526.0,507.0
526.0,508.0
525.0,515.0
509.0,510.0
505.0,513.0
498.0,507.0
501.0,509.0
511.0,507.0
509.0,498.0
504.0,496.0
490.0,496.0
488.0,492.0
487.0,494.0
486.0,491.0
494.0,500.0
494.0,503.0
507.0,509.0
514.0,508.0
515.0,515.0
523.0,510.0
540.0,510.0
541.0,508.0
528.0,509.0
525.0,497.0
522.0,500.0
520.0,498.0
516.0,503.0
525.0,505.0
511.0,493.0
514.0,496.0
516.0,501.0
522.0,502.0
534.0,506.0
541.0,510.0
527.0,513.0
502.0,518.0
495.0,514.0
509.0,514.0
502.0,517.0
503.0,498.0
508.0,501.0
512.0,500.0
514.0,497.0
520.0,496.0
503.0,502.0
487.0,491.0
485.0,495.0
498.0,491.0
499.0,498.0
502.0,502.0
523.0,511.0
521.0,509.0
511.0,508.0
501.0,507.0
500.0,515.0
502.0,509.0
494.0,495.0
502.0,502.0
492.0,505.0
506.0,492.0
500.0,499.0
502.0,489.0
497.0,487.0
501.0,496.0
511.0,498.0
517.0,495.0
524.0,506.0
522.0,504.0
526.0,514.0
516.0,512.0
520.0,515.0
515.0,512.0
501.0,499.0
506.0,493.0
502.0,495.0
501.0,498.0
510.0,498.0
514.0,504.0
518.0,505.0
522.0,511.0
519.0,512.0
526.0,515.0
512.0,511.0
514.0,510.0
510.0,513.0
510.0,505.0
498.0,508.0
494.0,497.0
495.0,496.0
492.0,496.0
494.0,499.0
505.0,492.0
509.0,495.0
516.0,497.0
517.0,497.0
528.0,508.0
529.0,509.0
524.0,514.0
515.0,511.0
508.0,507.0
502.0,509.0
500.0,510.0
502.0,498.0
509.0,503.0
498.0,503.0
511.0,499.0
506.0,491.0
499.0,499.0
500.0,498.0
506.0,496.0
515.0,500.0
512.0,499.0
517.0,510.0
524.0,508.0
520.0,515.0
519.0,512.0
512.0,509.0
503.0,510.0
509.0,496.0
499.0,508.0
503.0,497.0
500.0,502.0
505.0,499.0
500.0,498.0
494.0,500.0
504.0,497.0
509.0,494.0
510.0,495.0
518.0,497.0
523.0,512.0
527.0,514.0
524.0,519.0
513.0,512.0
517.0,510.0
506.0,509.0
503.0,505.0
504.0,497.0
510.0,500.0
498.0,497.0
500.0,496.0
494.0,493.0
499.0,485.0
507.0,496.0
508.0,495.0
514.0,501.0
520.0,506.0
515.0,505.0
528.0,514.0
514.0,513.0
510.0,509.0
506.0,512.0
501.0,508.0
501.0,503.0
499.0,500.0
496.0,504.0
500.0,494.0
493.0,499.0
508.0,493.0
506.0,496.0
507.0,498.0
510.0,503.0
513.0,506.0
517.0,510.0
518.0,514.0
517.0,514.0
519.0,513.0
526.0,511.0
510.0,507.0
514.0,506.0
520.0,503.0
506.0,505.0
511.0,495.0
518.0,497.0
504.0,495.0
497.0,493.0
504.0,495.0
508.0,495.0
512.0,505.0
514.0,508.0
522.0,515.0
527.0,519.0
520.0,512.0
518.0,513.0
518.0,512.0
509.0,511.0
509.0,500.0
506.0,502.0
506.0,501.0
494.0,502.0
498.0,488.0
499.0,493.0
493.0,486.0
483.0,500.0
501.0,496.0
515.0,505.0
519.0,504.0
526.0,515.0
526.0,510.0
524.0,514.0
519.0,507.0
506.0,502.0
500.0,503.0
502.0,494.0
509.0,499.0
506.0,500.0
514.0,506.0
499.0,507.0
501.0,500.0
504.0,497.0
507.0,499.0
507.0,496.0
508.0,497.0
507.0,507.0
512.0,515.0
512.0,514.0
509.0,515.0
515.0,519.0
520.0,511.0
517.0,514.0
516.0,511.0
519.0,505.0
522.0,507.0
514.0,505.0
513.0,490.0
505.0,480.0
491.0,491.0
489.0,497.0
499.0,500.0
513.0,510.0
525.0,515.0
522.0,510.0
512.0,496.0
513.0,504.0
507.0,508.0
504.0,501.0
509.0,502.0
516.0,502.0
507.0,502.0
509.0,497.0
503.0,501.0
502.0,487.0
501.0,487.0
504.0,488.0
503.0,499.0
512.0,501.0
516.0,510.0
524.0,510.0
523.0,513.0
518.0,515.0
517.0,516.0
510.0,506.0
512.0,508.0
510.0,503.0
498.0,501.0
504.0,493.0
507.0,498.0
499.0,497.0
500.0,492.0
503.0,494.0
496.0,499.0
508.0,500.0
517.0,504.0
520.0,510.0
527.0,514.0
527.0,517.0
515.0,510.0
516.0,504.0
511.0,499.0
506.0,496.0
502.0,506.0
505.0,497.0
498.0,502.0
505.0,493.0
489.0,497.0
499.0,491.0
497.0,488.0
502.0,498.0
512.0,506.0
514.0,501.0
512.0,506.0
524.0,514.0
518.0,511.0
513.0,507.0
510.0,511.0
507.0,507.0
506.0,502.0
507.0,503.0
507.0,504.0
508.0,495.0
497.0,497.0
496.0,479.0
494.0,485.0
508.0,487.0
500.0,497.0
513.0,502.0
521.0,505.0
526.0,512.0
519.0,512.0
520.0,517.0
516.0,506.0
512.0,508.0
499.0,507.0
500.0,507.0
505.0,496.0
507.0,497.0
500.0,500.0
509.0,492.0
507.0,482.0
505.0,492.0
508.0,496.0
512.0,497.0
520.0,499.0
511.0,500.0
514.0,509.0
521.0,511.0
526.0,505.0
525.0,501.0
505.0,505.0
504.0,507.0
489.0,512.0
505.0,497.0
508.0,502.0
504.0,496.0
488.0,501.0
497.0,490.0
508.0,485.0
508.0,494.0
520.0,500.0
530.0,507.0
531.0,511.0
534.0,511.0
522.0,506.0
521.0,511.0
512.0,512.0
501.0,502.0
505.0,501.0
507.0,503.0
502.0,496.0
499.0,498.0
508.0,491.0
499.0,486.0
500.0,485.0
510.0,493.0
505.0,485.0
513.0,505.0
524.0,509.0
520.0,513.0
527.0,512.0
516.0,512.0
514.0,508.0
512.0,500.0
513.0,503.0
510.0,503.0
499.0,505.0
505.0,504.0
505.0,495.0
500.0,494.0
504.0,491.0
501.0,493.0
506.0,495.0
511.0,498.0
517.0,499.0
529.0,509.0
528.0,511.0
530.0,511.0
526.0,512.0
511.0,508.0
499.0,507.0
502.0,502.0
498.0,507.0
502.0,498.0
492.0,503.0
495.0,491.0
496.0,493.0
481.0,492.0
482.0,492.0
496.0,497.0
512.0,507.0
519.0,501.0
529.0,515.0
528.0,515.0
523.0,509.0
524.0,510.0
515.0,511.0
511.0,506.0
506.0,489.0
516.0,500.0
506.0,505.0
504.0,500.0
507.0,494.0
503.0,487.0
501.0,483.0
510.0,497.0
510.0,493.0
510.0,498.0
512.0,509.0
520.0,511.0
526.0,515.0
508.0,513.0
517.0,513.0
510.0,508.0
504.0,510.0
502.0,499.0
505.0,501.0
493.0,496.0
499.0,489.0
491.0,495.0
506.0,489.0
505.0,494.0
508.0,495.0
495.0,507.0
498.0,516.0
505.0,519.0
525.0,517.0
543.0,508.0
534.0,504.0
530.0,507.0
527.0,508.0
512.0,506.0
492.0,513.0
483.0,512.0
507.0,508.0
498.0,512.0
502.0,503.0
505.0,484.0
511.0,493.0
519.0,501.0
517.0,513.0
512.0,502.0
524.0,499.0
527.0,506.0
519.0,502.0
501.0,512.0
500.0,516.0
500.0,505.0
508.0,498.0
508.0,490.0
510.0,495.0
505.0,490.0
506.0,488.0
492.0,482.0
494.0,489.0
487.0,489.0
502.0,499.0
520.0,507.0
520.0,506.0
545.0,519.0
534.0,520.0
524.0,517.0
525.0,512.0
515.0,512.0
505.0,503.0
509.0,506.0
498.0,504.0
495.0,496.0
498.0,495.0
489.0,498.0
503.0,493.0
497.0,501.0
497.0,494.0
508.0,496.0
518.0,502.0
526.0,512.0
519.0,507.0
524.0,518.0
516.0,513.0
504.0,506.0
506.0,510.0
495.0,510.0
507.0,501.0
513.0,499.0
501.0,502.0
499.0,495.0
493.0,500.0
495.0,498.0
501.0,498.0
510.0,492.0
510.0,503.0
515.0,501.0
521.0,509.0
521.0,511.0
522.0,510.0
514.0,514.0
511.0,512.0
506.0,509.0
509.0,504.0
510.0,499.0
517.0,502.0
511.0,494.0
513.0,496.0
511.0,492.0
506.0,489.0
499.0,492.0
483.0,497.0
495.0,501.0
512.0,509.0
514.0,510.0
520.0,517.0
524.0,515.0
520.0,506.0
516.0,502.0
514.0,510.0
513.0,503.0
505.0,496.0
490.0,505.0
492.0,489.0
488.0,495.0
499.0,492.0
501.0,492.0
515.0,492.0
522.0,499.0
529.0,507.0
536.0,513.0
529.0,514.0
530.0,502.0
519.0,518.0
514.0,516.0
510.0,517.0
512.0,503.0
512.0,499.0
508.0,498.0
495.0,492.0
488.0,499.0
495.0,501.0
492.0,502.0
498.0,497.0
512.0,505.0
510.0,501.0
523.0,512.0
524.0,515.0
527.0,513.0
513.0,509.0
510.0,510.0
506.0,509.0
506.0,511.0
506.0,506.0
519.0,502.0
508.0,490.0
506.0,484.0
498.0,496.0
501.0,490.0
499.0,495.0
504.0,492.0
509.0,498.0
515.0,497.0
519.0,503.0
527.0,508.0
538.0,503.0
535.0,509.0
525.0,502.0
503.0,513.0
499.0,499.0
496.0,500.0
500.0,502.0
503.0,488.0
504.0,496.0
498.0,487.0
491.0,491.0
495.0,494.0
499.0,498.0
506.0,496.0
521.0,506.0
532.0,504.0
527.0,501.0
528.0,510.0
530.0,511.0
512.0,516.0
503.0,513.0
522.0,500.0
521.0,494.0
518.0,499.0
494.0,502.0
500.0,495.0
499.0,501.0
469.0,496.0
497.0,492.0
500.0,491.0
511.0,503.0
514.0,505.0
512.0,514.0
512.0,511.0
522.0,522.0
514.0,509.0
513.0,511.0
498.0,509.0
490.0,505.0
501.0,491.0
514.0,496.0
501.0,504.0
510.0,498.0
491.0,492.0
485.0,499.0
501.0,497.0
508.0,502.0
507.0,507.0
520.0,510.0
523.0,509.0
527.0,514.0
532.0,514.0
534.0,513.0
531.0,506.0
516.0,507.0
510.0,503.0
517.0,494.0
521.0,490.0
514.0,489.0
494.0,497.0
497.0,505.0
499.0,496.0
498.0,507.0
511.0,503.0
522.0,498.0
534.0,494.0
530.0,500.0
552.0,517.0
553.0,527.0
543.0,527.0
538.0,525.0
516.0,510.0
494.0,502.0
477.0,487.0
492.0,489.0
492.0,481.0
483.0,478.0
484.0,486.0
491.0,487.0
494.0,505.0
501.0,503.0
520.0,509.0
528.0,505.0
525.0,510.0
524.0,506.0
527.0,509.0
510.0,503.0
509.0,501.0
515.0,499.0
521.0,504.0
521.0,501.0
526.0,487.0
497.0,470.0
469.0,486.0
479.0,485.0
494.0,491.0
495.0,497.0
509.0,510.0
514.0,515.0
524.0,523.0
529.0,523.0
527.0,509.0
521.0,515.0
504.0,517.0
488.0,507.0
482.0,516.0
490.0,509.0
506.0,499.0
502.0,500.0
501.0,494.0
507.0,495.0
507.0,495.0
509.0,504.0
506.0,508.0
527.0,506.0
550.0,510.0
533.0,511.0
526.0,505.0
519.0,494.0
509.0,500.0
500.0,510.0
508.0,501.0
515.0,509.0
516.0,515.0
505.0,519.0
510.0,502.0
507.0,491.0
499.0,493.0
505.0,494.0
516.0,499.0
504.0,499.0
497.0,506.0
501.0,517.0
512.0,518.0
512.0,511.0
506.0,517.0
512.0,501.0
523.0,501.0
536.0,494.0
534.0,508.0
523.0,510.0
516.0,507.0
520.0,493.0
518.0,475.0
525.0,480.0
529.0,497.0
538.0,502.0
508.0,497.0
461.0,503.0
496.0,518.0
510.0,517.0
516.0,511.0
512.0,502.0
516.0,505.0
507.0,505.0
490.0,508.0
486.0,495.0
488.0,488.0
498.0,493.0
475.0,492.0
440.0,502.0
452.0,500.0
467.0,495.0
467.0,509.0
500.0,498.0
540.0,516.0
574.0,522.0
567.0,509.0
553.0,503.0
535.0,500.0
543.0,497.0
536.0,497.0
527.0,510.0
509.0,512.0
500.0,493.0
481.0,487.0
498.0,488.0
503.0,492.0
497.0,505.0
502.0,502.0
505.0,509.0
514.0,512.0
513.0,514.0
515.0,520.0
516.0,528.0
517.0,523.0
515.0,523.0
508.0,490.0
497.0,489.0
516.0,499.0
511.0,506.0
497.0,511.0
478.0,497.0
489.0,491.0
502.0,483.0
496.0,495.0
496.0,490.0
508.0,486.0
535.0,503.0
554.0,500.0
538.0,513.0
529.0,521.0
509.0,508.0
488.0,496.0
512.0,489.0
528.0,484.0
509.0,492.0
508.0,516.0
499.0,523.0
503.0,519.0
483.0,509.0
501.0,502.0
494.0,492.0
514.0,477.0
542.0,478.0
540.0,501.0
522.0,522.0
518.0,520.0
516.0,524.0
510.0,512.0
513.0,489.0
519.0,499.0
510.0,513.0
478.0,507.0
479.0,500.0
491.0,505.0
484.0,486.0
481.0,474.0
498.0,478.0
517.0,490.0
515.0,493.0
522.0,516.0
544.0,514.0
550.0,525.0
540.0,522.0
533.0,519.0
506.0,502.0
493.0,494.0
484.0,504.0
460.0,496.0
480.0,507.0
452.0,505.0
442.0,503.0
454.0,500.0
464.0,497.0
493.0,488.0
547.0,498.0
575.0,498.0
596.0,495.0
590.0,503.0
544.0,511.0
500.0,518.0
513.0,534.0
523.0,525.0
507.0,497.0
495.0,501.0
514.0,494.0
541.0,486.0
526.0,489.0
496.0,493.0
490.0,488.0
491.0,514.0
504.0,539.0
531.0,520.0
532.0,477.0
510.0,455.0
505.0,489.0
512.0,525.0
513.0,519.0
521.0,510.0
525.0,506.0
499.0,506.0
503.0,500.0
478.0,497.0
464.0,496.0
463.0,492.0
453.0,498.0
486.0,477.0
546.0,476.0
525.0,502.0
525.0,519.0
528.0,528.0
532.0,531.0
539.0,510.0
542.0,502.0
545.0,513.0
531.0,521.0
550.0,522.0
557.0,500.0
514.0,492.0
511.0,497.0
522.0,503.0
524.0,478.0
507.0,497.0
481.0,496.0
499.0,492.0
504.0,487.0
483.0,503.0
428.0,514.0
447.0,527.0
443.0,513.0
489.0,506.0
501.0,504.0
558.0,489.0
585.0,491.0
564.0,485.0
505.0,509.0
476.0,511.0
453.0,485.0
452.0,481.0
449.0,509.0
477.0,522.0
513.0,511.0
559.0,503.0
543.0,497.0
529.0,537.0
544.0,562.0
531.0,523.0
532.0,500.0
520.0,503.0
514.0,488.0
521.0,505.0
529.0,517.0
515.0,480.0
559.0,483.0
574.0,499.0
479.0,499.0
432.0,488.0
452.0,481.0
477.0,518.0
497.0,510.0
469.0,500.0
466.0,490.0
485.0,493.0
504.0,499.0
503.0,509.0
554.0,496.0
569.0,508.0
516.0,533.0
489.0,553.0
497.0,517.0
488.0,467.0
474.0,488.0
484.0,459.0
486.0,454.0
506.0,467.0
547.0,478.0
608.0,509.0
608.0,537.0
544.0,525.0
511.0,521.0
518.0,512.0
557.0,499.0
555.0,506.0
532.0,535.0
496.0,530.0
453.0,493.0
443.0,471.0
460.0,445.0
552.0,466.0
506.0,498.0
530.0,514.0
602.0,510.0
588.0,514.0
548.0,527.0
525.0,528.0
478.0,498.0
462.0,464.0
476.0,461.0
475.0,498.0
394.0,502.0
386.0,517.0
453.0,527.0
513.0,544.0
525.0,516.0
541.0,460.0
558.0,458.0
489.0,493.0
437.0,509.0
395.0,491.0
480.0,495.0
574.0,495.0
617.0,514.0
589.0,574.0
580.0,602.0
557.0,576.0
541.0,513.0
452.0,457.0
453.0,401.0
471.0,463.0
508.0,495.0
557.0,493.0
562.0,509.0
509.0,547.0
470.0,517.0
426.0,492.0
507.0,442.0
512.0,476.0
525.0,484.0
523.0,508.0
526.0,507.0
530.0,530.0
537.0,524.0
471.0,492.0
472.0,487.0
498.0,515.0
471.0,489.0
463.0,506.0
403.0,552.0
448.0,562.0
498.0,509.0
516.0,440.0
554.0,450.0
607.0,478.0
640.0,518.0
608.0,591.0
579.0,546.0
532.0,499.0
492.0,424.0
409.0,508.0
452.0,558.0
484.0,526.0
473.0,453.0
422.0,441.0
416.0,493.0
448.0,505.0
478.0,468.0
520.0,514.0
553.0,607.0
501.0,550.0
472.0,427.0
554.0,371.0
575.0,460.0
522.0,528.0
465.0,531.0
500.0,537.0
557.0,525.0
584.0,511.0
514.0,499.0
505.0,541.0
465.0,549.0
379.0,463.0
439.0,491.0
502.0,556.0
507.0,554.0
545.0,478.0
505.0,501.0
506.0,507.0
502.0,491.0
490.0,487.0
479.0,520.0
476.0,520.0
521.0,479.0
572.0,511.0
629.0,490.0
658.0,495.0
546.0,507.0
434.0,516.0
416.0,505.0
494.0,462.0
548.0,467.0
580.0,485.0
604.0,511.0
514.0,515.0
391.0,522.0
318.0,525.0
453.0,524.0
518.0,519.0
550.0,516.0
598.0,509.0
548.0,507.0
457.0,517.0
489.0,531.0
445.0,497.0
410.0,479.0
389.0,464.0
423.0,455.0
497.0,504.0
536.0,480.0
526.0,477.0
545.0,525.0
594.0,583.0
522.0,593.0
585.0,522.0
540.0,448.0
499.0,463.0
562.0,511.0
643.0,537.0
663.0,531.0
571.0,501.0
594.0,482.0
544.0,485.0
412.0,515.0
392.0,535.0
337.0,490.0
417.0,440.0
442.0,495.0
473.0,534.0
499.0,529.0
563.0,502.0
598.0,509.0
652.0,558.0
631.0,571.0
494.0,469.0
444.0,413.0
412.0,466.0
423.0,489.0
413.0,489.0
385.0,487.0
404.0,488.0
505.0,461.0
656.0,481.0
651.0,506.0
592.0,552.0
493.0,584.0
439.0,548.0
492.0,481.0
579.0,449.0
564.0,505.0
559.0,531.0
539.0,524.0
490.0,478.0
513.0,458.0
545.0,497.0
548.0,528.0
482.0,537.0
388.0,466.0
352.0,469.0
403.0,492.0
460.0,496.0
487.0,512.0
553.0,506.0
589.0,485.0
587.0,496.0
495.0,513.0
535.0,507.0
538.0,534.0
520.0,561.0
491.0,530.0
440.0,477.0
488.0,480.0
524.0,503.0
471.0,488.0
438.0,456.0
440.0,446.0
481.0,488.0
515.0,499.0
629.0,506.0
675.0,520.0
664.0,522.0
557.0,523.0
449.0,507.0
368.0,526.0
406.0,583.0
383.0,577.0
428.0,471.0
488.0,453.0
518.0,535.0
547.0,467.0
544.0,418.0
542.0,471.0
505.0,483.0
507.0,483.0
503.0,502.0
457.0,509.0
471.0,546.0
519.0,528.0
535.0,479.0
512.0,475.0
555.0,506.0
538.0,509.0
553.0,501.0
532.0,509.0
512.0,524.0
563.0,537.0
596.0,508.0
554.0,513.0
582.0,509.0
573.0,504.0
493.0,496.0
484.0,460.0
463.0,467.0
477.0,504.0
518.0,515.0
495.0,510.0
558.0,504.0
539.0,502.0
407.0,501.0
266.0,479.0
364.0,472.0
477.0,475.0
531.0,498.0
566.0,502.0
549.0,486.0
514.0,497.0
505.0,498.0
503.0,516.0
514.0,551.0
507.0,508.0
508.0,464.0
511.0,536.0
514.0,539.0
558.0,510.0
587.0,490.0
571.0,496.0
551.0,506.0
476.0,481.0
477.0,498.0
497.0,489.0
493.0,483.0
499.0,495.0
568.0,512.0
583.0,529.0
567.0,501.0
572.0,488.0
473.0,513.0
396.0,508.0
455.0,487.0
463.0,500.0
486.0,499.0
534.0,493.0
572.0,518.0
509.0,568.0
534.0,605.0
522.0,509.0
488.0,442.0
530.0,419.0
537.0,464.0
487.0,489.0
466.0,501.0
432.0,504.0
398.0,517.0
396.0,541.0
495.0,554.0
554.0,507.0
523.0,459.0
531.0,498.0
549.0,539.0
538.0,498.0
522.0,471.0
528.0,504.0
535.0,507.0
572.0,490.0
531.0,481.0
441.0,481.0
430.0,482.0
474.0,492.0
458.0,529.0
504.0,538.0
532.0,487.0
539.0,484.0
596.0,504.0
532.0,512.0
489.0,512.0
472.0,525.0
596.0,541.0
602.0,532.0
592.0,481.0
562.0,481.0
501.0,436.0
394.0,454.0
486.0,488.0
528.0,505.0
484.0,508.0
396.0,531.0
415.0,527.0
463.0,494.0
478.0,488.0
602.0,521.0
593.0,501.0
555.0,494.0
519.0,500.0
499.0,513.0
416.0,510.0
448.0,493.0
473.0,481.0
524.0,499.0
500.0,522.0
500.0,524.0
501.0,509.0
499.0,492.0
484.0,503.0
497.0,525.0
524.0,499.0
542.0,484.0
507.0,500.0
492.0,498.0
525.0,497.0
572.0,493.0
592.0,493.0
628.0,497.0
540.0,500.0
437.0,479.0
495.0,491.0
580.0,519.0
586.0,521.0
480.0,484.0
352.0,480.0
478.0,497.0
591.0,537.0
648.0,549.0
648.0,517.0
514.0,503.0
431.0,534.0
416.0,502.0
459.0,498.0
467.0,503.0
477.0,477.0
406.0,451.0
363.0,494.0
417.0,496.0
491.0,485.0
551.0,506.0
570.0,488.0
593.0,501.0
527.0,507.0
504.0,508.0
440.0,503.0
507.0,505.0
589.0,517.0
612.0,521.0
544.0,523.0
506.0,503.0
471.0,487.0
513.0,512.0
614.0,578.0
603.0,527.0
522.0,434.0
548.0,447.0
637.0,506.0
559.0,507.0
426.0,529.0
430.0,520.0
470.0,478.0
530.0,458.0
547.0,519.0
439.0,527.0
445.0,505.0
455.0,474.0
453.0,488.0
490.0,507.0
418.0,496.0
450.0,490.0
537.0,496.0
604.0,509.0
638.0,493.0
553.0,483.0
444.0,511.0
491.0,526.0
549.0,529.0
516.0,535.0
517.0,502.0
517.0,527.0
514.0,530.0
509.0,479.0
501.0,454.0
523.0,497.0
545.0,504.0
544.0,505.0
503.0,497.0
487.0,486.0
446.0,504.0
465.0,492.0
456.0,520.0
525.0,510.0
521.0,487.0
554.0,502.0
543.0,507.0
564.0,504.0
525.0,522.0
498.0,505.0
494.0,485.0
538.0,504.0
503.0,539.0
537.0,517.0
490.0,454.0
474.0,459.0
453.0,522.0
485.0,486.0
476.0,488.0
472.0,487.0
528.0,503.0
577.0,522.0
614.0,522.0
570.0,536.0
574.0,568.0
519.0,559.0
389.0,518.0
451.0,497.0
438.0,473.0
468.0,453.0
476.0,470.0
547.0,478.0
549.0,482.0
530.0,492.0
509.0,506.0
441.0,513.0
497.0,519.0
585.0,499.0
592.0,484.0
482.0,513.0
447.0,523.0
523.0,537.0
555.0,532.0
534.0,560.0
452.0,544.0
430.0,471.0
441.0,455.0
457.0,438.0
500.0,460.0
561.0,496.0
582.0,489.0
585.0,487.0
574.0,514.0
516.0,537.0
447.0,523.0
472.0,482.0
479.0,507.0
490.0,513.0
505.0,530.0
551.0,525.0
539.0,498.0
552.0,489.0
541.0,504.0
525.0,496.0
537.0,491.0
484.0,499.0
504.0,494.0
440.0,506.0
469.0,499.0
494.0,510.0
483.0,526.0
485.0,531.0
513.0,533.0
533.0,529.0
545.0,489.0
496.0,471.0
480.0,494.0
468.0,501.0
470.0,501.0
502.0,487.0
512.0,491.0
487.0,511.0
478.0,508.0
477.0,494.0
541.0,475.0
604.0,505.0
611.0,552.0
566.0,530.0
526.0,508.0
528.0,492.0
586.0,517.0
511.0,532.0
445.0,528.0
478.0,504.0
512.0,451.0
510.0,467.0
519.0,494.0
507.0,499.0
469.0,498.0
458.0,485.0
486.0,483.0
481.0,505.0
497.0,525.0
570.0,534.0
609.0,507.0
619.0,506.0
587.0,489.0
485.0,491.0
412.0,505.0
485.0,524.0
495.0,502.0
489.0,506.0
495.0,515.0
535.0,490.0
457.0,459.0
433.0,473.0
443.0,491.0
435.0,503.0
495.0,509.0
536.0,517.0
590.0,504.0
618.0,506.0
615.0,522.0
529.0,519.0
529.0,523.0
528.0,502.0
438.0,498.0
468.0,507.0
547.0,521.0
531.0,510.0
535.0,499.0
510.0,488.0
440.0,493.0
465.0,507.0
435.0,519.0
395.0,498.0
436.0,473.0
500.0,486.0
549.0,494.0
639.0,521.0
614.0,518.0
571.0,509.0
567.0,508.0
545.0,532.0
560.0,501.0
489.0,467.0
461.0,511.0
482.0,528.0
478.0,523.0
483.0,457.0
559.0,441.0
580.0,483.0
462.0,508.0
484.0,511.0
426.0,506.0
439.0,512.0
523.0,503.0
533.0,497.0
513.0,511.0
492.0,521.0
492.0,526.0
455.0,498.0
508.0,490.0
536.0,502.0
507.0,492.0
504.0,482.0
499.0,489.0
523.0,502.0
538.0,533.0
508.0,537.0
532.0,521.0
541.0,511.0
534.0,465.0
530.0,482.0
534.0,512.0
551.0,520.0
530.0,554.0
491.0,556.0
460.0,513.0
483.0,415.0
497.0,473.0
521.0,497.0
563.0,477.0
569.0,473.0
553.0,488.0
500.0,488.0
438.0,495.0
446.0,515.0
479.0,526.0
507.0,511.0
484.0,494.0
461.0,502.0
426.0,515.0
478.0,509.0
517.0,510.0
528.0,485.0
507.0,482.0
477.0,494.0
411.0,475.0
416.0,481.0
544.0,485.0
671.0,494.0
721.0,516.0
703.0,526.0
619.0,524.0
501.0,515.0
439.0,520.0
496.0,510.0
460.0,510.0
457.0,504.0
501.0,517.0
477.0,499.0
483.0,481.0
496.0,491.0
522.0,498.0
527.0,496.0
529.0,486.0
465.0,503.0
452.0,525.0
470.0,529.0
490.0,507.0
546.0,501.0
569.0,494.0
557.0,507.0
532.0,515.0
517.0,505.0
530.0,521.0
521.0,518.0
488.0,493.0
447.0,488.0
419.0,509.0
521.0,534.0
584.0,518.0
568.0,467.0
536.0,492.0
574.0,536.0
562.0,507.0
518.0,465.0
513.0,486.0
464.0,494.0
485.0,486.0
495.0,500.0
488.0,508.0
528.0,493.0
529.0,495.0
478.0,494.0
454.0,499.0
442.0,501.0
483.0,499.0
505.0,503.0
525.0,508.0
513.0,562.0
527.0,589.0
519.0,507.0
492.0,426.0
513.0,471.0
516.0,505.0
525.0,504.0
531.0,502.0
537.0,516.0
469.0,523.0
503.0,510.0
523.0,496.0
540.0,506.0
533.0,508.0
477.0,505.0
457.0,475.0
501.0,461.0
532.0,466.0
543.0,500.0
516.0,503.0
456.0,507.0
477.0,507.0
507.0,504.0
524.0,516.0
531.0,524.0
571.0,518.0
560.0,490.0
540.0,508.0
489.0,496.0
538.0,466.0
571.0,489.0
597.0,485.0
516.0,497.0
398.0,511.0
459.0,519.0
439.0,503.0
395.0,518.0
450.0,523.0
454.0,508.0
563.0,489.0
687.0,495.0
653.0,493.0
647.0,500.0
598.0,521.0
457.0,519.0
403.0,488.0
447.0,469.0
457.0,472.0
450.0,477.0
504.0,490.0
500.0,495.0
497.0,504.0
461.0,510.0
525.0,517.0
535.0,509.0
527.0,507.0
522.0,503.0
529.0,508.0
553.0,505.0
544.0,510.0
521.0,516.0
496.0,509.0
480.0,492.0
498.0,486.0
480.0,484.0
455.0,497.0
471.0,498.0
458.0,498.0
562.0,510.0
637.0,510.0
597.0,502.0
561.0,494.0
478.0,509.0
442.0,519.0
493.0,523.0
510.0,498.0
497.0,506.0
482.0,498.0
452.0,506.0
477.0,525.0
521.0,505.0
511.0,448.0
481.0,454.0
459.0,486.0
488.0,510.0
507.0,522.0
555.0,526.0
567.0,532.0
538.0,527.0
511.0,510.0
492.0,489.0
528.0,503.0
529.0,522.0
496.0,506.0
464.0,493.0
490.0,476.0
505.0,477.0
521.0,478.0
518.0,490.0
528.0,492.0
530.0,510.0
553.0,506.0
535.0,524.0
495.0,495.0
484.0,499.0
407.0,514.0
409.0,536.0
435.0,515.0
514.0,479.0
578.0,472.0
589.0,491.0
540.0,497.0
505.0,493.0
485.0,489.0
513.0,483.0
515.0,499.0
535.0,503.0
539.0,506.0
536.0,509.0
521.0,514.0
509.0,520.0
511.0,496.0
523.0,507.0
529.0,520.0
506.0,520.0
482.0,508.0
491.0,475.0
515.0,492.0
520.0,501.0
532.0,495.0
512.0,501.0
428.0,498.0
429.0,489.0
530.0,495.0
553.0,507.0
507.0,514.0
503.0,503.0
547.0,493.0
627.0,503.0
605.0,522.0
533.0,525.0
476.0,520.0
460.0,506.0
471.0,499.0
532.0,511.0
510.0,493.0
479.0,485.0
474.0,503.0
465.0,511.0
475.0,513.0
497.0,509.0
518.0,511.0
540.0,481.0
534.0,489.0
560.0,500.0
557.0,497.0
538.0,504.0
447.0,508.0
472.0,505.0
500.0,501.0
490.0,520.0
507.0,520.0
501.0,500.0
503.0,469.0
508.0,470.0
504.0,493.0
517.0,504.0
480.0,500.0
490.0,499.0
531.0,502.0
519.0,503.0
528.0,515.0
476.0,511.0
439.0,515.0
427.0,505.0
507.0,506.0
557.0,501.0
540.0,502.0
547.0,517.0
531.0,504.0
530.0,479.0
516.0,483.0
475.0,477.0
483.0,499.0
516.0,521.0
525.0,509.0
520.0,498.0
516.0,517.0
510.0,510.0
509.0,504.0
501.0,517.0
472.0,505.0
457.0,482.0
479.0,488.0
493.0,514.0
482.0,504.0
526.0,485.0
513.0,496.0
527.0,499.0
543.0,516.0
605.0,497.0
654.0,512.0
635.0,499.0
516.0,509.0
417.0,501.0
448.0,495.0
432.0,503.0
441.0,506.0
489.0,499.0
513.0,502.0
512.0,506.0
530.0,503.0
524.0,504.0
533.0,492.0
518.0,487.0
496.0,494.0
443.0,505.0
477.0,503.0
507.0,502.0
508.0,509.0
480.0,515.0
442.0,512.0
477.0,508.0
518.0,513.0
547.0,507.0
561.0,510.0
578.0,504.0
544.0,499.0
485.0,509.0
427.0,477.0
460.0,488.0
487.0,497.0
515.0,497.0
525.0,505.0
548.0,499.0
558.0,503.0
559.0,512.0
545.0,528.0
489.0,504.0
464.0,480.0
469.0,501.0
487.0,495.0
494.0,503.0
487.0,494.0
490.0,517.0
486.0,504.0
521.0,499.0
546.0,490.0
535.0,495.0
545.0,491.0
508.0,493.0
472.0,514.0
517.0,526.0
531.0,529.0
526.0,541.0
511.0,512.0
514.0,502.0
503.0,465.0
510.0,501.0
514.0,493.0
527.0,495.0
524.0,491.0
480.0,494.0
504.0,489.0
506.0,484.0
496.0,494.0
491.0,504.0
508.0,506.0
524.0,515.0
518.0,527.0
517.0,542.0
498.0,521.0
507.0,482.0
509.0,487.0
508.0,501.0
507.0,488.0
507.0,495.0
501.0,495.0
492.0,494.0
496.0,487.0
491.0,479.0
494.0,493.0
491.0,496.0
511.0,496.0
539.0,511.0
568.0,513.0
556.0,510.0
536.0,506.0
521.0,506.0
473.0,506.0
444.0,505.0
489.0,505.0
510.0,500.0
505.0,495.0
497.0,504.0
509.0,504.0
504.0,508.0
504.0,509.0
497.0,471.0
500.0,488.0
513.0,510.0
509.0,511.0
515.0,503.0
541.0,508.0
529.0,508.0
498.0,512.0
477.0,509.0
475.0,507.0
474.0,504.0
494.0,506.0
533.0,505.0
554.0,502.0
538.0,497.0
512.0,489.0
499.0,491.0
506.0,495.0
503.0,492.0
513.0,496.0
542.0,505.0
521.0,514.0
507.0,517.0
492.0,519.0
499.0,514.0
517.0,514.0
519.0,508.0
550.0,512.0
553.0,495.0
538.0,480.0
509.0,486.0
487.0,494.0
467.0,496.0
482.0,497.0
502.0,498.0
504.0,506.0
513.0,513.0
506.0,515.0
513.0,502.0
496.0,501.0
496.0,512.0
482.0,512.0
477.0,506.0
488.0,500.0
531.0,497.0
521.0,499.0
514.0,499.0
529.0,492.0
548.0,497.0
554.0,496.0
557.0,493.0
542.0,503.0
505.0,504.0
495.0,510.0
520.0,515.0
530.0,514.0
520.0,518.0
520.0,519.0
516.0,508.0
510.0,501.0
515.0,502.0
517.0,505.0
526.0,501.0
521.0,497.0
515.0,499.0
498.0,492.0
491.0,490.0
502.0,489.0
511.0,494.0
529.0,510.0
522.0,518.0
525.0,512.0
514.0,513.0
488.0,509.0
493.0,504.0
496.0,518.0
500.0,504.0
499.0,509.0
502.0,505.0
498.0,506.0
500.0,500.0
498.0,492.0
492.0,492.0
500.0,493.0
509.0,502.0
504.0,507.0
513.0,502.0
519.0,496.0
523.0,508.0
522.0,514.0
515.0,512.0
517.0,510.0
512.0,507.0
498.0,509.0
505.0,505.0
515.0,500.0
511.0,498.0
508.0,498.0
504.0,497.0
515.0,481.0
511.0,498.0
512.0,490.0
516.0,502.0
518.0,514.0
518.0,510.0
523.0,515.0
513.0,511.0
514.0,512.0
517.0,516.0
511.0,513.0
511.0,506.0
495.0,512.0
504.0,494.0
509.0,500.0
508.0,497.0
504.0,492.0
500.0,499.0
506.0,499.0
515.0,499.0
530.0,505.0
532.0,508.0
518.0,514.0
519.0,514.0
524.0,506.0
519.0,509.0
503.0,514.0
472.0,514.0
492.0,504.0
504.0,503.0
523.0,502.0
556.0,494.0
552.0,495.0
547.0,494.0
525.0,500.0
520.0,499.0
517.0,501.0
503.0,500.0
513.0,504.0
525.0,503.0
523.0,513.0
540.0,518.0
550.0,517.0
555.0,514.0
548.0,508.0
526.0,511.0
530.0,495.0
548.0,497.0
565.0,503.0
551.0,497.0
520.0,507.0
528.0,501.0
515.0,501.0
485.0,503.0
460.0,504.0
474.0,506.0
495.0,503.0
498.0,501.0
493.0,505.0
480.0,503.0
477.0,504.0
479.0,501.0
489.0,506.0
495.0,505.0
502.0,499.0
499.0,491.0
477.0,485.0
478.0,486.0
487.0,493.0
503.0,500.0
510.0,503.0
518.0,502.0
524.0,508.0
520.0,507.0
521.0,514.0
513.0,509.0
509.0,503.0
501.0,509.0
504.0,501.0
509.0,501.0
507.0,495.0
499.0,502.0
502.0,488.0
495.0,501.0
499.0,496.0
506.0,491.0
511.0,503.0
519.0,505.0
521.0,510.0
523.0,510.0
517.0,507.0
517.0,515.0
513.0,516.0
502.0,514.0
510.0,505.0
500.0,507.0
505.0,494.0
508.0,499.0
503.0,497.0
490.0,495.0
503.0,493.0
504.0,497.0
511.0,497.0
512.0,496.0
526.0,508.0
523.0,507.0
523.0,514.0
524.0,515.0
511.0,506.0
517.0,512.0
504.0,502.0
512.0,503.0
498.0,505.0
504.0,494.0
498.0,503.0
507.0,494.0
494.0,495.0
498.0,497.0
505.0,496.0
514.0,500.0
516.0,505.0
522.0,510.0
526.0,513.0
524.0,511.0
522.0,512.0
523.0,514.0
517.0,503.0
515.0,506.0
498.0,501.0
495.0,495.0
500.0,499.0
501.0,489.0
501.0,494.0
494.0,491.0
495.0,495.0
501.0,497.0
512.0,505.0
522.0,508.0
520.0,507.0
523.0,508.0
531.0,511.0
529.0,511.0
534.0,514.0
514.0,516.0
518.0,504.0
502.0,502.0
495.0,498.0
487.0,482.0
496.0,495.0
490.0,491.0
485.0,486.0
489.0,487.0
495.0,502.0
506.0,502.0
511.0,508.0
518.0,514.0
524.0,517.0
514.0,511.0
522.0,512.0
512.0,504.0
513.0,504.0
495.0,503.0
504.0,502.0
496.0,506.0
507.0,494.0
498.0,501.0
509.0,494.0
498.0,489.0
496.0,497.0
503.0,499.0
508.0,502.0
520.0,511.0
522.0,513.0
519.0,516.0
510.0,512.0
516.0,513.0
502.0,514.0
496.0,509.0
500.0,500.0
507.0,494.0
510.0,497.0
492.0,502.0
499.0,491.0
490.0,496.0
492.0,495.0
504.0,502.0
514.0,506.0
521.0,506.0
522.0,504.0
530.0,509.0
519.0,514.0
518.0,513.0
512.0,512.0
508.0,513.0
507.0,500.0
506.0,502.0
509.0,498.0
498.0,502.0
499.0,494.0
497.0,489.0
496.0,493.0
504.0,486.0
512.0,499.0
511.0,499.0
525.0,505.0
530.0,514.0
530.0,515.0
524.0,510.0
510.0,506.0
504.0,499.0
493.0,510.0
493.0,501.0
500.0,497.0
504.0,498.0
506.0,495.0
499.0,492.0
492.0,491.0
497.0,484.0
497.0,502.0
516.0,500.0
517.0,506.0
520.0,513.0
524.0,514.0
525.0,515.0
525.0,514.0
521.0,507.0
510.0,508.0
500.0,509.0
503.0,505.0
508.0,497.0
505.0,496.0
506.0,497.0
497.0,498.0
509.0,493.0
505.0,496.0
509.0,502.0
516.0,497.0
515.0,507.0
517.0,508.0
519.0,515.0
511.0,510.0
508.0,517.0
509.0,501.0
498.0,504.0
494.0,509.0
499.0,500.0
505.0,499.0
512.0,499.0
503.0,495.0
507.0,495.0
501.0,495.0
493.0,499.0
500.0,501.0
512.0,495.0
518.0,510.0
519.0,513.0
511.0,513.0
511.0,511.0
510.0,511.0
503.0,503.0
507.0,500.0
511.0,496.0
506.0,498.0
506.0,494.0
502.0,488.0
497.0,490.0
496.0,484.0
504.0,493.0
503.0,490.0
505.0,496.0
516.0,506.0
522.0,500.0
527.0,507.0
528.0,517.0
521.0,516.0
510.0,513.0
497.0,509.0
507.0,491.0
505.0,495.0
505.0,505.0
503.0,504.0
495.0,497.0
495.0,493.0
500.0,489.0
498.0,488.0
504.0,494.0
503.0,496.0
513.0,504.0
525.0,510.0
520.0,506.0
512.0,508.0
511.0,505.0
512.0,511.0
500.0,507.0
509.0,501.0
515.0,499.0
511.0,491.0
506.0,494.0
505.0,497.0
499.0,488.0
492.0,491.0
489.0,497.0
508.0,498.0
518.0,493.0
520.0,503.0
517.0,515.0
511.0,515.0
510.0,512.0
510.0,513.0
508.0,504.0
509.0,505.0
496.0,508.0
505.0,499.0
496.0,508.0
507.0,496.0
501.0,493.0
498.0,488.0
491.0,498.0
507.0,495.0
510.0,501.0
512.0,509.0
512.0,506.0
520.0,514.0
519.0,515.0
521.0,512.0
517.0,511.0
510.0,508.0
508.0,504.0
504.0,502.0
511.0,499.0
508.0,494.0
507.0,495.0
503.0,492.0
488.0,496.0
492.0,499.0
503.0,495.0
510.0,501.0
517.0,497.0
520.0,509.0
524.0,515.0
527.0,515.0
525.0,518.0
510.0,503.0
503.0,508.0
505.0,503.0
510.0,502.0
505.0,502.0
501.0,503.0
500.0,485.0
499.0,494.0
501.0,489.0
505.0,498.0
510.0,501.0
514.0,506.0
521.0,510.0
516.0,508.0
519.0,517.0
517.0,509.0
515.0,511.0
503.0,516.0
505.0,505.0
504.0,506.0
496.0,503.0
497.0,495.0
497.0,502.0
490.0,499.0
497.0,490.0
496.0,499.0
511.0,495.0
516.0,501.0
521.0,506.0
523.0,507.0
517.0,507.0
511.0,506.0
510.0,507.0
506.0,510.0
509.0,501.0
502.0,507.0
505.0,501.0
498.0,503.0
499.0,497.0
498.0,490.0
496.0,497.0
492.0,499.0
495.0,496.0
507.0,499.0
520.0,501.0
524.0,506.0
527.0,510.0
535.0,514.0
516.0,506.0
509.0,507.0
500.0,512.0
495.0,505.0
492.0,504.0
495.0,496.0
493.0,496.0
502.0,495.0
499.0,495.0
504.0,492.0
500.0,493.0
509.0,493.0
503.0,491.0
514.0,500.0
517.0,505.0
520.0,511.0
510.0,515.0
513.0,512.0
511.0,504.0
505.0,503.0
503.0,506.0
503.0,502.0
503.0,494.0
504.0,493.0
504.0,489.0
507.0,490.0
507.0,492.0
505.0,492.0
506.0,494.0
508.0,498.0
505.0,505.0
510.0,505.0
512.0,508.0
515.0,508.0
516.0,514.0
514.0,511.0
499.0,502.0
491.0,509.0
506.0,499.0
506.0,498.0
505.0,496.0
501.0,495.0
494.0,497.0
496.0,493.0
500.0,491.0
514.0,497.0
512.0,507.0
522.0,509.0
518.0,506.0
522.0,511.0
522.0,512.0
511.0,506.0
510.0,509.0
503.0,502.0
501.0,497.0
501.0,499.0
510.0,498.0
505.0,496.0
495.0,501.0
508.0,492.0
504.0,488.0
507.0,493.0
509.0,496.0
517.0,505.0
518.0,508.0
527.0,512.0
526.0,513.0
522.0,514.0
519.0,512.0
503.0,506.0
504.0,500.0
500.0,495.0
505.0,492.0
506.0,493.0
502.0,485.0
497.0,487.0
497.0,489.0
498.0,490.0
504.0,494.0
509.0,502.0
513.0,506.0
511.0,510.0
514.0,514.0
514.0,516.0
516.0,510.0
514.0,512.0
512.0,506.0
507.0,503.0
515.0,495.0
512.0,504.0
517.0,497.0
508.0,498.0
500.0,491.0
507.0,492.0
498.0,486.0
506.0,496.0
506.0,504.0
519.0,505.0
520.0,513.0
523.0,514.0
524.0,514.0
516.0,514.0
505.0,508.0
504.0,506.0
501.0,506.0
499.0,507.0
497.0,503.0
496.0,501.0
493.0,499.0
499.0,488.0
503.0,490.0
504.0,493.0
509.0,500.0
508.0,499.0
518.0,508.0
529.0,514.0
523.0,515.0
518.0,515.0
511.0,510.0
509.0,512.0
506.0,504.0
504.0,502.0
507.0,499.0
509.0,497.0
503.0,494.0
501.0,492.0
498.0,492.0
498.0,486.0
502.0,496.0
507.0,503.0
512.0,506.0
529.0,511.0
522.0,509.0
524.0,511.0
518.0,515.0
514.0,513.0
508.0,500.0
507.0,505.0
508.0,501.0
503.0,501.0
498.0,492.0
501.0,493.0
498.0,489.0
500.0,486.0
504.0,493.0
511.0,498.0
510.0,501.0
524.0,510.0
518.0,504.0
520.0,515.0
522.0,513.0
512.0,505.0
511.0,510.0
498.0,506.0
499.0,507.0
503.0,500.0
502.0,496.0
500.0,490.0
501.0,492.0
504.0,491.0
499.0,493.0
504.0,495.0
512.0,491.0
515.0,502.0
516.0,506.0
526.0,513.0
524.0,514.0
521.0,517.0
518.0,513.0
517.0,509.0
508.0,505.0
509.0,503.0
503.0,501.0
503.0,499.0
492.0,502.0
497.0,493.0
500.0,495.0
499.0,488.0
506.0,494.0
512.0,502.0
513.0,499.0
523.0,509.0
513.0,509.0
514.0,513.0
516.0,508.0
513.0,512.0
508.0,508.0
500.0,505.0
505.0,501.0
507.0,502.0
508.0,497.0
503.0,495.0
509.0,492.0
503.0,496.0
513.0,488.0
509.0,499.0
519.0,502.0
521.0,507.0
519.0,508.0
512.0,509.0
514.0,506.0
513.0,508.0
505.0,509.0
509.0,510.0
505.0,503.0
503.0,498.0
504.0,490.0
502.0,489.0
499.0,486.0
499.0,493.0
503.0,494.0
500.0,489.0
513.0,504.0
517.0,506.0
523.0,512.0
525.0,508.0
528.0,516.0
527.0,513.0
520.0,514.0
515.0,507.0
509.0,505.0
486.0,506.0
494.0,495.0
500.0,501.0
502.0,493.0
495.0,493.0
492.0,496.0
499.0,484.0
502.0,498.0
510.0,496.0
518.0,508.0
524.0,512.0
527.0,509.0
526.0,517.0
523.0,515.0
512.0,512.0
513.0,508.0
510.0,504.0
510.0,502.0
506.0,498.0
502.0,496.0
504.0,493.0
491.0,496.0
499.0,492.0
503.0,495.0
497.0,492.0
516.0,505.0
520.0,510.0
512.0,510.0
525.0,520.0
523.0,515.0
515.0,514.0
510.0,509.0
511.0,506.0
501.0,506.0
501.0,506.0
497.0,508.0
496.0,500.0
497.0,502.0
498.0,489.0
490.0,497.0
501.0,495.0
505.0,503.0
517.0,508.0
527.0,514.0
526.0,510.0
524.0,515.0
518.0,507.0
511.0,509.0
511.0,507.0
500.0,509.0
499.0,509.0
508.0,501.0
505.0,502.0
509.0,495.0
503.0,493.0
500.0,492.0
504.0,493.0
508.0,496.0
515.0,501.0
528.0,507.0
536.0,512.0
532.0,517.0
531.0,512.0
515.0,507.0
512.0,513.0
490.0,502.0
498.0,506.0
503.0,502.0
502.0,499.0
496.0,499.0
492.0,494.0
495.0,495.0
484.0,497.0
499.0,493.0
504.0,496.0
511.0,497.0
518.0,508.0
516.0,509.0
515.0,508.0
518.0,513.0
516.0,513.0
509.0,512.0
503.0,497.0
503.0,503.0
502.0,493.0
501.0,496.0
500.0,491.0
504.0,489.0
500.0,483.0
498.0,496.0
506.0,490.0
507.0,495.0
517.0,504.0
525.0,510.0
524.0,517.0
521.0,503.0
517.0,513.0
514.0,512.0
506.0,513.0
505.0,498.0
508.0,499.0
502.0,504.0
511.0,496.0
508.0,495.0
507.0,492.0
505.0,491.0
504.0,490.0
508.0,495.0
515.0,495.0
520.0,508.0
517.0,504.0
508.0,507.0
513.0,510.0
509.0,510.0
504.0,509.0
504.0,504.0
511.0,503.0
511.0,501.0
509.0,498.0
505.0,497.0
500.0,497.0
498.0,492.0
497.0,494.0
496.0,497.0
502.0,501.0
511.0,504.0
522.0,510.0
525.0,517.0
526.0,513.0
516.0,508.0
519.0,516.0
513.0,515.0
509.0,507.0
512.0,506.0
505.0,499.0
506.0,499.0
508.0,499.0
505.0,489.0
505.0,493.0
509.0,492.0
494.0,497.0
513.0,496.0
521.0,506.0
525.0,507.0
528.0,517.0
524.0,515.0
520.0,512.0
514.0,512.0
514.0,506.0
513.0,500.0
521.0,502.0
516.0,499.0
511.0,500.0
512.0,495.0
497.0,494.0
489.0,497.0
491.0,492.0
504.0,499.0
509.0,502.0
510.0,508.0
520.0,508.0
523.0,517.0
524.0,513.0
513.0,509.0
508.0,502.0
497.0,505.0
507.0,501.0
506.0,501.0
502.0,491.0
495.0,501.0
506.0,494.0
498.0,483.0
501.0,496.0
503.0,494.0
509.0,495.0
519.0,502.0
521.0,505.0
524.0,514.0
526.0,516.0
517.0,514.0
515.0,515.0
506.0,512.0
507.0,502.0
505.0,505.0
507.0,493.0
512.0,498.0
500.0,500.0
493.0,493.0
501.0,492.0
499.0,491.0
498.0,490.0
507.0,502.0
512.0,500.0
518.0,507.0
529.0,516.0
527.0,517.0
518.0,515.0
517.0,510.0
512.0,507.0
508.0,505.0
504.0,502.0
504.0,496.0
503.0,495.0
506.0,496.0
500.0,492.0
497.0,492.0
497.0,485.0
502.0,492.0
505.0,496.0
518.0,510.0
524.0,512.0
522.0,513.0
513.0,507.0
512.0,509.0
514.0,508.0
500.0,511.0
503.0,498.0
494.0,503.0
502.0,500.0
497.0,497.0
492.0,488.0
489.0,492.0
495.0,490.0
497.0,487.0
500.0,500.0
517.0,503.0
516.0,507.0
524.0,513.0
516.0,509.0
516.0,516.0
515.0,514.0
509.0,509.0
504.0,510.0
505.0,506.0
508.0,499.0
506.0,502.0
501.0,496.0
501.0,491.0
498.0,486.0
499.0,495.0
510.0,497.0
511.0,495.0
519.0,507.0
525.0,511.0
521.0,514.0
521.0,513.0
525.0,510.0
519.0,509.0
522.0,508.0
517.0,507.0
516.0,503.0
507.0,499.0
495.0,498.0
484.0,498.0
496.0,491.0
499.0,495.0
502.0,492.0
504.0,499.0
495.0,499.0
512.0,505.0
515.0,506.0
513.0,509.0
511.0,512.0
506.0,511.0
506.0,512.0
507.0,506.0
498.0,498.0
498.0,494.0
496.0,505.0
492.0,501.0
493.0,499.0
501.0,491.0
492.0,498.0
499.0,500.0
509.0,501.0
516.0,502.0
521.0,503.0
529.0,514.0
525.0,520.0
520.0,515.0
515.0,507.0
506.0,512.0
506.0,500.0
511.0,498.0
514.0,498.0
508.0,498.0
509.0,496.0
501.0,490.0
498.0,487.0
496.0,492.0
499.0,493.0
508.0,501.0
518.0,505.0
522.0,512.0
528.0,515.0
517.0,506.0
522.0,518.0
512.0,504.0
507.0,502.0
502.0,507.0
497.0,502.0
498.0,502.0
504.0,496.0
499.0,488.0
498.0,489.0
500.0,492.0
503.0,494.0
506.0,499.0
505.0,501.0
517.0,510.0
518.0,512.0
529.0,512.0
527.0,519.0
525.0,512.0
515.0,504.0
515.0,507.0
506.0,501.0
500.0,502.0
490.0,497.0
498.0,502.0
494.0,498.0
504.0,492.0
491.0,499.0
502.0,497.0
506.0,501.0
519.0,505.0
521.0,511.0
517.0,508.0
528.0,516.0
517.0,513.0
518.0,515.0
510.0,511.0
507.0,505.0
501.0,506.0
508.0,502.0
505.0,497.0
504.0,496.0
501.0,490.0
499.0,486.0
493.0,498.0
495.0,492.0
516.0,503.0
520.0,508.0
525.0,514.0
525.0,517.0
523.0,516.0
516.0,510.0
515.0,514.0
512.0,508.0
502.0,509.0
502.0,506.0
507.0,500.0
508.0,497.0
509.0,496.0
510.0,494.0
495.0,500.0
504.0,489.0
502.0,498.0
505.0,504.0
512.0,515.0
513.0,510.0
523.0,516.0
523.0,512.0
517.0,509.0
511.0,513.0
505.0,508.0
509.0,503.0
499.0,499.0
499.0,491.0
501.0,488.0
501.0,488.0
501.0,489.0
500.0,494.0
507.0,495.0
512.0,502.0
519.0,505.0
523.0,507.0
528.0,516.0
517.0,509.0
517.0,516.0
510.0,511.0
508.0,507.0
509.0,505.0
505.0,507.0
508.0,501.0
502.0,495.0
496.0,498.0
503.0,493.0
500.0,488.0
496.0,497.0
508.0,488.0
505.0,489.0
518.0,502.0
526.0,513.0
519.0,510.0
522.0,514.0
515.0,507.0
512.0,508.0
503.0,514.0
503.0,497.0
504.0,501.0
504.0,493.0
499.0,500.0
506.0,494.0
498.0,492.0
502.0,489.0
502.0,489.0
502.0,496.0
514.0,497.0
522.0,514.0
527.0,517.0
524.0,513.0
523.0,516.0
519.0,509.0
520.0,510.0
521.0,507.0
518.0,503.0
507.0,509.0
507.0,499.0
491.0,496.0
489.0,489.0
495.0,488.0
504.0,492.0
502.0,498.0
510.0,499.0
513.0,500.0
517.0,507.0
520.0,515.0
521.0,516.0
513.0,514.0
506.0,508.0
504.0,506.0
511.0,504.0
504.0,499.0
499.0,502.0
510.0,497.0
502.0,488.0
504.0,493.0
501.0,485.0
502.0,493.0
501.0,491.0
507.0,500.0
513.0,503.0
520.0,512.0
523.0,516.0
520.0,514.0
516.0,514.0
511.0,512.0
502.0,514.0
511.0,504.0
506.0,503.0
503.0,495.0
502.0,500.0
493.0,501.0
500.0,494.0
493.0,495.0
500.0,490.0
509.0,498.0
514.0,499.0
523.0,512.0
527.0,516.0
517.0,511.0
520.0,517.0
516.0,511.0
507.0,517.0
509.0,506.0
495.0,509.0
507.0,503.0
511.0,499.0
507.0,497.0
508.0,494.0
500.0,496.0
495.0,497.0
504.0,490.0
501.0,501.0
515.0,508.0
521.0,509.0
527.0,512.0
520.0,509.0
511.0,512.0
517.0,511.0
509.0,503.0
506.0,503.0
496.0,504.0
512.0,500.0
510.0,497.0
506.0,495.0
500.0,486.0
499.0,487.0
503.0,495.0
498.0,490.0
506.0,503.0
516.0,505.0
525.0,508.0
524.0,513.0
523.0,514.0
523.0,511.0
518.0,510.0
504.0,508.0
507.0,501.0
493.0,505.0
503.0,501.0
493.0,495.0
498.0,496.0
502.0,491.0
509.0,491.0
497.0,493.0
510.0,490.0
518.0,498.0
522.0,511.0
529.0,505.0
525.0,516.0
522.0,510.0
524.0,512.0
508.0,502.0
509.0,506.0
508.0,502.0
499.0,504.0
502.0,492.0
502.0,490.0
498.0,497.0
491.0,489.0
502.0,477.0
504.0,485.0
512.0,503.0
518.0,506.0
517.0,505.0
526.0,513.0
519.0,513.0
525.0,515.0
516.0,509.0
508.0,513.0
503.0,508.0
508.0,498.0
496.0,498.0
504.0,493.0
499.0,498.0
506.0,491.0
510.0,491.0
504.0,490.0
512.0,498.0
520.0,502.0
530.0,509.0
531.0,508.0
524.0,515.0
510.0,510.0
508.0,507.0
507.0,511.0
502.0,504.0
502.0,507.0
504.0,496.0
503.0,504.0
504.0,498.0
504.0,496.0
504.0,494.0
504.0,492.0
495.0,500.0
510.0,499.0
509.0,499.0
516.0,511.0
519.0,508.0
526.0,519.0
521.0,513.0
511.0,511.0
507.0,513.0
506.0,501.0
506.0,500.0
503.0,501.0
506.0,500.0
505.0,498.0
507.0,493.0
506.0,491.0
499.0,499.0
508.0,496.0
513.0,501.0
512.0,499.0
516.0,505.0
529.0,517.0
525.0,518.0
519.0,517.0
510.0,508.0
501.0,515.0
507.0,504.0
505.0,496.0
507.0,503.0
513.0,499.0
508.0,497.0
503.0,493.0
502.0,485.0
500.0,493.0
511.0,499.0
504.0,504.0
511.0,502.0
522.0,509.0
530.0,517.0
521.0,504.0
523.0,517.0
524.0,510.0
522.0,514.0
520.0,504.0
509.0,500.0
509.0,498.0
489.0,493.0
481.0,495.0
471.0,499.0
482.0,497.0
500.0,490.0
511.0,495.0
515.0,505.0
519.0,509.0
521.0,511.0
525.0,510.0
518.0,508.0
519.0,518.0
518.0,510.0
513.0,506.0
516.0,501.0
516.0,503.0
509.0,503.0
517.0,495.0
508.0,486.0
504.0,481.0
496.0,497.0
503.0,491.0
504.0,497.0
513.0,502.0
521.0,510.0
527.0,519.0
520.0,512.0
511.0,513.0
511.0,514.0
505.0,511.0
505.0,508.0
503.0,495.0
501.0,501.0
492.0,498.0
496.0,498.0
495.0,496.0
488.0,497.0
505.0,493.0
509.0,495.0
510.0,506.0
518.0,505.0
525.0,512.0
520.0,513.0
522.0,514.0
515.0,509.0
506.0,507.0
493.0,511.0
499.0,507.0
503.0,497.0
505.0,500.0
504.0,494.0
499.0,501.0
495.0,495.0
501.0,492.0
499.0,496.0
500.0,498.0
513.0,498.0
523.0,510.0
525.0,514.0
520.0,514.0
521.0,512.0
519.0,518.0
505.0,514.0
517.0,506.0
509.0,498.0
503.0,505.0
505.0,501.0
497.0,491.0
496.0,498.0
495.0,492.0
506.0,490.0
508.0,495.0
507.0,498.0
513.0,501.0
525.0,509.0
527.0,514.0
517.0,512.0
519.0,512.0
517.0,513.0
508.0,500.0
500.0,509.0
509.0,501.0
508.0,499.0
506.0,494.0
506.0,495.0
502.0,491.0
505.0,490.0
500.0,497.0
505.0,499.0
516.0,501.0
523.0,510.0
525.0,514.0
521.0,510.0
526.0,513.0
514.0,506.0
518.0,513.0
511.0,501.0
508.0,504.0
510.0,501.0
507.0,498.0
498.0,501.0
505.0,494.0
503.0,490.0
512.0,494.0
511.0,489.0
518.0,502.0
516.0,504.0
525.0,512.0
523.0,516.0
515.0,514.0
515.0,515.0
512.0,511.0
508.0,509.0
502.0,502.0
499.0,507.0
504.0,498.0
503.0,500.0
508.0,496.0
499.0,491.0
501.0,492.0
503.0,491.0
504.0,493.0
501.0,500.0
513.0,505.0
523.0,511.0
523.0,517.0
518.0,511.0
519.0,519.0
515.0,515.0
514.0,508.0
512.0,505.0
500.0,506.0
508.0,495.0
505.0,492.0
509.0,494.0
498.0,498.0
505.0,490.0
501.0,494.0
502.0,497.0
512.0,509.0
516.0,503.0
525.0,511.0
528.0,519.0
522.0,515.0
522.0,517.0
517.0,511.0
513.0,509.0
506.0,503.0
486.0,507.0
505.0,499.0
505.0,494.0
502.0,485.0
487.0,500.0
488.0,499.0
506.0,494.0
514.0,499.0
511.0,499.0
514.0,501.0
521.0,511.0
528.0,513.0
525.0,509.0
512.0,507.0
504.0,513.0
507.0,501.0
502.0,505.0
499.0,504.0
505.0,497.0
508.0,494.0
497.0,489.0
495.0,486.0
500.0,492.0
503.0,494.0
509.0,500.0
517.0,506.0
526.0,511.0
528.0,516.0
523.0,516.0
516.0,515.0
523.0,512.0
516.0,502.0
505.0,512.0
513.0,493.0
501.0,505.0
507.0,497.0
495.0,490.0
492.0,497.0
503.0,491.0
506.0,492.0
506.0,492.0
514.0,504.0
519.0,511.0
526.0,515.0
535.0,515.0
530.0,515.0
518.0,511.0
518.0,512.0
508.0,509.0
499.0,488.0
498.0,504.0
494.0,504.0
500.0,497.0
500.0,495.0
502.0,491.0
491.0,495.0
500.0,498.0
505.0,499.0
515.0,504.0
522.0,510.0
521.0,513.0
523.0,516.0
518.0,515.0
509.0,514.0
509.0,508.0
504.0,496.0
503.0,497.0
497.0,506.0
501.0,501.0
506.0,496.0
499.0,487.0
500.0,490.0
499.0,494.0
512.0,490.0
515.0,499.0
525.0,509.0
529.0,515.0
514.0,507.0
517.0,518.0
522.0,516.0
511.0,508.0
518.0,508.0
507.0,501.0
510.0,502.0
494.0,504.0
502.0,492.0
502.0,493.0
499.0,491.0
499.0,487.0
504.0,493.0
506.0,498.0
512.0,504.0
517.0,507.0
522.0,515.0
522.0,507.0
515.0,514.0
516.0,515.0
507.0,510.0
515.0,501.0
512.0,503.0
509.0,502.0
507.0,496.0
508.0,497.0
500.0,494.0
494.0,497.0
504.0,493.0
500.0,502.0
505.0,497.0
515.0,508.0
529.0,512.0
524.0,512.0
526.0,521.0
517.0,512.0
515.0,512.0
505.0,505.0
506.0,505.0
505.0,504.0
505.0,505.0
496.0,502.0
498.0,500.0
500.0,495.0
503.0,493.0
501.0,487.0
511.0,496.0
513.0,499.0
520.0,504.0
522.0,499.0
526.0,517.0
519.0,515.0
516.0,515.0
493.0,505.0
504.0,507.0
496.0,509.0
504.0,500.0
509.0,509.0
516.0,498.0
511.0,494.0
508.0,492.0
507.0,493.0
500.0,498.0
500.0,496.0
511.0,507.0
517.0,506.0
526.0,514.0
515.0,503.0
515.0,514.0
516.0,516.0
511.0,506.0
506.0,501.0
505.0,506.0
509.0,501.0
502.0,492.0
495.0,503.0
496.0,498.0
499.0,500.0
502.0,489.0
508.0,497.0
506.0,504.0
522.0,507.0
519.0,504.0
523.0,518.0
518.0,507.0
519.0,513.0
515.0,514.0
510.0,510.0
499.0,512.0
500.0,508.0
510.0,501.0
497.0,503.0
496.0,499.0
500.0,496.0
498.0,485.0
501.0,491.0
508.0,499.0
511.0,503.0
515.0,502.0
525.0,508.0
528.0,520.0
526.0,514.0
514.0,510.0
515.0,510.0
510.0,505.0
505.0,499.0
496.0,509.0
505.0,500.0
510.0,498.0
495.0,501.0
494.0,496.0
500.0,484.0
497.0,499.0
509.0,496.0
514.0,509.0
521.0,509.0
522.0,510.0
521.0,515.0
520.0,516.0
521.0,513.0
505.0,510.0
510.0,508.0
505.0,510.0
505.0,505.0
504.0,504.0
505.0,502.0
503.0,491.0
502.0,494.0
504.0,494.0
494.0,497.0
507.0,506.0
515.0,504.0
511.0,505.0
518.0,514.0
521.0,517.0
517.0,514.0
507.0,511.0
509.0,508.0
504.0,505.0
505.0,505.0
508.0,500.0
506.0,499.0
499.0,500.0
498.0,485.0
505.0,491.0
508.0,492.0
510.0,499.0
517.0,498.0
525.0,508.0
529.0,513.0
519.0,511.0
524.0,520.0
517.0,514.0
510.0,518.0
516.0,509.0
504.0,501.0
495.0,505.0
502.0,502.0
494.0,504.0
495.0,497.0
493.0,484.0
489.0,496.0
497.0,491.0
504.0,499.0
506.0,505.0
520.0,510.0
522.0,511.0
531.0,515.0
524.0,513.0
525.0,512.0
518.0,513.0
518.0,503.0
519.0,503.0
516.0,503.0
506.0,502.0
497.0,489.0
493.0,487.0
490.0,488.0
488.0,495.0
506.0,495.0
501.0,499.0
517.0,502.0
523.0,511.0
524.0,510.0
521.0,517.0
516.0,512.0
514.0,514.0
501.0,515.0
496.0,509.0
496.0,506.0
501.0,506.0
496.0,501.0
499.0,495.0
498.0,496.0
498.0,494.0
498.0,488.0
499.0,500.0
519.0,503.0
523.0,505.0
524.0,507.0
529.0,516.0
523.0,515.0
521.0,514.0
513.0,505.0
513.0,511.0
509.0,506.0
504.0,501.0
495.0,505.0
497.0,496.0
500.0,489.0
503.0,492.0
493.0,498.0
502.0,496.0
502.0,493.0
514.0,510.0
525.0,509.0
518.0,512.0
523.0,517.0
509.0,515.0
517.0,510.0
514.0,510.0
498.0,510.0
488.0,505.0
501.0,505.0
495.0,503.0
496.0,492.0
490.0,494.0
496.0,493.0
495.0,495.0
505.0,494.0
505.0,497.0
515.0,501.0
525.0,513.0
530.0,515.0
526.0,514.0
518.0,511.0
510.0,507.0
508.0,509.0
506.0,498.0
506.0,494.0
508.0,501.0
499.0,504.0
497.0,497.0
498.0,493.0
495.0,496.0
500.0,496.0
510.0,496.0
507.0,496.0
520.0,506.0
525.0,517.0
524.0,510.0
517.0,511.0
516.0,512.0
512.0,516.0
502.0,510.0
506.0,496.0
504.0,495.0
504.0,496.0
503.0,487.0
505.0,486.0
505.0,490.0
499.0,494.0
508.0,491.0
521.0,499.0
523.0,505.0
536.0,507.0
537.0,512.0
522.0,512.0
498.0,513.0
499.0,513.0
492.0,510.0
494.0,509.0
504.0,501.0
502.0,490.0
500.0,499.0
509.0,494.0
498.0,484.0
497.0,483.0
507.0,491.0
502.0,495.0
509.0,496.0
515.0,498.0
522.0,505.0
531.0,515.0
521.0,517.0
510.0,504.0
514.0,513.0
504.0,502.0
508.0,503.0
504.0,498.0
505.0,493.0
504.0,493.0
502.0,497.0
496.0,496.0
502.0,485.0
498.0,491.0
499.0,497.0
505.0,503.0
521.0,511.0
524.0,512.0
525.0,513.0
519.0,513.0
525.0,513.0
517.0,510.0
510.0,503.0
503.0,506.0
502.0,505.0
506.0,502.0
506.0,494.0
505.0,497.0
505.0,493.0
506.0,496.0
509.0,498.0
509.0,491.0
522.0,504.0
526.0,509.0
524.0,517.0
514.0,510.0
517.0,518.0
514.0,511.0
511.0,504.0
504.0,510.0
500.0,506.0
505.0,495.0
508.0,493.0
493.0,502.0
497.0,496.0
489.0,492.0
509.0,490.0
514.0,494.0
509.0,498.0
517.0,505.0
524.0,510.0
526.0,519.0
522.0,512.0
516.0,515.0
515.0,510.0
512.0,511.0
505.0,507.0
509.0,503.0
504.0,494.0
505.0,492.0
503.0,491.0
501.0,492.0
498.0,497.0
500.0,491.0
504.0,496.0
510.0,496.0
518.0,513.0
516.0,509.0
521.0,517.0
520.0,516.0
521.0,512.0
516.0,507.0
513.0,509.0
512.0,508.0
492.0,502.0
515.0,497.0
505.0,490.0
485.0,495.0
494.0,491.0
497.0,494.0
510.0,495.0
504.0,492.0
525.0,506.0
522.0,501.0
522.0,511.0
515.0,519.0
520.0,520.0
516.0,507.0
522.0,509.0
518.0,502.0
513.0,506.0
523.0,494.0
519.0,495.0
508.0,490.0
496.0,493.0
498.0,488.0
489.0,489.0
490.0,496.0
490.0,496.0
508.0,503.0
513.0,509.0
508.0,512.0
499.0,525.0
510.0,522.0
511.0,523.0
509.0,502.0
523.0,511.0
521.0,503.0
513.0,511.0
510.0,500.0
503.0,475.0
492.0,483.0
496.0,492.0
499.0,506.0
508.0,511.0
509.0,506.0
517.0,500.0
510.0,497.0
516.0,509.0
520.0,515.0
514.0,510.0
508.0,513.0
511.0,507.0
498.0,510.0
512.0,501.0
511.0,499.0
510.0,496.0
497.0,487.0
493.0,490.0
500.0,497.0
505.0,500.0
510.0,500.0
518.0,503.0
516.0,499.0
529.0,512.0
530.0,510.0
525.0,507.0
525.0,512.0
509.0,503.0
507.0,489.0
508.0,504.0
509.0,501.0
509.0,496.0
506.0,487.0
502.0,498.0
497.0,498.0
505.0,493.0
508.0,506.0
513.0,501.0
517.0,503.0
527.0,512.0
526.0,516.0
517.0,510.0
507.0,509.0
512.0,512.0
504.0,502.0
500.0,509.0
497.0,505.0
511.0,500.0
509.0,499.0
508.0,495.0
509.0,492.0
496.0,498.0
511.0,490.0
494.0,495.0
501.0,497.0
515.0,510.0
520.0,515.0
511.0,510.0
512.0,517.0
513.0,514.0
504.0,512.0
517.0,511.0
518.0,503.0
507.0,504.0
512.0,500.0
509.0,502.0
509.0,487.0
504.0,484.0
504.0,490.0
508.0,491.0
504.0,498.0
512.0,504.0
520.0,506.0
524.0,509.0
524.0,516.0
520.0,511.0
518.0,509.0
508.0,512.0
505.0,504.0
508.0,499.0
505.0,493.0
504.0,491.0
502.0,497.0
500.0,492.0
497.0,488.0
490.0,495.0
494.0,487.0
501.0,496.0
516.0,502.0
519.0,505.0
530.0,507.0
523.0,513.0
515.0,518.0
517.0,515.0
522.0,514.0
516.0,511.0
509.0,512.0
507.0,499.0
506.0,504.0
502.0,500.0
508.0,490.0
499.0,495.0
500.0,500.0
517.0,501.0
517.0,500.0
521.0,512.0
526.0,514.0
523.0,514.0
518.0,510.0
509.0,505.0
518.0,508.0
514.0,512.0
527.0,501.0
514.0,504.0
514.0,492.0
500.0,491.0
487.0,497.0
496.0,491.0
495.0,488.0
500.0,497.0
510.0,495.0
510.0,496.0
520.0,504.0
513.0,512.0
517.0,515.0
525.0,517.0
527.0,515.0
517.0,510.0
519.0,507.0
502.0,502.0
493.0,506.0
491.0,491.0
495.0,499.0
498.0,497.0
500.0,493.0
508.0,494.0
516.0,501.0
511.0,501.0
516.0,504.0
519.0,508.0
522.0,508.0
526.0,516.0
522.0,512.0
517.0,510.0
513.0,507.0
513.0,507.0
503.0,507.0
516.0,500.0
509.0,491.0
488.0,498.0
493.0,492.0
486.0,489.0
483.0,493.0
483.0,491.0
508.0,503.0
513.0,510.0
525.0,514.0
521.0,514.0
528.0,515.0
519.0,514.0
510.0,505.0
509.0,509.0
505.0,503.0
492.0,507.0
499.0,499.0
498.0,492.0
506.0,486.0
510.0,483.0
506.0,493.0
505.0,496.0
510.0,497.0
510.0,508.0
519.0,509.0
529.0,520.0
521.0,508.0
523.0,510.0
524.0,512.0
514.0,508.0
515.0,502.0
497.0,507.0
504.0,491.0
507.0,494.0
495.0,500.0
481.0,498.0
483.0,489.0
483.0,487.0
491.0,493.0
494.0,497.0
503.0,509.0
509.0,518.0
517.0,520.0
515.0,513.0
530.0,513.0
523.0,509.0
518.0,502.0
518.0,509.0
520.0,499.0
526.0,493.0
518.0,484.0
518.0,488.0
509.0,481.0
511.0,493.0
503.0,512.0
518.0,505.0
520.0,498.0
525.0,507.0
527.0,519.0
524.0,521.0
513.0,524.0
498.0,512.0
485.0,505.0
479.0,504.0
489.0,502.0
502.0,497.0
509.0,499.0
505.0,499.0
513.0,491.0
510.0,495.0
524.0,492.0
515.0,503.0
514.0,502.0
506.0,502.0
520.0,505.0
525.0,507.0
531.0,514.0
528.0,510.0
546.0,509.0
496.0,503.0
505.0,504.0
514.0,497.0
495.0,493.0
491.0,505.0
494.0,511.0
493.0,512.0
511.0,504.0
514.0,498.0
487.0,489.0
489.0,493.0
510.0,502.0
529.0,509.0
538.0,518.0
534.0,517.0
540.0,498.0
519.0,496.0
527.0,505.0
516.0,515.0
529.0,516.0
501.0,500.0
469.0,483.0
480.0,481.0
486.0,485.0
495.0,479.0
497.0,498.0
487.0,494.0
520.0,513.0
522.0,506.0
515.0,504.0
531.0,503.0
537.0,516.0
522.0,518.0
504.0,517.0
506.0,519.0
492.0,516.0
504.0,502.0
493.0,486.0
475.0,494.0
467.0,493.0
482.0,494.0
469.0,487.0
456.0,511.0
484.0,502.0
510.0,498.0
529.0,505.0
556.0,511.0
552.0,511.0
516.0,512.0
515.0,508.0
509.0,497.0
506.0,497.0
509.0,498.0
500.0,503.0
501.0,502.0
505.0,497.0
503.0,487.0
506.0,497.0
497.0,505.0
507.0,503.0
514.0,510.0
518.0,503.0
514.0,501.0
520.0,511.0
520.0,518.0
518.0,515.0
509.0,505.0
501.0,504.0
501.0,495.0
510.0,490.0
505.0,493.0
497.0,497.0
493.0,501.0
499.0,492.0
497.0,495.0
495.0,495.0
512.0,497.0
522.0,504.0
535.0,513.0
528.0,515.0
530.0,520.0
518.0,519.0
508.0,510.0
488.0,511.0
491.0,506.0
474.0,503.0
473.0,501.0
468.0,507.0
477.0,495.0
494.0,488.0
519.0,481.0
549.0,484.0
590.0,490.0
601.0,484.0
577.0,498.0
563.0,516.0
484.0,517.0
473.0,508.0
478.0,508.0
490.0,512.0
520.0,515.0
509.0,515.0
509.0,507.0
485.0,504.0
444.0,504.0
440.0,507.0
469.0,503.0
491.0,498.0
513.0,493.0
530.0,488.0
533.0,501.0
530.0,509.0
531.0,508.0
521.0,514.0
530.0,512.0
562.0,508.0
545.0,509.0
546.0,510.0
517.0,501.0
484.0,490.0
472.0,491.0
441.0,494.0
444.0,490.0
487.0,489.0
507.0,490.0
500.0,508.0
524.0,504.0
550.0,496.0
556.0,501.0
542.0,520.0
549.0,518.0
537.0,522.0
516.0,522.0
495.0,515.0
504.0,495.0
510.0,486.0
508.0,496.0
510.0,496.0
513.0,491.0
517.0,488.0
506.0,493.0
500.0,498.0
472.0,507.0
492.0,506.0
513.0,505.0
523.0,504.0
527.0,510.0
522.0,507.0
520.0,518.0
513.0,523.0
512.0,519.0
512.0,509.0
491.0,496.0
495.0,489.0
498.0,501.0
506.0,493.0
510.0,473.0
514.0,490.0
493.0,493.0
497.0,504.0
506.0,499.0
515.0,505.0
514.0,507.0
519.0,514.0
510.0,502.0
506.0,502.0
508.0,510.0
498.0,509.0
510.0,504.0
505.0,497.0
498.0,499.0
505.0,496.0
497.0,489.0
485.0,498.0
483.0,498.0
498.0,500.0
498.0,498.0
515.0,510.0
508.0,510.0
520.0,516.0
530.0,523.0
525.0,515.0
524.0,501.0
503.0,485.0
494.0,495.0
495.0,495.0
483.0,501.0
494.0,502.0
506.0,496.0
504.0,502.0
522.0,493.0
509.0,496.0
525.0,488.0
517.0,507.0
505.0,524.0
527.0,535.0
526.0,503.0
499.0,507.0
516.0,510.0
528.0,504.0
506.0,502.0
496.0,511.0
509.0,497.0
492.0,500.0
474.0,490.0
488.0,494.0
513.0,502.0
491.0,501.0
521.0,495.0
540.0,486.0
562.0,467.0
563.0,497.0
525.0,512.0
537.0,518.0
536.0,523.0
529.0,521.0
534.0,508.0
554.0,514.0
519.0,498.0
459.0,485.0
483.0,476.0
497.0,492.0
465.0,503.0
481.0,496.0
508.0,498.0
506.0,482.0
512.0,497.0
516.0,506.0
524.0,510.0
522.0,516.0
507.0,509.0
505.0,511.0
502.0,509.0
525.0,507.0
515.0,501.0
518.0,487.0
541.0,492.0
540.0,505.0
539.0,502.0
527.0,509.0
498.0,508.0
520.0,499.0
457.0,486.0
435.0,481.0
469.0,467.0
513.0,476.0
554.0,513.0
547.0,514.0
493.0,514.0
476.0,514.0
481.0,519.0
494.0,511.0
512.0,518.0
542.0,569.0
566.0,546.0
531.0,508.0
510.0,470.0
502.0,484.0
510.0,505.0
523.0,501.0
523.0,519.0
555.0,505.0
552.0,494.0
527.0,493.0
513.0,505.0
525.0,516.0
502.0,502.0
491.0,499.0
477.0,493.0
492.0,495.0
518.0,482.0
514.0,488.0
535.0,497.0
506.0,506.0
471.0,519.0
467.0,539.0
500.0,529.0
513.0,498.0
536.0,469.0
548.0,484.0
528.0,526.0
511.0,529.0
516.0,538.0
457.0,532.0
449.0,509.0
420.0,453.0
455.0,434.0
497.0,483.0
554.0,482.0
573.0,473.0
560.0,455.0
532.0,474.0
535.0,502.0
496.0,534.0
463.0,543.0
489.0,527.0
508.0,505.0
503.0,524.0
490.0,527.0
497.0,522.0
513.0,474.0
497.0,469.0
519.0,486.0
544.0,510.0
519.0,518.0
502.0,502.0
471.0,509.0
413.0,511.0
423.0,490.0
453.0,486.0
510.0,495.0
541.0,544.0
536.0,521.0
544.0,467.0
580.0,472.0
580.0,510.0
572.0,513.0
534.0,514.0
478.0,519.0
449.0,492.0
497.0,484.0
537.0,480.0
509.0,503.0
472.0,477.0
513.0,502.0
519.0,479.0
530.0,470.0
556.0,496.0
517.0,515.0
535.0,534.0
539.0,571.0
551.0,541.0
568.0,507.0
548.0,504.0
510.0,515.0
512.0,533.0
487.0,543.0
457.0,508.0
470.0,447.0
487.0,398.0
478.0,483.0
469.0,488.0
427.0,525.0
422.0,517.0
493.0,454.0
544.0,444.0
527.0,511.0
558.0,541.0
633.0,504.0
594.0,522.0
477.0,531.0
501.0,475.0
513.0,486.0
417.0,491.0
440.0,509.0
448.0,478.0
456.0,439.0
484.0,472.0
462.0,483.0
513.0,510.0
545.0,512.0
548.0,514.0
542.0,517.0
559.0,512.0
543.0,493.0
536.0,500.0
487.0,517.0
468.0,550.0
488.0,558.0
474.0,517.0
498.0,489.0
494.0,496.0
505.0,525.0
523.0,497.0
523.0,467.0
490.0,486.0
507.0,543.0
524.0,545.0
515.0,480.0
525.0,458.0
474.0,482.0
450.0,521.0
491.0,549.0
514.0,525.0
519.0,527.0
537.0,499.0
535.0,506.0
546.0,473.0
529.0,464.0
505.0,470.0
459.0,488.0
480.0,488.0
472.0,487.0
485.0,501.0
556.0,513.0
597.0,505.0
606.0,511.0
567.0,534.0
515.0,523.0
390.0,519.0
423.0,500.0
404.0,503.0
423.0,539.0
506.0,537.0
499.0,465.0
543.0,480.0
539.0,519.0
528.0,503.0
526.0,499.0
516.0,484.0
534.0,475.0
549.0,496.0
540.0,514.0
496.0,501.0
478.0,497.0
494.0,486.0
513.0,502.0
465.0,526.0
455.0,528.0
524.0,525.0
521.0,530.0
538.0,514.0
527.0,479.0
566.0,479.0
588.0,516.0
599.0,575.0
566.0,576.0
518.0,465.0
554.0,425.0
538.0,467.0
487.0,515.0
480.0,523.0
467.0,538.0
429.0,510.0
388.0,497.0
471.0,500.0
506.0,477.0
481.0,489.0
487.0,484.0
477.0,484.0
523.0,525.0
563.0,484.0
554.0,506.0
525.0,507.0
525.0,548.0
541.0,532.0
547.0,478.0
544.0,482.0
494.0,483.0
442.0,493.0
467.0,503.0
465.0,504.0
460.0,496.0
467.0,501.0
460.0,490.0
463.0,500.0
485.0,509.0
518.0,522.0
555.0,501.0
570.0,487.0
560.0,474.0
556.0,503.0
551.0,525.0
544.0,530.0
538.0,521.0
523.0,523.0
493.0,506.0
500.0,480.0
443.0,497.0
410.0,504.0
483.0,505.0
536.0,502.0
554.0,495.0
526.0,493.0
539.0,501.0
531.0,494.0
512.0,466.0
510.0,487.0
481.0,496.0
483.0,514.0
524.0,543.0
522.0,532.0
505.0,531.0
560.0,521.0
541.0,499.0
455.0,503.0
444.0,469.0
474.0,487.0
498.0,543.0
519.0,529.0
561.0,474.0
556.0,469.0
540.0,500.0
526.0,495.0
513.0,493.0
443.0,511.0
452.0,548.0
433.0,536.0
446.0,505.0
507.0,511.0
549.0,519.0
562.0,503.0
580.0,476.0
572.0,479.0
500.0,481.0
392.0,502.0
415.0,487.0
449.0,474.0
484.0,489.0
548.0,508.0
572.0,574.0
617.0,576.0
630.0,510.0
600.0,449.0
499.0,501.0
497.0,494.0
523.0,500.0
558.0,519.0
477.0,553.0
450.0,527.0
450.0,448.0
471.0,435.0
459.0,478.0
489.0,479.0
484.0,492.0
501.0,493.0
490.0,503.0
519.0,505.0
558.0,511.0
575.0,525.0
587.0,553.0
496.0,547.0
478.0,534.0
478.0,535.0
506.0,510.0
513.0,466.0
522.0,478.0
553.0,509.0
525.0,520.0
481.0,492.0
395.0,470.0
413.0,481.0
514.0,538.0
588.0,561.0
606.0,520.0
558.0,457.0
506.0,489.0
435.0,498.0
453.0,512.0
483.0,508.0
505.0,510.0
517.0,526.0
486.0,530.0
460.0,485.0
458.0,460.0
477.0,482.0
508.0,494.0
529.0,504.0
552.0,499.0
557.0,481.0
556.0,495.0
573.0,514.0
545.0,514.0
473.0,515.0
446.0,500.0
494.0,507.0
501.0,514.0
498.0,522.0
492.0,533.0
507.0,519.0
514.0,499.0
500.0,481.0
486.0,510.0
470.0,521.0
482.0,492.0
517.0,447.0
523.0,468.0
486.0,497.0
461.0,517.0
472.0,534.0
538.0,533.0
608.0,529.0
589.0,503.0
531.0,514.0
526.0,510.0
539.0,496.0
550.0,500.0
519.0,511.0
476.0,524.0
479.0,524.0
487.0,492.0
496.0,458.0
487.0,463.0
545.0,492.0
534.0,510.0
534.0,501.0
532.0,492.0
530.0,500.0
524.0,508.0
535.0,515.0
559.0,508.0
530.0,509.0
514.0,506.0
511.0,497.0
503.0,497.0
479.0,498.0
463.0,506.0
472.0,490.0
501.0,491.0
531.0,487.0
557.0,501.0
538.0,493.0
566.0,496.0
566.0,514.0
539.0,528.0
480.0,564.0
446.0,524.0
471.0,479.0
469.0,463.0
474.0,535.0
526.0,572.0
543.0,511.0
540.0,455.0
522.0,459.0
499.0,517.0
417.0,559.0
407.0,554.0
450.0,470.0
513.0,473.0
514.0,471.0
586.0,488.0
588.0,510.0
549.0,509.0
556.0,518.0
528.0,506.0
506.0,478.0
487.0,486.0
491.0,512.0
494.0,504.0
492.0,491.0
493.0,468.0
496.0,483.0
523.0,489.0
508.0,488.0
520.0,502.0
544.0,510.0
538.0,509.0
526.0,520.0
510.0,527.0
526.0,513.0
527.0,516.0
507.0,516.0
467.0,507.0
453.0,488.0
485.0,476.0
503.0,466.0
518.0,472.0
512.0,476.0
484.0,503.0
493.0,516.0
488.0,510.0
496.0,505.0
512.0,512.0
537.0,536.0
562.0,575.0
559.0,568.0
532.0,471.0
501.0,478.0
467.0,493.0
463.0,477.0
483.0,476.0
482.0,490.0
516.0,499.0
471.0,520.0
478.0,502.0
452.0,484.0
463.0,500.0
552.0,516.0
572.0,520.0
599.0,517.0
577.0,499.0
499.0,480.0
425.0,507.0
437.0,516.0
502.0,507.0
537.0,508.0
533.0,518.0
522.0,520.0
514.0,507.0
531.0,458.0
568.0,464.0
551.0,485.0
532.0,493.0
479.0,493.0
469.0,497.0
459.0,497.0
480.0,495.0
540.0,482.0
556.0,494.0
536.0,516.0
540.0,545.0
563.0,534.0
571.0,501.0
560.0,523.0
522.0,530.0
512.0,566.0
462.0,538.0
445.0,440.0
439.0,407.0
489.0,490.0
559.0,505.0
601.0,506.0
563.0,543.0
544.0,564.0
493.0,566.0
492.0,527.0
493.0,468.0
466.0,476.0
469.0,484.0
488.0,484.0
483.0,487.0
477.0,496.0
503.0,489.0
463.0,513.0
462.0,478.0
488.0,466.0
539.0,497.0
547.0,505.0
528.0,509.0
544.0,529.0
508.0,526.0
466.0,512.0
462.0,487.0
504.0,492.0
513.0,501.0
498.0,501.0
512.0,500.0
516.0,505.0
524.0,491.0
525.0,483.0
490.0,482.0
476.0,502.0
489.0,508.0
477.0,502.0
507.0,496.0
515.0,503.0
513.0,506.0
521.0,513.0
529.0,522.0
522.0,516.0
528.0,487.0
511.0,497.0
504.0,498.0
513.0,528.0
524.0,509.0
511.0,471.0
470.0,489.0
476.0,497.0
517.0,489.0
519.0,498.0
515.0,512.0
524.0,524.0
511.0,517.0
523.0,530.0
519.0,520.0
517.0,504.0
508.0,481.0
521.0,484.0
499.0,498.0
501.0,486.0
565.0,491.0
537.0,505.0
508.0,488.0
507.0,486.0
481.0,492.0
515.0,495.0
534.0,508.0
547.0,530.0
529.0,541.0
540.0,520.0
507.0,500.0
518.0,548.0
477.0,532.0
482.0,515.0
473.0,494.0
449.0,511.0
448.0,482.0
463.0,490.0
480.0,484.0
528.0,459.0
549.0,458.0
557.0,482.0
571.0,492.0
578.0,500.0
578.0,512.0
530.0,521.0
479.0,509.0
461.0,505.0
475.0,518.0
567.0,550.0
558.0,554.0
504.0,517.0
542.0,509.0
542.0,525.0
456.0,475.0
409.0,482.0
425.0,486.0
463.0,493.0
500.0,489.0
551.0,537.0
533.0,484.0
540.0,475.0
521.0,495.0
526.0,501.0
536.0,502.0
496.0,490.0
491.0,494.0
514.0,503.0
500.0,502.0
528.0,495.0
549.0,506.0
533.0,518.0
501.0,523.0
470.0,514.0
494.0,495.0
491.0,480.0
507.0,500.0
512.0,510.0
521.0,520.0
528.0,505.0
535.0,499.0
535.0,500.0
514.0,504.0
494.0,495.0
460.0,500.0
456.0,507.0
491.0,495.0
534.0,513.0
529.0,502.0
506.0,521.0
488.0,528.0
468.0,490.0
520.0,480.0
531.0,493.0
529.0,515.0
535.0,523.0
511.0,524.0
480.0,510.0
503.0,525.0
497.0,516.0
499.0,490.0
508.0,482.0
531.0,509.0
524.0,498.0
509.0,491.0
489.0,481.0
458.0,467.0
429.0,462.0
446.0,490.0
494.0,514.0
510.0,531.0
560.0,506.0
557.0,499.0
536.0,550.0
562.0,583.0
586.0,512.0
559.0,452.0
507.0,485.0
488.0,487.0
488.0,494.0
491.0,494.0
494.0,493.0
506.0,484.0
507.0,487.0
489.0,504.0
533.0,483.0
515.0,488.0
511.0,483.0
524.0,503.0
508.0,517.0
502.0,526.0
516.0,492.0
501.0,504.0
508.0,500.0
529.0,510.0
515.0,503.0
485.0,508.0
470.0,521.0
468.0,521.0
513.0,506.0
532.0,476.0
548.0,488.0
546.0,503.0
533.0,496.0
533.0,516.0
550.0,516.0
532.0,510.0
515.0,484.0
521.0,487.0
498.0,528.0
494.0,516.0
484.0,506.0
491.0,516.0
491.0,523.0
471.0,528.0
442.0,498.0
454.0,468.0
491.0,454.0
511.0,493.0
504.0,510.0
500.0,519.0
512.0,531.0
531.0,523.0
539.0,486.0
534.0,489.0
543.0,484.0
553.0,492.0
521.0,508.0
507.0,508.0
494.0,521.0
490.0,514.0
490.0,533.0
485.0,496.0
474.0,459.0
473.0,471.0
460.0,479.0
489.0,500.0
529.0,504.0
548.0,505.0
560.0,511.0
567.0,505.0
541.0,515.0
534.0,514.0
523.0,501.0
526.0,525.0
496.0,524.0
498.0,515.0
473.0,489.0
475.0,491.0
484.0,482.0
498.0,515.0
507.0,498.0
529.0,459.0
537.0,485.0
531.0,508.0
511.0,486.0
488.0,495.0
485.0,513.0
482.0,503.0
508.0,505.0
521.0,512.0
544.0,510.0
542.0,492.0
525.0,487.0
503.0,513.0
509.0,526.0
496.0,504.0
489.0,487.0
506.0,488.0
518.0,498.0
516.0,501.0
502.0,514.0
505.0,496.0
526.0,498.0
470.0,504.0
477.0,502.0
514.0,502.0
489.0,493.0
437.0,494.0
454.0,486.0
508.0,494.0
538.0,488.0
558.0,497.0
555.0,490.0
506.0,484.0
512.0,508.0
521.0,512.0
538.0,503.0
536.0,517.0
541.0,528.0
543.0,528.0
523.0,514.0
466.0,503.0
443.0,498.0
458.0,499.0
483.0,496.0
552.0,497.0
555.0,491.0
540.0,503.0
505.0,477.0
527.0,466.0
531.0,492.0
510.0,517.0
532.0,553.0
525.0,560.0
475.0,502.0
452.0,461.0
498.0,497.0
516.0,505.0
536.0,507.0
548.0,496.0
539.0,496.0
526.0,494.0
514.0,483.0
487.0,508.0
486.0,504.0
484.0,478.0
483.0,482.0
479.0,502.0
475.0,506.0
450.0,497.0
475.0,511.0
535.0,526.0
538.0,526.0
515.0,517.0
537.0,512.0
531.0,497.0
501.0,477.0
486.0,503.0
506.0,517.0
510.0,507.0
535.0,496.0
555.0,482.0
547.0,475.0
502.0,467.0
474.0,480.0
487.0,494.0
499.0,509.0
533.0,519.0
549.0,517.0
537.0,524.0
505.0,517.0
509.0,515.0
518.0,506.0
489.0,511.0
497.0,513.0
496.0,508.0
479.0,487.0
472.0,474.0
491.0,494.0
474.0,498.0
478.0,485.0
517.0,494.0
511.0,497.0
515.0,496.0
529.0,509.0
535.0,527.0
531.0,552.0
527.0,562.0
516.0,475.0
486.0,476.0
447.0,497.0
474.0,498.0
503.0,491.0
524.0,489.0
537.0,479.0
533.0,490.0
516.0,506.0
505.0,511.0
496.0,496.0
464.0,489.0
457.0,494.0
467.0,500.0
541.0,507.0
590.0,510.0
563.0,510.0
533.0,516.0
517.0,499.0
516.0,492.0
507.0,499.0
484.0,511.0
491.0,522.0
497.0,498.0
485.0,475.0
508.0,469.0
527.0,503.0
537.0,504.0
507.0,518.0
523.0,521.0
533.0,515.0
543.0,515.0
540.0,517.0
530.0,514.0
522.0,497.0
497.0,484.0
478.0,499.0
475.0,509.0
475.0,498.0
516.0,484.0
505.0,500.0
498.0,499.0
502.0,495.0
500.0,486.0
499.0,497.0
518.0,515.0
535.0,517.0
526.0,513.0
500.0,498.0
470.0,502.0
467.0,511.0
460.0,510.0
465.0,495.0
492.0,486.0
502.0,512.0
464.0,534.0
493.0,510.0
529.0,481.0
569.0,492.0
556.0,473.0
546.0,484.0
509.0,510.0
502.0,515.0
513.0,511.0
521.0,523.0
525.0,513.0
513.0,507.0
515.0,512.0
508.0,505.0
494.0,501.0
492.0,492.0
520.0,496.0
537.0,496.0
516.0,493.0
493.0,487.0
486.0,489.0
448.0,490.0
453.0,496.0
491.0,500.0
511.0,506.0
524.0,517.0
550.0,510.0
540.0,514.0
525.0,522.0
494.0,526.0
488.0,484.0
493.0,493.0
509.0,492.0
515.0,496.0
501.0,505.0
510.0,514.0
511.0,499.0
505.0,485.0
526.0,493.0
523.0,505.0
538.0,500.0
539.0,512.0
523.0,503.0
500.0,509.0
477.0,513.0
510.0,507.0
540.0,505.0
551.0,520.0
523.0,505.0
499.0,481.0
465.0,494.0
469.0,517.0
481.0,474.0
501.0,483.0
521.0,489.0
534.0,494.0
538.0,506.0
520.0,526.0
523.0,514.0
547.0,515.0
526.0,514.0
503.0,501.0
515.0,510.0
536.0,514.0
520.0,534.0
458.0,519.0
484.0,514.0
497.0,469.0
502.0,476.0
490.0,483.0
471.0,495.0
487.0,496.0
518.0,499.0
540.0,506.0
537.0,512.0
536.0,516.0
524.0,510.0
516.0,506.0
516.0,509.0
486.0,514.0
499.0,503.0
483.0,489.0
476.0,492.0
480.0,492.0
481.0,484.0
527.0,490.0
543.0,481.0
534.0,487.0
538.0,491.0
545.0,503.0
536.0,524.0
527.0,531.0
515.0,530.0
498.0,509.0
499.0,513.0
498.0,509.0
499.0,498.0
540.0,487.0
540.0,492.0
533.0,521.0
502.0,521.0
473.0,494.0
482.0,496.0
491.0,494.0
505.0,504.0
518.0,510.0
510.0,515.0
509.0,514.0
507.0,509.0
513.0,508.0
518.0,512.0
520.0,515.0
529.0,510.0
503.0,501.0
472.0,496.0
472.0,499.0
497.0,495.0
520.0,486.0
521.0,502.0
508.0,501.0
512.0,516.0
516.0,517.0
515.0,497.0
523.0,498.0
523.0,512.0
519.0,518.0
518.0,514.0
508.0,493.0
498.0,461.0
504.0,506.0
489.0,502.0
495.0,492.0
499.0,495.0
503.0,490.0
498.0,490.0
504.0,490.0
519.0,488.0
519.0,496.0
518.0,504.0
510.0,503.0
511.0,507.0
522.0,510.0
520.0,514.0
514.0,507.0
522.0,512.0
507.0,497.0
496.0,496.0
513.0,498.0
514.0,500.0
520.0,506.0
502.0,501.0
495.0,503.0
493.0,493.0
487.0,474.0
487.0,460.0
481.0,484.0
530.0,508.0
540.0,519.0
541.0,505.0
530.0,529.0
514.0,527.0
527.0,526.0
534.0,515.0
516.0,515.0
506.0,517.0
497.0,521.0
499.0,506.0
500.0,475.0
498.0,475.0
500.0,493.0
511.0,494.0
505.0,490.0
513.0,495.0
515.0,508.0
522.0,513.0
527.0,514.0
543.0,511.0
534.0,505.0
527.0,510.0
501.0,511.0
487.0,495.0
499.0,504.0
510.0,503.0
506.0,507.0
519.0,490.0
520.0,488.0
522.0,490.0
510.0,493.0
498.0,496.0
507.0,490.0
516.0,499.0
530.0,519.0
531.0,512.0
532.0,508.0
538.0,499.0
515.0,501.0
515.0,496.0
497.0,519.0
495.0,508.0
497.0,506.0
482.0,504.0
484.0,500.0
495.0,486.0
486.0,498.0
495.0,492.0
505.0,505.0
518.0,511.0
530.0,517.0
526.0,519.0
528.0,514.0
521.0,510.0
501.0,507.0
502.0,506.0
507.0,502.0
516.0,499.0
516.0,497.0
511.0,498.0
504.0,493.0
495.0,496.0
498.0,482.0
508.0,488.0
509.0,497.0
508.0,502.0
507.0,508.0
502.0,512.0
495.0,509.0
500.0,505.0
518.0,511.0
507.0,502.0
492.0,513.0
497.0,498.0
505.0,498.0
527.0,496.0
540.0,500.0
531.0,496.0
528.0,486.0
520.0,503.0
515.0,497.0
511.0,500.0
520.0,501.0
533.0,505.0
533.0,509.0
525.0,499.0
509.0,498.0
498.0,502.0
492.0,516.0
496.0,519.0
494.0,520.0
485.0,517.0
505.0,497.0
503.0,502.0
507.0,491.0
506.0,488.0
505.0,497.0
516.0,490.0
504.0,514.0
511.0,520.0
516.0,515.0
519.0,518.0
519.0,513.0
506.0,502.0
514.0,504.0
503.0,494.0
498.0,496.0
513.0,492.0
511.0,508.0
507.0,513.0
509.0,494.0
503.0,488.0
503.0,485.0
505.0,497.0
511.0,505.0
516.0,506.0
521.0,512.0
528.0,512.0
522.0,516.0
521.0,509.0
518.0,512.0
509.0,504.0
507.0,504.0
500.0,507.0
500.0,489.0
498.0,490.0
492.0,502.0
500.0,497.0
499.0,503.0
500.0,500.0
497.0,500.0
512.0,499.0
531.0,509.0
537.0,514.0
532.0,509.0
529.0,511.0
525.0,512.0
519.0,514.0
503.0,503.0
490.0,507.0
488.0,505.0
497.0,503.0
497.0,499.0
506.0,491.0
502.0,488.0
501.0,491.0
498.0,500.0
502.0,505.0
515.0,505.0
524.0,500.0
525.0,514.0
520.0,517.0
503.0,512.0
494.0,507.0
498.0,510.0
501.0,508.0
516.0,503.0
514.0,497.0
506.0,496.0
503.0,488.0
502.0,488.0
505.0,491.0
504.0,483.0
517.0,488.0
517.0,492.0
516.0,507.0
521.0,506.0
523.0,508.0
526.0,503.0
511.0,507.0
516.0,511.0
510.0,508.0
501.0,500.0
506.0,503.0
517.0,510.0
506.0,507.0
501.0,502.0
503.0,500.0
499.0,485.0
500.0,490.0
493.0,488.0
514.0,502.0
529.0,509.0
534.0,514.0
543.0,507.0
537.0,511.0
526.0,512.0
516.0,510.0
517.0,505.0
520.0,503.0
506.0,504.0
497.0,504.0
485.0,508.0
496.0,490.0
485.0,479.0
485.0,490.0
489.0,498.0
495.0,503.0
496.0,511.0
522.0,514.0
529.0,517.0
509.0,514.0
518.0,516.0
514.0,522.0
510.0,513.0
516.0,507.0
509.0,511.0
505.0,506.0
509.0,504.0
509.0,504.0
510.0,485.0
499.0,487.0
504.0,488.0
508.0,497.0
508.0,498.0
521.0,505.0
521.0,507.0
532.0,513.0
532.0,517.0
518.0,513.0
513.0,509.0
501.0,515.0
504.0,500.0
510.0,501.0
498.0,503.0
503.0,491.0
502.0,496.0
488.0,500.0
509.0,491.0
506.0,497.0
505.0,495.0
517.0,502.0
518.0,505.0
530.0,513.0
529.0,505.0
526.0,514.0
519.0,516.0
510.0,512.0
500.0,511.0
487.0,507.0
482.0,506.0
496.0,494.0
504.0,496.0
515.0,493.0
507.0,490.0
500.0,496.0
506.0,498.0
513.0,499.0
514.0,496.0
513.0,507.0
522.0,515.0
521.0,518.0
513.0,514.0
516.0,514.0
518.0,511.0
513.0,508.0
502.0,506.0
503.0,496.0
500.0,497.0
502.0,498.0
502.0,493.0
500.0,492.0
498.0,495.0
499.0,499.0
507.0,494.0
512.0,497.0
524.0,509.0
521.0,512.0
524.0,517.0
519.0,516.0
493.0,518.0
493.0,509.0
491.0,505.0
496.0,501.0
499.0,499.0
505.0,497.0
514.0,496.0
525.0,491.0
520.0,489.0
512.0,490.0
516.0,499.0
519.0,500.0
520.0,508.0
521.0,507.0
524.0,510.0
515.0,514.0
515.0,511.0
514.0,511.0
504.0,499.0
498.0,507.0
494.0,498.0
491.0,496.0
485.0,486.0
488.0,491.0
493.0,500.0
495.0,502.0
506.0,495.0
513.0,500.0
522.0,493.0
524.0,506.0
520.0,512.0
525.0,522.0
519.0,517.0
522.0,520.0
518.0,513.0
520.0,506.0
524.0,500.0
522.0,499.0
518.0,502.0
509.0,503.0
504.0,492.0
499.0,492.0
486.0,495.0
494.0,495.0
502.0,498.0
516.0,505.0
520.0,502.0
516.0,509.0
520.0,512.0
516.0,515.0
504.0,510.0
507.0,507.0
510.0,504.0
496.0,505.0
499.0,503.0
491.0,498.0
498.0,491.0
496.0,482.0
499.0,491.0
498.0,484.0
502.0,495.0
510.0,500.0
515.0,502.0
524.0,508.0
528.0,515.0
519.0,511.0
515.0,508.0
515.0,506.0
503.0,513.0
507.0,503.0
508.0,502.0
498.0,506.0
501.0,492.0
500.0,494.0
493.0,494.0
497.0,489.0
496.0,494.0
509.0,494.0
511.0,501.0
521.0,506.0
523.0,513.0
518.0,516.0
511.0,506.0
514.0,507.0
509.0,502.0
489.0,507.0
501.0,494.0
503.0,499.0
496.0,503.0
493.0,495.0
500.0,498.0
499.0,490.0
495.0,484.0
500.0,492.0
503.0,500.0
504.0,496.0
517.0,509.0
523.0,514.0
516.0,516.0
511.0,510.0
513.0,504.0
501.0,513.0
500.0,510.0
506.0,505.0
503.0,505.0
506.0,490.0
508.0,495.0
495.0,491.0
486.0,493.0
500.0,491.0
489.0,494.0
510.0,504.0
523.0,504.0
528.0,511.0
533.0,515.0
524.0,515.0
518.0,513.0
506.0,506.0
505.0,496.0
511.0,503.0
518.0,502.0
513.0,500.0
502.0,504.0
504.0,499.0
516.0,493.0
507.0,491.0
495.0,494.0
501.0,502.0
508.0,501.0
513.0,507.0
512.0,514.0
502.0,512.0
507.0,514.0
505.0,507.0
503.0,506.0
497.0,501.0
492.0,508.0
496.0,506.0
504.0,493.0
508.0,497.0
504.0,489.0
502.0,497.0
502.0,496.0
499.0,492.0
497.0,500.0
513.0,503.0
519.0,513.0
520.0,513.0
512.0,512.0
504.0,512.0
506.0,513.0
498.0,514.0
502.0,506.0
489.0,510.0
502.0,494.0
507.0,497.0
495.0,501.0
499.0,486.0
498.0,490.0
503.0,491.0
503.0,490.0
511.0,495.0
524.0,508.0
526.0,510.0
522.0,502.0
521.0,517.0
518.0,515.0
510.0,510.0
501.0,513.0
509.0,510.0
504.0,507.0
508.0,501.0
506.0,495.0
505.0,497.0
498.0,492.0
500.0,488.0
492.0,499.0
494.0,492.0
513.0,503.0
514.0,506.0
527.0,513.0
522.0,516.0
520.0,511.0
516.0,510.0
508.0,504.0
507.0,503.0
504.0,500.0
504.0,495.0
507.0,498.0
505.0,497.0
493.0,497.0
497.0,486.0
493.0,497.0
500.0,489.0
500.0,491.0
516.0,502.0
525.0,511.0
526.0,513.0
522.0,512.0
520.0,513.0
517.0,510.0
511.0,510.0
510.0,505.0
497.0,507.0
505.0,494.0
507.0,498.0
503.0,491.0
493.0,499.0
506.0,492.0
504.0,497.0
506.0,491.0
518.0,505.0
522.0,506.0
522.0,510.0
519.0,512.0
515.0,516.0
523.0,513.0
510.0,504.0
512.0,512.0
506.0,496.0
510.0,502.0
501.0,503.0
503.0,491.0
506.0,495.0
502.0,485.0
511.0,492.0
515.0,493.0
511.0,495.0
516.0,502.0
515.0,507.0
522.0,506.0
519.0,516.0
507.0,509.0
514.0,510.0
511.0,510.0
504.0,500.0
493.0,505.0
504.0,503.0
499.0,501.0
505.0,494.0
507.0,493.0
506.0,489.0
495.0,491.0
502.0,497.0
513.0,495.0
520.0,506.0
525.0,509.0
524.0,502.0
525.0,515.0
523.0,508.0
515.0,510.0
510.0,508.0
504.0,503.0
497.0,509.0
506.0,500.0
496.0,504.0
504.0,494.0
497.0,486.0
490.0,496.0
504.0,495.0
508.0,495.0
513.0,500.0
523.0,506.0
525.0,505.0
526.0,515.0
523.0,510.0
519.0,511.0
516.0,509.0
513.0,507.0
509.0,503.0
500.0,505.0
509.0,500.0
503.0,495.0
511.0,496.0
510.0,489.0
507.0,485.0
497.0,496.0
509.0,500.0
507.0,506.0
505.0,507.0
518.0,513.0
520.0,508.0
516.0,511.0
513.0,513.0
506.0,500.0
494.0,502.0
493.0,508.0
488.0,503.0
503.0,490.0
500.0,501.0
507.0,494.0
501.0,491.0
503.0,489.0
497.0,500.0
508.0,496.0
511.0,507.0
520.0,508.0
520.0,515.0
513.0,512.0
515.0,513.0
505.0,510.0
508.0,508.0
497.0,508.0
497.0,505.0
509.0,500.0
497.0,501.0
500.0,494.0
497.0,494.0
490.0,496.0
495.0,497.0
505.0,498.0
513.0,502.0
517.0,503.0
522.0,517.0
526.0,515.0
523.0,516.0
518.0,515.0
512.0,508.0
504.0,508.0
503.0,504.0
506.0,507.0
505.0,503.0
504.0,504.0
505.0,486.0
503.0,491.0
488.0,495.0
493.0,495.0
498.0,503.0
510.0,505.0
516.0,507.0
524.0,519.0
515.0,509.0
515.0,514.0
518.0,509.0
511.0,508.0
495.0,509.0
503.0,499.0
506.0,502.0
500.0,501.0
498.0,497.0
500.0,487.0
496.0,493.0
503.0,493.0
503.0,494.0
511.0,502.0
513.0,508.0
516.0,506.0
523.0,507.0
518.0,511.0
512.0,514.0
508.0,512.0
505.0,512.0
496.0,509.0
496.0,510.0
500.0,503.0
498.0,501.0
502.0,495.0
503.0,492.0
491.0,495.0
504.0,493.0
504.0,490.0
506.0,497.0
517.0,510.0
519.0,508.0
523.0,508.0
522.0,512.0
521.0,514.0
513.0,509.0
509.0,501.0
501.0,505.0
493.0,509.0
502.0,493.0
502.0,497.0
502.0,493.0
491.0,497.0
496.0,486.0
494.0,496.0
509.0,499.0
516.0,505.0
516.0,506.0
524.0,515.0
518.0,515.0
515.0,515.0
515.0,514.0
503.0,511.0
507.0,505.0
495.0,508.0
502.0,496.0
502.0,489.0
502.0,496.0
495.0,497.0
504.0,493.0
505.0,491.0
505.0,493.0
508.0,496.0
505.0,501.0
524.0,511.0
530.0,514.0
522.0,514.0
508.0,515.0
508.0,516.0
492.0,509.0
497.0,506.0
500.0,507.0
501.0,494.0
500.0,491.0
502.0,496.0
502.0,496.0
503.0,491.0
495.0,497.0
508.0,498.0
514.0,502.0
513.0,503.0
521.0,513.0
520.0,515.0
517.0,514.0
513.0,515.0
497.0,503.0
504.0,506.0
508.0,498.0
511.0,495.0
513.0,499.0
509.0,498.0
504.0,494.0
490.0,497.0
490.0,487.0
492.0,498.0
503.0,491.0
505.0,499.0
519.0,506.0
523.0,515.0
523.0,517.0
511.0,510.0
512.0,507.0
505.0,496.0
496.0,510.0
504.0,499.0
506.0,493.0
506.0,499.0
510.0,497.0
496.0,497.0
494.0,487.0
488.0,499.0
492.0,494.0
501.0,501.0
515.0,507.0
521.0,509.0
519.0,509.0
517.0,515.0
521.0,518.0
514.0,513.0
515.0,508.0
506.0,504.0
502.0,505.0
503.0,494.0
493.0,504.0
501.0,489.0
504.0,493.0
498.0,487.0
505.0,493.0
509.0,503.0
512.0,505.0
520.0,509.0
523.0,509.0
517.0,509.0
510.0,513.0
513.0,509.0
506.0,509.0
507.0,502.0
507.0,507.0
507.0,499.0
506.0,492.0
509.0,496.0
492.0,502.0
500.0,484.0
494.0,496.0
501.0,498.0
510.0,500.0
517.0,504.0
526.0,510.0
525.0,511.0
526.0,506.0
521.0,518.0
518.0,516.0
519.0,510.0
502.0,512.0
506.0,504.0
504.0,496.0
504.0,491.0
495.0,500.0
499.0,492.0
495.0,494.0
497.0,497.0
504.0,493.0
511.0,500.0
513.0,498.0
525.0,510.0
523.0,510.0
518.0,508.0
522.0,513.0
516.0,504.0
504.0,509.0
501.0,510.0
505.0,497.0
508.0,500.0
495.0,505.0
500.0,493.0
503.0,492.0
497.0,485.0
503.0,493.0
498.0,496.0
512.0,500.0
520.0,511.0
520.0,511.0
524.0,511.0
518.0,510.0
515.0,515.0
512.0,508.0
506.0,508.0
489.0,505.0
502.0,501.0
502.0,495.0
502.0,493.0
501.0,491.0
506.0,491.0
498.0,494.0
494.0,491.0
508.0,504.0
517.0,504.0
523.0,509.0
524.0,506.0
528.0,512.0
523.0,510.0
527.0,518.0
508.0,506.0
505.0,501.0
502.0,502.0
501.0,502.0
499.0,501.0
505.0,499.0
500.0,498.0
503.0,492.0
501.0,493.0
503.0,485.0
504.0,504.0
516.0,511.0
511.0,513.0
522.0,516.0
521.0,516.0
517.0,508.0
513.0,513.0
508.0,504.0
496.0,508.0
502.0,493.0
501.0,501.0
499.0,499.0
500.0,489.0
492.0,497.0
501.0,489.0
496.0,498.0
508.0,498.0
513.0,505.0
522.0,513.0
525.0,505.0
529.0,517.0
524.0,513.0
519.0,512.0
515.0,510.0
507.0,501.0
506.0,501.0
505.0,500.0
506.0,498.0
495.0,501.0
500.0,488.0
505.0,490.0
497.0,494.0
502.0,488.0
514.0,498.0
508.0,499.0
522.0,510.0
519.0,507.0
523.0,515.0
520.0,505.0
516.0,511.0
505.0,505.0
503.0,511.0
495.0,507.0
502.0,492.0
502.0,490.0
506.0,495.0
494.0,497.0
500.0,488.0
500.0,486.0
506.0,495.0
509.0,496.0
519.0,499.0
526.0,517.0
519.0,516.0
516.0,512.0
514.0,514.0
506.0,507.0
508.0,508.0
506.0,505.0
502.0,502.0
498.0,502.0
504.0,495.0
501.0,497.0
501.0,485.0
495.0,496.0
499.0,491.0
504.0,499.0
508.0,502.0
519.0,511.0
524.0,511.0
526.0,515.0
518.0,516.0
512.0,506.0
514.0,510.0
510.0,507.0
511.0,502.0
510.0,500.0
509.0,499.0
505.0,497.0
501.0,494.0
491.0,496.0
502.0,491.0
504.0,495.0
506.0,495.0
519.0,507.0
517.0,510.0
525.0,513.0
516.0,510.0
512.0,508.0
519.0,510.0
508.0,517.0
513.0,503.0
513.0,501.0
519.0,498.0
507.0,491.0
499.0,488.0
489.0,494.0
486.0,489.0
490.0,492.0
501.0,495.0
500.0,497.0
508.0,503.0
524.0,510.0
523.0,514.0
514.0,505.0
512.0,512.0
507.0,512.0
504.0,497.0
509.0,503.0
498.0,503.0
502.0,491.0
506.0,496.0
496.0,499.0
507.0,491.0
497.0,482.0
496.0,497.0
506.0,489.0
509.0,501.0
513.0,504.0
521.0,515.0
517.0,512.0
515.0,508.0
516.0,511.0
509.0,503.0
507.0,506.0
509.0,501.0
495.0,504.0
503.0,494.0
510.0,495.0
496.0,497.0
498.0,487.0
490.0,492.0
505.0,499.0
508.0,498.0
513.0,502.0
519.0,508.0
522.0,515.0
520.0,515.0
515.0,508.0
512.0,507.0
513.0,508.0
507.0,508.0
498.0,509.0
494.0,499.0
495.0,492.0
505.0,495.0
489.0,497.0
504.0,490.0
498.0,496.0
502.0,498.0
510.0,500.0
517.0,504.0
519.0,512.0
527.0,518.0
521.0,516.0
513.0,512.0
511.0,510.0
510.0,507.0
508.0,503.0
497.0,507.0
492.0,509.0
506.0,497.0
500.0,496.0
500.0,495.0
499.0,489.0
496.0,501.0
508.0,494.0
515.0,497.0
517.0,503.0
524.0,506.0
520.0,508.0
516.0,513.0
512.0,506.0
502.0,508.0
501.0,503.0
505.0,505.0
517.0,504.0
501.0,503.0
513.0,491.0
513.0,493.0
499.0,488.0
492.0,489.0
486.0,488.0
493.0,499.0
509.0,506.0
521.0,507.0
524.0,513.0
518.0,509.0
517.0,511.0
515.0,515.0
498.0,511.0
503.0,504.0
502.0,499.0
511.0,498.0
494.0,504.0
502.0,487.0
495.0,497.0
502.0,490.0
501.0,497.0
508.0,494.0
510.0,504.0
510.0,503.0
525.0,515.0
525.0,516.0
523.0,518.0
516.0,507.0
510.0,507.0
506.0,506.0
507.0,506.0
509.0,501.0
498.0,506.0
504.0,489.0
506.0,496.0
500.0,484.0
497.0,494.0
510.0,492.0
508.0,496.0
509.0,497.0
519.0,500.0
533.0,513.0
528.0,517.0
524.0,514.0
520.0,512.0
508.0,505.0
499.0,508.0
504.0,505.0
508.0,501.0
500.0,501.0
509.0,491.0
504.0,493.0
484.0,491.0
498.0,498.0
504.0,494.0
500.0,503.0
516.0,505.0
516.0,510.0
522.0,514.0
520.0,512.0
515.0,509.0
512.0,506.0
504.0,512.0
509.0,507.0
503.0,498.0
503.0,493.0
506.0,503.0
498.0,499.0
501.0,484.0
493.0,496.0
503.0,494.0
507.0,502.0
517.0,503.0
523.0,507.0
526.0,510.0
530.0,515.0
530.0,515.0
528.0,515.0
519.0,507.0
510.0,511.0
507.0,499.0
507.0,501.0
495.0,503.0
487.0,501.0
495.0,491.0
500.0,493.0
496.0,484.0
496.0,498.0
511.0,500.0
513.0,504.0
521.0,508.0
527.0,515.0
525.0,517.0
518.0,515.0
515.0,512.0
505.0,506.0
507.0,506.0
498.0,508.0
502.0,504.0
496.0,504.0
504.0,501.0
498.0,499.0
499.0,486.0
495.0,496.0
507.0,494.0
510.0,499.0
519.0,506.0
516.0,510.0
521.0,513.0
522.0,512.0
520.0,507.0
514.0,509.0
500.0,505.0
504.0,500.0
508.0,501.0
503.0,492.0
506.0,497.0
500.0,496.0
490.0,497.0
505.0,490.0
503.0,489.0
501.0,492.0
507.0,488.0
512.0,499.0
525.0,511.0
525.0,506.0
518.0,503.0
520.0,507.0
513.0,512.0
511.0,509.0
509.0,503.0
498.0,509.0
503.0,497.0
495.0,501.0
500.0,489.0
503.0,491.0
497.0,486.0
502.0,487.0
513.0,498.0
516.0,501.0
524.0,512.0
525.0,517.0
528.0,514.0
517.0,513.0
516.0,506.0
514.0,505.0
511.0,507.0
510.0,503.0
508.0,502.0
496.0,505.0
502.0,494.0
505.0,493.0
496.0,496.0
504.0,493.0
496.0,495.0
504.0,500.0
518.0,505.0
521.0,512.0
527.0,520.0
525.0,516.0
511.0,513.0
511.0,507.0
508.0,505.0
510.0,503.0
496.0,505.0
503.0,498.0
501.0,500.0
502.0,492.0
507.0,491.0
500.0,488.0
505.0,492.0
506.0,493.0
511.0,500.0
513.0,503.0
528.0,514.0
529.0,513.0
527.0,511.0
520.0,509.0
519.0,509.0
516.0,506.0
505.0,502.0
499.0,499.0
512.0,497.0
505.0,499.0
500.0,492.0
506.0,491.0
497.0,497.0
499.0,496.0
498.0,499.0
508.0,507.0
502.0,504.0
523.0,513.0
526.0,515.0
518.0,516.0
516.0,514.0
513.0,508.0
501.0,509.0
504.0,499.0
504.0,494.0
505.0,495.0
504.0,498.0
489.0,499.0
497.0,484.0
499.0,493.0
499.0,500.0
508.0,501.0
516.0,503.0
515.0,512.0
524.0,513.0
515.0,502.0
518.0,512.0
513.0,511.0
507.0,500.0
504.0,504.0
504.0,496.0
506.0,499.0
509.0,495.0
503.0,496.0
498.0,497.0
497.0,485.0
502.0,491.0
509.0,497.0
514.0,503.0
518.0,502.0
521.0,515.0
526.0,516.0
517.0,515.0
518.0,508.0
510.0,506.0
505.0,499.0
500.0,506.0
508.0,497.0
503.0,496.0
504.0,490.0
504.0,498.0
505.0,491.0
497.0,487.0
497.0,498.0
506.0,491.0
514.0,504.0
522.0,508.0
518.0,506.0
520.0,515.0
521.0,511.0
508.0,511.0
508.0,511.0
506.0,498.0
505.0,502.0
505.0,499.0
494.0,501.0
495.0,497.0
493.0,489.0
500.0,479.0
499.0,485.0
506.0,489.0
507.0,489.0
515.0,505.0
520.0,515.0
530.0,514.0
523.0,516.0
519.0,514.0
512.0,516.0
510.0,508.0
506.0,493.0
509.0,502.0
499.0,503.0
503.0,491.0
507.0,493.0
494.0,496.0
500.0,490.0
502.0,493.0
505.0,497.0
507.0,495.0
517.0,508.0
519.0,509.0
521.0,505.0
517.0,506.0
517.0,515.0
509.0,508.0
516.0,502.0
516.0,503.0
510.0,493.0
507.0,494.0
506.0,496.0
494.0,493.0
486.0,493.0
491.0,494.0
499.0,489.0
506.0,497.0
512.0,500.0
524.0,511.0
525.0,513.0
524.0,515.0
516.0,513.0
517.0,509.0
507.0,504.0
506.0,499.0
505.0,501.0
506.0,493.0
506.0,497.0
504.0,497.0
501.0,491.0
493.0,496.0
497.0,497.0
496.0,499.0
512.0,500.0
511.0,498.0
525.0,511.0
526.0,512.0
522.0,511.0
520.0,511.0
512.0,511.0
505.0,510.0
513.0,503.0
503.0,504.0
504.0,496.0
498.0,500.0
499.0,488.0
490.0,495.0
499.0,494.0
500.0,485.0
501.0,491.0
510.0,507.0
515.0,513.0
525.0,511.0
528.0,516.0
517.0,515.0
516.0,509.0
512.0,505.0
509.0,502.0
509.0,503.0
500.0,506.0
507.0,490.0
501.0,501.0
503.0,493.0
499.0,486.0
501.0,488.0
506.0,494.0
508.0,501.0
514.0,503.0
525.0,514.0
522.0,512.0
522.0,512.0
516.0,514.0
512.0,507.0
511.0,508.0
496.0,512.0
512.0,501.0
504.0,495.0
501.0,505.0
508.0,495.0
500.0,489.0
500.0,487.0
506.0,492.0
509.0,495.0
510.0,499.0
515.0,503.0
529.0,513.0
532.0,519.0
527.0,516.0
519.0,507.0
505.0,508.0
508.0,510.0
509.0,503.0
498.0,498.0
503.0,498.0
499.0,491.0
497.0,498.0
501.0,492.0
501.0,490.0
511.0,496.0
517.0,497.0
521.0,508.0
528.0,509.0
531.0,513.0
525.0,517.0
514.0,510.0
503.0,505.0
504.0,511.0
496.0,512.0
499.0,510.0
502.0,502.0
497.0,504.0
505.0,497.0
504.0,490.0
492.0,497.0
497.0,495.0
507.0,494.0
507.0,488.0
517.0,504.0
523.0,503.0
514.0,510.0
524.0,520.0
511.0,507.0
517.0,514.0
510.0,496.0
507.0,507.0
505.0,498.0
513.0,501.0
502.0,497.0
496.0,500.0
509.0,492.0
502.0,493.0
498.0,494.0
500.0,501.0
512.0,500.0
519.0,505.0
528.0,508.0
526.0,513.0
523.0,518.0
520.0,512.0
517.0,510.0
508.0,513.0
511.0,506.0
508.0,500.0
505.0,494.0
499.0,502.0
500.0,496.0
502.0,496.0
501.0,491.0
502.0,491.0
509.0,499.0
515.0,503.0
522.0,510.0
527.0,519.0
517.0,511.0
521.0,514.0
517.0,515.0
504.0,510.0
508.0,508.0
504.0,506.0
508.0,500.0
503.0,498.0
503.0,493.0
486.0,498.0
490.0,497.0
496.0,493.0
499.0,502.0
512.0,503.0
517.0,507.0
519.0,505.0
518.0,511.0
521.0,516.0
518.0,510.0
519.0,510.0
504.0,515.0
501.0,509.0
505.0,493.0
506.0,500.0
498.0,496.0
503.0,489.0
497.0,494.0
499.0,495.0
502.0,493.0
507.0,497.0
507.0,500.0
519.0,509.0
518.0,505.0
526.0,506.0
527.0,516.0
514.0,512.0
509.0,507.0
513.0,502.0
505.0,504.0
495.0,506.0
496.0,499.0
496.0,502.0
506.0,495.0
499.0,492.0
499.0,483.0
504.0,495.0
503.0,498.0
513.0,496.0
526.0,508.0
532.0,510.0
531.0,517.0
525.0,515.0
514.0,502.0
508.0,509.0
503.0,506.0
497.0,504.0
494.0,504.0
494.0,499.0
505.0,496.0
488.0,495.0
500.0,482.0
496.0,483.0
501.0,497.0
509.0,501.0
507.0,505.0
523.0,511.0
527.0,512.0
529.0,516.0
518.0,515.0
516.0,515.0
508.0,506.0
498.0,509.0
504.0,490.0
507.0,501.0
507.0,495.0
503.0,496.0
500.0,482.0
495.0,494.0
498.0,496.0
508.0,493.0
508.0,495.0
519.0,507.0
518.0,508.0
524.0,514.0
522.0,519.0
515.0,513.0
512.0,514.0
514.0,506.0
504.0,504.0
498.0,505.0
503.0,482.0
505.0,496.0
494.0,500.0
497.0,483.0
502.0,492.0
502.0,498.0
512.0,494.0
523.0,503.0
525.0,507.0
519.0,507.0
518.0,508.0
518.0,504.0
517.0,509.0
511.0,512.0
502.0,512.0
497.0,509.0
504.0,498.0
507.0,497.0
504.0,491.0
503.0,493.0
502.0,491.0
500.0,489.0
507.0,494.0
507.0,496.0
516.0,499.0
525.0,509.0
527.0,513.0
527.0,515.0
520.0,519.0
516.0,514.0
515.0,509.0
506.0,499.0
504.0,503.0
496.0,504.0
508.0,498.0
496.0,501.0
500.0,489.0
494.0,501.0
494.0,497.0
504.0,494.0
508.0,499.0
514.0,505.0
518.0,513.0
524.0,509.0
521.0,515.0
509.0,511.0
511.0,511.0
507.0,503.0
504.0,502.0
510.0,502.0
502.0,503.0
507.0,498.0
502.0,500.0
493.0,497.0
499.0,489.0
496.0,495.0
507.0,504.0
516.0,501.0
526.0,512.0
526.0,512.0
526.0,518.0
517.0,510.0
511.0,506.0
507.0,511.0
508.0,509.0
509.0,502.0
498.0,504.0
502.0,490.0
506.0,495.0
494.0,498.0
496.0,487.0
489.0,492.0
510.0,495.0
511.0,496.0
524.0,506.0
526.0,510.0
521.0,515.0
509.0,514.0
507.0,514.0
506.0,507.0
506.0,504.0
496.0,507.0
500.0,503.0
503.0,501.0
503.0,496.0
506.0,497.0
500.0,486.0
492.0,494.0
500.0,495.0
509.0,495.0
513.0,501.0
518.0,503.0
519.0,509.0
519.0,509.0
522.0,512.0
519.0,514.0
515.0,504.0
512.0,506.0
505.0,496.0
500.0,506.0
501.0,493.0
503.0,497.0
499.0,488.0
501.0,493.0
493.0,495.0
499.0,496.0
508.0,489.0
515.0,497.0
523.0,509.0
526.0,508.0
526.0,515.0
522.0,517.0
511.0,508.0
510.0,509.0
499.0,510.0
510.0,502.0
505.0,504.0
506.0,498.0
497.0,497.0
502.0,497.0
502.0,495.0
499.0,495.0
498.0,501.0
510.0,494.0
514.0,501.0
529.0,512.0
530.0,516.0
516.0,511.0
520.0,513.0
517.0,512.0
508.0,504.0
507.0,505.0
512.0,502.0
500.0,504.0
508.0,498.0
504.0,486.0
494.0,500.0
495.0,498.0
506.0,493.0
510.0,498.0
511.0,504.0
520.0,512.0
525.0,513.0
522.0,517.0
521.0,512.0
515.0,516.0
506.0,514.0
501.0,510.0
505.0,498.0
498.0,507.0
505.0,497.0
501.0,494.0
497.0,499.0
499.0,492.0
505.0,491.0
497.0,498.0
508.0,498.0
515.0,503.0
517.0,508.0
519.0,509.0
526.0,517.0
522.0,513.0
521.0,509.0
508.0,506.0
505.0,512.0
506.0,506.0
499.0,504.0
496.0,500.0
500.0,495.0
494.0,500.0
493.0,496.0
483.0,492.0
505.0,484.0
511.0,492.0
517.0,502.0
527.0,512.0
525.0,515.0
522.0,515.0
521.0,512.0
517.0,515.0
509.0,512.0
503.0,510.0
502.0,506.0
501.0,506.0
515.0,491.0
509.0,501.0
508.0,490.0
505.0,486.0
500.0,494.0
504.0,496.0
501.0,497.0
513.0,507.0
522.0,517.0
520.0,511.0
514.0,513.0
514.0,516.0
513.0,509.0
507.0,507.0
504.0,494.0
493.0,505.0
506.0,500.0
506.0,494.0
506.0,492.0
491.0,499.0
493.0,495.0
492.0,496.0
505.0,499.0
510.0,502.0
521.0,506.0
526.0,513.0
525.0,517.0
514.0,509.0
519.0,512.0
509.0,508.0
496.0,514.0
507.0,503.0
496.0,505.0
507.0,498.0
501.0,500.0
499.0,495.0
493.0,497.0
495.0,498.0
504.0,496.0
503.0,501.0
517.0,512.0
522.0,506.0
526.0,516.0
526.0,515.0
516.0,514.0
510.0,513.0
513.0,503.0
505.0,497.0
509.0,503.0
505.0,492.0
495.0,505.0
503.0,497.0
494.0,495.0
499.0,490.0
498.0,491.0
506.0,493.0
513.0,503.0
523.0,508.0
525.0,512.0
527.0,516.0
520.0,516.0
519.0,507.0
511.0,516.0
506.0,499.0
505.0,507.0
509.0,502.0
504.0,496.0
510.0,497.0
495.0,501.0
501.0,496.0
499.0,490.0
506.0,494.0
508.0,502.0
519.0,504.0
517.0,504.0
520.0,508.0
525.0,513.0
516.0,512.0
518.0,512.0
512.0,512.0
509.0,509.0
512.0,502.0
504.0,498.0
511.0,498.0
505.0,496.0
498.0,495.0
494.0,495.0
502.0,497.0
500.0,491.0
510.0,495.0
518.0,505.0
525.0,513.0
528.0,519.0
515.0,511.0
520.0,512.0
518.0,513.0
511.0,510.0
513.0,502.0
516.0,502.0
507.0,494.0
504.0,498.0
491.0,501.0
501.0,493.0
503.0,496.0
515.0,494.0
505.0,501.0
523.0,495.0
522.0,504.0
521.0,514.0
515.0,509.0
512.0,515.0
515.0,513.0
510.0,512.0
506.0,508.0
504.0,499.0
498.0,506.0
506.0,499.0
502.0,491.0
499.0,499.0
500.0,493.0
502.0,490.0
501.0,486.0
509.0,500.0
509.0,497.0
522.0,506.0
522.0,508.0
528.0,516.0
523.0,512.0
518.0,514.0
512.0,513.0
504.0,515.0
508.0,502.0
508.0,499.0
504.0,500.0
507.0,494.0
506.0,492.0
502.0,488.0
494.0,492.0
503.0,499.0
511.0,500.0
517.0,504.0
517.0,507.0
525.0,511.0
524.0,519.0
518.0,508.0
517.0,512.0
513.0,508.0
513.0,504.0
500.0,505.0
509.0,494.0
499.0,504.0
499.0,499.0
501.0,492.0
497.0,494.0
504.0,493.0
502.0,504.0
515.0,504.0
512.0,501.0
521.0,510.0
529.0,518.0
522.0,514.0
513.0,512.0
514.0,512.0
505.0,503.0
499.0,507.0
504.0,501.0
503.0,502.0
499.0,502.0
504.0,495.0
502.0,492.0
502.0,490.0
497.0,496.0
509.0,498.0
509.0,495.0
517.0,507.0
522.0,510.0
522.0,517.0
519.0,513.0
510.0,505.0
513.0,504.0
503.0,510.0
499.0,508.0
513.0,501.0
505.0,495.0
502.0,490.0
500.0,493.0
499.0,493.0
506.0,492.0
509.0,498.0
509.0,493.0
516.0,502.0
519.0,499.0
525.0,517.0
522.0,513.0
524.0,519.0
514.0,507.0
513.0,511.0
497.0,510.0
510.0,503.0
505.0,504.0
500.0,490.0
497.0,498.0
496.0,491.0
495.0,490.0
497.0,488.0
505.0,501.0
506.0,502.0
522.0,509.0
518.0,511.0
523.0,516.0
518.0,515.0
511.0,511.0
520.0,511.0
516.0,511.0
518.0,504.0
516.0,500.0
511.0,503.0
501.0,501.0
500.0,496.0
494.0,494.0
501.0,491.0
502.0,489.0
506.0,494.0
516.0,504.0
516.0,510.0
517.0,512.0
523.0,516.0
518.0,510.0
511.0,511.0
508.0,497.0
505.0,509.0
505.0,501.0
496.0,508.0
494.0,506.0
503.0,495.0
500.0,484.0
504.0,492.0
499.0,485.0
505.0,499.0
513.0,502.0
519.0,509.0
528.0,515.0
526.0,513.0
524.0,514.0
513.0,508.0
519.0,512.0
504.0,503.0
505.0,500.0
501.0,507.0
500.0,504.0
504.0,500.0
503.0,496.0
496.0,495.0
492.0,496.0
502.0,494.0
510.0,497.0
514.0,501.0
516.0,508.0
524.0,509.0
528.0,518.0
524.0,515.0
514.0,506.0
507.0,504.0
507.0,498.0
506.0,499.0
499.0,507.0
500.0,507.0
501.0,501.0
502.0,490.0
502.0,500.0
495.0,502.0
502.0,489.0
515.0,489.0
520.0,494.0
520.0,505.0
533.0,515.0
529.0,522.0
521.0,518.0
514.0,499.0
507.0,501.0
502.0,499.0
502.0,505.0
499.0,497.0
499.0,502.0
501.0,500.0
497.0,495.0
490.0,495.0
500.0,491.0
507.0,497.0
514.0,502.0
521.0,507.0
529.0,511.0
529.0,510.0
528.0,517.0
520.0,509.0
516.0,511.0
506.0,508.0
502.0,508.0
507.0,501.0
504.0,502.0
505.0,497.0
504.0,497.0
496.0,497.0
496.0,493.0
504.0,494.0
508.0,493.0
514.0,492.0
523.0,504.0
528.0,511.0
530.0,516.0
522.0,511.0
521.0,513.0
517.0,503.0
506.0,515.0
506.0,501.0
502.0,508.0
494.0,503.0
494.0,498.0
495.0,493.0
495.0,491.0
505.0,491.0
503.0,498.0
509.0,497.0
513.0,499.0
515.0,512.0
519.0,511.0
524.0,516.0
514.0,509.0
516.0,512.0
506.0,503.0
507.0,508.0
501.0,503.0
504.0,504.0
509.0,498.0
509.0,494.0
505.0,492.0
505.0,490.0
502.0,492.0
511.0,488.0
508.0,499.0
517.0,496.0
516.0,510.0
523.0,514.0
522.0,517.0
516.0,506.0
513.0,512.0
501.0,510.0
505.0,490.0
502.0,505.0
504.0,494.0
497.0,502.0
494.0,501.0
497.0,496.0
496.0,494.0
486.0,496.0
503.0,496.0
519.0,503.0
520.0,514.0
524.0,513.0
520.0,509.0
522.0,517.0
516.0,511.0
516.0,511.0
509.0,505.0
503.0,506.0
503.0,496.0
502.0,494.0
494.0,504.0
498.0,493.0
498.0,496.0
499.0,492.0
503.0,494.0
513.0,502.0
513.0,504.0
520.0,507.0
525.0,508.0
523.0,518.0
519.0,514.0
509.0,509.0
503.0,517.0
497.0,512.0
507.0,505.0
503.0,493.0
500.0,507.0
497.0,500.0
505.0,493.0
498.0,482.0
491.0,500.0
504.0,490.0
513.0,501.0
511.0,505.0
523.0,511.0
526.0,512.0
518.0,511.0
519.0,512.0
514.0,514.0
502.0,511.0
504.0,508.0
495.0,500.0
501.0,504.0
513.0,496.0
506.0,494.0
503.0,496.0
500.0,493.0
505.0,493.0
500.0,501.0
513.0,501.0
523.0,511.0
527.0,510.0
528.0,516.0
523.0,509.0
513.0,510.0
506.0,504.0
498.0,508.0
503.0,496.0
497.0,507.0
505.0,498.0
500.0,490.0
499.0,491.0
497.0,490.0
497.0,485.0
504.0,491.0
510.0,497.0
514.0,503.0
520.0,516.0
522.0,518.0
511.0,511.0
512.0,513.0
513.0,506.0
511.0,506.0
497.0,510.0
517.0,500.0
513.0,496.0
514.0,498.0
514.0,492.0
509.0,493.0
499.0,491.0
486.0,501.0
497.0,495.0
509.0,510.0
522.0,513.0
524.0,513.0
525.0,514.0
525.0,512.0
512.0,512.0
512.0,515.0
503.0,525.0
502.0,505.0
493.0,500.0
507.0,495.0
509.0,496.0
507.0,496.0
500.0,477.0
492.0,488.0
501.0,484.0
504.0,498.0
516.0,508.0
524.0,514.0
520.0,498.0
521.0,496.0
524.0,507.0
510.0,507.0
512.0,503.0
509.0,511.0
515.0,508.0
510.0,507.0
502.0,493.0
492.0,494.0
505.0,487.0
498.0,493.0
501.0,492.0
504.0,497.0
505.0,498.0
511.0,503.0
518.0,512.0
519.0,513.0
524.0,518.0
523.0,513.0
510.0,511.0
511.0,511.0
501.0,510.0
510.0,504.0
491.0,504.0
496.0,498.0
489.0,494.0
476.0,495.0
486.0,495.0
496.0,487.0
505.0,488.0
520.0,499.0
527.0,502.0
545.0,513.0
545.0,517.0
531.0,517.0
522.0,509.0
517.0,504.0
501.0,513.0
505.0,501.0
497.0,507.0
507.0,499.0
502.0,493.0
500.0,497.0
519.0,491.0
515.0,487.0
528.0,492.0
527.0,492.0
525.0,500.0
529.0,505.0
526.0,509.0
526.0,515.0
504.0,507.0
507.0,511.0
504.0,503.0
513.0,507.0
510.0,503.0
504.0,496.0
500.0,503.0
499.0,496.0
492.0,485.0
492.0,487.0
506.0,492.0
500.0,501.0
515.0,501.0
519.0,504.0
521.0,510.0
522.0,514.0
523.0,510.0
520.0,516.0
515.0,507.0
511.0,511.0
496.0,513.0
502.0,508.0
514.0,501.0
510.0,497.0
501.0,500.0
503.0,494.0
505.0,490.0
504.0,493.0
510.0,498.0
507.0,500.0
520.0,500.0
522.0,507.0
525.0,516.0
525.0,515.0
515.0,510.0
516.0,512.0
505.0,514.0
505.0,497.0
499.0,506.0
509.0,499.0
504.0,497.0
503.0,497.0
494.0,495.0
492.0,496.0
499.0,487.0
504.0,492.0
512.0,507.0
523.0,507.0
527.0,512.0
528.0,510.0
527.0,513.0
516.0,513.0
501.0,510.0
505.0,504.0
507.0,501.0
505.0,491.0
499.0,499.0
502.0,497.0
501.0,496.0
505.0,495.0
503.0,489.0
501.0,497.0
511.0,500.0
517.0,505.0
520.0,509.0
527.0,511.0
524.0,505.0
517.0,513.0
517.0,504.0
512.0,509.0
497.0,509.0
514.0,502.0
502.0,500.0
501.0,504.0
497.0,500.0
501.0,493.0
500.0,490.0
494.0,489.0
505.0,493.0
500.0,500.0
514.0,512.0
513.0,512.0
516.0,518.0
511.0,505.0
512.0,499.0
517.0,506.0
519.0,516.0
524.0,510.0
509.0,511.0
515.0,496.0
504.0,503.0
494.0,498.0
499.0,498.0
508.0,491.0
511.0,493.0
515.0,496.0
524.0,505.0
529.0,512.0
529.0,515.0
513.0,513.0
511.0,511.0
509.0,509.0
504.0,505.0
502.0,498.0
504.0,500.0
504.0,492.0
492.0,502.0
495.0,498.0
496.0,493.0
493.0,492.0
490.0,496.0
492.0,488.0
499.0,490.0
503.0,510.0
524.0,511.0
536.0,515.0
529.0,514.0
516.0,507.0
518.0,510.0
512.0,507.0
512.0,505.0
512.0,495.0
513.0,501.0
519.0,496.0
514.0,494.0
507.0,494.0
502.0,497.0
496.0,496.0
508.0,494.0
506.0,503.0
513.0,505.0
517.0,512.0
523.0,516.0
521.0,513.0
518.0,512.0
513.0,509.0
509.0,507.0
502.0,506.0
502.0,505.0
498.0,505.0
497.0,506.0
498.0,500.0
497.0,491.0
496.0,500.0
497.0,494.0
502.0,484.0
512.0,498.0
516.0,509.0
514.0,508.0
516.0,519.0
520.0,518.0
506.0,511.0
516.0,504.0
503.0,498.0
498.0,506.0
505.0,506.0
511.0,502.0
512.0,500.0
506.0,492.0
495.0,474.0
503.0,486.0
502.0,488.0
510.0,490.0
512.0,504.0
522.0,508.0
514.0,513.0
522.0,516.0
518.0,508.0
519.0,513.0
510.0,509.0
502.0,497.0
507.0,501.0
505.0,501.0
506.0,499.0
509.0,495.0
501.0,496.0
504.0,494.0
505.0,497.0
507.0,496.0
504.0,505.0
515.0,504.0
523.0,510.0
516.0,508.0
519.0,512.0
513.0,513.0
511.0,512.0
510.0,509.0
508.0,505.0
511.0,502.0
507.0,493.0
502.0,498.0
503.0,494.0
491.0,492.0
493.0,491.0
495.0,496.0
503.0,496.0
513.0,505.0
518.0,504.0
529.0,513.0
521.0,514.0
522.0,515.0
514.0,506.0
516.0,508.0
514.0,506.0
509.0,498.0
511.0,499.0
496.0,503.0
500.0,500.0
499.0,499.0
497.0,492.0
505.0,495.0
509.0,487.0
512.0,496.0
506.0,493.0
518.0,507.0
525.0,513.0
531.0,518.0
523.0,516.0
522.0,511.0
505.0,510.0
511.0,504.0
502.0,500.0
500.0,492.0
501.0,504.0
514.0,499.0
503.0,495.0
486.0,488.0
491.0,494.0
504.0,505.0
512.0,502.0
517.0,501.0
523.0,510.0
523.0,513.0
518.0,512.0
516.0,506.0
512.0,511.0
507.0,506.0
502.0,505.0
497.0,499.0
496.0,505.0
498.0,501.0
484.0,489.0
496.0,484.0
499.0,491.0
505.0,490.0
515.0,498.0
525.0,505.0
530.0,499.0
536.0,506.0
537.0,514.0
521.0,506.0
523.0,508.0
508.0,507.0
499.0,499.0
497.0,496.0
498.0,509.0
515.0,497.0
509.0,496.0
506.0,492.0
507.0,488.0
499.0,496.0
511.0,490.0
509.0,505.0
516.0,506.0
518.0,511.0
519.0,509.0
525.0,514.0
515.0,502.0
517.0,513.0
508.0,509.0
500.0,508.0
509.0,501.0
505.0,497.0
503.0,495.0
493.0,499.0
495.0,493.0
495.0,491.0
501.0,492.0
505.0,498.0
512.0,501.0
519.0,510.0
520.0,511.0
528.0,515.0
527.0,516.0
521.0,508.0
512.0,507.0
514.0,506.0
505.0,506.0
497.0,505.0
504.0,497.0
501.0,495.0
494.0,494.0
480.0,498.0
497.0,492.0
502.0,491.0
508.0,501.0
510.0,504.0
518.0,508.0
524.0,517.0
516.0,508.0
518.0,515.0
519.0,513.0
496.0,510.0
499.0,507.0
494.0,497.0
487.0,504.0
491.0,499.0
490.0,495.0
506.0,490.0
511.0,487.0
520.0,487.0
518.0,500.0
529.0,499.0
534.0,512.0
531.0,507.0
532.0,508.0
533.0,505.0
531.0,510.0
528.0,516.0
519.0,516.0
509.0,500.0
496.0,505.0
504.0,499.0
493.0,493.0
491.0,503.0
479.0,503.0
494.0,482.0
491.0,489.0
497.0,477.0
506.0,498.0
508.0,501.0
514.0,504.0
516.0,513.0
509.0,513.0
505.0,510.0
496.0,506.0
505.0,513.0
495.0,512.0
508.0,508.0
500.0,507.0
509.0,487.0
510.0,480.0
512.0,484.0
518.0,492.0
506.0,488.0
512.0,498.0
520.0,503.0
519.0,507.0
525.0,517.0
523.0,517.0
527.0,519.0
516.0,510.0
521.0,509.0
511.0,497.0
504.0,506.0
506.0,498.0
510.0,494.0
507.0,485.0
505.0,494.0
504.0,484.0
501.0,506.0
504.0,498.0
508.0,499.0
520.0,506.0
529.0,512.0
527.0,521.0
518.0,515.0
525.0,524.0
518.0,518.0
497.0,518.0
490.0,508.0
501.0,495.0
501.0,502.0
498.0,491.0
500.0,493.0
489.0,496.0
504.0,490.0
503.0,492.0
509.0,503.0
509.0,506.0
524.0,509.0
520.0,511.0
527.0,515.0
520.0,513.0
514.0,512.0
506.0,517.0
502.0,505.0
499.0,507.0
501.0,507.0
499.0,499.0
505.0,497.0
503.0,498.0
503.0,484.0
509.0,491.0
510.0,492.0
518.0,493.0
526.0,505.0
528.0,505.0
528.0,515.0
522.0,516.0
519.0,514.0
512.0,517.0
499.0,509.0
502.0,503.0
498.0,509.0
513.0,498.0
503.0,494.0
495.0,491.0
502.0,486.0
500.0,484.0
487.0,491.0
504.0,499.0
507.0,502.0
518.0,515.0
514.0,527.0
511.0,524.0
501.0,515.0
501.0,507.0
495.0,505.0
511.0,497.0
517.0,497.0
519.0,506.0
522.0,513.0
515.0,513.0
519.0,491.0
512.0,486.0
510.0,475.0
497.0,491.0
494.0,501.0
507.0,504.0
522.0,503.0
531.0,509.0
533.0,511.0
544.0,515.0
548.0,519.0
526.0,528.0
493.0,534.0
488.0,526.0
524.0,501.0
518.0,483.0
517.0,482.0
514.0,487.0
484.0,496.0
483.0,489.0
489.0,492.0
493.0,494.0
489.0,495.0
505.0,499.0
520.0,501.0
518.0,505.0
523.0,509.0
536.0,509.0
540.0,518.0
496.0,514.0
472.0,500.0
453.0,488.0
492.0,490.0
482.0,485.0
490.0,493.0
516.0,497.0
523.0,507.0
522.0,499.0
529.0,499.0
541.0,517.0
536.0,529.0
529.0,526.0
514.0,510.0
506.0,513.0
501.0,514.0
506.0,496.0
502.0,481.0
493.0,491.0
505.0,506.0
487.0,511.0
499.0,501.0
517.0,496.0
509.0,471.0
506.0,481.0
505.0,479.0
512.0,488.0
517.0,503.0
516.0,518.0
516.0,515.0
517.0,514.0
515.0,510.0
516.0,497.0
509.0,492.0
515.0,495.0
520.0,505.0
521.0,508.0
525.0,508.0
534.0,506.0
533.0,492.0
510.0,491.0
458.0,493.0
448.0,500.0
465.0,504.0
497.0,506.0
521.0,507.0
526.0,507.0
528.0,511.0
529.0,515.0
516.0,515.0
504.0,515.0
510.0,513.0
501.0,501.0
480.0,496.0
480.0,487.0
483.0,501.0
499.0,491.0
499.0,490.0
515.0,491.0
515.0,494.0
534.0,509.0
534.0,507.0
511.0,508.0
489.0,509.0
511.0,503.0
513.0,508.0
494.0,512.0
488.0,497.0
491.0,504.0
481.0,502.0
483.0,507.0
504.0,497.0
520.0,493.0
526.0,486.0
529.0,491.0
539.0,494.0
541.0,503.0
542.0,511.0
544.0,527.0
524.0,515.0
491.0,498.0
495.0,503.0
514.0,507.0
517.0,509.0
524.0,505.0
518.0,495.0
507.0,492.0
488.0,503.0
481.0,505.0
492.0,489.0
496.0,490.0
502.0,490.0
526.0,492.0
545.0,499.0
566.0,510.0
549.0,526.0
547.0,527.0
516.0,514.0
452.0,507.0
449.0,500.0
467.0,487.0
442.0,480.0
470.0,491.0
492.0,489.0
499.0,510.0
535.0,520.0
541.0,499.0
518.0,485.0
509.0,495.0
509.0,510.0
517.0,505.0
534.0,512.0
549.0,511.0
536.0,509.0
539.0,513.0
526.0,514.0
506.0,521.0
512.0,508.0
504.0,508.0
495.0,497.0
508.0,478.0
493.0,494.0
503.0,490.0
510.0,498.0
513.0,495.0
518.0,490.0
529.0,499.0
546.0,509.0
533.0,516.0
528.0,525.0
512.0,525.0
455.0,516.0
478.0,517.0
505.0,520.0
494.0,476.0
486.0,476.0
496.0,506.0
494.0,514.0
497.0,510.0
494.0,509.0
492.0,493.0
517.0,492.0
541.0,495.0
551.0,496.0
558.0,502.0
566.0,507.0
546.0,514.0
527.0,513.0
494.0,509.0
469.0,515.0
445.0,511.0
453.0,501.0
459.0,503.0
483.0,491.0
513.0,484.0
517.0,477.0
517.0,495.0
505.0,505.0
491.0,497.0
515.0,505.0
535.0,517.0
520.0,500.0
514.0,507.0
502.0,506.0
497.0,508.0
509.0,515.0
531.0,522.0
515.0,508.0
512.0,515.0
523.0,501.0
490.0,500.0
489.0,485.0
500.0,494.0
491.0,497.0
518.0,501.0
524.0,513.0
513.0,519.0
518.0,516.0
505.0,501.0
502.0,525.0
532.0,519.0
571.0,516.0
578.0,515.0
550.0,488.0
554.0,516.0
556.0,507.0
484.0,491.0
487.0,487.0
489.0,498.0
460.0,527.0
460.0,507.0
441.0,469.0
469.0,481.0
534.0,492.0
566.0,499.0
562.0,495.0
515.0,515.0
488.0,519.0
519.0,493.0
547.0,493.0
540.0,490.0
532.0,494.0
503.0,499.0
482.0,503.0
477.0,492.0
482.0,490.0
496.0,505.0
489.0,527.0
492.0,503.0
518.0,491.0
527.0,516.0
518.0,509.0
530.0,496.0
498.0,494.0
513.0,516.0
503.0,519.0
509.0,518.0
480.0,503.0
491.0,497.0
508.0,503.0
570.0,506.0
568.0,503.0
521.0,489.0
488.0,488.0
511.0,493.0
492.0,492.0
463.0,484.0
489.0,492.0
519.0,507.0
529.0,513.0
528.0,515.0
524.0,524.0
515.0,555.0
492.0,559.0
477.0,510.0
469.0,460.0
491.0,462.0
512.0,528.0
522.0,511.0
511.0,470.0
494.0,471.0
519.0,470.0
466.0,479.0
492.0,489.0
498.0,516.0
500.0,533.0
507.0,539.0
521.0,534.0
537.0,521.0
537.0,489.0
514.0,512.0
529.0,524.0
532.0,515.0
520.0,492.0
504.0,482.0
491.0,489.0
481.0,497.0
489.0,485.0
482.0,486.0
515.0,491.0
577.0,497.0
590.0,515.0
585.0,525.0
514.0,521.0
515.0,491.0
529.0,511.0
514.0,531.0
516.0,533.0
463.0,533.0
427.0,522.0
453.0,490.0
490.0,463.0
506.0,472.0
516.0,493.0
495.0,486.0
504.0,492.0
486.0,526.0
504.0,528.0
541.0,503.0
534.0,462.0
523.0,471.0
518.0,539.0
501.0,559.0
496.0,533.0
531.0,486.0
562.0,470.0
559.0,504.0
595.0,500.0
553.0,489.0
447.0,510.0
430.0,480.0
491.0,480.0
503.0,492.0
556.0,508.0
505.0,543.0
465.0,523.0
458.0,483.0
491.0,487.0
500.0,531.0
502.0,528.0
529.0,502.0
534.0,485.0
511.0,497.0
477.0,512.0
528.0,512.0
516.0,512.0
490.0,496.0
501.0,531.0
543.0,486.0
532.0,457.0
522.0,478.0
497.0,491.0
503.0,501.0
503.0,503.0
540.0,504.0
515.0,518.0
529.0,513.0
528.0,501.0
511.0,490.0
523.0,484.0
545.0,489.0
494.0,515.0
457.0,504.0
452.0,488.0
463.0,496.0
488.0,510.0
539.0,508.0
519.0,512.0
507.0,505.0
488.0,506.0
520.0,526.0
572.0,560.0
604.0,580.0
557.0,552.0
518.0,482.0
502.0,493.0
460.0,470.0
484.0,479.0
471.0,451.0
432.0,473.0
453.0,485.0
518.0,524.0
561.0,521.0
548.0,504.0
534.0,505.0
505.0,514.0
482.0,506.0
495.0,495.0
527.0,498.0
555.0,512.0
567.0,498.0
565.0,492.0
498.0,486.0
452.0,505.0
491.0,515.0
492.0,519.0
502.0,487.0
483.0,512.0
497.0,486.0
478.0,468.0
475.0,494.0
476.0,504.0
499.0,500.0
517.0,524.0
497.0,528.0
470.0,522.0
488.0,542.0
528.0,535.0
581.0,492.0
637.0,469.0
556.0,478.0
459.0,506.0
524.0,517.0
536.0,515.0
494.0,506.0
548.0,492.0
596.0,506.0
491.0,492.0
503.0,505.0
513.0,493.0
520.0,465.0
501.0,494.0
467.0,517.0
504.0,499.0
430.0,497.0
400.0,502.0
413.0,512.0
439.0,502.0
452.0,480.0
502.0,487.0
542.0,499.0
563.0,508.0
593.0,504.0
562.0,497.0
515.0,513.0
489.0,515.0
422.0,514.0
399.0,524.0
359.0,528.0
460.0,519.0
511.0,515.0
610.0,493.0
701.0,500.0
622.0,492.0
506.0,496.0
480.0,510.0
453.0,535.0
510.0,482.0
555.0,493.0
588.0,490.0
563.0,508.0
574.0,530.0
577.0,514.0
584.0,468.0
493.0,467.0
449.0,492.0
452.0,494.0
478.0,491.0
489.0,514.0
463.0,519.0
484.0,505.0
481.0,496.0
481.0,499.0
499.0,503.0
519.0,496.0
497.0,508.0
422.0,498.0
404.0,511.0
482.0,512.0
491.0,520.0
563.0,530.0
547.0,530.0
515.0,519.0
500.0,505.0
508.0,478.0
545.0,487.0
586.0,547.0
611.0,543.0
511.0,486.0
362.0,448.0
444.0,478.0
498.0,483.0
438.0,496.0
455.0,546.0
504.0,541.0
560.0,513.0
544.0,456.0
520.0,470.0
496.0,503.0
507.0,515.0
538.0,526.0
507.0,519.0
460.0,506.0
524.0,509.0
506.0,524.0
551.0,487.0
664.0,454.0
680.0,464.0
584.0,493.0
579.0,517.0
519.0,516.0
402.0,506.0
450.0,504.0
459.0,531.0
471.0,524.0
442.0,519.0
397.0,499.0
438.0,513.0
478.0,513.0
491.0,498.0
532.0,483.0
485.0,480.0
501.0,483.0
547.0,497.0
513.0,512.0
534.0,514.0
467.0,479.0
440.0,474.0
475.0,502.0
529.0,539.0
557.0,537.0
565.0,521.0
512.0,490.0
509.0,506.0
526.0,503.0
521.0,494.0
511.0,498.0
510.0,457.0
477.0,463.0
498.0,494.0
561.0,508.0
611.0,509.0
608.0,508.0
503.0,516.0
518.0,525.0
542.0,507.0
509.0,465.0
466.0,464.0
484.0,501.0
488.0,525.0
483.0,507.0
472.0,493.0
476.0,503.0
470.0,515.0
475.0,493.0
483.0,522.0
484.0,528.0
494.0,536.0
475.0,514.0
524.0,443.0
535.0,484.0
552.0,490.0
571.0,512.0
570.0,514.0
511.0,520.0
480.0,533.0
523.0,521.0
541.0,506.0
509.0,482.0
482.0,461.0
453.0,467.0
526.0,482.0
541.0,500.0
514.0,504.0
510.0,493.0
499.0,488.0
509.0,503.0
487.0,501.0
480.0,520.0
544.0,532.0
473.0,528.0
459.0,507.0
526.0,501.0
536.0,493.0
529.0,501.0
493.0,494.0
452.0,479.0
458.0,489.0
489.0,491.0
499.0,492.0
485.0,488.0
512.0,507.0
520.0,517.0
532.0,497.0
607.0,503.0
635.0,552.0
572.0,577.0
537.0,568.0
579.0,526.0
567.0,465.0
528.0,470.0
507.0,466.0
458.0,499.0
505.0,511.0
510.0,510.0
469.0,496.0
446.0,464.0
463.0,465.0
454.0,465.0
479.0,490.0
499.0,516.0
504.0,511.0
520.0,513.0
515.0,516.0
494.0,509.0
534.0,501.0
495.0,509.0
449.0,521.0
474.0,528.0
496.0,477.0
538.0,474.0
551.0,486.0
544.0,496.0
479.0,509.0
479.0,499.0
494.0,489.0
494.0,493.0
500.0,494.0
525.0,513.0
559.0,513.0
554.0,494.0
522.0,485.0
535.0,511.0
455.0,528.0
458.0,520.0
546.0,510.0
574.0,501.0
519.0,498.0
492.0,506.0
465.0,511.0
469.0,513.0
491.0,506.0
494.0,526.0
533.0,528.0
548.0,482.0
539.0,467.0
555.0,502.0
607.0,512.0
596.0,507.0
480.0,508.0
363.0,481.0
427.0,489.0
439.0,497.0
444.0,494.0
485.0,491.0
512.0,490.0
514.0,519.0
527.0,514.0
535.0,486.0
582.0,484.0
582.0,496.0
509.0,528.0
464.0,589.0
454.0,566.0
487.0,473.0
535.0,438.0
600.0,485.0
587.0,497.0
493.0,492.0
471.0,497.0
443.0,492.0
446.0,488.0
407.0,489.0
460.0,483.0
496.0,485.0
568.0,492.0
588.0,497.0
548.0,523.0
509.0,541.0
511.0,553.0
559.0,526.0
560.0,498.0
496.0,493.0
487.0,504.0
497.0,514.0
501.0,515.0
546.0,509.0
568.0,508.0
522.0,513.0
476.0,493.0
445.0,462.0
489.0,470.0
508.0,502.0
505.0,512.0
566.0,505.0
597.0,507.0
557.0,510.0
552.0,516.0
489.0,501.0
443.0,486.0
450.0,511.0
458.0,513.0
517.0,505.0
520.0,500.0
548.0,487.0
556.0,484.0
475.0,481.0
438.0,484.0
390.0,513.0
514.0,511.0
631.0,524.0
646.0,515.0
615.0,504.0
542.0,502.0
392.0,508.0
390.0,505.0
457.0,511.0
446.0,495.0
412.0,469.0
439.0,487.0
484.0,502.0
479.0,504.0
487.0,495.0
512.0,501.0
524.0,525.0
585.0,519.0
626.0,492.0
625.0,505.0
586.0,519.0
541.0,509.0
503.0,505.0
492.0,506.0
469.0,495.0
486.0,493.0
534.0,497.0
554.0,491.0
579.0,500.0
520.0,495.0
396.0,490.0
313.0,481.0
370.0,486.0
455.0,479.0
574.0,498.0
653.0,509.0
610.0,513.0
542.0,514.0
535.0,518.0
569.0,514.0
532.0,511.0
527.0,503.0
527.0,497.0
520.0,536.0
515.0,539.0
502.0,500.0
464.0,464.0
442.0,461.0
488.0,470.0
505.0,480.0
499.0,514.0
490.0,528.0
525.0,514.0
504.0,479.0
548.0,473.0
607.0,516.0
624.0,529.0
600.0,532.0
515.0,525.0
370.0,496.0
388.0,493.0
512.0,507.0
527.0,515.0
536.0,513.0
520.0,490.0
454.0,465.0
448.0,469.0
450.0,480.0
438.0,494.0
487.0,510.0
509.0,530.0
542.0,525.0
563.0,517.0
567.0,519.0
548.0,540.0
531.0,503.0
521.0,491.0
502.0,512.0
499.0,485.0
480.0,472.0
450.0,467.0
458.0,473.0
521.0,491.0
507.0,494.0
490.0,501.0
442.0,499.0
431.0,502.0
472.0,509.0
510.0,509.0
556.0,520.0
613.0,519.0
587.0,525.0
501.0,515.0
406.0,514.0
451.0,502.0
496.0,469.0
506.0,457.0
528.0,479.0
544.0,488.0
537.0,485.0
549.0,492.0
581.0,500.0
536.0,509.0
494.0,521.0
521.0,515.0
527.0,518.0
517.0,517.0
508.0,510.0
515.0,504.0
532.0,517.0
527.0,503.0
534.0,487.0
528.0,504.0
458.0,487.0
455.0,485.0
464.0,472.0
440.0,475.0
414.0,490.0
561.0,522.0
609.0,525.0
535.0,514.0
544.0,489.0
593.0,520.0
588.0,537.0
558.0,518.0
495.0,494.0
488.0,498.0
402.0,506.0
421.0,498.0
456.0,477.0
460.0,481.0
461.0,484.0
452.0,490.0
435.0,479.0
482.0,481.0
529.0,496.0
568.0,521.0
534.0,554.0
538.0,532.0
550.0,472.0
555.0,479.0
544.0,508.0
517.0,508.0
504.0,517.0
477.0,531.0
453.0,516.0
432.0,461.0
427.0,477.0
457.0,479.0
489.0,468.0
522.0,475.0
639.0,503.0
626.0,533.0
637.0,523.0
638.0,508.0
540.0,510.0
441.0,512.0
460.0,520.0
487.0,506.0
488.0,501.0
529.0,499.0
536.0,496.0
506.0,493.0
479.0,505.0
494.0,498.0
469.0,518.0
459.0,505.0
486.0,486.0
533.0,502.0
540.0,525.0
504.0,510.0
495.0,505.0
484.0,510.0
523.0,509.0
519.0,497.0
521.0,502.0
511.0,516.0
531.0,507.0
510.0,475.0
522.0,468.0
473.0,499.0
480.0,497.0
457.0,500.0
449.0,495.0
480.0,503.0
540.0,516.0
551.0,513.0
514.0,512.0
515.0,495.0
547.0,505.0
582.0,506.0
612.0,505.0
581.0,495.0
509.0,504.0
479.0,501.0
506.0,502.0
506.0,486.0
491.0,481.0
466.0,485.0
466.0,492.0
529.0,503.0
552.0,510.0
570.0,509.0
568.0,517.0
489.0,528.0
440.0,512.0
519.0,502.0
507.0,521.0
529.0,537.0
496.0,517.0
460.0,515.0
510.0,483.0
511.0,494.0
452.0,501.0
454.0,493.0
497.0,498.0
489.0,487.0
496.0,485.0
563.0,496.0
552.0,509.0
525.0,522.0
515.0,515.0
526.0,521.0
520.0,513.0
505.0,494.0
500.0,492.0
503.0,490.0
504.0,502.0
460.0,498.0
418.0,503.0
446.0,494.0
448.0,480.0
458.0,491.0
535.0,498.0
552.0,505.0
594.0,513.0
615.0,546.0
621.0,554.0
616.0,541.0
548.0,506.0
520.0,502.0
525.0,516.0
481.0,494.0
463.0,475.0
486.0,475.0
480.0,481.0
484.0,488.0
487.0,475.0
478.0,478.0
477.0,491.0
488.0,496.0
483.0,502.0
483.0,522.0
526.0,512.0
530.0,508.0
533.0,500.0
524.0,494.0
510.0,505.0
524.0,509.0
531.0,514.0
553.0,500.0
541.0,501.0
549.0,505.0
535.0,498.0
521.0,477.0
500.0,480.0
482.0,494.0
432.0,505.0
398.0,510.0
430.0,505.0
464.0,521.0
539.0,516.0
597.0,522.0
617.0,534.0
557.0,512.0
500.0,487.0
513.0,490.0
521.0,506.0
536.0,494.0
519.0,497.0
491.0,497.0
477.0,499.0
488.0,500.0
504.0,509.0
518.0,491.0
512.0,499.0
511.0,505.0
497.0,503.0
491.0,494.0
515.0,510.0
511.0,515.0
494.0,509.0
497.0,502.0
494.0,497.0
479.0,497.0
491.0,501.0
523.0,512.0
509.0,533.0
464.0,520.0
472.0,454.0
489.0,465.0
514.0,505.0
594.0,511.0
618.0,493.0
583.0,497.0
570.0,497.0
551.0,505.0
503.0,513.0
477.0,511.0
472.0,500.0
487.0,498.0
519.0,482.0
561.0,491.0
568.0,502.0
508.0,504.0
441.0,485.0
454.0,488.0
466.0,502.0
465.0,501.0
465.0,507.0
461.0,511.0
480.0,519.0
500.0,526.0
533.0,532.0
551.0,510.0
549.0,486.0
533.0,493.0
541.0,492.0
521.0,483.0
502.0,478.0
501.0,491.0
469.0,501.0
452.0,494.0
470.0,482.0
499.0,488.0
534.0,514.0
557.0,521.0
546.0,518.0
563.0,529.0
549.0,511.0
524.0,504.0
520.0,498.0
503.0,508.0
517.0,523.0
532.0,511.0
538.0,477.0
540.0,461.0
495.0,493.0
480.0,487.0
452.0,494.0
453.0,495.0
492.0,503.0
521.0,503.0
526.0,509.0
507.0,517.0
501.0,522.0
515.0,506.0
525.0,512.0
515.0,524.0
501.0,516.0
513.0,503.0
515.0,504.0
516.0,488.0
500.0,485.0
515.0,497.0
522.0,496.0
516.0,490.0
524.0,494.0
502.0,497.0
509.0,499.0
498.0,507.0
492.0,509.0
453.0,512.0
439.0,527.0
494.0,525.0
521.0,501.0
611.0,476.0
606.0,499.0
586.0,508.0
560.0,503.0
511.0,489.0
406.0,496.0
405.0,476.0
474.0,487.0
500.0,492.0
533.0,511.0
538.0,503.0
558.0,492.0
567.0,501.0
552.0,492.0
518.0,507.0
523.0,505.0
514.0,517.0
504.0,532.0
519.0,505.0
485.0,492.0
488.0,491.0
498.0,484.0
506.0,498.0
490.0,501.0
474.0,506.0
504.0,497.0
503.0,504.0
513.0,507.0
537.0,518.0
553.0,518.0
554.0,520.0
532.0,518.0
509.0,507.0
445.0,506.0
435.0,499.0
485.0,506.0
512.0,502.0
518.0,490.0
529.0,487.0
498.0,501.0
533.0,497.0
523.0,517.0
519.0,521.0
503.0,531.0
523.0,495.0
510.0,469.0
500.0,480.0
515.0,516.0
534.0,507.0
512.0,504.0
523.0,509.0
529.0,500.0
488.0,505.0
469.0,493.0
466.0,485.0
493.0,493.0
499.0,491.0
504.0,497.0
523.0,506.0
510.0,517.0
502.0,533.0
490.0,530.0
476.0,507.0
497.0,493.0
518.0,506.0
530.0,506.0
525.0,500.0
518.0,501.0
511.0,502.0
521.0,506.0
536.0,506.0
556.0,496.0
539.0,482.0
493.0,490.0
522.0,494.0
521.0,505.0
522.0,508.0
557.0,516.0
549.0,524.0
523.0,527.0
442.0,523.0
479.0,531.0
482.0,499.0
470.0,479.0
501.0,500.0
513.0,492.0
508.0,481.0
479.0,487.0
483.0,492.0
499.0,482.0
518.0,491.0
519.0,499.0
529.0,502.0
526.0,510.0
529.0,515.0
536.0,506.0
512.0,500.0
496.0,522.0
477.0,518.0
502.0,510.0
474.0,499.0
489.0,504.0
520.0,501.0
513.0,501.0
511.0,491.0
517.0,483.0
521.0,472.0
517.0,487.0
492.0,506.0
479.0,504.0
484.0,513.0
496.0,500.0
564.0,509.0
595.0,513.0
588.0,498.0
586.0,499.0
534.0,501.0
457.0,495.0
421.0,506.0
425.0,506.0
429.0,497.0
456.0,491.0
497.0,493.0
531.0,498.0
545.0,504.0
529.0,512.0
523.0,530.0
529.0,516.0
528.0,499.0
509.0,493.0
502.0,522.0
499.0,505.0
504.0,505.0
505.0,498.0
494.0,504.0
500.0,498.0
518.0,495.0
522.0,492.0
507.0,492.0
504.0,506.0
507.0,507.0
503.0,523.0
516.0,524.0
528.0,515.0
523.0,494.0
525.0,493.0
515.0,505.0
493.0,505.0
452.0,509.0
475.0,504.0
506.0,501.0
514.0,496.0
524.0,497.0
514.0,494.0
494.0,494.0
516.0,491.0
510.0,501.0
507.0,492.0
520.0,492.0
533.0,499.0
532.0,503.0
549.0,501.0
567.0,512.0
553.0,514.0
517.0,516.0
488.0,508.0
486.0,494.0
509.0,491.0
530.0,496.0
533.0,498.0
532.0,504.0
505.0,491.0
509.0,497.0
516.0,506.0
502.0,503.0
436.0,506.0
440.0,505.0
438.0,505.0
460.0,512.0
480.0,510.0
522.0,512.0
540.0,501.0
530.0,503.0
524.0,508.0
526.0,508.0
535.0,520.0
525.0,511.0
503.0,492.0
498.0,479.0
508.0,485.0
514.0,494.0
526.0,496.0
516.0,497.0
513.0,509.0
520.0,517.0
490.0,511.0
501.0,518.0
507.0,518.0
513.0,515.0
524.0,494.0
518.0,500.0
507.0,500.0
500.0,490.0
498.0,502.0
494.0,497.0
501.0,486.0
503.0,487.0
497.0,488.0
501.0,504.0
509.0,505.0
524.0,512.0
536.0,514.0
527.0,512.0
521.0,512.0
511.0,515.0
512.0,502.0
506.0,503.0
496.0,499.0
492.0,509.0
501.0,502.0
516.0,496.0
533.0,491.0
538.0,494.0
517.0,500.0
473.0,492.0
506.0,505.0
